Time,TimeLsl,Value
1658564107.28289,336457.8705411,0
1658564107.28289,336457.8705604,7
1658564107.28289,336457.8705703,4
1658564107.28289,336457.870579,14
1658564107.28289,336457.8705875,31
1658564107.28289,336457.8705959,26
1658564107.28289,336457.8706084,14
1658564107.28289,336457.8706164,9
1658564107.28289,336457.8706245,12
1658564107.28289,336457.8706318,12
1658564107.28289,336457.8706399,12
1658564107.28289,336457.8706442,19
1658564107.28289,336457.8706522,14
1658564107.28289,336457.8706566,-17
1658564107.28289,336457.8706625,-12
1658564107.28289,336457.8706666,31
1658564107.28289,336457.8706723,36
1658564107.28289,336457.8706774,9
1658564107.28289,336457.8706835,14
1658564107.28289,336457.8706872,19
1658564107.28289,336457.8706934,14
1658564107.28289,336457.8706988,17
1658564107.28289,336457.8707042,31
1658564107.28289,336457.8707088,55
1658564107.28289,336457.8707146,68
1658564107.28289,336457.8707193,65
1658564107.28289,336457.8707247,75
1658564107.28289,336457.8707286,72
1658564107.28289,336457.8707346,58
1658564107.28289,336457.8707394,58
1658564107.28289,336457.8707448,55
1658564107.28289,336457.8707487,46
1658564107.28289,336457.8707546,43
1658564107.28289,336457.8707657,36
1658564107.28289,336457.8707773,34
1658564107.28289,336457.8707904,55
1658564107.28289,336457.8708143,75
1658564107.28289,336457.8708249,58
1658564107.28289,336457.8708315,-29
1658564107.28289,336457.8708394,-114
1658564107.28289,336457.8708439,70
1658564107.28289,336457.8708483,635
1658564107.28289,336457.8708545,1138
1658564107.28289,336457.8708603,1000
1658564107.28289,336457.8708674,265
1658564107.28289,336457.8708727,-257
1658564107.28289,336457.8708835,-109
1658564107.28289,336457.8708946,141
1658564107.28289,336457.8709013,87
1658564107.28289,336457.8709057,34
1658564107.40101,336457.8709119,75
1658564107.40101,336457.870919,63
1658564107.40101,336457.8709321,55
1658564107.40101,336457.8709461,85
1658564107.40101,336457.8709575,92
1658564107.40101,336457.8709726,102
1658564107.40101,336457.8709865,121
1658564107.40101,336457.8709996,124
1658564107.40101,336457.8710082,128
1658564107.40101,336457.8710118,145
1658564107.40101,336457.8710239,155
1658564107.40101,336457.8710336,160
1658564107.40101,336457.8710393,182
1658564107.40101,336457.8710509,206
1658564107.40101,336457.8710629,221
1658564107.40101,336457.8710681,236
1658564107.40101,336457.8710761,255
1658564107.40101,336457.8710891,274
1658564107.40101,336457.8710964,287
1658564107.40101,336457.8711103,282
1658564107.40101,336457.8711194,274
1658564107.40101,336457.8711241,262
1658564107.40101,336457.8711341,228
1658564107.40101,336458.4069401,184
1658564107.40101,336458.4069569,133
1658564107.40101,336458.4069621,65
1658564107.40101,336458.4069664,9
1658564107.40101,336458.4069706,-9
1658564107.40101,336458.4069786,-19
1658564107.40101,336458.4070212,-19
1658564107.40101,336458.4070279,-26
1658564107.40101,336458.4070316,-38
1658564107.40101,336458.407035,-41
1658564107.40101,336458.4070383,-43
1658564107.40101,336458.4070416,-46
1658564107.40101,336458.407045,-41
1658564107.40101,336458.4070483,-38
1658564107.40101,336458.4070516,-46
1658564107.40101,336458.407055,-55
1658564107.40101,336458.4070584,-60
1658564107.40101,336458.407062,-65
1658564107.40101,336458.4070655,-68
1658564107.40101,336458.4070687,-60
1658564107.40101,336458.407072,-46
1658564107.40101,336458.4070753,-46
1658564107.40101,336458.4070786,-53
1658564107.40101,336458.407082,-48
1658564107.40101,336458.4071031,-41
1658564107.40101,336458.4071147,-43
1658564107.40101,336458.4071189,-43
1658564107.43492,336458.4071225,-29
1658564107.43492,336458.4071261,-29
1658564107.43492,336458.4071296,-46
1658564107.43492,336458.407133,-41
1658564107.43492,336458.4071363,-19
1658564107.43492,336458.4071401,-14
1658564107.43492,336458.4071436,-17
1658564107.43492,336458.4071478,-7
1658564107.43492,336458.4071525,-17
1658564107.43492,336458.407156,-21
1658564107.43492,336458.4071598,-4
1658564107.43492,336458.4071636,12
1658564107.43492,336458.4071837,2
1658564107.43492,336458.4071885,-2
1658564107.43492,336458.4072578,-9
1658564107.43492,336458.4072671,-12
1658564107.43492,336458.4072735,14
1658564107.43492,336458.4072791,48
1658564107.43492,336458.4072846,55
1658564107.43492,336458.4072912,60
1658564107.43492,336458.407298,70
1658564107.43492,336458.4073046,53
1658564107.43492,336458.4073113,24
1658564107.43492,336458.4073175,4
1658564107.43492,336458.4073247,2
1658564107.43492,336458.4073317,9
1658564107.43492,336458.4073382,9
1658564107.43492,336458.4073442,9
1658564107.43492,336458.4073503,14
1658564107.43492,336458.4073537,24
1658564107.43492,336458.407357,2
1658564107.43492,336458.4073601,-104
1658564107.43492,336458.4073633,-155
1658564107.43492,336458.4073689,180
1658564107.43492,336458.4073746,832
1658564107.43492,336458.4073801,1197
1658564107.43492,336458.4073864,824
1658564107.43492,336458.4073919,48
1658564107.43492,336458.4073982,-299
1658564107.43492,336458.4074022,-41
1658564107.43492,336458.4074056,136
1658564107.43492,336458.4074094,21
1658564107.43492,336458.4074131,4
1658564107.43492,336458.4074169,77
1658564107.43492,336458.4074224,51
1658564107.43492,336458.4074288,29
1658564107.43492,336458.943526,68
1658564107.43492,336458.9435414,82
1658564107.47374,336458.9435455,85
1658564107.47374,336458.9435493,107
1658564107.47374,336458.943553,111
1658564107.47374,336458.9435565,114
1658564107.47374,336458.94356,133
1658564107.47374,336458.9435636,133
1658564107.47374,336458.9435673,133
1658564107.47374,336458.9435714,158
1658564107.47374,336458.9435754,175
1658564107.47374,336458.9435802,184
1658564107.47374,336458.9435838,204
1658564107.47374,336458.9435875,214
1658564107.47374,336458.9435911,226
1658564107.47374,336458.9435953,250
1658564107.47374,336458.9435988,245
1658564107.47374,336458.9436025,223
1658564107.47374,336458.9436061,209
1658564107.47374,336458.9436111,170
1658564107.47374,336458.9436171,99
1658564107.47374,336458.9436207,46
1658564107.47374,336458.943626,14
1658564107.47374,336458.94363,-21
1658564107.47374,336458.9436358,-43
1658564107.47374,336458.9436395,-48
1658564107.47374,336458.9436448,-46
1658564107.47374,336458.9436485,-38
1658564107.47374,336458.9436537,-43
1658564107.47374,336458.9436575,-43
1658564107.47374,336458.9436626,-17
1658564107.47374,336458.9436664,-12
1658564107.47374,336458.9436718,-24
1658564107.47374,336458.9436754,-19
1658564107.47374,336458.9436792,-4
1658564107.47374,336458.9436847,4
1658564107.47374,336458.9436885,9
1658564107.47374,336458.9436922,19
1658564107.47374,336458.9436959,24
1658564107.47374,336458.9437012,19
1658564107.47374,336458.9437049,12
1658564107.47374,336458.9437087,17
1658564107.47374,336458.9437138,29
1658564107.47374,336458.9437175,19
1658564107.47374,336458.9437226,-2
1658564107.47374,336458.9437271,-12
1658564107.47374,336458.9437308,-2
1658564107.47374,336458.9437366,2
1658564107.47374,336458.9437403,2
1658564107.47374,336458.9437454,0
1658564107.47374,336458.943749,-2
1658564107.47374,336458.9437528,-2
1658564107.48471,336458.9437579,0
1658564107.48471,336458.9437615,-2
1658564107.48471,336458.9437652,4
1658564107.48471,336458.9437704,19
1658564107.48471,336458.9437742,21
1658564107.48471,336458.9437792,9
1658564107.48471,336458.9437827,4
1658564107.48471,336458.9437864,19
1658564107.48471,336458.9437915,26
1658564107.48471,336458.9437951,21
1658564107.48471,336458.9437988,34
1658564107.48471,336458.9438037,43
1658564107.48471,336458.9438084,26
1658564107.48471,336458.9438138,14
1658564107.48471,336458.9438176,24
1658564107.48471,336458.9438217,46
1658564107.48471,336458.9438267,68
1658564107.48471,336458.9438303,75
1658564107.48471,336458.943834,72
1658564107.48471,336458.9438394,80
1658564107.48471,336458.9438446,82
1658564107.48471,336459.5777684,68
1658564107.48471,336459.5777848,55
1658564107.48471,336459.5777895,46
1658564108.10031,336459.5777935,29
1658564108.10031,336459.5777974,14
1658564108.10031,336459.5778011,26
1658564108.10031,336459.577805,34
1658564108.10031,336459.5778087,26
1658564108.10031,336459.5778126,29
1658564108.10031,336459.5778165,-4
1658564108.10031,336459.5778203,-138
1658564108.10031,336459.5778241,-150
1658564108.10031,336459.5778278,253
1658564108.10031,336459.5778317,883
1658564108.10031,336459.5778355,1138
1658564108.10031,336459.5778394,695
1658564108.10031,336459.5778432,-26
1658564108.10031,336459.5778488,-250
1658564108.10031,336459.577855,29
1658564108.10031,336459.5778601,126
1658564108.10031,336459.5778642,-4
1658564108.10031,336459.5778674,-9
1658564108.10031,336459.5778706,43
1658564108.10031,336459.5778747,34
1658564108.10031,336459.57788,41
1658564108.10031,336459.577886,75
1658564108.10031,336459.5778911,77
1658564108.10031,336459.5778948,82
1658564108.10031,336459.577898,99
1658564108.10031,336459.5779016,99
1658564108.10031,336459.5779053,109
1658564108.10031,336459.57791,138
1658564108.10031,336459.5779148,148
1658564108.10031,336459.5779189,141
1658564108.10031,336459.5779251,160
1658564108.10031,336459.577929,192
1658564108.10031,336459.5779323,201
1658564108.10031,336459.5779355,216
1658564108.10031,336459.5779385,236
1658564108.10031,336459.5779416,248
1658564108.10031,336459.5779446,262
1658564108.10031,336459.5779477,257
1658564108.10031,336459.5779507,240
1658564108.10031,336459.5779537,231
1658564108.10031,336459.5779591,199
1658564108.10031,336459.5779654,138
1658564108.10031,336459.5779699,80
1658564108.10031,336459.5779762,43
1658564108.10031,336459.5779844,24
1658564108.10031,336459.5779922,0
1658564108.10031,336459.578001,-21
1658564108.10031,336459.5780103,-14
1658564108.10031,336459.5780179,-4
1658564108.11427,336459.5780276,-14
1658564108.11427,336459.5780357,-9
1658564108.11427,336459.5780416,4
1658564108.11427,336459.5780468,9
1658564108.11427,336459.5780537,12
1658564108.11427,336459.5780616,19
1658564108.11427,336459.5780685,26
1658564108.11427,336459.5780747,29
1658564108.11427,336459.5780792,31
1658564108.11427,336459.5780849,36
1658564108.11427,336459.5780907,38
1658564108.11427,336459.578096,43
1658564108.11427,336459.5781018,41
1658564108.11427,336459.5781072,31
1658564108.11427,336459.5781133,31
1658564108.11427,336459.5781183,41
1658564108.11427,336459.5781243,51
1658564108.11427,336459.5781292,46
1658564108.11427,336459.5781338,36
1658564108.11427,336459.5781392,36
1658564108.11427,336460.2007025,36
1658564108.11427,336460.2007227,29
1658564108.11427,336460.2007311,26
1658564108.11427,336460.2007352,29
1658564108.54713,336460.2007437,26
1658564108.54713,336460.2007473,24
1658564108.54713,336460.2007506,26
1658564108.54713,336460.2007538,26
1658564108.54713,336460.2007572,24
1658564108.54713,336460.2007603,29
1658564108.54713,336460.2007634,36
1658564108.54713,336460.2007678,34
1658564108.54713,336460.200774,24
1658564108.54713,336460.2007795,12
1658564108.54713,336460.2007856,14
1658564108.54713,336460.2007906,21
1658564108.54713,336460.2007963,19
1658564108.54713,336460.2008003,14
1658564108.54713,336460.2008036,21
1658564108.54713,336460.2008067,21
1658564108.54713,336460.2008117,9
1658564108.54713,336460.2008166,7
1658564108.54713,336460.2008235,14
1658564108.54713,336460.2008305,17
1658564108.54713,336460.2008376,17
1658564108.54713,336460.2008447,9
1658564108.54713,336460.2008504,4
1658564108.54713,336460.2008563,14
1658564108.54713,336460.2008634,38
1658564108.54713,336460.2008705,48
1658564108.54713,336460.2008778,41
1658564108.54713,336460.2008847,43
1658564108.54713,336460.2008886,51
1658564108.54713,336460.2008916,43
1658564108.54713,336460.2008947,24
1658564108.54713,336460.2008976,19
1658564108.54713,336460.2009009,31
1658564108.54713,336460.2009046,38
1658564108.54713,336460.2009083,26
1658564108.54713,336460.2009117,29
1658564108.54713,336460.200915,41
1658564108.54713,336460.2009183,41
1658564108.54713,336460.2009216,29
1658564108.54713,336460.2009249,-46
1658564108.54713,336460.2009283,-131
1658564108.54713,336460.2009315,75
1658564108.54713,336460.2009348,654
1658564108.54713,336460.200938,1116
1658564108.54713,336460.2009412,948
1658564108.54713,336460.2009445,265
1658564108.54713,336460.200948,-197
1658564108.54713,336460.2009513,-55
1658564108.54713,336460.2009549,150
1658564108.54713,336460.2009583,65
1658564108.5581,336460.2009618,2
1658564108.5581,336460.2009654,53
1658564108.5581,336460.2009694,63
1658564108.5581,336460.2009733,46
1658564108.5581,336460.2009767,55
1658564108.5581,336460.2009801,75
1658564108.5581,336460.2009853,97
1658564108.5581,336460.2009884,104
1658564108.5581,336460.2009915,104
1658564108.5581,336460.2009947,121
1658564108.5581,336460.2009981,145
1658564108.5581,336460.2010014,150
1658564108.5581,336460.2010049,155
1658564108.5581,336460.2010082,177
1658564108.5581,336460.2010112,199
1658564108.5581,336460.2010141,211
1658564108.5581,336460.201017,226
1658564108.5581,336460.20102,250
1658564108.5581,336460.2010232,265
1658564108.5581,336460.648991,274
1658564108.5581,336460.6490121,284
1658564108.5581,336460.6490257,277
1658564108.5581,336460.6490388,255
1658564108.5581,336460.6490522,233
1658564109.13342,336460.6490647,194
1658564109.13342,336460.6490719,138
1658564109.13342,336460.6490772,82
1658564109.13342,336460.649082,48
1658564109.13342,336460.6490854,21
1658564109.13342,336460.6490908,-12
1658564109.13342,336460.6490955,-26
1658564109.13342,336460.6491006,-14
1658564109.13342,336460.6491052,-14
1658564109.13342,336460.6491139,-29
1658564109.13342,336460.6491279,-31
1658564109.13342,336460.6491362,-31
1658564109.13342,336460.6491388,-36
1658564109.13342,336460.6491412,-31
1658564109.13342,336460.6491439,-29
1658564109.13342,336460.6491539,-24
1658564109.13342,336460.6491623,-19
1658564109.13342,336460.6491649,-24
1658564109.13342,336460.6491672,-21
1658564109.13342,336460.6491693,-12
1658564109.13342,336460.6491743,-24
1658564109.13342,336460.6491857,-24
1658564109.13342,336460.6491893,-4
1658564109.13342,336460.6491931,-4
1658564109.13342,336460.6491952,-14
1658564109.13342,336460.6491973,-14
1658564109.13342,336460.6491994,-12
1658564109.13342,336460.6492015,-9
1658564109.13342,336460.6492036,-2
1658564109.13342,336460.6492058,0
1658564109.13342,336460.649208,-4
1658564109.13342,336460.6492108,-4
1658564109.13342,336460.649213,2
1658564109.13342,336460.6492151,7
1658564109.13342,336460.6492173,12
1658564109.13342,336460.6492194,19
1658564109.13342,336460.6492215,9
1658564109.13342,336460.6492245,4
1658564109.13342,336460.6492368,29
1658564109.13342,336460.6492423,36
1658564109.13342,336460.6492471,21
1658564109.13342,336460.6492569,24
1658564109.13342,336460.6492641,34
1658564109.13342,336460.6492665,26
1658564109.13342,336460.6492756,24
1658564109.13342,336460.6492838,34
1658564109.13342,336460.649287,43
1658564109.13342,336460.6492969,48
1658564109.13342,336460.6493039,51
1658564109.13342,336460.6493062,41
1658564109.1424,336460.6493085,38
1658564109.1424,336460.6493106,55
1658564109.1424,336460.6493128,65
1658564109.1424,336460.6493148,63
1658564109.1424,336460.6493169,63
1658564109.1424,336460.649319,63
1658564109.1424,336460.6493211,63
1658564109.1424,336460.6493232,72
1658564109.1424,336460.6493253,77
1658564109.1424,336460.6493274,77
1658564109.1424,336460.6493296,82
1658564109.1424,336460.6493317,82
1658564109.1424,336460.6493338,92
1658564109.1424,336460.6493359,114
1658564109.1424,336460.649338,114
1658564109.1424,336460.6493401,111
1658564109.1424,336460.6493421,124
1658564109.1424,336460.6493443,111
1658564109.1424,336461.2353742,80
1658564109.1424,336461.2353955,80
1658564109.1424,336461.235411,97
1658564109.1424,336461.235425,85
1658564109.1424,336461.2354349,77
1658564109.1424,336461.2354447,77
1658564109.76798,336461.2354519,53
1658564109.76798,336461.2354623,34
1658564109.76798,336461.2354688,41
1658564109.76798,336461.2354734,-19
1658564109.76798,336461.2354773,-116
1658564109.76798,336461.2354812,63
1658564109.76798,336461.2354851,608
1658564109.76798,336461.235489,1058
1658564109.76798,336461.2354938,905
1658564109.76798,336461.2354994,240
1658564109.76798,336461.2355059,-236
1658564109.76798,336461.2355115,-114
1658564109.76798,336461.2355194,107
1658564109.76798,336461.2355281,38
1658564109.76798,336461.2355365,-31
1658564109.76798,336461.2355478,19
1658564109.76798,336461.2355622,41
1658564109.76798,336461.2355755,29
1658564109.76798,336461.2355887,43
1658564109.76798,336461.2355973,58
1658564109.76798,336461.2355999,60
1658564109.76798,336461.235602,77
1658564109.76798,336461.2356043,99
1658564109.76798,336461.2356064,111
1658564109.76798,336461.2356085,121
1658564109.76798,336461.2356106,126
1658564109.76798,336461.2356127,126
1658564109.76798,336461.2356148,145
1658564109.76798,336461.2356169,184
1658564109.76798,336461.2356189,214
1658564109.76798,336461.235621,221
1658564109.76798,336461.2356232,221
1658564109.76798,336461.2356253,228
1658564109.76798,336461.2356274,248
1658564109.76798,336461.2356296,260
1658564109.76798,336461.2356317,248
1658564109.76798,336461.2356337,231
1658564109.76798,336461.2356358,211
1658564109.76798,336461.2356379,170
1658564109.76798,336461.2356399,114
1658564109.76798,336461.2356421,63
1658564109.76798,336461.2356448,17
1658564109.76798,336461.235647,-7
1658564109.76798,336461.2356492,-21
1658564109.76798,336461.2356513,-31
1658564109.76798,336461.2356534,-34
1658564109.76798,336461.2356555,-46
1658564109.76798,336461.2356575,-51
1658564109.76798,336461.2356596,-38
1658564109.76798,336461.2356617,-36
1658564109.78195,336461.2356637,-34
1658564109.78195,336461.2356661,-26
1658564109.78195,336461.2356704,-26
1658564109.78195,336461.2356745,-24
1658564109.78195,336461.2356807,-14
1658564109.78195,336461.2356848,-7
1658564109.78195,336461.2356903,-2
1658564109.78195,336461.2356945,0
1658564109.78195,336461.2357003,4
1658564109.78195,336461.2357044,14
1658564109.78195,336461.2357102,21
1658564109.78195,336461.2357142,17
1658564109.78195,336461.2357183,14
1658564109.78195,336461.2357223,12
1658564109.78195,336461.235728,12
1658564109.78195,336461.235732,24
1658564109.78195,336461.2357374,38
1658564109.78195,336461.8308443,38
1658564109.78195,336461.8308605,29
1658564109.78195,336461.8308656,26
1658564109.78195,336461.8308721,31
1658564109.78195,336461.8308769,29
1658564109.78195,336461.830883,34
1658564109.78195,336461.8308876,43
1658564110.26698,336461.8308938,29
1658564110.26698,336461.8308985,14
1658564110.26698,336461.8309029,14
1658564110.26698,336461.8309319,7
1658564110.26698,336461.8309399,0
1658564110.26698,336461.8309455,9
1658564110.26698,336461.8309525,26
1658564110.26698,336461.8309598,38
1658564110.26698,336461.830967,36
1658564110.26698,336461.8309743,21
1658564110.26698,336461.8309816,17
1658564110.26698,336461.8309887,24
1658564110.26698,336461.830994,34
1658564110.26698,336461.8310001,34
1658564110.26698,336461.8310074,34
1658564110.26698,336461.8310146,34
1658564110.26698,336461.8310218,38
1658564110.26698,336461.8310291,38
1658564110.26698,336461.8310354,17
1658564110.26698,336461.8310424,4
1658564110.26698,336461.8310495,41
1658564110.26698,336461.8310569,85
1658564110.26698,336461.8310642,75
1658564110.26698,336461.8310713,65
1658564110.26698,336461.8310773,97
1658564110.26698,336461.8310845,99
1658564110.26698,336461.8310922,63
1658564110.26698,336461.8310993,46
1658564110.26698,336461.8311065,46
1658564110.26698,336461.8311133,55
1658564110.26698,336461.8311196,70
1658564110.26698,336461.8311269,68
1658564110.26698,336461.831134,58
1658564110.26698,336461.8311411,68
1658564110.26698,336461.8311483,77
1658564110.26698,336461.8311542,41
1658564110.26698,336461.8311616,-65
1658564110.26698,336461.8311687,-90
1658564110.26698,336461.831176,255
1658564110.26698,336461.8311831,878
1658564110.26698,336461.8311893,1182
1658564110.26698,336461.8311951,764
1658564110.26698,336461.8312021,29
1658564110.26698,336461.8312095,-233
1658564110.26698,336461.8312167,17
1658564110.26698,336461.8312239,145
1658564110.26698,336461.831231,38
1658564110.26698,336461.8312351,36
1658564110.26698,336461.8312388,99
1658564110.26698,336461.8312424,75
1658564110.28892,336461.8312472,63
1658564110.28892,336461.8312544,104
1658564110.28892,336461.8312613,116
1658564110.28892,336461.8312685,107
1658564110.28892,336461.8312814,109
1658564110.28892,336461.8312859,126
1658564110.28892,336461.8312898,141
1658564110.28892,336461.8313341,143
1658564110.28892,336461.8313445,150
1658564110.28892,336461.8313512,170
1658564110.28892,336461.8313573,184
1658564110.28892,336461.8313642,201
1658564110.28892,336461.8313712,211
1658564110.28892,336461.8313784,218
1658564110.28892,336461.8313856,238
1658564110.28892,336461.8313924,257
1658564110.28892,336462.3580484,248
1658564110.28892,336462.3580665,221
1658564110.28892,336462.3580735,218
1658564110.28892,336462.3580811,214
1658564110.28892,336462.3580873,163
1658564110.28892,336462.358093,97
1658564110.28892,336462.3580994,46
1658564110.28892,336462.3581043,-12
1658564110.86218,336462.3581109,-51
1658564110.86218,336462.3581159,-68
1658564110.86218,336462.3581206,-82
1658564110.86218,336462.3581252,-90
1658564110.86218,336462.3581298,-99
1658564110.86218,336462.3581349,-111
1658564110.86218,336462.3581397,-102
1658564110.86218,336462.3581443,-87
1658564110.86218,336462.3581488,-87
1658564110.86218,336462.3581537,-80
1658564110.86218,336462.3581586,-63
1658564110.86218,336462.3581632,-55
1658564110.86218,336462.3581679,-55
1658564110.86218,336462.3581747,-51
1658564110.86218,336462.3581812,-53
1658564110.86218,336462.3581861,-41
1658564110.86218,336462.3581925,-19
1658564110.86218,336462.3581973,-14
1658564110.86218,336462.3582039,-9
1658564110.86218,336462.3582098,2
1658564110.86218,336462.3582146,0
1658564110.86218,336462.3582194,4
1658564110.86218,336462.358226,17
1658564110.86218,336462.3582328,14
1658564110.86218,336462.3582376,14
1658564110.86218,336462.3582441,19
1658564110.86218,336462.3582507,17
1658564110.86218,336462.3582575,19
1658564110.86218,336462.3582638,34
1658564110.86218,336462.3582688,34
1658564110.86218,336462.358276,31
1658564110.86218,336462.3583669,34
1658564110.86218,336462.358379,41
1658564110.86218,336462.3583918,48
1658564110.86218,336462.3584106,53
1658564110.86218,336462.3584186,58
1658564110.86218,336462.3584227,53
1658564110.86218,336462.3584291,46
1658564110.86218,336462.3584329,53
1658564110.86218,336462.3584387,63
1658564110.86218,336462.3584425,65
1658564110.86218,336462.358449,65
1658564110.86218,336462.3584531,65
1658564110.86218,336462.3584584,63
1658564110.86218,336462.3584621,72
1658564110.86218,336462.3584674,77
1658564110.86218,336462.3584713,55
1658564110.86218,336462.3584766,43
1658564110.86218,336462.3584803,80
1658564110.86218,336462.3584856,111
1658564110.88911,336462.3584895,109
1658564110.88911,336462.3584949,107
1658564110.88911,336462.3584985,121
1658564110.88911,336462.3585039,119
1658564110.88911,336462.3585082,94
1658564110.88911,336462.3585135,77
1658564110.88911,336462.3585173,68
1658564110.88911,336462.3585227,68
1658564110.88911,336462.3585265,77
1658564110.88911,336462.3585319,75
1658564110.88911,336462.3585377,75
1658564110.88911,336462.3585415,77
1658564110.88911,336462.3585468,65
1658564110.88911,336462.3585506,0
1658564110.88911,336462.3585565,-109
1658564110.88911,336462.94156,-14
1658564110.88911,336462.9415802,506
1658564110.88911,336462.9415904,1104
1658564110.88911,336462.9415995,1141
1658564110.88911,336462.9416269,486
1658564110.88911,336462.9416362,-167
1658564110.88911,336462.9416394,-167
1658564110.88911,336462.9416434,111
1658564110.88911,336462.9416487,104
1658564111.38427,336462.9416552,4
1658564111.38427,336462.9416614,41
1658564111.38427,336462.9416663,58
1658564111.38427,336462.9416727,36
1658564111.38427,336462.9416761,65
1658564111.38427,336462.9416801,87
1658564111.38427,336462.9416829,75
1658564111.38427,336462.9416863,70
1658564111.38427,336462.9416896,85
1658564111.38427,336462.9416935,102
1658564111.38427,336462.9416989,121
1658564111.38427,336462.9417026,131
1658564111.38427,336462.9417224,131
1658564111.38427,336462.9417299,136
1658564111.38427,336462.9417455,145
1658564111.38427,336462.9417613,155
1658564111.38427,336462.941768,167
1658564111.38427,336462.9417715,189
1658564111.38427,336462.9417748,204
1658564111.38427,336462.9417781,204
1658564111.38427,336462.9417815,209
1658564111.38427,336462.9417846,218
1658564111.38427,336462.9417878,211
1658564111.38427,336462.941792,182
1658564111.38427,336462.9417952,138
1658564111.38427,336462.9417985,75
1658564111.38427,336462.9418023,24
1658564111.38427,336462.9418058,-7
1658564111.38427,336462.9418095,-36
1658564111.38427,336462.9418131,-55
1658564111.38427,336462.941817,-63
1658564111.38427,336462.9418206,-58
1658564111.38427,336462.9418239,-53
1658564111.38427,336462.9418273,-53
1658564111.38427,336462.9418316,-55
1658564111.38427,336462.9418361,-51
1658564111.38427,336462.9418428,-41
1658564111.38427,336462.9418468,-38
1658564111.38427,336462.9418526,-36
1658564111.38427,336462.9418561,-26
1658564111.38427,336462.9418624,-12
1658564111.38427,336462.9418712,0
1658564111.38427,336462.9418772,4
1658564111.38427,336462.9418832,7
1658564111.38427,336462.9418891,12
1658564111.38427,336462.9418928,14
1658564111.38427,336462.9418983,19
1658564111.38427,336462.9419038,36
1658564111.38427,336462.9419081,43
1658564111.38427,336462.941914,26
1658564111.41718,336462.9419201,14
1658564111.41718,336462.9419279,14
1658564111.41718,336462.941932,19
1658564111.41718,336462.9419378,34
1658564111.41718,336462.9419416,43
1658564111.41718,336462.9419454,38
1658564111.41718,336462.941951,38
1658564111.41718,336462.9419546,38
1658564111.41718,336462.9419594,38
1658564111.41718,336462.9419625,43
1658564111.41718,336462.9419655,51
1658564111.41718,336462.9419685,55
1658564111.41718,336462.9419715,60
1658564111.41718,336462.9419754,60
1658564111.41718,336463.4786709,53
1658564111.41718,336463.4786885,53
1658564111.41718,336463.4786927,60
1658564111.41718,336463.4786965,63
1658564111.41718,336463.4787003,60
1658564111.41718,336463.4787039,63
1658564111.41718,336463.4787076,65
1658564111.41718,336463.4787113,63
1658564111.41718,336463.478715,58
1658564111.41718,336463.4787186,48
1658564111.91052,336463.4787223,53
1658564111.91052,336463.478726,87
1658564111.91052,336463.4787298,107
1658564111.91052,336463.4787334,82
1658564111.91052,336463.4787371,75
1658564111.91052,336463.4787409,99
1658564111.91052,336463.4787445,94
1658564111.91052,336463.4787483,65
1658564111.91052,336463.4787521,51
1658564111.91052,336463.4787557,38
1658564111.91052,336463.4787596,31
1658564111.91052,336463.4787633,36
1658564111.91052,336463.478767,43
1658564111.91052,336463.4787707,46
1658564111.91052,336463.4787744,48
1658564111.91052,336463.478778,29
1658564111.91052,336463.4787818,-55
1658564111.91052,336463.4787855,-128
1658564111.91052,336463.4787891,90
1658564111.91052,336463.478793,671
1658564111.91052,336463.4787969,1143
1658564111.91052,336463.4788028,956
1658564111.91052,336463.4788066,238
1658564111.91052,336463.4788117,-221
1658564111.91052,336463.4788165,-65
1658564111.91052,336463.4788226,136
1658564111.91052,336463.4788265,53
1658564111.91052,336463.4788317,9
1658564111.91052,336463.4788371,63
1658564111.91052,336463.4788421,48
1658564111.91052,336463.4788476,31
1658564111.91052,336463.4788513,72
1658564111.91052,336463.478855,85
1658564111.91052,336463.4788586,80
1658564111.91052,336463.4788623,94
1658564111.91052,336463.4788659,102
1658564111.91052,336463.4788695,109
1658564111.91052,336463.4788734,133
1658564111.91052,336463.4788771,150
1658564111.91052,336463.4788809,150
1658564111.91052,336463.4788847,148
1658564111.91052,336463.4788885,158
1658564111.91052,336463.4788924,184
1658564111.91052,336463.4788961,206
1658564111.91052,336463.4788998,221
1658564111.91052,336463.4789039,231
1658564111.91052,336463.4789075,231
1658564111.91052,336463.4789111,228
1658564111.91052,336463.478915,223
1658564111.91052,336463.4789204,206
1658564111.9215,336463.4789249,175
1658564111.9215,336463.4789286,133
1658564111.9215,336463.4789325,82
1658564111.9215,336463.4789363,21
1658564111.9215,336463.47894,-26
1658564111.9215,336463.4789441,-51
1658564111.9215,336463.4789478,-60
1658564111.9215,336463.4789516,-65
1658564111.9215,336463.4789552,-63
1658564111.9215,336463.4789589,-58
1658564111.9215,336463.4789627,-58
1658564111.9215,336463.4789664,-55
1658564111.9215,336463.4789701,-46
1658564111.9215,336464.0135111,-31
1658564111.9215,336464.013537,-24
1658564111.9215,336464.0135398,-29
1658564111.9215,336464.0135433,-26
1658564111.9215,336464.0135461,-14
1658564111.9215,336464.0135483,-9
1658564111.9215,336464.0135506,-2
1658564111.9215,336464.0135529,9
1658564111.9215,336464.013555,21
1658564111.9215,336464.0135572,12
1658564111.9215,336464.0135594,-7
1658564112.49875,336464.0135615,-4
1658564112.49875,336464.0135634,9
1658564112.49875,336464.0135654,14
1658564112.49875,336464.0135674,9
1658564112.49875,336464.0135694,7
1658564112.49875,336464.0135713,9
1658564112.49875,336464.0135733,14
1658564112.49875,336464.0135753,12
1658564112.49875,336464.0135773,7
1658564112.49875,336464.0135793,21
1658564112.49875,336464.0135813,31
1658564112.49875,336464.0135833,19
1658564112.49875,336464.0135852,7
1658564112.49875,336464.0135873,14
1658564112.49875,336464.0135893,19
1658564112.49875,336464.0135914,9
1658564112.49875,336464.0135934,17
1658564112.49875,336464.0135953,29
1658564112.49875,336464.0135973,24
1658564112.49875,336464.0135993,26
1658564112.49875,336464.0136014,41
1658564112.49875,336464.0136045,48
1658564112.49875,336464.0136098,48
1658564112.49875,336464.0136173,48
1658564112.49875,336464.0136247,46
1658564112.49875,336464.0136299,36
1658564112.49875,336464.0136342,34
1658564112.49875,336464.0136363,58
1658564112.49875,336464.0136385,94
1658564112.49875,336464.0136406,111
1658564112.49875,336464.0136426,109
1658564112.49875,336464.0136447,102
1658564112.49875,336464.0136468,82
1658564112.49875,336464.013649,55
1658564112.49875,336464.0136511,46
1658564112.49875,336464.0136531,55
1658564112.49875,336464.0136552,55
1658564112.49875,336464.0136572,48
1658564112.49875,336464.0136593,48
1658564112.49875,336464.0136614,53
1658564112.49875,336464.0136634,60
1658564112.49875,336464.0136657,58
1658564112.49875,336464.0136678,-19
1658564112.49875,336464.0136699,-104
1658564112.49875,336464.013672,102
1658564112.49875,336464.013674,666
1658564112.49875,336464.0136768,1116
1658564112.49875,336464.0136868,929
1658564112.49875,336464.0136961,233
1658564112.49875,336464.0136998,-209
1658564112.50972,336464.0137022,-43
1658564112.50972,336464.0137043,160
1658564112.50972,336464.0137063,65
1658564112.50972,336464.0137092,9
1658564112.50972,336464.0137196,68
1658564112.50972,336464.0137279,60
1658564112.50972,336464.0137304,41
1658564112.50972,336464.0137326,75
1658564112.50972,336464.0137351,97
1658564112.50972,336464.0137663,94
1658564112.50972,336464.0137723,107
1658564112.50972,336464.0137748,124
1658564112.50972,336464.5984486,128
1658564112.50972,336464.5984709,138
1658564112.50972,336464.5984863,155
1658564112.50972,336464.5984981,170
1658564112.50972,336464.598504,189
1658564112.50972,336464.5985119,204
1658564112.50972,336464.5985183,206
1658564112.50972,336464.5985253,214
1658564112.50972,336464.5985304,240
1658564112.50972,336464.5985379,255
1658564112.50972,336464.5985506,265
1658564112.50972,336464.5985609,277
1658564113.07586,336464.5985704,257
1658564113.07586,336464.5985781,214
1658564113.07586,336464.5985809,184
1658564113.07586,336464.5985843,128
1658564113.07586,336464.598593,53
1658564113.07586,336464.598599,24
1658564113.07586,336464.5986041,0
1658564113.07586,336464.5986109,-48
1658564113.07586,336464.5986187,-75
1658564113.07586,336464.5986364,-70
1658564113.07586,336464.598647,-65
1658564113.07586,336464.5986533,-70
1658564113.07586,336464.5986655,-75
1658564113.07586,336464.5986785,-70
1658564113.07586,336464.5986902,-65
1658564113.07586,336464.5987038,-65
1658564113.07586,336464.5987183,-53
1658564113.07586,336464.5987311,-34
1658564113.07586,336464.5987427,-34
1658564113.07586,336464.5987497,-38
1658564113.07586,336464.5987529,-29
1658564113.07586,336464.5987587,-19
1658564113.07586,336464.598762,-14
1658564113.07586,336464.5987696,-21
1658564113.07586,336464.5987839,-31
1658564113.07586,336464.5987978,-14
1658564113.07586,336464.5988102,0
1658564113.07586,336464.598822,-7
1658564113.07586,336464.598832,-4
1658564113.07586,336464.5988383,14
1658564113.07586,336464.5988469,17
1658564113.07586,336464.5988531,9
1658564113.07586,336464.5988615,17
1658564113.07586,336464.5988678,26
1658564113.07586,336464.5988762,24
1658564113.07586,336464.5988827,21
1658564113.07586,336464.598891,19
1658564113.07586,336464.5988972,17
1658564113.07586,336464.5989062,31
1658564113.07586,336464.5989125,38
1658564113.07586,336464.5989204,31
1658564113.07586,336464.5989294,29
1658564113.07586,336464.5989377,36
1658564113.07586,336464.5989438,48
1658564113.07586,336464.5989508,60
1658564113.07586,336464.5989539,55
1658564113.07586,336464.5989568,46
1658564113.07586,336464.5989598,53
1658564113.07586,336464.598963,65
1658564113.07586,336464.5989659,75
1658564113.08752,336464.5989687,92
1658564113.08752,336464.5989717,97
1658564113.08752,336464.5989745,87
1658564113.08752,336464.5989775,111
1658564113.08752,336464.5989805,119
1658564113.08752,336464.5989905,80
1658564113.08752,336464.5990002,65
1658564113.08752,336464.5990148,77
1658564113.08752,336464.5990277,75
1658564113.08752,336464.5990396,72
1658564113.08752,336464.5990528,90
1658564113.08752,336465.1847229,94
1658564113.08752,336465.1847368,90
1658564113.08752,336465.1847424,75
1658564113.08752,336465.1847495,-2
1658564113.08752,336465.184755,-85
1658564113.08752,336465.1847614,107
1658564113.08752,336465.1847652,676
1658564113.08752,336465.1847703,1172
1658564113.08752,336465.1847743,1004
1658564113.08752,336465.1847793,255
1658564113.08752,336465.1847831,-274
1658564113.08752,336465.1847883,-131
1658564113.08752,336465.1847919,128
1658564113.56516,336465.184797,70
1658564113.56516,336465.1848007,9
1658564113.56516,336465.1848045,65
1658564113.56516,336465.184808,43
1658564113.56516,336465.1848116,12
1658564113.56516,336465.1848153,58
1658564113.56516,336465.1848188,82
1658564113.56516,336465.1848224,68
1658564113.56516,336465.1848262,82
1658564113.56516,336465.1848298,104
1658564113.56516,336465.1848332,107
1658564113.56516,336465.1848368,128
1658564113.56516,336465.1848404,158
1658564113.56516,336465.1848439,163
1658564113.56516,336465.1848476,165
1658564113.56516,336465.1848512,180
1658564113.56516,336465.1848548,189
1658564113.56516,336465.1848583,211
1658564113.56516,336465.1848619,250
1658564113.56516,336465.1848655,265
1658564113.56516,336465.1848691,262
1658564113.56516,336465.1848729,274
1658564113.56516,336465.1848783,270
1658564113.56516,336465.184882,240
1658564113.56516,336465.1848872,206
1658564113.56516,336465.1848908,158
1658564113.56516,336465.1848947,90
1658564113.56516,336465.1848996,26
1658564113.56516,336465.1849032,-12
1658564113.56516,336465.1849069,-31
1658564113.56516,336465.1849122,-34
1658564113.56516,336465.1849169,-29
1658564113.56516,336465.1849222,-31
1658564113.56516,336465.1849268,-34
1658564113.56516,336465.1849305,-29
1658564113.56516,336465.1849354,-36
1658564113.56516,336465.1849399,-43
1658564113.56516,336465.1849452,-26

1658564113.56516,336465.1849502,-17
1658564113.56516,336465.1849553,-19
1658564113.56516,336465.1849588,-17
1658564113.56516,336465.1849626,-9
1658564113.56516,336465.1849677,-9
1658564113.56516,336465.184973,-2
1658564113.56516,336465.1849766,-7
1658564113.56516,336465.1849803,-12
1658564113.56516,336465.1849851,2
1658564113.56516,336465.1849901,4
1658564113.56516,336465.1849945,-4
1658564113.56516,336465.1850003,9
1658564113.57513,336465.1850046,26
1658564113.57513,336465.1850096,17
1658564113.57513,336465.1850139,9
1658564113.57513,336465.1850191,17
1658564113.57513,336465.1850235,19
1658564113.57513,336465.1850287,17
1658564113.57513,336465.1850322,21
1658564113.57513,336465.185037,26
1658564113.57513,336465.185042,14
1658564113.57513,336465.1850458,7
1658564113.57513,336465.6706787,12
1658564113.57513,336465.6706988,21
1658564113.57513,336465.6707045,34
1658564113.57513,336465.6707088,34
1658564113.57513,336465.670713,26
1658564113.57513,336465.6707172,26
1658564113.57513,336465.6707212,21
1658564113.57513,336465.6707252,12
1658564113.57513,336465.6707294,7
1658564113.57513,336465.6707336,4
1658564113.57513,336465.6707379,7
1658564113.57513,336465.6707429,24
1658564113.57513,336465.6707686,34
1658564113.57513,336465.6707778,36
1658564114.25235,336465.670782,41
1658564114.25235,336465.6707862,48
1658564114.25235,336465.6707899,48
1658564114.25235,336465.6707935,38
1658564114.25235,336465.6707978,21
1658564114.25235,336465.6708015,12
1658564114.25235,336465.6708051,14
1658564114.25235,336465.6708108,24
1658564114.25235,336465.6708283,24
1658564114.25235,336465.6708369,26
1658564114.25235,336465.6708494,36
1658564114.25235,336465.6708633,31
1658564114.25235,336465.6708768,-29
1658564114.25235,336465.670887,-141
1658564114.25235,336465.6708942,-58
1658564114.25235,336465.6709016,447
1658564114.25235,336465.6709104,1046
1658564114.25235,336465.6709158,1107
1658564114.25235,336465.6709215,469
1658564114.25235,336465.6709277,-192
1658564114.25235,336465.6709338,-189
1658564114.25235,336465.6709378,107
1658564114.25235,336465.6709434,97
1658564114.25235,336465.6709482,-12
1658564114.25235,336465.6709518,31
1658564114.25235,336465.670956,75
1658564114.25235,336465.6709597,51
1658564114.25235,336465.6709653,58
1658564114.25235,336465.6709701,85
1658564114.25235,336465.6709739,87
1658564114.25235,336465.6709797,92
1658564114.25235,336465.6709838,107
1658564114.25235,336465.6709878,119
1658564114.25235,336465.6709935,131
1658564114.25235,336465.6709977,145
1658564114.25235,336465.6710018,163
1658564114.25235,336465.6710059,177
1658564114.25235,336465.6710195,192
1658564114.25235,336465.6710335,209
1658564114.25235,336465.6710449,233
1658564114.25235,336465.6710526,260
1658564114.25235,336465.6710561,279
1658564114.25235,336465.6710685,294
1658564114.25235,336465.6710809,299
1658564114.25235,336465.6710917,284
1658564114.25235,336465.6710995,272
1658564114.25235,336465.6711066,248
1658564114.25235,336465.6711178,194
1658564114.25235,336465.6711253,126
1658564114.25235,336465.6711303,65
1658564114.26332,336465.6711429,21
1658564114.26332,336465.6711547,-2
1658564114.26332,336465.6711617,-14
1658564114.26332,336465.6711699,-12
1658564114.26332,336465.6711816,-2
1658564114.26332,336465.6711906,-7
1658564114.26332,336465.6712011,-17
1658564114.26332,336465.6712125,-4
1658564114.26332,336465.6712235,7
1658564114.26332,336466.3535558,9
1658564114.26332,336466.3535689,12
1658564114.26332,336466.3535724,7
1658564114.26332,336466.3535779,-9
1658564114.26332,336466.3535805,-17
1658564114.26332,336466.353583,-4
1658564114.26332,336466.3535855,9
1658564114.26332,336466.353588,14
1658564114.26332,336466.3535903,9
1658564114.26332,336466.3535927,2
1658564114.26332,336466.3535951,-12
1658564114.26332,336466.3535975,-14
1658564114.26332,336466.3535998,-2
1658564114.26332,336466.353602,-12
1658564114.26332,336466.3536044,-29
1658564114.74152,336466.3536068,-24
1658564114.74152,336466.3536092,-19
1658564114.74152,336466.3536115,-26
1658564114.74152,336466.353614,-24
1658564114.74152,336466.3536163,-12
1658564114.74152,336466.3536187,-12
1658564114.74152,336466.3536211,-24
1658564114.74152,336466.3536234,-29
1658564114.74152,336466.3536258,-19
1658564114.74152,336466.3536281,-9
1658564114.74152,336466.3536304,-2
1658564114.74152,336466.3536328,-2
1658564114.74152,336466.3536351,-2
1658564114.74152,336466.3536373,4
1658564114.74152,336466.3536398,7
1658564114.74152,336466.3536422,7
1658564114.74152,336466.3536445,14
1658564114.74152,336466.3536467,26
1658564114.74152,336466.3536491,26
1658564114.74152,336466.3536515,29
1658564114.74152,336466.3536538,38
1658564114.74152,336466.353656,43
1658564114.74152,336466.3536583,43
1658564114.74152,336466.3536606,48
1658564114.74152,336466.3536629,51
1658564114.74152,336466.3536652,51
1658564114.74152,336466.3536699,53
1658564114.74152,336466.3536721,53
1658564114.74152,336466.3536744,51
1658564114.74152,336466.3536767,48
1658564114.74152,336466.3536789,48
1658564114.74152,336466.3536812,65
1658564114.74152,336466.3536836,94
1658564114.74152,336466.3536858,104
1658564114.74152,336466.3536881,111
1658564114.74152,336466.3536904,116
1658564114.74152,336466.3536926,102
1658564114.74152,336466.3536949,77
1658564114.74152,336466.3536971,65
1658564114.74152,336466.3536994,70
1658564114.74152,336466.3537017,75
1658564114.74152,336466.3537039,77
1658564114.74152,336466.3537061,75
1658564114.74152,336466.3537083,70
1658564114.74152,336466.3537262,75
1658564114.74152,336466.3537356,77
1658564114.74152,336466.3537414,14
1658564114.74152,336466.3537459,-94
1658564114.74152,336466.3537535,9
1658564114.74152,336466.3537618,523
1658564114.75349,336466.3537686,1087
1658564114.75349,336466.3537776,1099
1658564114.75349,336466.353785,469
1658564114.75349,336466.3537894,-121
1658564114.75349,336466.3537915,-97
1658564114.75349,336466.3537939,158
1658564114.75349,336466.3537959,124
1658564114.75349,336466.3537988,24
1658564114.75349,336466.8422578,72
1658564114.75349,336466.8422752,102
1658564114.75349,336466.8422855,72
1658564114.75349,336466.8422974,82
1658564114.75349,336466.8423059,107
1658564114.75349,336466.842315,102
1658564114.75349,336466.8423244,90
1658564114.75349,336466.8423353,99
1658564114.75349,336466.8423436,114
1658564114.75349,336466.8423515,126
1658564114.75349,336466.8423617,145
1658564114.75349,336466.8423674,163
1658564114.75349,336466.8423798,170
1658564114.75349,336466.8423907,180
1658564114.75349,336466.8423995,199
1658564114.75349,336466.8424066,223
1658564115.27819,336466.842413,245
1658564115.27819,336466.8424181,262
1658564115.27819,336466.842423,270
1658564115.27819,336466.8424278,257
1658564115.27819,336466.8424325,245
1658564115.27819,336466.8424373,240
1658564115.27819,336466.8424447,214
1658564115.27819,336466.8424555,167
1658564115.27819,336466.8424623,109
1658564115.27819,336466.84247,41
1658564115.27819,336466.8424781,-4
1658564115.27819,336466.842486,-17
1658564115.27819,336466.8424973,-34
1658564115.27819,336466.8425071,-51
1658564115.27819,336466.8425179,-41
1658564115.27819,336466.8425274,-38
1658564115.27819,336466.8425412,-53
1658564115.27819,336466.8425547,-51
1658564115.27819,336466.842568,-41
1658564115.27819,336466.8425763,-36
1658564115.27819,336466.8425801,-31
1658564115.27819,336466.8425932,-29
1658564115.27819,336466.8426049,-38
1658564115.27819,336466.8426198,-36
1658564115.27819,336466.8426329,-24
1658564115.27819,336466.8426461,-21
1658564115.27819,336466.8426592,-17
1658564115.27819,336466.8426722,-7
1658564115.27819,336466.8426855,-12
1658564115.27819,336466.8426945,-17
1658564115.27819,336466.8426973,-2
1658564115.27819,336466.8426995,4
1658564115.27819,336466.8427017,-4
1658564115.27819,336466.84271,-2
1658564115.27819,336466.8427237,7
1658564115.27819,336466.8427384,7
1658564115.27819,336466.842752,4
1658564115.27819,336466.8427652,7
1658564115.27819,336466.8427786,14
1658564115.27819,336466.8427917,21
1658564115.27819,336466.8428049,19
1658564115.27819,336466.8428178,17
1658564115.27819,336466.8428309,21
1658564115.27819,336466.8428445,26
1658564115.27819,336466.8428577,29
1658564115.27819,336466.8428709,29
1658564115.27819,336466.8428852,29
1658564115.27819,336466.8429294,29
1658564115.27819,336466.8429433,31
1658564115.27819,336466.8429506,41
1658564115.29017,336466.8429546,58
1658564115.29017,336466.842958,55
1658564115.29017,336466.8429615,46
1658564115.29017,336466.8429652,51
1658564115.29017,336466.8429683,51
1658564115.29017,336466.8429715,43
1658564115.29017,336466.8429769,46
1658564115.29017,336467.3774865,43
1658564115.29017,336467.3775063,43
1658564115.29017,336467.377512,51
1658564115.29017,336467.3775184,55
1658564115.29017,336467.3775241,48
1658564115.29017,336467.3775301,48
1658564115.29017,336467.3775345,58
1658564115.29017,336467.3775413,65
1658564115.29017,336467.3775455,60
1658564115.29017,336467.3775496,43
1658564115.29017,336467.3775542,31
1658564115.29017,336467.3775585,46
1658564115.29017,336467.3775627,55
1658564115.29017,336467.37757,43
1658564115.29017,336467.3775748,48
1658564115.29017,336467.3775793,55
1658564115.29017,336467.3775842,51
1658564115.85734,336467.3775908,51
1658564115.85734,336467.3775956,55
1658564115.85734,336467.3776003,72
1658564115.85734,336467.3776047,94
1658564115.85734,336467.3776088,87
1658564115.85734,336467.3776129,70
1658564115.85734,336467.3776172,85
1658564115.85734,336467.377622,87
1658564115.85734,336467.3776271,58
1658564115.85734,336467.3776321,41
1658564115.85734,336467.377639,63
1658564115.85734,336467.3776435,63
1658564115.85734,336467.3776477,48
1658564115.85734,336467.377652,58
1658564115.85734,336467.3776569,63
1658564115.85734,336467.3776622,53
1658564115.85734,336467.3776672,68
1658564115.85734,336467.3776726,58
1658564115.85734,336467.3776777,-53
1658564115.85734,336467.3776824,-116
1658564115.85734,336467.3776876,192
1658564115.85734,336467.3776932,822
1658564115.85734,336467.3776981,1189
1658564115.85734,336467.3777031,839
1658564115.85734,336467.3777081,104
1658564115.85734,336467.3777129,-226
1658564115.85734,336467.3777179,-7
1658564115.85734,336467.3777232,148
1658564115.85734,336467.377728,53
1658564115.85734,336467.3777336,36
1658564115.85734,336467.3777389,92
1658564115.85734,336467.3777438,80
1658564115.85734,336467.3777486,60
1658564115.85734,336467.3777541,85
1658564115.85734,336467.377759,104
1658564115.85734,336467.3777644,114
1658564115.85734,336467.3777719,133
1658564115.85734,336467.3778079,138
1658564115.85734,336467.3778219,131
1658564115.85734,336467.3778368,153
1658564115.85734,336467.377848,175
1658564115.85734,336467.3778612,177
1658564115.85734,336467.3778699,194
1658564115.85734,336467.3778778,216
1658564115.85734,336467.3778903,223
1658564115.85734,336467.3779007,243
1658564115.85734,336467.377907,265
1658564115.85734,336467.3779199,262
1658564115.85734,336467.3779309,255
1658564115.85734,336467.3779502,250
1658564115.86732,336467.3779737,240
1658564115.86732,336467.377977,223
1658564115.86732,336467.3779791,189
1658564115.86732,336467.3779811,131
1658564115.86732,336467.3779841,65
1658564115.86732,336467.3779948,14
1658564115.86732,336467.9625259,-17
1658564115.86732,336467.9625434,-48
1658564115.86732,336467.9625475,-68
1658564115.86732,336467.9625508,-75
1658564115.86732,336467.9625539,-65
1658564115.86732,336467.9625571,-63
1658564115.86732,336467.9625602,-82
1658564115.86732,336467.9625632,-90
1658564115.86732,336467.9625662,-80
1658564115.86732,336467.9625691,-70
1658564115.86732,336467.962572,-55
1658564115.86732,336467.962575,-43
1658564115.86732,336467.9625789,-65
1658564115.86732,336467.9625818,-85
1658564115.86732,336467.9625846,-58
1658564115.86732,336467.9625873,-41
1658564115.86732,336467.9626144,-38
1658564115.86732,336467.9626241,-24
1658564116.39032,336467.9626282,-21
1658564116.39032,336467.9626318,-21
1658564116.39032,336467.9626355,-2
1658564116.39032,336467.9626399,2
1658564116.39032,336467.9626465,-9
1658564116.39032,336467.962653,-2
1658564116.39032,336467.9626575,14
1658564116.39032,336467.9626625,17
1658564116.39032,336467.9626673,9
1658564116.39032,336467.9626713,12
1658564116.39032,336467.962675,17
1658564116.39032,336467.9626788,14
1658564116.39032,336467.9626825,9
1658564116.39032,336467.9626863,26
1658564116.39032,336467.9626899,36
1658564116.39032,336467.9626971,26
1658564116.39032,336467.9627321,31
1658564116.39032,336467.9627363,41
1658564116.39032,336467.9627401,41
1658564116.39032,336467.9627438,43
1658564116.39032,336467.9627475,51
1658564116.39032,336467.9627513,46
1658564116.39032,336467.962755,43
1658564116.39032,336467.9627587,55
1658564116.39032,336467.9627623,60
1658564116.39032,336467.962766,53
1658564116.39032,336467.9627697,65
1658564116.39032,336467.9627733,87
1658564116.39032,336467.9627782,90
1658564116.39032,336467.9627819,77
1658564116.39032,336467.9627855,77
1658564116.39032,336467.9627892,77
1658564116.39032,336467.962793,70
1658564116.39032,336467.9627967,70
1658564116.39032,336467.9628003,70
1658564116.39032,336467.962804,70
1658564116.39032,336467.9628077,77
1658564116.39032,336467.9628114,102
1658564116.39032,336467.962815,126
1658564116.39032,336467.9628187,114
1658564116.39032,336467.9628223,102
1658564116.39032,336467.962826,114
1658564116.39032,336467.9628297,102
1658564116.39032,336467.9628333,63
1658564116.39032,336467.9628369,58
1658564116.39032,336467.9628406,70
1658564116.39032,336467.9628443,65
1658564116.39032,336467.962848,68
1658564116.39032,336467.9628517,80
1658564116.39032,336467.9628553,75
1658564116.40029,336467.962859,72
1658564116.40029,336467.9628627,75
1658564116.40029,336467.9628663,51
1658564116.40029,336467.96287,-63
1658564116.40029,336467.9628737,-119
1658564116.40029,336468.4984041,218
1658564116.40029,336468.49843,883
1658564116.40029,336468.498433,1260
1658564116.40029,336468.4984352,880
1658564116.40029,336468.4984372,77
1658564116.40029,336468.4984545,-267
1658564116.40029,336468.4984565,2
1658564116.40029,336468.4984586,165
1658564116.40029,336468.4984606,41
1658564116.40029,336468.4984625,7
1658564116.40029,336468.4984655,51
1658564116.40029,336468.4984677,31
1658564116.40029,336468.4984698,24
1658564116.40029,336468.4984719,58
1658564116.40029,336468.4984739,63
1658564116.40029,336468.498476,38
1658564116.40029,336468.498478,34
1658564116.40029,336468.4984801,43
1658564116.40029,336468.4984823,43
1658564116.98072,336468.4984844,63
1658564116.98072,336468.4984864,90
1658564116.98072,336468.4984884,87
1658564116.98072,336468.4984903,94
1658564116.98072,336468.4984923,128
1658564116.98072,336468.4984943,150
1658564116.98072,336468.498497,165
1658564116.98072,336468.4985034,189
1658564116.98072,336468.4985101,216
1658564116.98072,336468.4985145,228
1658564116.98072,336468.4985189,228
1658564116.98072,336468.4985249,221
1658564116.98072,336468.4985299,206
1658564116.98072,336468.4985384,167
1658564116.98072,336468.4985447,111
1658564116.98072,336468.4985593,46
1658564116.98072,336468.4985725,-14
1658564116.98072,336468.4985815,-48
1658564116.98072,336468.4985885,-60
1658564116.98072,336468.4985968,-65
1658564116.98072,336468.4986035,-55
1658564116.98072,336468.4986122,-53
1658564116.98072,336468.4986192,-70
1658564116.98072,336468.49863,-65
1658564116.98072,336468.4986333,-41
1658564116.98072,336468.4986363,-38
1658564116.98072,336468.4986393,-43
1658564116.98072,336468.4986423,-38
1658564116.98072,336468.4986452,-29
1658564116.98072,336468.4986481,-19
1658564116.98072,336468.498651,-9
1658564116.98072,336468.4986539,-12
1658564116.98072,336468.49866,-14
1658564116.98072,336468.4986742,-2
1658564116.98072,336468.498684,4
1658564116.98072,336468.4986907,0
1658564116.98072,336468.4986976,14
1658564116.98072,336468.4987065,31
1658564116.98072,336468.4987133,29
1658564116.98072,336468.4987202,26
1658564116.98072,336468.4987266,38
1658564116.98072,336468.4987416,43
1658564116.98072,336468.4987547,43
1658564116.98072,336468.4987628,55
1658564116.98072,336468.498766,55
1658564116.98072,336468.4987684,43
1658564116.98072,336468.4987706,46
1658564116.98072,336468.4987728,60
1658564116.98072,336468.4987752,58
1658564116.98072,336468.4987774,51
1658564117.01662,336468.4987795,58
1658564117.01662,336468.4987817,68
1658564117.01662,336468.4987838,68
1658564117.01662,336468.498786,63
1658564117.01662,336469.0497786,65
1658564117.01662,336469.0497948,80
1658564117.01662,336469.0497988,82
1658564117.01662,336469.0498022,72
1658564117.01662,336469.0498056,77
1658564117.01662,336469.0498089,80
1658564117.01662,336469.0498122,68
1658564117.01662,336469.0498155,51
1658564117.01662,336469.0498195,55
1658564117.01662,336469.0498228,65
1658564117.01662,336469.0498275,51
1658564117.01662,336469.0498328,41
1658564117.01662,336469.0498361,48
1658564117.01662,336469.0498394,48
1658564117.01662,336469.0498428,46
1658564117.01662,336469.0498461,51
1658564117.01662,336469.0498496,46
1658564117.01662,336469.0498531,46
1658564117.01662,336469.0498584,55
1658564117.01662,336469.0498619,58
1658564117.56538,336469.0498664,60
1658564117.56538,336469.0498698,60
1658564117.56538,336469.0498732,58
1658564117.56538,336469.0498766,65
1658564117.56538,336469.0498799,75
1658564117.56538,336469.0498833,68
1658564117.56538,336469.0498866,68
1658564117.56538,336469.0498902,82
1658564117.56538,336469.0498939,85
1658564117.56538,336469.0498972,92
1658564117.56538,336469.0499006,111
1658564117.56538,336469.0499039,104
1658564117.56538,336469.0499072,97
1658564117.56538,336469.0499106,114
1658564117.56538,336469.0499139,111
1658564117.56538,336469.0499173,75
1658564117.56538,336469.0499207,63
1658564117.56538,336469.049924,75
1658564117.56538,336469.0499273,72
1658564117.56538,336469.0499307,63
1658564117.56538,336469.049934,60
1658564117.56538,336469.0499373,46
1658564117.56538,336469.0499406,36
1658564117.56538,336469.0499439,21
1658564117.56538,336469.0499474,-63
1658564117.56538,336469.0499507,-165
1658564117.56538,336469.049954,-29
1658564117.56538,336469.0499574,496
1658564117.56538,336469.0499606,1060
1658564117.56538,336469.049964,1077
1658564117.56538,336469.0499673,442
1658564117.56538,336469.0499711,-167
1658564117.56538,336469.0499745,-148
1658564117.56538,336469.0499779,102
1658564117.56538,336469.0499812,63
1658564117.56538,336469.0499846,-31
1658564117.56538,336469.0499879,21
1658564117.56538,336469.0499921,53
1658564117.56538,336469.0499973,21
1658564117.56538,336469.0500023,31
1658564117.56538,336469.0500069,58
1658564117.56538,336469.0500126,63
1658564117.56538,336469.0500169,70
1658564117.56538,336469.0500211,85
1658564117.56538,336469.0500254,94
1658564117.56538,336469.0500294,104
1658564117.56538,336469.0500329,121
1658564117.56538,336469.0500361,141
1658564117.56538,336469.0500396,170
1658564117.56538,336469.0500441,184
1658564117.57635,336469.0500474,187
1658564117.57635,336469.0500506,209
1658564117.57635,336469.0500541,233
1658564117.57635,336469.6679988,243
1658564117.57635,336469.6680187,255
1658564117.57635,336469.6680338,267
1658564117.57635,336469.6680471,253
1658564117.57635,336469.6680575,228
1658564117.57635,336469.6680668,214
1658564117.57635,336469.6680724,177
1658564117.57635,336469.6680845,121
1658564117.57635,336469.6680955,68
1658564117.57635,336469.6681037,12
1658564117.57635,336469.6681151,-38
1658564117.57635,336469.6681243,-58
1658564117.57635,336469.6681343,-55
1658564117.57635,336469.6681414,-51
1658564117.57635,336469.6681541,-46
1658564117.57635,336469.6681638,-51
1658564117.57635,336469.6681707,-53
1658564117.57635,336469.6681828,-46
1658564117.57635,336469.668193,-31
1658564117.57635,336469.6681997,-19
1658564117.57635,336469.6682094,-17
1658564118.16355,336469.6682148,-19
1658564118.16355,336469.6682193,-12
1658564118.16355,336469.6682245,0
1658564118.16355,336469.668229,2
1658564118.16355,336469.6682363,9
1658564118.16355,336469.6682452,26
1658564118.16355,336469.6682544,34
1658564118.16355,336469.6682596,31
1658564118.16355,336469.6682654,34
1658564118.16355,336469.6682741,41
1658564118.16355,336469.6682805,46
1658564118.16355,336469.6682853,48
1658564118.16355,336469.6682922,53
1658564118.16355,336469.668296,48
1658564118.16355,336469.6683,38
1658564118.16355,336469.6683058,38
1658564118.16355,336469.6683096,43
1658564118.16355,336469.668313,43
1658564118.16355,336469.6683184,41
1658564118.16355,336469.6683217,43
1658564118.16355,336469.668325,48
1658564118.16355,336469.6683299,51
1658564118.16355,336469.6683353,53
1658564118.16355,336469.6683398,48
1658564118.16355,336469.6683432,53
1658564118.16355,336469.6683485,63
1658564118.16355,336469.668353,60
1658564118.16355,336469.6683571,55
1658564118.16355,336469.6683631,63
1658564118.16355,336469.6683672,77
1658564118.16355,336469.6683726,82
1658564118.16355,336469.6683759,75
1658564118.16355,336469.6683792,77
1658564118.16355,336469.6683846,82
1658564118.16355,336469.6683898,82
1658564118.16355,336469.6683939,85
1658564118.16355,336469.6683969,82
1658564118.16355,336469.6683999,77
1658564118.16355,336469.6684028,80
1658564118.16355,336469.668406,85
1658564118.16355,336469.668409,87
1658564118.16355,336469.6684119,94
1658564118.16355,336469.6684148,94
1658564118.16355,336469.6684177,87
1658564118.16355,336469.6684206,80
1658564118.16355,336469.6684236,77
1658564118.16355,336469.6684264,77
1658564118.16355,336469.6684294,80
1658564118.16355,336469.6684323,77
1658564118.16355,336469.6684353,77
1658564118.18449,336469.6684383,80
1658564118.18449,336469.6684411,77
1658564118.18449,336470.2530465,68
1658564118.18449,336470.2530674,58
1658564118.18449,336470.2530813,58
1658564118.18449,336470.2530904,70
1658564118.18449,336470.2531004,85
1658564118.18449,336470.253112,82
1658564118.18449,336470.2531187,80
1658564118.18449,336470.2531287,90
1658564118.18449,336470.2531355,87
1658564118.18449,336470.2531409,55
1658564118.18449,336470.2531497,34
1658564118.18449,336470.2531586,46
1658564118.18449,336470.2531703,55
1658564118.18449,336470.253179,29
1658564118.18449,336470.2531883,14
1658564118.18449,336470.2531991,24
1658564118.18449,336470.2532068,34
1658564118.18449,336470.2532178,36
1658564118.18449,336470.2532282,2
1658564118.18449,336470.253237,-126
1658564118.18449,336470.2532497,-141
1658564118.18449,336470.2532585,257
1658564118.64074,336470.2532678,873
1658564118.64074,336470.2532759,1112
1658564118.64074,336470.253287,681
1658564118.64074,336470.2532973,-12
1658564118.64074,336470.2533106,-226
1658564118.64074,336470.2533185,26
1658564118.64074,336470.2533255,87
1658564118.64074,336470.2533337,-48
1658564118.64074,336470.2533405,-31
1658564118.64074,336470.253354,26
1658564118.64074,336470.2533673,-9
1658564118.64074,336470.2533803,0
1658564118.64074,336470.2533935,53
1658564118.64074,336470.2534032,55
1658564118.64074,336470.2534058,48
1658564118.64074,336470.253408,72
1658564118.64074,336470.2534101,77
1658564118.64074,336470.2534122,75
1658564118.64074,336470.2534144,104
1658564118.64074,336470.2534165,133
1658564118.64074,336470.2534186,145
1658564118.64074,336470.2534207,167
1658564118.64074,336470.2534228,192
1658564118.64074,336470.2534249,206
1658564118.64074,336470.2534271,216
1658564118.64074,336470.2534292,233
1658564118.64074,336470.2534313,265
1658564118.64074,336470.2534334,294
1658564118.64074,336470.2534356,291
1658564118.64074,336470.2534377,272
1658564118.64074,336470.2534399,253
1658564118.64074,336470.253442,228
1658564118.64074,336470.253444,189
1658564118.64074,336470.2534462,128
1658564118.64074,336470.2534482,60
1658564118.64074,336470.2534503,24
1658564118.64074,336470.2534524,9
1658564118.64074,336470.2534546,-4
1658564118.64074,336470.2534568,-24
1658564118.64074,336470.2534591,-31
1658564118.64074,336470.2534612,-21
1658564118.64074,336470.2534633,-12
1658564118.64074,336470.2534654,-7
1658564118.64074,336470.2534675,-7
1658564118.64074,336470.2534696,-7
1658564118.64074,336470.2534717,7
1658564118.64074,336470.2534739,14
1658564118.64074,336470.2534759,17
1658564118.64074,336470.2534781,31
1658564118.64074,336470.2534802,41
1658564118.65171,336470.2534822,41
1658564118.65171,336470.7407609,41
1658564118.65171,336470.7407795,43
1658564118.65171,336470.7407888,43
1658564118.65171,336470.7407958,46
1658564118.65171,336470.7408031,60
1658564118.65171,336470.7408086,75
1658564118.65171,336470.7408171,72
1658564118.65171,336470.7408244,58
1658564118.65171,336470.7408397,63
1658564118.65171,336470.7408492,58
1658564118.65171,336470.7408658,41
1658564118.65171,336470.7408735,41
1658564118.65171,336470.7408803,58
1658564118.65171,336470.7408845,63
1658564118.65171,336470.7408877,46
1658564118.65171,336470.7408906,29
1658564118.65171,336470.7408938,31
1658564118.65171,336470.7408969,34
1658564118.65171,336470.7409,29
1658564118.65171,336470.7409029,38
1658564118.65171,336470.7409059,43
1658564118.65171,336470.7409087,24
1658564118.65171,336470.7409117,21
1658564119.22744,336470.7409162,34
1658564119.22744,336470.7409232,26
1658564119.22744,336470.7409303,36
1658564119.22744,336470.7409376,58
1658564119.22744,336470.7409434,55
1658564119.22744,336470.7409479,43
1658564119.22744,336470.7409516,36
1658564119.22744,336470.7409552,43
1658564119.22744,336470.7409597,48
1658564119.22744,336470.7409673,46
1658564119.22744,336470.7409749,63
1658564119.22744,336470.7409811,82
1658564119.22744,336470.7409887,68
1658564119.22744,336470.740996,55
1658564119.22744,336470.7410026,65
1658564119.22744,336470.741009,82
1658564119.22744,336470.7410147,77
1658564119.22744,336470.7410218,63
1658564119.22744,336470.7410288,53
1658564119.22744,336470.7410362,46
1658564119.22744,336470.7410429,68
1658564119.22744,336470.7410483,107
1658564119.22744,336470.7410575,107
1658564119.22744,336470.7410622,92
1658564119.22744,336470.741071,97
1658564119.22744,336470.7410789,77
1658564119.22744,336470.7410857,41
1658564119.22744,336470.7410936,34
1658564119.22744,336470.7411004,38
1658564119.22744,336470.7411092,38
1658564119.22744,336470.7411162,38
1658564119.22744,336470.7411208,36
1658564119.22744,336470.741124,36
1658564119.22744,336470.741127,41
1658564119.22744,336470.7411311,46
1658564119.22744,336470.7411347,17
1658564119.22744,336470.74114,-92
1658564119.22744,336470.7411435,-124
1658564119.22744,336470.7411469,248
1658564119.22744,336470.7411519,919
1658564119.22744,336470.7411551,1223
1658564119.22744,336470.7411583,749
1658564119.22744,336470.7411616,-29
1658564119.22744,336470.7411648,-282
1658564119.22744,336470.74117,-2
1658564119.22744,336470.7411742,126
1658564119.22744,336470.7411773,9
1658564119.22744,336470.7411817,12
1658564119.22744,336470.7411853,72
1658564119.22744,336470.7411914,43
1658564119.23841,336471.3259993,36
1658564119.23841,336471.3260175,77
1658564119.23841,336471.3260264,85
1658564119.23841,336471.3260348,85
1658564119.23841,336471.3260394,104
1658564119.23841,336471.3260455,107
1658564119.23841,336471.32605,94
1658564119.23841,336471.3260561,107
1658564119.23841,336471.3260614,133
1658564119.23841,336471.3260683,145
1658564119.23841,336471.3260728,153
1658564119.23841,336471.3260788,175
1658564119.23841,336471.326083,201
1658564119.23841,336471.3260891,206
1658564119.23841,336471.3260958,209
1658564119.23841,336471.3261019,228
1658564119.23841,336471.3261061,240
1658564119.23841,336471.326112,236
1658564119.23841,336471.3261159,231
1658564119.23841,336471.3261199,218
1658564119.23841,336471.3261237,184
1658564119.23841,336471.3261289,128
1658564119.23841,336471.3261324,70
1658564119.23841,336471.3261388,17
1658564119.8094,336471.3261429,-31
1658564119.8094,336471.326147,-60
1658564119.8094,336471.3261509,-68
1658564119.8094,336471.3261546,-68
1658564119.8094,336471.3261583,-68
1658564119.8094,336471.3261624,-68
1658564119.8094,336471.326166,-60
1658564119.8094,336471.3261696,-55
1658564119.8094,336471.3261734,-53
1658564119.8094,336471.3261775,-43
1658564119.8094,336471.3261814,-34
1658564119.8094,336471.3261851,-24
1658564119.8094,336471.3261886,-19
1658564119.8094,336471.3261921,-21
1658564119.8094,336471.3261953,-7
1658564119.8094,336471.3261987,0
1658564119.8094,336471.3262029,-9
1658564119.8094,336471.3262087,-4
1658564119.8094,336471.3262126,17
1658564119.8094,336471.3262161,26
1658564119.8094,336471.3262195,17
1658564119.8094,336471.3262248,24
1658564119.8094,336471.3262289,46
1658564119.8094,336471.3262347,41
1658564119.8094,336471.3262383,36
1658564119.8094,336471.3262433,51
1658564119.8094,336471.3262474,51
1658564119.8094,336471.3262526,43
1658564119.8094,336471.3262562,48
1658564119.8094,336471.3262618,55
1658564119.8094,336471.3262683,53
1658564119.8094,336471.3262768,51
1658564119.8094,336471.3262835,51
1658564119.8094,336471.326293,55
1658564119.8094,336471.3263025,68
1658564119.8094,336471.326311,68
1658564119.8094,336471.3263177,53
1658564119.8094,336471.326326,53
1658564119.8094,336471.326333,65
1658564119.8094,336471.3263415,68
1658564119.8094,336471.3263485,63
1658564119.8094,336471.326359,72
1658564119.8094,336471.3263625,77
1658564119.8094,336471.3263655,70
1658564119.8094,336471.3263684,80
1658564119.8094,336471.3263713,80
1658564119.8094,336471.3263744,68
1658564119.8094,336471.3263773,68
1658564119.8094,336471.3263803,68
1658564119.8094,336471.9110195,63
1658564119.82134,336471.9110935,65
1658564119.82134,336471.9111015,60
1658564119.82134,336471.9111049,60
1658564119.82134,336471.9111081,94
1658564119.82134,336471.9111111,107
1658564119.82134,336471.9111141,82
1658564119.82134,336471.9111178,80
1658564119.82134,336471.9111286,80
1658564119.82134,336471.9111372,41
1658564119.82134,336471.9111458,2
1658564119.82134,336471.9111553,7
1658564119.82134,336471.9111577,12
1658564119.82134,336471.91116,2
1658564119.82134,336471.911162,4
1658564119.82134,336471.9111642,4
1658564119.82134,336471.9111665,-17
1658564119.82134,336471.9111687,-21
1658564119.82134,336471.9111714,-43
1658564119.82134,336471.9111735,-155
1658564119.82134,336471.9111757,-165
1658564119.82134,336471.9111778,238
1658564119.82134,336471.91118,875
1658564119.82134,336471.9111821,1141
1658564119.82134,336471.9111842,691
1658564120.3463,336471.9111864,-53
1658564120.3463,336471.9111885,-282
1658564120.3463,336471.9111905,-4
1658564120.3463,336471.9111925,90
1658564120.3463,336471.9111945,-36
1658564120.3463,336471.9111964,-29
1658564120.3463,336471.9111984,24
1658564120.3463,336471.9112004,2
1658564120.3463,336471.9112024,2
1658564120.3463,336471.9112044,31
1658564120.3463,336471.9112064,36
1658564120.3463,336471.9112085,48
1658564120.3463,336471.9112514,70
1658564120.3463,336471.9112601,82
1658564120.3463,336471.9112627,90
1658564120.3463,336471.9112649,107
1658564120.3463,336471.9112669,121
1658564120.3463,336471.9112691,131
1658564120.3463,336471.9112711,148
1658564120.3463,336471.9112734,177
1658564120.3463,336471.9112755,209
1658564120.3463,336471.9112776,228
1658564120.3463,336471.9112798,243
1658564120.3463,336471.9112819,262
1658564120.3463,336471.911284,274
1658564120.3463,336471.9112862,272
1658564120.3463,336471.9112884,272
1658564120.3463,336471.9112905,257
1658564120.3463,336471.9112926,216
1658564120.3463,336471.9112947,165
1658564120.3463,336471.9113006,107
1658564120.3463,336471.911305,51
1658564120.3463,336471.9113116,17
1658564120.3463,336471.9113171,-2
1658564120.3463,336471.9113239,-14
1658564120.3463,336471.9113275,-9
1658564120.3463,336471.9113309,-7
1658564120.3463,336471.9113331,-19
1658564120.3463,336471.9113354,-17
1658564120.3463,336471.9113376,-2
1658564120.3463,336471.9113397,-2
1658564120.3463,336471.9113418,-12
1658564120.3463,336471.911344,-7
1658564120.3463,336471.9113462,0
1658564120.3463,336471.9113483,9
1658564120.3463,336471.9113505,29
1658564120.3463,336471.9113525,38
1658564120.3463,336471.9113546,14
1658564120.3463,336472.4475084,4
1658564120.3463,336472.447525,29
1658564120.35328,336472.4475304,43
1658564120.35328,336472.4475368,31
1658564120.35328,336472.4475415,24
1658564120.35328,336472.4475481,36
1658564120.35328,336472.4475524,38
1658564120.35328,336472.4475568,31
1658564120.35328,336472.4475612,36
1658564120.35328,336472.4475656,46
1658564120.35328,336472.4475715,43
1658564120.35328,336472.4475768,36
1658564120.35328,336472.4475833,24
1658564120.35328,336472.447588,14
1658564120.35328,336472.4475939,29
1658564120.35328,336472.447598,31
1658564120.35328,336472.447604,17
1658564120.35328,336472.447608,24
1658564120.35328,336472.4476127,51
1658564120.35328,336472.447619,48
1658564120.35328,336472.4476236,29
1658564120.35328,336472.4476298,36
1658564120.35328,336472.447635,48
1658564120.35328,336472.4476414,43
1658564120.35328,336472.4476456,38
1658564120.35328,336472.4476515,46
1658564120.93168,336472.447657,46
1658564120.93168,336472.447695,43
1658564120.93168,336472.4477183,53
1658564120.93168,336472.4477269,63
1658564120.93168,336472.4477307,55
1658564120.93168,336472.4477343,48
1658564120.93168,336472.4477377,55
1658564120.93168,336472.4477436,68
1658564120.93168,336472.4477479,85
1658564120.93168,336472.4477533,104
1658564120.93168,336472.4477596,111
1658564120.93168,336472.4477671,109
1658564120.93168,336472.4477742,97
1658564120.93168,336472.4477809,72
1658564120.93168,336472.4477875,65
1658564120.93168,336472.4477943,77
1658564120.93168,336472.4478007,75
1658564120.93168,336472.4478073,68
1658564120.93168,336472.4478138,72
1658564120.93168,336472.4478204,77
1658564120.93168,336472.4478268,75
1658564120.93168,336472.4478333,72
1658564120.93168,336472.4478401,14
1658564120.93168,336472.4478468,-92
1658564120.93168,336472.447851,19
1658564120.93168,336472.4478552,537
1658564120.93168,336472.4478586,1090
1658564120.93168,336472.4478632,1077
1658564120.93168,336472.4478668,413
1658564120.93168,336472.4478711,-189
1658564120.93168,336472.4478745,-133
1658564120.93168,336472.4478785,124
1658564120.93168,336472.447886,70
1658564120.93168,336472.4478928,-24
1658564120.93168,336472.4479,29
1658564120.93168,336472.447907,46
1658564120.93168,336472.4479139,21
1658564120.93168,336472.4479185,36
1658564120.93168,336472.4479236,41
1658564120.93168,336472.4479265,34
1658564120.93168,336472.4479294,55
1658564120.93168,336472.4479323,75
1658564120.93168,336472.4479357,77
1658564120.93168,336472.4479391,87
1658564120.93168,336472.4479428,107
1658564120.93168,336472.4479458,116
1658564120.93168,336472.4479494,126
1658564120.93168,336473.0326058,148
1658564120.93168,336473.0326247,175
1658564120.93168,336473.0326322,197
1658564120.94364,336473.0326393,211
1658564120.94364,336473.0326431,233
1658564120.94364,336473.032656,253
1658564120.94364,336473.0326646,255
1658564120.94364,336473.0326695,253
1658564120.94364,336473.0326759,248
1658564120.94364,336473.03268,209
1658564120.94364,336473.0326837,143
1658564120.94364,336473.0326876,77
1658564120.94364,336473.0326915,24
1658564120.94364,336473.0326953,-14
1658564120.94364,336473.0326994,-41
1658564120.94364,336473.0327029,-68
1658564120.94364,336473.0327065,-94
1658564120.94364,336473.03271,-99
1658564120.94364,336473.0327136,-75
1658564120.94364,336473.0327187,-63
1658564120.94364,336473.0327329,-70
1658564120.94364,336473.0327445,-68
1658564120.94364,336473.0327527,-55
1658564120.94364,336473.0327661,-46
1658564120.94364,336473.0327737,-41
1658564120.94364,336473.0327786,-36
1658564120.94364,336473.0327854,-21
1658564121.46051,336473.0327902,-14
1658564121.46051,336473.0327966,-14

1658564121.46051,336473.032801,-2
1658564121.46051,336473.0328058,17
1658564121.46051,336473.0328091,21
1658564121.46051,336473.0328153,12
1658564121.46051,336473.0328184,12
1658564121.46051,336473.0328265,29
1658564121.46051,336473.0328319,41
1658564121.46051,336473.032835,38
1658564121.46051,336473.032838,38
1658564121.46051,336473.032841,38
1658564121.46051,336473.0328441,38
1658564121.46051,336473.032847,43
1658564121.46051,336473.03285,43
1658564121.46051,336473.0328529,48
1658564121.46051,336473.0328559,60
1658564121.46051,336473.0328588,58
1658564121.46051,336473.0328619,46
1658564121.46051,336473.0328648,46
1658564121.46051,336473.0328677,51
1658564121.46051,336473.0328706,58
1658564121.46051,336473.0328736,68
1658564121.46051,336473.0328778,63
1658564121.46051,336473.0328867,63
1658564121.46051,336473.0328954,75
1658564121.46051,336473.0329037,68
1658564121.46051,336473.0329113,46
1658564121.46051,336473.0329157,53
1658564121.46051,336473.0329197,70
1658564121.46051,336473.0329529,65
1658564121.46051,336473.0329626,77
1658564121.46051,336473.0329676,102
1658564121.46051,336473.032975,109
1658564121.46051,336473.0329784,104
1658564121.46051,336473.032992,85
1658564121.46051,336473.0330019,60
1658564121.46051,336473.0330118,65
1658564121.46051,336473.0330213,75
1658564121.46051,336473.0330292,68
1658564121.46051,336473.033036,63
1658564121.46051,336473.0330438,70
1658564121.46051,336473.0330528,80
1658564121.46051,336473.0330605,75
1658564121.46051,336473.0330679,36
1658564121.46051,336473.0330722,-53
1658564121.46051,336473.5686284,-72
1658564121.46051,336473.5686498,250
1658564121.46051,336473.5686688,846
1658564121.46051,336473.5686819,1167
1658564121.4715,336473.5686962,798
1658564121.4715,336473.5687103,68
1658564121.4715,336473.5687238,-223
1658564121.4715,336473.5687381,31
1658564121.4715,336473.5687466,158
1658564121.4715,336473.5687491,34
1658564121.4715,336473.5687512,19
1658564121.4715,336473.5687534,77
1658564121.4715,336473.5687562,63
1658564121.4715,336473.5687662,36
1658564121.4715,336473.5687727,51
1658564121.4715,336473.5687751,70
1658564121.4715,336473.5687773,85
1658564121.4715,336473.5687794,90
1658564121.4715,336473.5687816,85
1658564121.4715,336473.5687838,82
1658564121.4715,336473.5687859,94
1658564121.4715,336473.5687922,121
1658564121.4715,336473.5688061,133
1658564121.4715,336473.56882,138
1658564121.4715,336473.5688317,163
1658564121.4715,336473.5688451,184
1658564121.4715,336473.5688614,199
1658564121.4715,336473.5688739,221
1658564121.99914,336473.5688855,233
1658564121.99914,336473.5689135,231
1658564121.99914,336473.5689212,228
1658564121.99914,336473.5689265,226
1658564121.99914,336473.5689311,211
1658564121.99914,336473.5689359,163
1658564121.99914,336473.5689403,94
1658564121.99914,336473.5689447,38
1658564121.99914,336473.5689492,2
1658564121.99914,336473.5689538,-38
1658564121.99914,336473.5689581,-72
1658564121.99914,336473.5689626,-82
1658564121.99914,336473.5689669,-77
1658564121.99914,336473.568971,-70
1658564121.99914,336473.5689762,-60
1658564121.99914,336473.5689824,-58
1658564121.99914,336473.5689889,-58
1658564121.99914,336473.5689948,-51
1658564121.99914,336473.5690003,-41
1658564121.99914,336473.5690055,-38
1658564121.99914,336473.5690144,-26
1658564121.99914,336473.5690209,-17
1658564121.99914,336473.5690243,-26
1658564121.99914,336473.56903,-31
1658564121.99914,336473.5690332,-19
1658564121.99914,336473.5690375,-12
1658564121.99914,336473.5690431,-4
1658564121.99914,336473.5690499,4
1658564121.99914,336473.5690592,14
1658564121.99914,336473.5690683,19
1658564121.99914,336473.5690769,19
1658564121.99914,336473.5690858,17
1658564121.99914,336473.569095,21
1658564121.99914,336473.5691042,31
1658564121.99914,336473.5691133,36
1658564121.99914,336473.5691218,36
1658564121.99914,336473.5691293,38
1658564121.99914,336473.5691389,36
1658564121.99914,336473.5691522,36
1658564121.99914,336473.5691657,38
1658564121.99914,336473.5691787,38
1658564121.99914,336473.5691923,43
1658564121.99914,336473.5692063,48
1658564121.99914,336473.5692192,46
1658564121.99914,336473.5692325,43
1658564121.99914,336474.1047317,46
1658564121.99914,336474.104763,41
1658564121.99914,336474.1047745,51
1658564121.99914,336474.1047849,80
1658564121.99914,336474.1047901,102
1658564122.00976,336474.1047955,97
1658564122.00976,336474.104802,102
1658564122.00976,336474.1048159,111
1658564122.00976,336474.1048278,90
1658564122.00976,336474.1048337,46
1658564122.00976,336474.1048386,36
1658564122.00976,336474.1048433,51
1658564122.00976,336474.104848,51
1658564122.00976,336474.1048551,48
1658564122.00976,336474.1048598,63
1658564122.00976,336474.1048646,46
1658564122.00976,336474.104874,12
1658564122.00976,336474.1048828,9
1658564122.00976,336474.1048887,-51
1658564122.00976,336474.1048933,-121
1658564122.00976,336474.1049018,136
1658564122.00976,336474.1049095,729
1658564122.00976,336474.1049194,1114
1658564122.00976,336474.1049258,854
1658564122.00976,336474.1049342,150
1658564122.00976,336474.1049438,-238
1658564122.00976,336474.1049516,-38
1658564122.00976,336474.1049591,145
1658564122.00976,336474.1049647,38
1658564122.58781,336474.1049699,-2
1658564122.58781,336474.104976,63
1658564122.58781,336474.1049809,63
1658564122.58781,336474.1049871,46
1658564122.58781,336474.1049917,68
1658564122.58781,336474.1050021,80
1658564122.58781,336474.1050102,82
1658564122.58781,336474.105015,104
1658564122.58781,336474.1050246,124
1658564122.58781,336474.1050323,121
1658564122.58781,336474.1050402,136
1658564122.58781,336474.1050456,163
1658564122.58781,336474.1050493,175
1658564122.58781,336474.1050626,177
1658564122.58781,336474.105075,184
1658564122.58781,336474.1050863,197
1658564122.58781,336474.1050951,223
1658564122.58781,336474.1051035,260
1658564122.58781,336474.1051119,272
1658564122.58781,336474.1051207,265
1658564122.58781,336474.105134,265
1658564122.58781,336474.1051459,262
1658564122.58781,336474.1051608,248
1658564122.58781,336474.1051737,223
1658564122.58781,336474.1051857,177
1658564122.58781,336474.1051957,111
1658564122.58781,336474.1052087,68
1658564122.58781,336474.1052224,41
1658564122.58781,336474.1052318,7
1658564122.58781,336474.1052417,-17
1658564122.58781,336474.1052501,-21
1658564122.58781,336474.1052581,-19
1658564122.58781,336474.1053422,-17
1658564122.58781,336474.1053563,-4
1658564122.58781,336474.1053622,4
1658564122.58781,336474.1053661,4
1658564122.58781,336474.1053712,7
1658564122.58781,336474.1053745,4
1658564122.58781,336474.1053818,2
1658564122.58781,336474.1053893,7
1658564122.58781,336474.1053954,12
1658564122.58781,336474.1054016,19
1658564122.58781,336474.1054058,31
1658564122.58781,336474.1054091,29
1658564122.58781,336474.6893798,9
1658564122.58781,336474.6893923,14
1658564122.58781,336474.6893965,41
1658564122.58781,336474.6894039,36
1658564122.58781,336474.6894082,17
1658564122.58781,336474.689412,14
1658564122.59778,336474.6894141,7
1658564122.59778,336474.6894176,-14
1658564122.59778,336474.6894201,0
1658564122.59778,336474.6894223,26
1658564122.59778,336474.6894244,24
1658564122.59778,336474.6894369,12
1658564122.59778,336474.6894475,4
1658564122.59778,336474.6894542,-4
1658564122.59778,336474.6894568,2
1658564122.59778,336474.689459,9
1658564122.59778,336474.6894612,2
1658564122.59778,336474.6894633,-9
1658564122.59778,336474.6894656,-14
1658564122.59778,336474.6894678,-14
1658564122.59778,336474.6894699,2
1658564122.59778,336474.689472,26
1658564122.59778,336474.6894742,41
1658564122.59778,336474.6894766,51
1658564122.59778,336474.6894787,60
1658564122.59778,336474.6894808,72
1658564122.59778,336474.689483,65
1658564122.59778,336474.6894851,46
1658564122.59778,336474.6894871,38
1658564122.59778,336474.6894892,36
1658564123.12012,336474.6894914,36
1658564123.12012,336474.6894934,38
1658564123.12012,336474.6894954,36
1658564123.12012,336474.6894975,41
1658564123.12012,336474.6894995,51
1658564123.12012,336474.6895015,43
1658564123.12012,336474.6895036,-17
1658564123.12012,336474.6895057,-111
1658564123.12012,336474.6895078,-4
1658564123.12012,336474.6895099,513
1658564123.12012,336474.6895119,1097
1658564123.12012,336474.6895139,1070
1658564123.12012,336474.689516,367
1658564123.12012,336474.6895181,-243
1658564123.12012,336474.6895201,-184
1658564123.12012,336474.6895222,111
1658564123.12012,336474.6895243,109
1658564123.12012,336474.6895264,12
1658564123.12012,336474.6895286,36
1658564123.12012,336474.6895307,55
1658564123.12012,336474.6895329,41
1658564123.12012,336474.689535,63
1658564123.12012,336474.6895371,92
1658564123.12012,336474.6895393,97
1658564123.12012,336474.6895415,102
1658564123.12012,336474.6895436,119
1658564123.12012,336474.6895459,121
1658564123.12012,336474.689548,126
1658564123.12012,336474.6895502,148
1658564123.12012,336474.6895523,167
1658564123.12012,336474.6895549,175
1658564123.12012,336474.689557,199
1658564123.12012,336474.6895591,228
1658564123.12012,336474.6895612,236
1658564123.12012,336474.6895634,245
1658564123.12012,336474.6895655,270
1658564123.12012,336474.6895677,284
1658564123.12012,336474.6895699,279
1658564123.12012,336474.689572,277
1658564123.12012,336474.6895741,277
1658564123.12012,336474.6895763,248
1658564123.12012,336474.6895785,182
1658564123.12012,336474.6895806,116
1658564123.12012,336475.2263563,77
1658564123.12012,336475.2263779,43
1658564123.12012,336475.2263862,4
1658564123.12012,336475.2263889,-19
1658564123.12012,336475.2263912,-21
1658564123.12012,336475.2263933,-9
1658564123.12012,336475.2263955,-9
1658564123.13087,336475.2263977,-21
1658564123.13087,336475.2263998,-31
1658564123.13087,336475.226402,-31
1658564123.13087,336475.2264041,-29
1658564123.13087,336475.2264062,-26
1658564123.13087,336475.2264105,-17
1658564123.13087,336475.226422,-4
1658564123.13087,336475.2264267,0
1658564123.13087,336475.2264342,-12
1658564123.13087,336475.22644,-24
1658564123.13087,336475.2264479,-7
1658564123.13087,336475.2264592,12
1658564123.13087,336475.2264746,0
1658564123.13087,336475.2265159,2
1658564123.13087,336475.2265722,19
1658564123.13087,336475.226577,17
1658564123.13087,336475.2265808,4
1658564123.13087,336475.2265845,2
1658564123.13087,336475.2265883,9
1658564123.13087,336475.2265918,26
1658564123.13087,336475.2265954,29
1658564123.13087,336475.2265993,9
1658564123.13087,336475.2266031,0
1658564123.13087,336475.2266069,-2
1658564123.75944,336475.2266124,-4
1658564123.75944,336475.226616,-4
1658564123.75944,336475.2266199,-7
1658564123.75944,336475.2266237,-19
1658564123.75944,336475.2266275,-29
1658564123.75944,336475.2266311,-19
1658564123.75944,336475.2266347,4
1658564123.75944,336475.2266384,21
1658564123.75944,336475.2266422,26
1658564123.75944,336475.2266461,34
1658564123.75944,336475.2266496,46
1658564123.75944,336475.2266537,34
1658564123.75944,336475.2266576,4
1658564123.75944,336475.2266612,0
1658564123.75944,336475.2266648,12
1658564123.75944,336475.2266684,2
1658564123.75944,336475.2266722,-4
1658564123.75944,336475.226676,9
1658564123.75944,336475.2266849,24
1658564123.75944,336475.2266907,21
1658564123.75944,336475.2266942,14
1658564123.75944,336475.2266981,-31
1658564123.75944,336475.2267022,-136
1658564123.75944,336475.2267057,-58
1658564123.75944,336475.2267152,437
1658564123.75944,336475.2267258,1024
1658564123.75944,336475.2267376,1075
1658564123.75944,336475.226743,459
1658564123.75944,336475.2267473,-172
1658564123.75944,336475.2267539,-177
1658564123.75944,336475.2267668,97
1658564123.75944,336475.2267804,97
1658564123.75944,336475.2267936,4
1658564123.75944,336475.226807,41
1658564123.75944,336475.2268201,58
1658564123.75944,336475.2268334,31
1658564123.75944,336475.2268454,51
1658564123.75944,336475.2269172,77
1658564123.75944,336475.2269245,80
1658564123.75944,336475.2269294,92
1658564123.75944,336475.2269364,104
1658564123.75944,336475.2269408,102
1658564123.75944,336475.8596831,104
1658564123.75944,336475.8596962,124
1658564123.75944,336475.8597013,155
1658564123.75944,336475.8597049,170
1658564123.75944,336475.8597073,172
1658564123.75944,336475.8597096,187
1658564123.75944,336475.859712,201
1658564123.75944,336475.8597144,209
1658564123.77041,336475.8597167,228
1658564123.77041,336475.859719,245
1658564123.77041,336475.8597214,248
1658564123.77041,336475.8597237,236
1658564123.77041,336475.859726,209
1658564123.77041,336475.8597291,170
1658564123.77041,336475.8597369,126
1658564123.77041,336475.8597479,75
1658564123.77041,336475.8597514,29
1658564123.77041,336475.8597544,-2
1658564123.77041,336475.8597574,-34
1658564123.77041,336475.8597603,-53
1658564123.77041,336475.8597632,-46
1658564123.77041,336475.8597662,-36
1658564123.77041,336475.8597691,-48
1658564123.77041,336475.8597722,-55
1658564123.77041,336475.8597751,-48
1658564123.77041,336475.859778,-43
1658564123.77041,336475.859781,-34
1658564123.77041,336475.8597839,-21
1658564123.77041,336475.8597868,-17
1658564123.77041,336475.8597897,-2
1658564123.77041,336475.8597926,2
1658564123.77041,336475.8597956,-7
1658564124.34145,336475.8597985,-2
1658564124.34145,336475.8598014,17
1658564124.34145,336475.8598063,24
1658564124.34145,336475.859809,14
1658564124.34145,336475.8598162,19
1658564124.34145,336475.8598254,38
1658564124.34145,336475.8598303,46
1658564124.34145,336475.8598337,34
1658564124.34145,336475.8598372,31
1658564124.34145,336475.859841,41
1658564124.34145,336475.8598448,46
1658564124.34145,336475.859848,48
1658564124.34145,336475.859852,53
1658564124.34145,336475.8598569,51
1658564124.34145,336475.8598604,51
1658564124.34145,336475.859864,55
1658564124.34145,336475.8598678,58
1658564124.34145,336475.8598759,60
1658564124.34145,336475.8598813,60
1658564124.34145,336475.8598882,60
1658564124.34145,336475.8598939,46
1658564124.34145,336475.8599003,38
1658564124.34145,336475.8599075,55
1658564124.34145,336475.8599155,85
1658564124.34145,336475.8599222,99
1658564124.34145,336475.8599311,102
1658564124.34145,336475.859939,104
1658564124.34145,336475.8599479,99
1658564124.34145,336475.8599546,77
1658564124.34145,336475.8599638,53
1658564124.34145,336475.8599706,43
1658564124.34145,336475.8599792,41
1658564124.34145,336475.8599871,31
1658564124.34145,336475.8599952,36
1658564124.34145,336475.8600014,43
1658564124.34145,336475.8600093,41
1658564124.34145,336475.8600161,36
1658564124.34145,336475.8600243,9
1658564124.34145,336475.860031,-85
1658564124.34145,336475.8600392,-116
1658564124.34145,336475.8600455,204
1658564124.34145,336476.4445221,805
1658564124.34145,336476.4445354,1129
1658564124.34145,336476.444538,761
1658564124.34145,336476.4445403,36
1658564124.34145,336476.4445425,-248
1658564124.34145,336476.4445446,12
1658564124.34145,336476.4445467,141
1658564124.34145,336476.4445488,19
1658564124.34145,336476.4445509,0
1658564124.35341,336476.444553,36
1658564124.35341,336476.444555,7
1658564124.35341,336476.4445572,14
1658564124.35341,336476.4445593,46
1658564124.35341,336476.4445613,43
1658564124.35341,336476.4445644,46
1658564124.35341,336476.4445727,43
1658564124.35341,336476.4445835,29
1658564124.35341,336476.4445878,46
1658564124.35341,336476.4445899,77
1658564124.35341,336476.444592,90
1658564124.35341,336476.4445942,94
1658564124.35341,336476.4445962,116
1658564124.35341,336476.4445983,141
1658564124.35341,336476.4446004,150
1658564124.35341,336476.4446023,170
1658564124.35341,336476.4446045,199
1658564124.35341,336476.4446065,209
1658564124.35341,336476.4446086,204
1658564124.35341,336476.4446106,201
1658564124.35341,336476.4446127,201
1658564124.35341,336476.4446148,192
1658564124.35341,336476.4446169,163
1658564124.35341,336476.4446189,114
1658564124.83011,336476.444621,55
1658564124.83011,336476.444623,14
1658564124.83011,336476.444625,-2
1658564124.83011,336476.444627,-19
1658564124.83011,336476.4446289,-31
1658564124.83011,336476.4446308,-26
1658564124.83011,336476.4446327,-31
1658564124.83011,336476.4446346,-36
1658564124.83011,336476.4446365,-26
1658564124.83011,336476.4446386,-19
1658564124.83011,336476.4446405,-14
1658564124.83011,336476.4446425,2
1658564124.83011,336476.4446445,7
1658564124.83011,336476.4446466,9
1658564124.83011,336476.4446487,21
1658564124.83011,336476.4446508,34
1658564124.83011,336476.4446528,31
1658564124.83011,336476.444655,29
1658564124.83011,336476.4446571,36
1658564124.83011,336476.4446592,53
1658564124.83011,336476.4446619,63
1658564124.83011,336476.4446641,48
1658564124.83011,336476.4446662,43
1658564124.83011,336476.4446683,58
1658564124.83011,336476.4446704,63
1658564124.83011,336476.4446724,60
1658564124.83011,336476.4446745,53
1658564124.83011,336476.4446766,48
1658564124.83011,336476.4446786,63
1658564124.83011,336476.4446807,82
1658564124.83011,336476.4446828,68
1658564124.83011,336476.4446848,55
1658564124.83011,336476.4446869,65
1658564124.83011,336476.4446891,72
1658564124.83011,336476.4446912,80
1658564124.83011,336476.4446933,82
1658564124.83011,336476.4446953,65
1658564124.83011,336476.4446974,70
1658564124.83011,336476.4446994,92
1658564124.83011,336476.4447015,92
1658564124.83011,336476.9320414,72
1658564124.83011,336476.9320622,68
1658564124.83011,336476.9320757,75
1658564124.83011,336476.9320816,97
1658564124.83011,336476.932085,121
1658564124.83011,336476.9320882,121
1658564124.83011,336476.9320915,111
1658564124.83011,336476.9320961,104
1658564124.83011,336476.9321001,77
1658564124.83011,336476.9321032,51
1658564124.84208,336476.9321064,48
1658564124.84208,336476.9321095,46
1658564124.84208,336476.9321125,41
1658564124.84208,336476.9321157,41
1658564124.84208,336476.9321188,21
1658564124.84208,336476.9321231,12
1658564124.84208,336476.9321263,26
1658564124.84208,336476.9321307,4
1658564124.84208,336476.9321357,-109
1658564124.84208,336476.9321404,-143
1658564124.84208,336476.9321432,216
1658564124.84208,336476.932147,839
1658564124.84208,336476.9321501,1109
1658564124.84208,336476.9321595,659
1658564124.84208,336476.9321661,-72
1658564124.84208,336476.9321685,-304
1658564124.84208,336476.9321706,-41
1658564124.84208,336476.9321728,68
1658564124.84208,336476.9321749,-41
1658564124.84208,336476.9321769,-46
1658564124.84208,336476.932179,12
1658564124.84208,336476.932181,-2
1658564124.84208,336476.9321831,-9
1658564124.84208,336476.9321851,24
1658564125.41946,336476.9321873,38
1658564125.41946,336476.9321894,31
1658564125.41946,336476.9321913,43
1658564125.41946,336476.9321933,65
1658564125.41946,336476.9321952,68
1658564125.41946,336476.9321971,80
1658564125.41946,336476.932199,109
1658564125.41946,336476.932201,136
1658564125.41946,336476.9322029,155
1658564125.41946,336476.9322049,163
1658564125.41946,336476.9322069,170
1658564125.41946,336476.9322089,187
1658564125.41946,336476.9322108,201
1658564125.41946,336476.9322128,211
1658564125.41946,336476.9322167,211
1658564125.41946,336476.9322188,214
1658564125.41946,336476.9322209,221
1658564125.41946,336476.9322231,197
1658564125.41946,336476.9322252,150
1658564125.41946,336476.9322272,111
1658564125.41946,336476.9322292,65
1658564125.41946,336476.9322313,17
1658564125.41946,336476.9322334,-21
1658564125.41946,336476.9322355,-31
1658564125.41946,336476.9322375,-9
1658564125.41946,336476.9322396,-7
1658564125.41946,336476.9322419,-34
1658564125.41946,336476.9322439,-31
1658564125.41946,336476.932246,-4
1658564125.41946,336476.9322481,-2
1658564125.41946,336476.9322502,-9
1658564125.41946,336476.9322523,0
1658564125.41946,336476.9322545,7
1658564125.41946,336476.9322565,9
1658564125.41946,336476.9322586,29
1658564125.41946,336476.9322607,38
1658564125.41946,336476.9322627,21
1658564125.41946,336476.9322648,26
1658564125.41946,336476.9322669,53
1658564125.41946,336477.5194754,51
1658564125.41946,336477.5194952,26
1658564125.41946,336477.5195051,26
1658564125.41946,336477.5195124,48
1658564125.41946,336477.5195191,41
1658564125.41946,336477.519524,21
1658564125.41946,336477.5195301,29
1658564125.41946,336477.519534,38
1658564125.41946,336477.5195393,21
1658564125.41946,336477.5195435,4
1658564125.41946,336477.5195472,7
1658564125.43043,336477.5195525,7
1658564125.43043,336477.5195562,14
1658564125.43043,336477.5195602,34
1658564125.43043,336477.5195654,34
1658564125.43043,336477.5195691,9
1658564125.43043,336477.519573,0
1658564125.43043,336477.5195805,9
1658564125.43043,336477.5195845,12
1658564125.43043,336477.51959,4
1658564125.43043,336477.5195939,2
1658564125.43043,336477.5195979,7
1658564125.43043,336477.5196033,14
1658564125.43043,336477.5196069,31
1658564125.43043,336477.5196103,55
1658564125.43043,336477.5196154,70
1658564125.43043,336477.519619,77
1658564125.43043,336477.5196227,60
1658564125.43043,336477.5196264,24
1658564125.43043,336477.5196305,14
1658564125.43043,336477.5196344,17
1658564125.43043,336477.5196398,9
1658564125.43043,336477.5196438,12
1658564125.43043,336477.5196488,17
1658564125.43043,336477.5196528,9
1658564125.95157,336477.5196562,9
1658564125.95157,336477.5196593,9
1658564125.95157,336477.5196627,-46
1658564125.95157,336477.5196689,-153
1658564125.95157,336477.5196752,-85
1658564125.95157,336477.5196817,372
1658564125.95157,336477.519688,946
1658564125.95157,336477.5196942,1048
1658564125.95157,336477.5197006,493
1658564125.95157,336477.5197072,-138
1658564125.95157,336477.5197162,-182
1658564125.95157,336477.5197204,90
1658564125.95157,336477.5197303,90
1658564125.95157,336477.5197395,-31
1658564125.95157,336477.5197801,4
1658564125.95157,336477.519794,48
1658564125.95157,336477.5198077,24
1658564125.95157,336477.519834,31
1658564125.95157,336477.5198623,60
1658564125.95157,336477.5198757,63
1658564125.95157,336477.5198892,70
1658564125.95157,336477.519903,90
1658564125.95157,336477.5199165,97
1658564125.95157,336477.5199299,109
1658564125.95157,336477.5199433,126
1658564125.95157,336477.5199573,141
1658564125.95157,336477.5199709,150
1658564125.95157,336477.5199846,163
1658564125.95157,336477.5199982,187
1658564125.95157,336477.5200116,206
1658564125.95157,336477.5200249,214
1658564125.95157,336477.5200381,218
1658564125.95157,336477.5200482,218
1658564125.95157,336477.5200558,221
1658564125.95157,336477.5200654,216
1658564125.95157,336477.5200705,201
1658564125.95157,336477.5200826,177
1658564125.95157,336477.5200893,145
1658564125.95157,336478.0537976,107
1658564125.95157,336478.0538099,60
1658564125.95157,336478.0538141,17
1658564125.95157,336478.0538198,-9
1658564125.95157,336478.0538224,-19
1658564125.95157,336478.0538247,-19
1658564125.95157,336478.0538273,-17
1658564125.95157,336478.0538294,-12
1658564125.95157,336478.0538316,-4
1658564125.95157,336478.0538336,-2
1658564125.95157,336478.0538359,7
1658564125.95157,336478.0538383,19
1658564125.96254,336478.0538407,2
1658564125.96254,336478.053845,-12
1658564125.96254,336478.0538527,0
1658564125.96254,336478.0538572,9
1658564125.96254,336478.0538619,9
1658564125.96254,336478.0538684,24
1658564125.96254,336478.0538733,41
1658564125.96254,336478.05388,38
1658564125.96254,336478.0538846,34
1658564125.96254,336478.0538903,36
1658564125.96254,336478.0538934,43
1658564125.96254,336478.0539005,48
1658564125.96254,336478.0539116,43
1658564125.96254,336478.0539162,36
1658564125.96254,336478.0539184,19
1658564125.96254,336478.0539206,12
1658564125.96254,336478.0540178,31
1658564125.96254,336478.0540329,34
1658564125.96254,336478.054039,24
1658564125.96254,336478.0540425,38
1658564125.96254,336478.0540573,41
1658564125.96254,336478.0540711,34
1658564125.96254,336478.0540758,51
1658564125.96254,336478.0540793,68
1658564126.49147,336478.0540828,63
1658564126.49147,336478.0540862,51
1658564126.49147,336478.0540896,58
1658564126.49147,336478.0540929,72
1658564126.49147,336478.0540963,70
1658564126.49147,336478.0540997,51
1658564126.49147,336478.054103,34
1658564126.49147,336478.0541064,36
1658564126.49147,336478.0541097,65
1658564126.49147,336478.0541131,94
1658564126.49147,336478.0541164,104
1658564126.49147,336478.05412,114
1658564126.49147,336478.0541233,114
1658564126.49147,336478.0541267,90
1658564126.49147,336478.0541302,53
1658564126.49147,336478.0541335,31
1658564126.49147,336478.0541368,38
1658564126.49147,336478.0541401,53
1658564126.49147,336478.0541434,43
1658564126.49147,336478.0541467,36
1658564126.49147,336478.05415,48
1658564126.49147,336478.0541533,55
1658564126.49147,336478.0541567,38
1658564126.49147,336478.0541602,-34
1658564126.49147,336478.0541637,-131
1658564126.49147,336478.0541671,14
1658564126.49147,336478.0541705,542
1658564126.49147,336478.054174,1031
1658564126.49147,336478.0541773,917
1658564126.49147,336478.0541807,255
1658564126.49147,336478.0541841,-226
1658564126.49147,336478.0541874,-104
1658564126.49147,336478.0541908,116
1658564126.49147,336478.0541942,55
1658564126.49147,336478.0541975,-9
1658564126.49147,336478.0542009,31
1658564126.49147,336478.0542044,48
1658564126.49147,336478.5896396,46
1658564126.49147,336478.5896573,60
1658564126.49147,336478.5896678,68
1658564126.49147,336478.5896745,68
1658564126.49147,336478.5896802,75
1658564126.49147,336478.5896885,85
1658564126.49147,336478.589697,97
1658564126.49147,336478.589704,116
1658564126.49147,336478.589708,138
1658564126.49147,336478.589721,133
1658564126.49147,336478.5897301,124
1658564126.49147,336478.5897434,141
1658564126.49147,336478.5897631,158
1658564126.50344,336478.5897775,165
1658564126.50344,336478.5897921,189
1658564126.50344,336478.5898054,201
1658564126.50344,336478.5898225,189
1658564126.50344,336478.5898346,184
1658564126.50344,336478.5898421,175
1658564126.50344,336478.5898472,153
1658564126.50344,336478.5898523,141
1658564126.50344,336478.5898575,126
1658564126.50344,336478.5898626,82
1658564126.50344,336478.5898677,36
1658564126.50344,336478.5898723,4
1658564126.50344,336478.5898771,-24
1658564126.50344,336478.5898816,-34
1658564126.50344,336478.5898865,-26
1658564126.50344,336478.5898931,-31
1658564126.50344,336478.5899003,-41
1658564126.50344,336478.5899054,-36
1658564126.50344,336478.5899106,-14
1658564126.50344,336478.5899257,4
1658564126.50344,336478.5899369,-4
1658564126.50344,336478.5899512,-9
1658564126.50344,336478.5899612,2
1658564126.50344,336478.5899689,4
1658564127.07406,336478.5899798,2
1658564127.07406,336478.5899865,24
1658564127.07406,336478.5899919,48
1658564127.07406,336478.5899977,36
1658564127.07406,336478.590002,14
1658564127.07406,336478.5900055,31
1658564127.07406,336478.5900092,60
1658564127.07406,336478.5900126,55
1658564127.07406,336478.5900161,36
1658564127.07406,336478.5900203,38
1658564127.07406,336478.5900252,43
1658564127.07406,336478.5900321,43
1658564127.07406,336478.5900421,46
1658564127.07406,336478.5900482,38
1658564127.07406,336478.5900549,36
1658564127.07406,336478.5900602,36
1658564127.07406,336478.590064,14
1658564127.07406,336478.5900693,14
1658564127.07406,336478.5900729,41
1658564127.07406,336478.5900775,38
1658564127.07406,336478.5900834,21
1658564127.07406,336478.590089,14
1658564127.07406,336478.5900957,12
1658564127.07406,336478.5901006,19
1658564127.07406,336478.5901047,26
1658564127.07406,336478.5901083,12
1658564127.07406,336478.5901121,14
1658564127.07406,336478.5901177,53
1658564127.07406,336478.5901222,65
1658564127.07406,336478.5901279,43
1658564127.07406,336478.5901352,34
1658564127.07406,336478.5901455,34
1658564127.07406,336478.5901532,34
1658564127.07406,336478.5901606,38
1658564127.07406,336478.5901665,17
1658564127.07406,336478.5901801,-17
1658564127.07406,336479.1751429,-4
1658564127.07406,336479.1751555,19
1658564127.07406,336479.1751581,-2
1658564127.07406,336479.1751602,-12
1658564127.07406,336479.1751621,7
1658564127.07406,336479.1751641,-7
1658564127.07406,336479.175166,-80
1658564127.07406,336479.175168,-158
1658564127.07406,336479.17517,-31
1658564127.07406,336479.1751719,423
1658564127.07406,336479.1751738,861
1658564127.07406,336479.1751758,773
1658564127.07406,336479.175179,175
1658564127.07406,336479.1751876,-294
1658564127.08503,336479.1751934,-216
1658564127.08503,336479.1751977,0
1658564127.08503,336479.1752014,-12
1658564127.08503,336479.1752076,-63
1658564127.08503,336479.175213,-29
1658564127.08503,336479.1752192,-12
1658564127.08503,336479.1752291,-21
1658564127.08503,336479.1752359,0
1658564127.08503,336479.1752397,24
1658564127.08503,336479.1752447,26
1658564127.08503,336479.1752482,41
1658564127.08503,336479.1752517,55
1658564127.08503,336479.175255,58
1658564127.08503,336479.1752615,63
1658564127.08503,336479.175268,77
1658564127.08503,336479.1752746,107
1658564127.08503,336479.1752779,131
1658564127.08503,336479.1752863,138
1658564127.08503,336479.1752946,150
1658564127.08503,336479.175297,175
1658564127.08503,336479.1752992,189
1658564127.08503,336479.1753015,192
1658564127.08503,336479.1753037,199
1658564127.08503,336479.1753059,199
1658564127.65208,336479.175308,184
1658564127.65208,336479.1753101,172
1658564127.65208,336479.175312,150
1658564127.65208,336479.175314,119
1658564127.65208,336479.1753159,68
1658564127.65208,336479.1753179,19
1658564127.65208,336479.1753199,0
1658564127.65208,336479.1753219,-12
1658564127.65208,336479.1753239,-43
1658564127.65208,336479.1753275,-58
1658564127.65208,336479.1753403,-38
1658564127.65208,336479.1753504,-41
1658564127.65208,336479.175356,-46
1658564127.65208,336479.1753582,-21
1658564127.65208,336479.1753604,-12
1658564127.65208,336479.1753755,-19
1658564127.65208,336479.1753776,-12
1658564127.65208,336479.1753796,-2
1658564127.65208,336479.1753817,0
1658564127.65208,336479.1753838,9
1658564127.65208,336479.1754011,14
1658564127.65208,336479.1754032,7
1658564127.65208,336479.1754056,9
1658564127.65208,336479.1754417,34
1658564127.65208,336479.1754527,41
1658564127.65208,336479.1754607,24
1658564127.65208,336479.1754852,19
1658564127.65208,336479.1755003,31
1658564127.65208,336479.1755048,41
1658564127.65208,336479.1755079,34
1658564127.65208,336479.1755121,31
1658564127.65208,336479.1755155,51
1658564127.65208,336479.1755193,53
1658564127.65208,336479.1755256,34
1658564127.65208,336479.1755311,51
1658564127.65208,336479.7602242,60
1658564127.65208,336479.7602449,41
1658564127.65208,336479.7602551,31
1658564127.65208,336479.760259,38
1658564127.65208,336479.7602615,41
1658564127.65208,336479.7602676,38
1658564127.65208,336479.7602817,43
1658564127.65208,336479.7602908,41
1658564127.65208,336479.7602955,14
1658564127.65208,336479.760304,7
1658564127.65208,336479.7603112,29
1658564127.65208,336479.7603195,38
1658564127.65208,336479.7603287,48
1658564127.65208,336479.7603358,58
1658564127.65208,336479.7603405,34
1658564127.67505,336479.7603469,-12
1658564127.67505,336479.7603537,-31
1658564127.67505,336479.7603599,-17
1658564127.67505,336479.7603662,-4
1658564127.67505,336479.7603705,-17
1658564127.67505,336479.7603751,-26
1658564127.67505,336479.7603805,-19
1658564127.67505,336479.7603841,-12
1658564127.67505,336479.7603882,-9
1658564127.67505,336479.7603941,-51
1658564127.67505,336479.7603977,-92
1658564127.67505,336479.7604015,111
1658564127.67505,336479.7604071,635
1658564127.67505,336479.7604135,990
1658564127.67505,336479.7604197,683
1658564127.67505,336479.7604284,-9
1658564127.67505,336479.7604331,-330
1658564127.67505,336479.7604383,-131
1658564127.67505,336479.7604416,60
1658564127.67505,336479.760445,29
1658564127.67505,336479.7604485,2
1658564127.67505,336479.7604519,48
1658564127.67505,336479.7604557,53
1658564127.67505,336479.7604609,34
1658564128.25232,336479.7604657,36
1658564128.25232,336479.7604692,53
1658564128.25232,336479.7604735,65
1658564128.25232,336479.7604784,77
1658564128.25232,336479.7604815,90
1658564128.25232,336479.7604847,104
1658564128.25232,336479.7604881,124
1658564128.25232,336479.7604914,136
1658564128.25232,336479.7604951,138
1658564128.25232,336479.7604989,153
1658564128.25232,336479.7605024,187
1658564128.25232,336479.7605058,218
1658564128.25232,336479.760509,231
1658564128.25232,336479.7605134,223
1658564128.25232,336479.760517,218
1658564128.25232,336479.7605239,233
1658564128.25232,336479.7605276,255
1658564128.25232,336479.7605327,248
1658564128.25232,336479.760537,206
1658564128.25232,336479.7605414,184
1658564128.25232,336479.7605468,167
1658564128.25232,336479.7605505,109
1658564128.25232,336479.7605543,58
1658564128.25232,336479.7605576,41
1658564128.25232,336479.760561,14
1658564128.25232,336479.7605646,-21
1658564128.25232,336479.7605678,-26
1658564128.25232,336479.7605733,-9
1658564128.25232,336479.7605791,-2
1658564128.25232,336479.7605832,-9
1658564128.25232,336479.7605896,-19
1658564128.25232,336479.7605928,-4
1658564128.25232,336479.7605996,19
1658564128.25232,336479.7606056,12
1658564128.25232,336480.3448509,4
1658564128.25232,336480.3448679,12
1658564128.25232,336480.3448734,17
1658564128.25232,336480.34488,12
1658564128.25232,336480.3448841,12
1658564128.25232,336480.3448901,41
1658564128.25232,336480.3448943,68
1658564128.25232,336480.3448998,51
1658564128.25232,336480.3449052,29
1658564128.25232,336480.3449116,46
1658564128.25232,336480.3449157,51
1658564128.25232,336480.3449198,34
1658564128.25232,336480.3449251,38
1658564128.25232,336480.3449289,46
1658564128.25232,336480.344933,34
1658564128.25232,336480.3449384,29
1658564128.27527,336480.3449444,41
1658564128.27527,336480.3449499,48
1658564128.27527,336480.3449548,34
1658564128.27527,336480.3449589,12
1658564128.27527,336480.3449629,14
1658564128.27527,336480.3449684,48
1658564128.27527,336480.3449726,82
1658564128.27527,336480.3449768,70
1658564128.27527,336480.3449822,51
1658564128.27527,336480.344987,46
1658564128.27527,336480.3449911,21
1658564128.27527,336480.3449964,4
1658564128.27527,336480.3450002,14
1658564128.27527,336480.3450041,2
1658564128.27527,336480.3450079,-17
1658564128.27527,336480.3450117,-29
1658564128.27527,336480.3450153,-46
1658564128.27527,336480.3450187,-36
1658564128.27527,336480.3450242,-9
1658564128.27527,336480.3450292,-14
1658564128.27527,336480.3450348,-109
1658564128.27527,336480.3450385,-167
1658564128.27527,336480.3450422,163
1658564128.27527,336480.3450478,861
1658564128.78527,336480.3450516,1223
1658564128.78527,336480.3450553,754
1658564128.78527,336480.3450602,-70
1658564128.78527,336480.3450642,-403
1658564128.78527,336480.3450681,-158
1658564128.78527,336480.3450717,48
1658564128.78527,336480.3450756,9
1658564128.78527,336480.3450793,-7
1658564128.78527,336480.3450839,48
1658564128.78527,336480.3450878,60
1658564128.78527,336480.3450917,41
1658564128.78527,336480.3450956,65
1658564128.78527,336480.3451013,92
1658564128.78527,336480.3451053,92
1658564128.78527,336480.3451093,97
1658564128.78527,336480.3451133,133
1658564128.78527,336480.3451186,155
1658564128.78527,336480.3451234,155
1658564128.78527,336480.3451282,194
1658564128.78527,336480.3451337,221
1658564128.78527,336480.3451378,204
1658564128.78527,336480.3451431,218
1658564128.78527,336480.3451469,270
1658564128.78527,336480.3451508,294
1658564128.78527,336480.3451548,299
1658564128.78527,336480.3451601,326
1658564128.78527,336480.3451639,330
1658564128.78527,336480.3451691,296
1658564128.78527,336480.3451731,291
1658564128.78527,336480.3451785,279
1658564128.78527,336480.3451822,206
1658564128.78527,336480.3451869,145
1658564128.78527,336480.3451927,90
1658564128.78527,336480.8815126,38
1658564128.78527,336480.8815395,51
1658564128.78527,336480.881542,43
1658564128.78527,336480.8815443,-14
1658564128.78527,336480.8815464,-24
1658564128.78527,336480.8815485,-4
1658564128.78527,336480.8815506,-17

1658564128.78527,336480.8815527,-26
1658564128.78527,336480.8815547,-12
1658564128.78527,336480.8815568,0
1658564128.78527,336480.8815589,-7
1658564128.78527,336480.8815609,-29
1658564128.78527,336480.881563,-21
1658564128.78527,336480.8815651,17
1658564128.78527,336480.8815672,12
1658564128.78527,336480.8815692,-4
1658564128.78527,336480.8815713,34
1658564128.80721,336480.8815733,46
1658564128.80721,336480.8815754,9
1658564128.80721,336480.8815779,17
1658564128.80721,336480.88158,41
1658564128.80721,336480.881582,29
1658564128.80721,336480.8815847,14
1658564128.80721,336480.8815868,14
1658564128.80721,336480.881589,-2
1658564128.80721,336480.8815911,-7
1658564128.80721,336480.8815933,9
1658564128.80721,336480.8815954,-19
1658564128.80721,336480.8815976,-41
1658564128.80721,336480.8815996,-4
1658564128.80721,336480.8816017,43
1658564128.80721,336480.8816037,58
1658564128.80721,336480.8816058,41
1658564128.80721,336480.8816079,48
1658564128.80721,336480.8816099,75
1658564128.80721,336480.8816119,70
1658564128.80721,336480.8816141,48
1658564128.80721,336480.8816167,26
1658564128.80721,336480.8816187,17
1658564128.80721,336480.8816208,31
1658564128.80721,336480.8816228,36
1658564129.3179,336480.881625,34
1658564129.3179,336480.8816271,38
1658564129.3179,336480.881629,17
1658564129.3179,336480.8816309,12
1658564129.3179,336480.8816328,-7
1658564129.3179,336480.8816347,-155
1658564129.3179,336480.8816366,-111
1658564129.3179,336480.8816384,513
1658564129.3179,336480.8816403,1292
1658564129.3179,336480.8816442,1343
1658564129.3179,336480.8816462,520
1658564129.3179,336480.8816484,-309
1658564129.3179,336480.8816507,-360
1658564129.3179,336480.8816537,-21
1658564129.3179,336480.8816652,24
1658564129.3179,336480.8816715,-55
1658564129.3179,336480.8816767,-26
1658564129.3179,336480.8816852,12
1658564129.3179,336480.8816964,24
1658564129.3179,336480.8817048,4
1658564129.3179,336480.8817092,9
1658564129.3179,336480.8817159,48
1658564129.3179,336480.8817242,46
1658564129.3179,336480.8817317,60
1658564129.3179,336480.8817396,126
1658564129.3179,336480.8817488,107
1658564129.3179,336480.8817596,92
1658564129.3179,336480.8817674,163
1658564129.3179,336480.8817732,167
1658564129.3179,336480.8817767,170
1658564129.3179,336480.8817805,236
1658564129.3179,336480.8817861,238
1658564129.3179,336481.4176989,236
1658564129.3179,336481.4177248,274
1658564129.3179,336481.4177426,277
1658564129.3179,336481.4177455,272
1658564129.3179,336481.4177478,272
1658564129.3179,336481.4177509,243
1658564129.3179,336481.4177531,194
1658564129.3179,336481.4177551,119
1658564129.3179,336481.4177573,21
1658564129.3179,336481.4177595,-26
1658564129.3179,336481.4177616,-36
1658564129.3179,336481.4177637,-65
1658564129.3179,336481.4177657,-94
1658564129.3179,336481.417768,-138
1658564129.3179,336481.4177701,-170
1658564129.3179,336481.4177725,-102
1658564129.3179,336481.4177746,-55
1658564129.3179,336481.4177772,-124
1658564129.32887,336481.4177846,-172
1658564129.32887,336481.4177965,-163
1658564129.32887,336481.4178016,-133
1658564129.32887,336481.4178039,-114
1658564129.32887,336481.4178068,-109
1658564129.32887,336481.4178091,-77
1658564129.32887,336481.4178126,-75
1658564129.32887,336481.4178257,-107
1658564129.32887,336481.4178317,-82
1658564129.32887,336481.4178339,-72
1658564129.32887,336481.417836,-94
1658564129.32887,336481.4178514,-80
1658564129.32887,336481.4178534,-85
1658564129.32887,336481.4178554,-102
1658564129.32887,336481.4178573,-92
1658564129.32887,336481.4178593,-70
1658564129.32887,336481.4178776,-60
1658564129.32887,336481.4178888,-60
1658564129.32887,336481.4178957,-60
1658564129.32887,336481.4178989,-97
1658564129.32887,336481.4179013,-136
1658564129.32887,336481.4179038,-94
1658564129.32887,336481.4179116,-19
1658564129.32887,336481.4179223,-14
1658564129.84874,336481.4179257,-36
1658564129.84874,336481.4179287,-4
1658564129.84874,336481.4179316,-12
1658564129.84874,336481.417937,-31
1658564129.84874,336481.4179472,4
1658564129.84874,336481.4179521,-12
1658564129.84874,336481.4179562,-60
1658564129.84874,336481.4179582,-31
1658564129.84874,336481.4179605,-9
1658564129.84874,336481.4179627,-31
1658564129.84874,336481.4179648,-31
1658564129.84874,336481.417967,-104
1658564129.84874,336481.4179692,-267
1658564129.84874,336481.4179713,-126
1658564129.84874,336481.4179734,613
1658564129.84874,336481.4179756,1421
1658564129.84874,336481.4179777,1389
1658564129.84874,336481.4179799,433
1658564129.84874,336481.4179822,-406
1658564129.84874,336481.4179854,-335
1658564129.84874,336481.4179982,36
1658564129.84874,336481.4180039,24
1658564129.84874,336481.4180072,-58
1658564129.84874,336481.4180093,4
1658564129.84874,336481.4180114,7
1658564129.84874,336481.4180137,-17
1658564129.84874,336481.4180214,43
1658564129.84874,336481.4180346,97
1658564129.84874,336481.4180435,60
1658564129.84874,336481.4180833,17
1658564129.84874,336481.4180967,41
1658564129.84874,336481.9538331,99
1658564129.84874,336481.9538504,121
1658564129.84874,336481.9538568,114
1658564129.84874,336481.9538623,131
1658564129.84874,336481.9538683,150
1658564129.84874,336481.9538718,160
1658564129.84874,336481.9538765,211
1658564129.84874,336481.953881,253
1658564129.84874,336481.9538866,238
1658564129.84874,336481.9538933,218
1658564129.84874,336481.9538997,216
1658564129.84874,336481.9539044,240
1658564129.84874,336481.953909,233
1658564129.84874,336481.9539156,187
1658564129.84874,336481.9539188,160
1658564129.84874,336481.953929,99
1658564129.84874,336481.9539333,-17
1658564129.84874,336481.9539356,-58
1658564129.84874,336481.953938,-31
1658564129.87068,336481.9539403,-63
1658564129.87068,336481.9539425,-85
1658564129.87068,336481.9539464,-58
1658564129.87068,336481.9539601,-77
1658564129.87068,336481.9539662,-92
1658564129.87068,336481.9539684,-46
1658564129.87068,336481.9539705,-24
1658564129.87068,336481.9539726,-31
1658564129.87068,336481.953975,-31
1658564129.87068,336481.9539828,-34
1658564129.87068,336481.9539935,-29
1658564129.87068,336481.9539969,-9
1658564129.87068,336481.9539999,4
1658564129.87068,336481.9540028,19
1658564129.87068,336481.9540066,31
1658564129.87068,336481.9540212,36
1658564129.87068,336481.954032,48
1658564129.87068,336481.954046,48
1658564129.87068,336481.954054,46
1658564129.87068,336481.9540654,65
1658564129.87068,336481.9540723,90
1658564129.87068,336481.9540746,90
1658564129.87068,336481.9540767,70
1658564129.87068,336481.9540794,80
1658564130.45003,336481.9540874,104
1658564130.45003,336481.9540966,87
1658564130.45003,336481.9541008,70
1658564130.45003,336481.9541048,70
1658564130.45003,336481.954109,72
1658564130.45003,336481.954114,87
1658564130.45003,336481.9541184,99
1658564130.45003,336481.9541215,116
1658564130.45003,336481.9541256,150
1658564130.45003,336481.9541304,160
1658564130.45003,336481.9541336,143
1658564130.45003,336481.954137,116
1658564130.45003,336481.9541405,107
1658564130.45003,336481.9541446,153
1658564130.45003,336481.9541499,182
1658564130.45003,336481.9541538,138
1658564130.45003,336481.9541574,109
1658564130.45003,336481.9541611,121
1658564130.45003,336481.9541645,128
1658564130.45003,336481.9541679,104
1658564130.45003,336481.9541713,21
1658564130.45003,336481.9541747,-92
1658564130.45003,336481.9541781,24
1658564130.45003,336481.9541823,642
1658564130.45003,336481.9541857,1421
1658564130.45003,336481.954189,1528
1658564130.45003,336481.9541924,708
1658564130.45003,336481.954196,-172
1658564130.45003,336481.9541992,-201
1658564130.45003,336481.9542026,189
1658564130.45003,336482.5385821,201
1658564130.45003,336482.5386006,55
1658564130.45003,336482.5386096,102
1658564130.45003,336482.5386156,155
1658564130.45003,336482.5386216,128
1658564130.45003,336482.5386263,153
1658564130.45003,336482.538631,199
1658564130.45003,336482.5386367,172
1658564130.45003,336482.5386436,150
1658564130.45003,336482.5386512,184
1658564130.45003,336482.5386547,187
1658564130.45003,336482.5386602,163
1658564130.45003,336482.5386634,158
1658564130.45003,336482.5386725,182
1658564130.45003,336482.5386762,214
1658564130.45003,336482.5386819,226
1658564130.45003,336482.5386853,238
1658564130.45003,336482.5386886,272
1658564130.45003,336482.5386921,306
1658564130.45003,336482.5386973,299
1658564130.47197,336482.5387012,284
1658564130.47197,336482.5387047,309
1658564130.47197,336482.5387081,279
1658564130.47197,336482.5387114,209
1658564130.47197,336482.5387149,209
1658564130.47197,336482.5387182,197
1658564130.47197,336482.5387212,114
1658564130.47197,336482.5387242,51
1658564130.47197,336482.5387271,26
1658564130.47197,336482.5387302,-7
1658564130.47197,336482.5387333,-17
1658564130.47197,336482.5387364,19
1658564130.47197,336482.5387396,19
1658564130.47197,336482.5387428,-24
1658564130.47197,336482.5387465,14
1658564130.47197,336482.5387504,77
1658564130.47197,336482.538754,63
1658564130.47197,336482.5387573,75
1658564130.47197,336482.5387607,104
1658564130.47197,336482.538764,92
1658564130.47197,336482.5387672,99
1658564130.47197,336482.5387703,124
1658564130.47197,336482.5387735,143
1658564130.47197,336482.5387778,165
1658564131.02871,336482.5387817,155
1658564131.02871,336482.5387853,143
1658564131.02871,336482.5387884,167
1658564131.02871,336482.5387916,175
1658564131.02871,336482.5387954,170
1658564131.02871,336482.5387988,177
1658564131.02871,336482.5388023,163
1658564131.02871,336482.5388057,128
1658564131.02871,336482.5388094,114
1658564131.02871,336482.5388136,121
1658564131.02871,336482.5388187,126
1658564131.02871,336482.5388234,119
1658564131.02871,336482.5388299,104
1658564131.02871,336482.5388332,82
1658564131.02871,336482.5388375,85
1658564131.02871,336482.5388436,97
1658564131.02871,336482.5388511,77
1658564131.02871,336482.5388601,82
1658564131.02871,336482.5388662,94
1658564131.02871,336482.5388789,58
1658564131.02871,336482.5388839,53
1658564131.02871,336482.5388879,109
1658564131.02871,336482.5388916,143
1658564131.02871,336482.5388952,128
1658564131.02871,336482.5388989,107
1658564131.02871,336482.5389023,99
1658564131.02871,336482.5389058,94
1658564131.02871,336482.5389104,104
1658564131.02871,336482.5389144,114
1658564131.02871,336483.123814,85
1658564131.02871,336483.123841,68
1658564131.02871,336483.1238436,109
1658564131.02871,336483.1238457,141
1658564131.02871,336483.1238477,131
1658564131.02871,336483.1238499,99
1658564131.02871,336483.123852,-9
1658564131.02871,336483.1238541,-143
1658564131.02871,336483.1238561,72
1658564131.02871,336483.1238581,820
1658564131.02871,336483.1238601,1525
1658564131.02871,336483.1238621,1416
1658564131.02871,336483.1238642,489
1658564131.02871,336483.1238662,-265
1658564131.02871,336483.1238683,-167
1658564131.02871,336483.1238703,145
1658564131.02871,336483.1238722,77
1658564131.02871,336483.1238742,-36
1658564131.02871,336483.1238762,17
1658564131.02871,336483.1238782,53
1658564131.02871,336483.1238802,43
1658564131.05262,336483.1238821,58
1658564131.05262,336483.1238841,68
1658564131.05262,336483.1238861,68
1658564131.05262,336483.1238882,85
1658564131.05262,336483.1238902,102
1658564131.05262,336483.1238923,143
1658564131.05262,336483.1238945,192
1658564131.05262,336483.1238966,194
1658564131.05262,336483.1238997,182
1658564131.05262,336483.1239043,192
1658564131.05262,336483.1239089,209
1658564131.05262,336483.1239149,243
1658564131.05262,336483.1239222,296
1658564131.05262,336483.1239263,313
1658564131.05262,336483.12393,294
1658564131.05262,336483.123932,291
1658564131.05262,336483.123934,306
1658564131.05262,336483.123936,304
1658564131.05262,336483.1239383,265
1658564131.05262,336483.1239403,204
1658564131.05262,336483.1239424,160
1658564131.05262,336483.1239446,99
1658564131.05262,336483.1239467,17
1658564131.05262,336483.1239488,-41
1658564131.60688,336483.123951,-68
1658564131.60688,336483.1239531,-72
1658564131.60688,336483.1239553,-63
1658564131.60688,336483.1239572,-60
1658564131.60688,336483.1239593,-55
1658564131.60688,336483.1239612,-34
1658564131.60688,336483.1239632,-12
1658564131.60688,336483.1239653,-17
1658564131.60688,336483.1239672,-34
1658564131.60688,336483.1239692,-34
1658564131.60688,336483.1239713,-19
1658564131.60688,336483.1239732,-4
1658564131.60688,336483.1239752,0
1658564131.60688,336483.1239772,4
1658564131.60688,336483.1239791,29
1658564131.60688,336483.1239814,48
1658564131.60688,336483.1239833,21
1658564131.60688,336483.1239853,-12
1658564131.60688,336483.1239873,21
1658564131.60688,336483.1239892,55
1658564131.60688,336483.1239912,24
1658564131.60688,336483.1239932,-7
1658564131.60688,336483.1239952,26
1658564131.60688,336483.1239972,77
1658564131.60688,336483.1239992,63
1658564131.60688,336483.1240011,41
1658564131.60688,336483.124003,55
1658564131.60688,336483.124005,51
1658564131.60688,336483.7084543,36
1658564131.60688,336483.7084708,51
1658564131.60688,336483.7084756,51
1658564131.60688,336483.708482,38
1658564131.60688,336483.7084861,31
1658564131.60688,336483.708493,31
1658564131.60688,336483.7084978,60
1658564131.60688,336483.7085028,82
1658564131.60688,336483.7085106,68
1658564131.60688,336483.7085153,72
1658564131.60688,336483.7085201,97
1658564131.60688,336483.7085243,87
1658564131.60688,336483.7085294,65
1658564131.60688,336483.7085347,68
1658564131.60688,336483.7085378,60
1658564131.60688,336483.7085407,51
1658564131.60688,336483.7085438,60
1658564131.60688,336483.708547,53
1658564131.60688,336483.70855,26
1658564131.60688,336483.708553,21
1658564131.60688,336483.7085559,41
1658564131.60688,336483.708559,38
1658564131.62769,336483.7085619,17
1658564131.62769,336483.7085649,-14
1658564131.62769,336483.7085677,-138
1658564131.62769,336483.7085705,-192
1658564131.62769,336483.7085734,245
1658564131.62769,336483.7085762,1058
1658564131.62769,336483.7085791,1518
1658564131.62769,336483.7085818,1085
1658564131.62769,336483.7085848,104
1658564131.62769,336483.708588,-367
1658564131.62769,336483.7085909,-60
1658564131.62769,336483.7085939,160
1658564131.62769,336483.7085969,12
1658564131.62769,336483.7085998,-26
1658564131.62769,336483.7086026,63
1658564131.62769,336483.7086056,68
1658564131.62769,336483.7086085,51
1658564131.62769,336483.7086115,75
1658564131.62769,336483.7086166,87
1658564131.62769,336483.7086239,82
1658564131.62769,336483.7086274,77
1658564131.62769,336483.7086307,92
1658564131.62769,336483.7086337,128
1658564131.62769,336483.7086368,145
1658564132.13932,336483.7086425,145
1658564132.13932,336483.7086495,167
