Time,TimeLsl,Value
1658564570.97549,336921.6428949,99
1658564570.97549,336921.6429135,121
1658564570.97549,336921.642918,138
1658564570.97549,336921.6429233,138
1658564570.97549,336921.6429289,158
1658564570.97549,336921.6429323,182
1658564570.97549,336921.6429373,182
1658564570.97549,336921.6429432,187
1658564570.97549,336921.6429463,211
1658564570.97549,336921.6429493,223
1658564570.97549,336921.6429538,221
1658564570.97549,336921.6429605,245
1658564570.97549,336921.6429698,274
1658564570.97549,336921.6429834,282
1658564570.97549,336921.6429945,277
1658564570.97549,336921.6429985,267
1658564570.97549,336921.6430015,243
1658564570.97549,336921.6430048,206
1658564570.97549,336921.6430159,163
1658564570.97549,336921.6430316,111
1658564570.97549,336921.6430422,53
1658564570.97549,336921.6430496,4
1658564570.97549,336921.6430574,-29
1658564570.97549,336921.643065,-65
1658564570.97549,336921.643074,-92
1658564570.97549,336921.6430813,-102
1658564570.97549,336921.6430904,-107
1658564570.97549,336921.6430956,-109
1658564570.97549,336921.6431036,-99
1658564570.97549,336921.6431116,-77
1658564570.97549,336921.6431213,-68
1658564570.97549,336921.6431287,-82
1658564570.97549,336921.6431376,-75
1658564570.97549,336921.6431438,-41
1658564570.97549,336921.6431519,-29
1658564570.97549,336921.6431593,-41
1658564570.97549,336921.6431673,-48
1658564570.97549,336921.6431733,-38
1658564570.97549,336921.6431872,-31
1658564570.97549,336921.6432004,-29
1658564570.97549,336921.643206,-7
1658564570.97549,336921.6432085,9
1658564570.97549,336921.6432114,0
1658564570.97549,336921.6432197,-4
1658564570.97549,336921.6432304,0
1658564570.97549,336921.6432338,2
1658564570.97549,336921.6432378,7
1658564570.97549,336921.6432406,0
1658564570.97549,336921.6432513,-2
1658564570.97549,336921.6432589,17
1658564571.14404,336921.6432614,53
1658564571.14404,336921.6432636,75
1658564571.14404,336921.6432689,77
1658564571.14404,336921.6432801,75
1658564571.14404,336921.6432913,58
1658564571.14404,336921.6433042,41
1658564571.14404,336921.6433155,34
1658564571.14404,336921.6433203,26
1658564571.14404,336921.6433296,34
1658564571.14404,336921.6433407,43
1658564571.14404,336921.6433478,38
1658564571.14404,336921.6433528,41
1658564571.14404,336921.64336,46
1658564571.14404,336921.6433678,-21
1658564571.14404,336921.643376,-165
1658564571.14404,336921.6433841,-77
1658564571.14404,336921.6433921,491
1658564571.14404,336921.6433986,1153
1658564571.14404,336921.6434065,1221
1658564571.14404,336921.6434128,510
1658564571.14404,336921.6434207,-240
1658564571.14404,336921.6434267,-262
1658564571.14404,336921.6434344,75
1658564571.14404,336922.2284454,104
1658564571.14404,336922.2284651,0
1658564571.14404,336922.2284734,38
1658564571.14404,336922.2284817,82
1658564571.14404,336922.2284884,63
1658564571.14404,336922.228494,72
1658564571.14404,336922.2284983,94
1658564571.14404,336922.2285033,97
1658564571.14404,336922.2285081,114
1658564571.14404,336922.2285115,143
1658564571.14404,336922.2285152,145
1658564571.14404,336922.2285181,150
1658564571.14404,336922.2285212,160
1658564571.14404,336922.2285257,150
1658564571.14404,336922.2285308,170
1658564571.14404,336922.2285375,218
1658564571.14404,336922.2285431,236
1658564571.14404,336922.2285479,233
1658564571.14404,336922.2285524,226
1658564571.14404,336922.2285561,218
1658564571.14404,336922.2285636,218
1658564571.14404,336922.2285701,211
1658564571.14404,336922.228583,197
1658564571.14404,336922.2285925,182
1658564571.14404,336922.2286005,143
1658564571.14404,336922.2286062,65
1658564571.14404,336922.2286133,17
1658564571.19291,336922.2286272,0
1658564571.19291,336922.2286372,-29
1658564571.19291,336922.2286441,-53
1658564571.19291,336922.2286492,-72
1658564571.19291,336922.228657,-77
1658564571.19291,336922.2286689,-58
1658564571.19291,336922.2286789,-46
1658564571.19291,336922.2286857,-60
1658564571.19291,336922.2286993,-72
1658564571.19291,336922.2287096,-58
1658564571.19291,336922.2287167,-43
1658564571.19291,336922.2287208,-46
1658564571.19291,336922.2287259,-41
1658564571.19291,336922.2287304,-26
1658564571.19291,336922.2287402,-19
1658564571.19291,336922.2287486,-12
1658564571.19291,336922.2287599,-7
1658564571.19291,336922.2287649,-4
1658564571.19291,336922.2287731,4
1658564571.19291,336922.2287794,14
1658564571.19291,336922.2287833,4
1658564571.19291,336922.2287901,0
1658564571.19291,336922.2287971,0
1658564571.19291,336922.2288043,0
1658564571.19291,336922.2288094,9
1658564571.19291,336922.2288127,14
1658564571.19291,336922.228816,9
1658564571.19291,336922.2288211,9
1658564571.19291,336922.2288249,7
1658564571.19291,336922.2288284,0
1658564571.19291,336922.2288318,9
1658564571.19291,336922.2288352,34
1658564571.19291,336922.2288385,51
1658564571.19291,336922.2288438,63
1658564571.19291,336922.2288524,68
1658564571.19291,336922.2288594,65
1658564571.19291,336922.2288659,48
1658564571.19291,336922.2288723,34
1658564571.19291,336922.228876,29
1658564571.19291,336922.2288818,29
1658564571.19291,336922.2288854,38
1658564571.19291,336922.2288888,48
1658564571.19291,336922.2288926,38
1658564571.19291,336922.2289001,36
1658564571.19291,336922.2289062,24
1658564571.19291,336922.2289103,-85
1658564571.19291,336922.7153118,-165
1658564571.19291,336922.7153322,126
1658564571.19291,336922.7153466,788
1658564571.19291,336922.7153549,1267
1658564571.21984,336922.7153642,1039
1658564571.21984,336922.7153718,262
1658564571.21984,336922.7153792,-223
1658564571.21984,336922.7153871,-36
1658564571.21984,336922.7153941,158
1658564571.21984,336922.715403,24
1658564571.21984,336922.7154106,-36
1658564571.21984,336922.715416,41
1658564571.21984,336922.7154194,43
1658564571.21984,336922.7154217,21
1658564571.21984,336922.7154238,53
1658564571.21984,336922.7154259,58
1658564571.21984,336922.7154336,29
1658564571.21984,336922.715444,46
1658564571.21984,336922.7154532,75
1658564571.21984,336922.7154591,85
1658564571.21984,336922.7154684,102
1658564571.21984,336922.7154804,116
1658564571.21984,336922.7154858,111
1658564571.21984,336922.715488,126
1658564571.21984,336922.7154907,160
1658564571.21984,336922.7154929,184
1658564571.21984,336922.7154958,197
1658564571.21984,336922.7155062,201
1658564571.21984,336922.7155143,211
1658564571.21984,336922.7155169,228
1658564571.21984,336922.7155191,223
1658564571.21984,336922.7155213,201
1658564571.21984,336922.7155234,180
1658564571.21984,336922.7155314,141
1658564571.21984,336922.715542,80
1658564571.21984,336922.7155466,24
1658564571.21984,336922.7155487,-9
1658564571.21984,336922.7155516,-29
1658564571.21984,336922.7155622,-43
1658564571.21984,336922.7155698,-53
1658564571.21984,336922.7155723,-46
1658564571.21984,336922.7155751,-41
1658564571.21984,336922.7155773,-48
1658564571.21984,336922.7155849,-48
1658564571.21984,336922.7155956,-41
1658564571.21984,336922.7155999,-38
1658564571.21984,336922.7156021,-34
1658564571.21984,336922.7156043,-29
1658564571.21984,336922.7156136,-14
1658564571.21984,336922.7156235,-4
1658564571.21984,336922.7156261,-2
1658564571.21984,336922.7156283,2
1658564571.21984,336922.7156304,9
1658564571.21984,336922.7156336,12
1658564571.2328,336922.7156465,14
1658564571.2328,336922.7156524,14
1658564571.2328,336922.7156547,21
1658564571.2328,336922.7156568,36
1658564571.2328,336922.715659,31
1658564571.2328,336922.715667,24
1658564571.2328,336922.7156775,36
1658564571.2328,336922.7156803,43
1658564571.2328,336922.7156825,38
1658564571.2328,336922.7157012,43
1658564571.2328,336922.7157126,46
1658564571.2328,336922.7157255,36
1658564571.2328,336922.7157398,31
1658564571.2328,336922.7157526,43
1658564571.2328,336922.7157658,65
1658564571.2328,336922.7157789,97
1658564571.2328,336922.7157926,107
1658564571.2328,336922.7158057,92
1658564571.2328,336922.7158189,87
1658564571.2328,336923.3010148,75
1658564571.2328,336923.3010367,48
1658564571.2328,336923.3010457,34
1658564571.78485,336923.3010512,31
1658564571.78485,336923.3010549,48
1658564571.78485,336923.3010587,53
1658564571.78485,336923.3010628,26
1658564571.78485,336923.3010668,19
1658564571.78485,336923.3010722,29
1658564571.78485,336923.3010758,-51
1658564571.78485,336923.3010791,-163
1658564571.78485,336923.3010822,2
1658564571.78485,336923.3010862,566
1658564571.78485,336923.301092,1099
1658564571.78485,336923.3010972,1046
1658564571.78485,336923.3011009,369
1658564571.78485,336923.3011048,-204
1658564571.78485,336923.3011082,-128
1658564571.78485,336923.3011115,116
1658564571.78485,336923.3011149,63
1658564571.78485,336923.3011182,-4
1658564571.78485,336923.3011217,60
1658564571.78485,336923.3011253,65
1658564571.78485,336923.3011286,31
1658564571.78485,336923.301132,72
1658564571.78485,336923.3011354,99
1658564571.78485,336923.3011392,87
1658564571.78485,336923.3011429,107
1658564571.78485,336923.3011465,136
1658564571.78485,336923.3011499,143
1658564571.78485,336923.3011539,153
1658564571.78485,336923.3011574,167
1658564571.78485,336923.3011617,172
1658564571.78485,336923.3011655,182
1658564571.78485,336923.3011693,206
1658564571.78485,336923.3011728,228
1658564571.78485,336923.3011761,245
1658564571.78485,336923.3011822,270
1658564571.78485,336923.3011866,289
1658564571.78485,336923.3011919,296
1658564571.78485,336923.3011985,294
1658564571.78485,336923.3012038,274
1658564571.78485,336923.3012079,238
1658564571.78485,336923.3012115,199
1658564571.78485,336923.301215,155
1658564571.78485,336923.3012182,99
1658564571.78485,336923.3012215,43
1658564571.78485,336923.301225,4
1658564571.78485,336923.3012285,-2
1658564571.78485,336923.3012327,9
1658564571.78485,336923.3012377,14
1658564571.78485,336923.3012412,7
1658564571.78485,336923.3012448,-9
1658564571.79649,336923.3012485,-14
1658564571.79649,336923.3012538,4
1658564571.79649,336923.3012598,14
1658564571.79649,336923.3012644,2
1658564571.79649,336923.3012715,-2
1658564571.79649,336923.3012754,19
1658564571.79649,336923.3012789,26
1658564571.79649,336923.3012845,19
1658564571.79649,336923.3012896,24
1658564571.79649,336923.3012955,26
1658564571.79649,336923.3013007,19
1658564571.79649,336923.3013051,24
1658564571.79649,336923.3013114,38
1658564571.79649,336923.3013167,46
1658564571.79649,336923.30132,41
1658564571.79649,336923.3013231,34
1658564571.79649,336923.3013262,24
1658564571.79649,336923.3013294,17
1658564571.79649,336923.3013324,26
1658564571.79649,336923.3013355,43
1658564571.79649,336923.8855305,34
1658564571.79649,336923.8855536,24
1658564571.79649,336923.8855688,43
1658564571.79649,336923.8855822,48
1658564572.37321,336923.8855917,31
1658564572.37321,336923.8855987,34
1658564572.37321,336923.8856055,48
1658564572.37321,336923.8856128,48
1658564572.37321,336923.88562,55
1658564572.37321,336923.8856273,63
1658564572.37321,336923.8856333,63
1658564572.37321,336923.8856376,80
1658564572.37321,336923.8856408,87
1658564572.37321,336923.8856447,51
1658564572.37321,336923.8856486,38
1658564572.37321,336923.8856541,53
1658564572.37321,336923.8856607,41
1658564572.37321,336923.8856686,24
1658564572.37321,336923.8856729,34
1658564572.37321,336923.8856762,51
1658564572.37321,336923.8856823,43
1658564572.37321,336923.8856882,4
1658564572.37321,336923.8856912,-107
1658564572.37321,336923.8856942,-184
1658564572.37321,336923.8856973,121
1658564572.37321,336923.8857001,829
1658564572.37321,336923.8857031,1309
1658564572.37321,336923.8857061,992
1658564572.37321,336923.885709,148
1658564572.37321,336923.8857119,-301
1658564572.37321,336923.8857148,-68
1658564572.37321,336923.8857178,141
1658564572.37321,336923.8857207,43
1658564572.37321,336923.8857236,12
1658564572.37321,336923.8857266,63
1658564572.37321,336923.8857294,53
1658564572.37321,336923.8857323,58
1658564572.37321,336923.8857352,92
1658564572.37321,336923.8857382,104
1658564572.37321,336923.8857412,109
1658564572.37321,336923.8857441,119
1658564572.37321,336923.8857471,136
1658564572.37321,336923.88575,141
1658564572.37321,336923.8857529,153
1658564572.37321,336923.8857559,187
1658564572.37321,336923.8857588,197
1658564572.37321,336923.8857618,201
1658564572.37321,336923.8857648,226
1658564572.37321,336923.8857677,248
1658564572.37321,336923.8857706,272
1658564572.37321,336923.8857736,289
1658564572.37321,336923.8857771,279
1658564572.37321,336923.8857828,277
1658564572.37321,336923.8857858,267
1658564572.38318,336923.8857886,238
1658564572.38318,336923.8857915,209
1658564572.38318,336923.8857945,165
1658564572.38318,336923.8857974,92
1658564572.38318,336923.8858003,36
1658564572.38318,336923.8858032,7
1658564572.38318,336923.8858065,-19
1658564572.38318,336923.8858121,-48
1658564572.38318,336923.8858152,-58
1658564572.38318,336923.8858182,-58
1658564572.38318,336923.8858212,-68
1658564572.38318,336923.8858241,-70
1658564572.38318,336923.885827,-60
1658564572.38318,336923.88583,-51
1658564572.38318,336923.8858328,-48
1658564572.38318,336923.8858359,-55
1658564572.38318,336923.8858388,-51
1658564572.38318,336923.8858417,-21
1658564572.38318,336923.8858448,-14
1658564572.38318,336924.4706462,-21
1658564572.38318,336924.4706682,-7
1658564572.38318,336924.4706834,-2
1658564572.38318,336924.4706905,-9
1658564572.38318,336924.4706975,7
1658564572.96472,336924.4707064,12
1658564572.96472,336924.4707132,4
1658564572.96472,336924.4707203,14
1658564572.96472,336924.4707277,24
1658564572.96472,336924.4707346,12
1658564572.96472,336924.4707414,7
1658564572.96472,336924.4707487,7
1658564572.96472,336924.4707595,-12
1658564572.96472,336924.4707699,-29
1658564572.96472,336924.4707761,-12
1658564572.96472,336924.4707836,2
1658564572.96472,336924.4707915,-7
1658564572.96472,336924.4708046,-12
1658564572.96472,336924.4708182,-4
1658564572.96472,336924.4708313,-24
1658564572.96472,336924.4708452,-38
1658564572.96472,336924.470858,-14
1658564572.96472,336924.4708706,9
1658564572.96472,336924.4708777,24
1658564572.96472,336924.4708856,41
1658564572.96472,336924.4708916,46
1658564572.96472,336924.4709005,31
1658564572.96472,336924.4709073,14
1658564572.96472,336924.4709142,14
1658564572.96472,336924.470918,21
1658564572.96472,336924.4709306,21
1658564572.96472,336924.4709432,14
1658564572.96472,336924.4709572,14
1658564572.96472,336924.4709702,24
1658564572.96472,336924.4709829,31
1658564572.96472,336924.4709925,14
1658564572.96472,336924.4710003,-82
1658564572.96472,336924.4710069,-194
1658564572.96472,336924.4710158,19
1658564572.96472,336924.4710232,674
1658564572.96472,336924.4710347,1228
1658564572.96472,336924.4710488,1085
1658564572.96472,336924.471062,321
1658564572.96472,336924.4710751,-257
1658564572.96472,336924.4710883,-141
1658564572.96472,336924.4711017,121
1658564572.96472,336924.4711149,58
1658564572.96472,336924.4711282,-17
1658564572.96472,336924.4711412,46
1658564572.96472,336924.4711545,63
1658564572.96472,336924.471169,38
1658564572.96472,336924.471179,60
1658564572.96472,336924.4711904,85
1658564572.96472,336924.471202,85
1658564572.96472,336924.4712105,94
1658564572.98367,336924.4712206,99
1658564572.98367,336924.4712326,94
1658564572.98367,336924.4712411,114
1658564572.98367,336924.4712514,136
1658564572.98367,336924.4712637,145
1658564572.98367,336924.4712726,170
1658564572.98367,336924.4712837,189
1658564572.98367,336924.4712944,192
1658564572.98367,336924.4713025,211
1658564572.98367,336924.4713147,236
1658564572.98367,336924.4713301,231
1658564572.98367,336924.4713402,221
1658564572.98367,336924.4713504,223
1658564572.98367,336924.4713611,209
1658564572.98367,336924.4713685,165
1658564572.98367,336924.4713797,109
1658564572.98367,336924.4713898,65
1658564572.98367,336924.4713986,26
1658564572.98367,336925.0553738,-14
1658564572.98367,336925.0553894,-36
1658564572.98367,336925.0553946,-43
1658564572.98367,336925.0554008,-60
1658564572.98367,336925.0554057,-72
1658564572.98367,336925.0554117,-58
1658564573.45547,336925.0554164,-48
1658564573.45547,336925.0554211,-55
1658564573.45547,336925.0554257,-53
1658564573.45547,336925.0554302,-43
1658564573.45547,336925.0554349,-38
1658564573.45547,336925.0554395,-31
1658564573.45547,336925.0554441,-19
1658564573.45547,336925.0554487,-12
1658564573.45547,336925.0554532,-9
1658564573.45547,336925.0554578,-17
1658564573.45547,336925.0554623,-17
1658564573.45547,336925.0554668,0
1658564573.45547,336925.0554714,0
1658564573.45547,336925.0554761,-7
1658564573.45547,336925.0554834,2
1658564573.45547,336925.055488,2
1658564573.45547,336925.0554926,-12
1658564573.45547,336925.0554988,-9
1658564573.45547,336925.0555044,-4
1658564573.45547,336925.0555106,-2
1658564573.45547,336925.0555162,9
1658564573.45547,336925.0555208,12
1658564573.45547,336925.0555269,4
1658564573.45547,336925.0555314,9
1658564573.45547,336925.0555375,19
1658564573.45547,336925.0555442,21
1658564573.45547,336925.0555503,31
1658564573.45547,336925.0555549,41
1658564573.45547,336925.0555609,34
1658564573.45547,336925.055567,26
1658564573.45547,336925.0555716,21
1658564573.45547,336925.0555775,29
1658564573.45547,336925.0555821,53
1658564573.45547,336925.0555882,65
1658564573.45547,336925.0555931,55
1658564573.45547,336925.0555977,51
1658564573.45547,336925.0556022,55
1658564573.45547,336925.0556083,55
1658564573.45547,336925.055613,53
1658564573.45547,336925.055619,55
1658564573.45547,336925.0556235,58
1658564573.45547,336925.0556281,53
1658564573.45547,336925.055634,55
1658564573.45547,336925.0556386,70
1658564573.45547,336925.0556447,85
1658564573.45547,336925.0556493,102
1658564573.45547,336925.0556539,119
1658564573.45547,336925.0556598,111
1658564573.45547,336925.0556645,82
1658564573.45547,336925.0556705,68
1658564573.46744,336925.0556771,70
1658564573.46744,336925.0556817,75
1658564573.46744,336925.0556877,77
1658564573.46744,336925.0556924,82
1658564573.46744,336925.0556985,80
1658564573.46744,336925.0557037,75
1658564573.46744,336925.0557083,51
1658564573.46744,336925.055713,-48
1658564573.46744,336925.0557191,-116
1658564573.46744,336925.0557237,172
1658564573.46744,336925.0557298,793
1658564573.46744,336925.0557351,1216
1658564573.46744,336925.0557398,966
1658564573.46744,336925.0557459,226
1658564573.46744,336925.0557505,-199
1658564573.46744,336925.0557566,-4
1658564573.46744,336925.0557611,150
1658564573.46744,336925.545532,19
1658564573.46744,336925.5455516,-19
1658564573.46744,336925.5455647,43
1658564573.46744,336925.5455733,38
1658564573.46744,336925.5455806,34
1658564573.46744,336925.5455897,55
1658564573.46744,336925.5455947,58
1658564573.97508,336925.5456001,63
1658564573.97508,336925.5456052,82
1658564573.97508,336925.5456094,94
1658564573.97508,336925.545614,99
1658564573.97508,336925.545618,107
1658564573.97508,336925.5456217,104
1658564573.97508,336925.5456251,109
1658564573.97508,336925.5456312,128
1658564573.97508,336925.5456359,150
1658564573.97508,336925.5456408,172
1658564573.97508,336925.5456456,189
1658564573.97508,336925.5456519,189
1658564573.97508,336925.5456586,182
1658564573.97508,336925.5456656,189
1658564573.97508,336925.5456712,199
1658564573.97508,336925.5456764,194
1658564573.97508,336925.5456811,172
1658564573.97508,336925.5456845,148
1658564573.97508,336925.5456877,107
1658564573.97508,336925.5456909,43
1658564573.97508,336925.5456941,2
1658564573.97508,336925.5456975,-7
1658564573.97508,336925.5457009,-31
1658564573.97508,336925.5457045,-51
1658564573.97508,336925.545708,-38
1658564573.97508,336925.5457117,-29
1658564573.97508,336925.5457153,-31
1658564573.97508,336925.545719,-26
1658564573.97508,336925.5457222,-17
1658564573.97508,336925.5457261,-12
1658564573.97508,336925.5457295,-7
1658564573.97508,336925.5457334,4
1658564573.97508,336925.5457393,17
1658564573.97508,336925.5457427,17
1658564573.97508,336925.5457461,9
1658564573.97508,336925.5457496,9
1658564573.97508,336925.5457553,17
1658564573.97508,336925.5457601,19
1658564573.97508,336925.5457669,19
1658564573.97508,336925.5457723,24
1658564573.97508,336925.5457777,34
1658564573.97508,336925.5457817,43
1658564573.97508,336925.5457875,48
1658564573.97508,336925.5457914,46
1658564573.97508,336925.5457969,41
1658564573.97508,336925.5458011,43
1658564573.97508,336925.5458062,46
1658564573.97508,336925.5458096,48
1658564573.97508,336925.5458148,58
1658564573.97508,336925.5458183,65
1658564573.99569,336925.5458241,55
1658564573.99569,336925.5458279,51
1658564573.99569,336925.5458331,51
1658564573.99569,336925.5458368,55
1658564573.99569,336925.5458421,65
1658564573.99569,336925.5458458,65
1658564573.99569,336925.5458495,58
1658564573.99569,336925.5458543,68
1658564573.99569,336925.5458577,72
1658564573.99569,336925.5458617,70
1658564573.99569,336925.5458649,85
1658564573.99569,336925.5458685,97
1658564573.99569,336925.5458717,90
1658564573.99569,336925.5458751,85
1658564573.99569,336925.5458806,82
1658564573.99569,336925.5458861,77
1658564573.99569,336926.0793907,85
1658564573.99569,336926.0794204,92
1658564573.99569,336926.0794328,90
1658564573.99569,336926.0794376,82
1658564573.99569,336926.0794415,68
1658564573.99569,336926.0794501,60
1658564573.99569,336926.0794579,77
1658564573.99569,336926.0794644,99
1658564574.57987,336926.0794681,104
1658564574.57987,336926.0794742,94
1658564574.57987,336926.0794792,87
1658564574.57987,336926.0794846,75
1658564574.57987,336926.0794909,51
1658564574.57987,336926.0794958,41
1658564574.57987,336926.0795031,46
1658564574.57987,336926.0795106,38
1658564574.57987,336926.079518,29
1658564574.57987,336926.0795251,21
1658564574.57987,336926.0795322,19
1658564574.57987,336926.0795394,34
1658564574.57987,336926.0795447,29
1658564574.57987,336926.0795502,-70
1658564574.57987,336926.0795547,-180
1658564574.57987,336926.0795609,24
1658564574.57987,336926.0795701,613
1658564574.57987,336926.0795784,1114
1658564574.57987,336926.0795864,1002
1658564574.57987,336926.0795938,316
1658564574.57987,336926.0795999,-201
1658564574.57987,336926.0796041,-92
1658564574.57987,336926.0796112,116
1658564574.57987,336926.0796166,34
1658564574.57987,336926.07962,-31
1658564574.57987,336926.0796248,14
1658564574.57987,336926.0796282,21
1658564574.57987,336926.0796314,12
1658564574.57987,336926.0796344,24
1658564574.57987,336926.0796375,41
1658564574.57987,336926.0796407,58
1658564574.57987,336926.079644,82
1658564574.57987,336926.0796472,94
1658564574.57987,336926.0796502,90
1658564574.57987,336926.0796534,99
1658564574.57987,336926.0796596,133
1658564574.57987,336926.0796631,163
1658564574.57987,336926.0796663,175
1658564574.57987,336926.0796696,182
1658564574.57987,336926.0796747,201
1658564574.57987,336926.0796779,221
1658564574.57987,336926.0796811,228
1658564574.57987,336926.0796863,236
1658564574.57987,336926.0796897,245
1658564574.57987,336926.0796931,245
1658564574.57987,336926.0796962,238
1658564574.57987,336926.0796995,223
1658564574.57987,336926.0797026,194
1658564574.57987,336926.0797061,148
1658564574.57987,336926.0797116,114
1658564574.59284,336926.0797152,75
1658564574.59284,336926.0797199,26
1658564574.59284,336926.0797253,12
1658564574.59284,336926.0797286,19
1658564574.59284,336926.0797319,9
1658564574.59284,336926.0797352,-2
1658564574.59284,336926.0797387,9
1658564574.59284,336926.0797441,21
1658564574.59284,336926.0797492,12
1658564574.59284,336926.0797549,14
1658564574.59284,336926.0797585,34
1658564574.59284,336926.0797636,38
1658564574.59284,336926.0797669,38
1658564574.59284,336926.0797702,46
1658564574.59284,336926.0797738,53
1658564574.59284,336926.6649177,58
1658564574.59284,336926.664934,65
1658564574.59284,336926.6649397,60
1658564574.59284,336926.6649477,53
1658564574.59284,336926.6649542,58
1658564574.59284,336926.6649605,60
1658564574.59284,336926.6649652,38
1658564574.59284,336926.6649714,19
1658564574.59284,336926.6649761,31
1658564575.19306,336926.6649821,41
1658564575.19306,336926.6649866,31
1658564575.19306,336926.6649913,21
1658564575.19306,336926.6649958,14
1658564575.19306,336926.6650002,2
1658564575.19306,336926.6650046,2
1658564575.19306,336926.6650093,14
1658564575.19306,336926.665014,19
1658564575.19306,336926.6650185,7
1658564575.19306,336926.6650232,2
1658564575.19306,336926.6650293,4
1658564575.19306,336926.6650339,-2
1658564575.19306,336926.6650399,-4
1658564575.19306,336926.6650444,0
1658564575.19306,336926.6650508,-4
1658564575.19306,336926.6650554,-9
1658564575.19306,336926.6650614,-2
1658564575.19306,336926.665067,9
1658564575.19306,336926.6650737,19
1658564575.19306,336926.6650787,14
1658564575.19306,336926.6650847,14
1658564575.19306,336926.6650895,17
1658564575.19306,336926.6650957,7
1658564575.19306,336926.6651003,-2
1658564575.19306,336926.6651064,-4
1658564575.19306,336926.6651111,14
1658564575.19306,336926.6651172,31
1658564575.19306,336926.6651217,41
1658564575.19306,336926.6651277,65
1658564575.19306,336926.6651324,80
1658564575.19306,336926.6651383,80
1658564575.19306,336926.6651437,70
1658564575.19306,336926.6651499,46
1658564575.19306,336926.6651547,34
1658564575.19306,336926.6651607,36
1658564575.19306,336926.6651655,38
1658564575.19306,336926.6651721,46
1658564575.19306,336926.6651767,48
1658564575.19306,336926.6651826,48
1658564575.19306,336926.6651882,60
1658564575.19306,336926.6651941,29
1658564575.19306,336926.6651992,-99
1658564575.19306,336926.6652078,-150
1658564575.19306,336926.665273,204
1658564575.19306,336926.6652899,885
1658564575.19306,336926.6652954,1287
1658564575.19306,336926.6653001,912
1658564575.19306,336926.6653069,97
1658564575.19306,336926.6653117,-257
1658564575.19306,336926.6653177,-4
1658564575.26685,336926.6653223,158
1658564575.26685,336926.6653283,48
1658564575.26685,336926.6653327,21
1658564575.26685,336926.6653372,72
1658564575.26685,336926.6653416,65
1658564575.26685,336926.6653492,55
1658564575.26685,336926.6653537,90
1658564575.26685,336926.6653582,107
1658564575.26685,336926.6653625,99
1658564575.26685,336926.665367,109
1658564575.26685,336926.6653716,133
1658564575.26685,336926.6653762,153
1658564575.26685,336926.6653822,163
1658564575.26685,336926.6653867,160
1658564575.26685,336927.2578752,160
1658564575.26685,336927.2578977,180
1658564575.26685,336927.2579088,216
1658564575.26685,336927.2579199,236
1658564575.26685,336927.2579289,236
1658564575.26685,336927.257937,248
1658564575.26685,336927.2579453,265
1658564575.26685,336927.2579537,265
1658564575.26685,336927.2579616,248
1658564575.26685,336927.2579696,211
1658564575.68524,336927.2579778,182
1658564575.68524,336927.2579845,160
1658564575.68524,336927.2579895,111
1658564575.68524,336927.2579988,60
1658564575.68524,336927.2580065,24
1658564575.68524,336927.2580141,-19
1658564575.68524,336927.2580213,-53
1658564575.68524,336927.2580284,-58
1658564575.68524,336927.2580355,-55
1658564575.68524,336927.2580411,-63
1658564575.68524,336927.2580483,-60
1658564575.68524,336927.2580554,-55
1658564575.68524,336927.2580626,-55
1658564575.68524,336927.2580699,-46
1658564575.68524,336927.2580767,-34
1658564575.68524,336927.2580826,-24
1658564575.68524,336927.2580898,-19
1658564575.68524,336927.2580968,-14
1658564575.68524,336927.2581036,-17
1658564575.68524,336927.2581149,-19
1658564575.68524,336927.2581232,-4
1658564575.68524,336927.2581304,2
1658564575.68524,336927.2581388,-19
1658564575.68524,336927.2581492,-34
1658564575.68524,336927.2581568,-24
1658564575.68524,336927.2581626,-17
1658564575.68524,336927.2581691,-14
1658564575.68524,336927.2581802,-4
1658564575.68524,336927.2581987,-2
1658564575.68524,336927.2582083,-9
1658564575.68524,336927.2582173,-9
1658564575.68524,336927.2582252,-7
1658564575.68524,336927.2582326,-9
1658564575.68524,336927.2582384,-2
1658564575.68524,336927.258246,7
1658564575.68524,336927.2582536,9
1658564575.68524,336927.2582611,7
1658564575.68524,336927.2582708,7
1658564575.68524,336927.2582779,14
1658564575.68524,336927.2582829,19
1658564575.68524,336927.2582878,24
1658564575.68524,336927.2582925,29
1658564575.68524,336927.2582972,34
1658564575.68524,336927.2583023,31
1658564575.68524,336927.2583077,29
1658564575.68524,336927.2583161,46
1658564575.68524,336927.2583208,63
1658564575.68524,336927.2583255,53
1658564575.68524,336927.2583301,51
1658564575.68524,336927.2583346,55
1658564575.6992,336927.2583397,51
1658564575.6992,336927.2583448,41
1658564575.6992,336927.2583499,36
1658564575.6992,336927.2583557,41
1658564575.6992,336927.2583627,55
1658564575.6992,336927.2583676,87
1658564575.6992,336927.2583722,111
1658564575.6992,336927.258377,111
1658564575.6992,336927.2583814,109
1658564575.6992,336927.2583861,94
1658564575.6992,336927.2583906,75
1658564575.6992,336927.2583963,72
1658564575.6992,336927.2584012,68
1658564575.6992,336927.7860592,63
1658564575.6992,336927.7860746,77
1658564575.6992,336927.7860786,97
1658564575.6992,336927.7860822,97
1658564575.6992,336927.7860858,72
1658564575.6992,336927.7860895,-21
1658564575.6992,336927.7860932,-128
1658564575.6992,336927.7860968,60
1658564575.6992,336927.7861004,642
1658564575.6992,336927.786104,1170
1658564575.6992,336927.7861075,1085
1658564576.2714,336927.7861111,377
1658564576.2714,336927.7861147,-189
1658564576.2714,336927.7861183,-82
1658564576.2714,336927.7861218,148
1658564576.2714,336927.7861254,65
1658564576.2714,336927.7861291,-7
1658564576.2714,336927.7861583,53
1658564576.2714,336927.7861796,46
1658564576.2714,336927.7861854,4
1658564576.2714,336927.7861893,43
1658564576.2714,336927.7861933,75
1658564576.2714,336927.786908,63
1658564576.2714,336927.7869192,72
1658564576.2714,336927.7869251,94
1658564576.2714,336927.7869292,94
1658564576.2714,336927.7869324,97
1658564576.2714,336927.7869356,119
1658564576.2714,336927.7869415,133
1658564576.2714,336927.7869467,158
1658564576.2714,336927.7869535,182
1658564576.2714,336927.7869586,184
1658564576.2714,336927.7869644,194
1658564576.2714,336927.78697,218
1658564576.2714,336927.7869768,236
1658564576.2714,336927.786982,240
1658564576.2714,336927.7869854,245
1658564576.2714,336927.7869887,238
1658564576.2714,336927.7869919,206
1658564576.2714,336927.7869954,167
1658564576.2714,336927.7869991,131
1658564576.2714,336927.7870026,97
1658564576.2714,336927.7870062,60
1658564576.2714,336927.7870099,17
1658564576.2714,336927.7870148,-14
1658564576.2714,336927.787021,-14
1658564576.2714,336927.7870264,-9
1658564576.2714,336927.78703,-26
1658564576.2714,336927.7870365,-34
1658564576.2714,336927.7870412,-24
1658564576.2714,336927.7870448,-21
1658564576.2714,336927.7870485,-17
1658564576.2714,336927.7870683,-4
1658564576.2714,336927.7870742,2
1658564576.2714,336927.7870777,2
1658564576.2714,336927.7870809,0
1658564576.2714,336927.7870839,2
1658564576.2714,336927.7870869,0
1658564576.2714,336927.7870899,0
1658564576.2714,336927.787093,17
1658564576.2714,336927.7870963,34
1658564576.29434,336927.7870993,34
1658564576.29434,336927.7871023,31
1658564576.29434,336927.7871051,29
1658564576.29434,336927.7871099,29
1658564576.29434,336927.7871144,34
1658564576.29434,336927.787118,38
1658564576.29434,336927.7871214,34
1658564576.29434,336927.7871248,34
1658564576.29434,336927.7871298,46
1658564576.29434,336927.7871366,51
1658564576.29434,336927.7871435,41
1658564576.29434,336927.7871499,48
1658564576.29434,336928.373553,63
1658564576.29434,336928.3735726,63
1658564576.29434,336928.3735782,68
1658564576.29434,336928.3735843,63
1658564576.29434,336928.3735889,48
1658564576.29434,336928.3735927,48
1658564576.29434,336928.3735973,60
1658564576.29434,336928.3736019,58
1658564576.29434,336928.3736056,53
1658564576.29434,336928.3736101,36
1658564576.29434,336928.3736145,29
1658564576.29434,336928.3736189,46
1658564576.87999,336928.3736228,55
1658564576.87999,336928.3736272,43
1658564576.87999,336928.373631,41
1658564576.87999,336928.3736357,38
1658564576.87999,336928.3736403,19
1658564576.87999,336928.373644,12
1658564576.87999,336928.3736489,36
1658564576.87999,336928.373653,68
1658564576.87999,336928.3736572,75
1658564576.87999,336928.3736616,75
1658564576.87999,336928.3736653,87
1658564576.87999,336928.3736698,85
1658564576.87999,336928.3736742,68
1658564576.87999,336928.3736785,53
1658564576.87999,336928.3736825,55
1658564576.87999,336928.3736869,63
1658564576.87999,336928.3736949,65
1658564576.87999,336928.3737169,65
1658564576.87999,336928.3737261,70
1658564576.87999,336928.3737303,75
1658564576.87999,336928.3737336,48
1658564576.87999,336928.373737,-60
1658564576.87999,336928.3737406,-104
1658564576.87999,336928.3737443,231
1658564576.87999,336928.3737482,861
1658564576.87999,336928.373752,1197
1658564576.87999,336928.3737554,805
1658564576.87999,336928.3737588,68
1658564576.87999,336928.3737623,-194
1658564576.87999,336928.3737657,65
1658564576.87999,336928.3737695,177
1658564576.87999,336928.373773,48
1658564576.87999,336928.3737766,34
1658564576.87999,336928.3737804,94
1658564576.87999,336928.3737836,80
1658564576.87999,336928.3737879,60
1658564576.87999,336928.3737949,80
1658564576.87999,336928.3737994,99
1658564576.87999,336928.3738052,114
1658564576.87999,336928.3738113,128
1658564576.87999,336928.3738152,136
1658564576.87999,336928.373819,148
1658564576.87999,336928.3738226,167
1658564576.87999,336928.3738264,182
1658564576.87999,336928.3738301,192
1658564576.87999,336928.3738341,209
1658564576.87999,336928.3738381,236
1658564576.87999,336928.3738436,253
1658564576.87999,336928.3738486,255
1658564576.87999,336928.373854,260
1658564576.94482,336928.3738581,267
1658564576.94482,336928.3738619,274
1658564576.94482,336928.3738656,272
1658564576.94482,336928.3738692,253
1658564576.94482,336928.3738729,226
1658564576.94482,336928.3738762,187
1658564576.94482,336928.3738795,128
1658564576.94482,336928.3738824,70
1658564576.94482,336928.3738853,26
1658564576.94482,336928.3738883,2
1658564576.94482,336928.3738913,-17
1658564576.94482,336928.9202996,-41
1658564576.94482,336928.9203202,-55
1658564576.94482,336928.9203276,-41
1658564576.94482,336928.9203345,-34
1658564576.94482,336928.9203408,-51
1658564576.94482,336928.9203448,-53
1658564576.94482,336928.9203498,-38
1658564576.94482,336928.9203566,-29
1658564576.94482,336928.9203604,-31
1658564576.94482,336928.9203637,-29
1658564576.94482,336928.9203668,-17
1658564576.94482,336928.9203699,-14
1658564576.94482,336928.9203733,-34
1658564577.39101,336928.9203762,-48
1658564577.39101,336928.9203794,-31
1658564577.39101,336928.9203842,-7
1658564577.39101,336928.9203883,-4
1658564577.39101,336928.9203914,-17
1658564577.39101,336928.9203947,-34
1658564577.39101,336928.920398,-38
1658564577.39101,336928.9204031,-31
1658564577.39101,336928.9204072,-29
1658564577.39101,336928.9204108,-26
1658564577.39101,336928.9204163,-19
1658564577.39101,336928.9204256,-19
1658564577.39101,336928.9204324,-17
1658564577.39101,336928.9204377,-14
1658564577.39101,336928.9204446,-7
1658564577.39101,336928.9204865,4
1658564577.39101,336928.9206866,7
1658564577.39101,336928.9206924,2
1658564577.39101,336928.9206964,7
1658564577.39101,336928.9207007,24
1658564577.39101,336928.920705,36
1658564577.39101,336928.9207096,29
1658564577.39101,336928.9207145,21
1658564577.39101,336928.9207188,17
1658564577.39101,336928.9207229,14
1658564577.39101,336928.9207274,14
1658564577.39101,336928.9207322,17
1658564577.39101,336928.9207371,21
1658564577.39101,336928.9207424,26
1658564577.39101,336928.9207473,41
1658564577.39101,336928.9207518,72
1658564577.39101,336928.9207564,92
1658564577.39101,336928.9207609,92
1658564577.39101,336928.9207655,85
1658564577.39101,336928.9207705,65
1658564577.39101,336928.9207747,53
1658564577.39101,336928.9207805,60
1658564577.39101,336928.9207851,65

1658564577.39101,336928.9207894,55
1658564577.39101,336928.9207942,60
1658564577.39101,336928.9207991,72
1658564577.39101,336928.9208049,70
1658564577.39101,336928.920812,43
1658564577.39101,336928.9208191,-58
1658564577.39101,336928.9208243,-131
1658564577.39101,336928.9208296,160
1658564577.39101,336928.9208343,824
1658564577.39101,336928.9208407,1262
1658564577.39101,336928.9208467,917
1658564577.39101,336928.920853,92
1658564577.40398,336928.9208593,-304
1658564577.40398,336928.9208655,-63
1658564577.40398,336928.9208715,128
1658564577.40398,336928.9208775,36
1658564577.40398,336928.9208837,4
1658564577.40398,336928.9208897,60
1658564577.40398,336928.9208956,53
1658564577.40398,336928.9209016,48
1658564577.40398,336928.9209076,80
1658564577.40398,336928.9209138,85
1658564577.40398,336929.4919871,77
1658564577.40398,336929.4920091,99
1658564577.40398,336929.4920234,126
1658564577.40398,336929.4920333,131
1658564577.40398,336929.4920425,138
1658564577.40398,336929.4920514,160
1658564577.40398,336929.4920589,182
1658564577.40398,336929.4920627,194
1658564577.40398,336929.492068,209
1658564577.40398,336929.4920741,221
1658564577.40398,336929.4920822,228
1658564577.40398,336929.4920909,236
1658564577.40398,336929.492099,240
1658564577.40398,336929.4921072,238
1658564577.92367,336929.4921137,236
1658564577.92367,336929.4921199,214
1658564577.92367,336929.4921258,177
1658564577.92367,336929.4921318,143
1658564577.92367,336929.4921375,99
1658564577.92367,336929.4921443,41
1658564577.92367,336929.4921512,4
1658564577.92367,336929.4921566,-24
1658564577.92367,336929.4921628,-65
1658564577.92367,336929.4921686,-80
1658564577.92367,336929.4921748,-65
1658564577.92367,336929.4921822,-63
1658564577.92367,336929.4921917,-70
1658564577.92367,336929.4921984,-60
1658564577.92367,336929.4922061,-58
1658564577.92367,336929.4922128,-70
1658564577.92367,336929.4922211,-55
1658564577.92367,336929.4922269,-48
1658564577.92367,336929.4922357,-53
1658564577.92367,336929.4922429,-36
1658564577.92367,336929.4922497,-34
1658564577.92367,336929.4922634,-48
1658564577.92367,336929.4922758,-38
1658564577.92367,336929.4922871,-24
1658564577.92367,336929.4922965,-19
1658564577.92367,336929.4923122,-9
1658564577.92367,336929.4923208,-9
1658564577.92367,336929.492326,-21
1658564577.92367,336929.4923299,-19
1658564577.92367,336929.4923351,-9
1658564577.92367,336929.492342,-12
1658564577.92367,336929.4923508,-7
1658564577.92367,336929.4923572,0
1658564577.92367,336929.4923657,-12
1658564577.92367,336929.4923737,-4
1658564577.92367,336929.4923804,17
1658564577.92367,336929.4923886,21
1658564577.92367,336929.4923953,14
1658564577.92367,336929.492402,17
1658564577.92367,336929.4924086,19
1658564577.92367,336929.4924156,12
1658564577.92367,336929.492424,4
1658564577.92367,336929.4924333,12
1658564577.92367,336929.4924398,19
1658564577.92367,336929.4924461,21
1658564577.92367,336929.4924521,26
1658564577.92367,336929.4924587,14
1658564577.92367,336929.492463,-7
1658564577.92367,336929.4924675,7
1658564577.92367,336929.4924725,41
1658564577.93364,336929.492479,58
1658564577.93364,336929.4924837,65
1658564577.93364,336929.492489,80
1658564577.93364,336929.4924973,92
1658564577.93364,336929.4925051,77
1658564577.93364,336929.4925114,51
1658564577.93364,336929.492515,48
1658564577.93364,336929.4925182,60
1658564577.93364,336929.4925219,58
1658564577.93364,336930.0291568,53
1658564577.93364,336930.0291819,58
1658564577.93364,336930.0291864,65
1658564577.93364,336930.029192,58
1658564577.93364,336930.0291957,-24
1658564577.93364,336930.0291992,-163
1658564577.93364,336930.0292029,-26
1658564577.93364,336930.0292066,564
1658564577.93364,336930.0292104,1160
1658564577.93364,336930.029214,1119
1658564577.93364,336930.0292174,403
1658564577.93364,336930.029221,-223
1658564577.93364,336930.0292247,-163
1658564577.93364,336930.0292282,99
1658564577.93364,336930.0292319,58
1658564578.51133,336930.0292357,-21
1658564578.51133,336930.02924,26
1658564578.51133,336930.0292436,38
1658564578.51133,336930.0292475,14
1658564578.51133,336930.0292517,34
1658564578.51133,336930.0292566,65
1658564578.51133,336930.02926,77
1658564578.51133,336930.0292635,77
1658564578.51133,336930.0292669,82
1658564578.51133,336930.0292708,99
1658564578.51133,336930.029275,114
1658564578.51133,336930.0292785,128
1658564578.51133,336930.0292817,148
1658564578.51133,336930.0292866,160
1658564578.51133,336930.0292905,175
1658564578.51133,336930.0292938,209
1658564578.51133,336930.0292972,223
1658564578.51133,336930.0293006,226
1658564578.51133,336930.0293039,236
1658564578.51133,336930.0293074,240
1658564578.51133,336930.0293107,233
1658564578.51133,336930.0293143,226
1658564578.51133,336930.0293176,214
1658564578.51133,336930.029321,194
1658564578.51133,336930.0293243,145
1658564578.51133,336930.0293277,85
1658564578.51133,336930.029331,41
1658564578.51133,336930.0293347,19
1658564578.51133,336930.0293385,7
1658564578.51133,336930.0293419,0
1658564578.51133,336930.0293453,-2
1658564578.51133,336930.0293492,-17
1658564578.51133,336930.0293532,-31
1658564578.51133,336930.0293565,-19
1658564578.51133,336930.0293605,0
1658564578.51133,336930.0293646,4
1658564578.51133,336930.0293679,4
1658564578.51133,336930.0293712,0
1658564578.51133,336930.0293751,0
1658564578.51133,336930.0293808,4
1658564578.51133,336930.0293868,9
1658564578.51133,336930.0293915,14
1658564578.51133,336930.0294047,12
1658564578.51133,336930.0294093,14
1658564578.51133,336930.0294135,24
1658564578.51133,336930.0294183,17
1658564578.51133,336930.0294224,2
1658564578.51133,336930.0294258,9
1658564578.51133,336930.0294291,14
1658564578.51133,336930.0294339,7
1658564578.5233,336930.0294373,7
1658564578.5233,336930.0294409,14
1658564578.5233,336930.0294447,9
1658564578.5233,336930.029448,7
1658564578.5233,336930.0294519,14
1658564578.5233,336930.0294556,17
1658564578.5233,336930.0294595,12
1658564578.5233,336930.0294628,9
1658564578.5233,336930.6162464,12
1658564578.5233,336930.6162673,26
1658564578.5233,336930.6162738,26
1658564578.5233,336930.6162797,21
1658564578.5233,336930.6162846,26
1658564578.5233,336930.6162893,34
1658564578.5233,336930.6162935,43
1658564578.5233,336930.6163002,36
1658564578.5233,336930.6163103,9
1658564578.5233,336930.6163189,-24
1658564578.5233,336930.616325,-46
1658564578.5233,336930.6163316,-29
1658564578.5233,336930.6163367,7
1658564578.5233,336930.616343,31
1658564578.5233,336930.6163479,41
1658564578.5233,336930.6163524,43
1658564579.04368,336930.6163575,36
1658564579.04368,336930.6163684,17
1658564579.04368,336930.6163752,-7
1658564579.04368,336930.6163901,-2
1658564579.04368,336930.6163973,29
1658564579.04368,336930.6164105,26
1658564579.04368,336930.6164236,7
1658564579.04368,336930.6164314,19
1658564579.04368,336930.6164386,29
1658564579.04368,336930.6164448,-19
1658564579.04368,336930.6164518,-131
1658564579.04368,336930.616458,-102
1658564579.04368,336930.6164664,343
1658564579.04368,336930.616475,1002
1658564579.04368,336930.6164842,1236
1658564579.04368,336930.6164905,705
1658564579.04368,336930.6165035,-58
1658564579.04368,336930.6165105,-221
1658564579.04368,336930.6165173,72
1658564579.04368,336930.6165239,121
1658564579.04368,336930.6165366,-2
1658564579.04368,336930.6165441,31
1658564579.04368,336930.6165517,68
1658564579.04368,336930.6165553,19
1658564579.04368,336930.6165684,19
1658564579.04368,336930.6165758,55
1658564579.04368,336930.6165821,58
1658564579.04368,336930.6165951,58
1658564579.04368,336930.6166018,77
1658564579.04368,336930.6166111,97
1658564579.04368,336930.6166634,114
1658564579.04368,336930.6166768,124
1658564579.04368,336930.6166819,133
1658564579.04368,336930.6166873,160
1658564579.04368,336930.6166933,182
1658564579.04368,336930.6166975,182
1658564579.04368,336930.6167021,211
1658564579.04368,336930.6167098,250
1658564579.04368,336930.6167173,238
1658564579.04368,336930.6167243,228
1658564579.04368,336930.6167313,257
1658564579.04368,336930.6167374,257
1658564579.04368,336930.6167442,221
1658564579.04368,336930.6167502,184
1658564579.04368,336930.6167545,138
1658564579.04368,336930.6167594,87
1658564579.04368,336930.6167639,46
1658564579.04368,336930.6167725,14
1658564579.04368,336930.6167815,-7
1658564579.04368,336930.6167942,-29
1658564579.05864,336930.6167992,-26
1658564579.05864,336930.6168022,-7
1658564579.05864,336930.616805,-17
1658564579.05864,336930.6168079,-31
1658564579.05864,336930.6168108,-19
1658564579.05864,336930.6168137,-4
1658564579.05864,336930.6168166,0
1658564579.05864,336931.1514702,4
1658564579.05864,336931.151492,-4
1658564579.05864,336931.151498,-9
1658564579.05864,336931.151504,7
1658564579.05864,336931.1515074,9
1658564579.05864,336931.1515109,2
1658564579.05864,336931.1515149,14
1658564579.05864,336931.1515188,17
1658564579.05864,336931.1515227,7
1658564579.05864,336931.151526,21
1658564579.05864,336931.1515295,26
1658564579.05864,336931.151533,0
1658564579.05864,336931.1515362,-17
1658564579.05864,336931.1515435,-14
1658564579.05864,336931.1515468,-21
1658564579.05864,336931.1515503,-31
1658564579.05864,336931.1515541,-19
1658564579.63358,336931.1515594,-17
1658564579.63358,336931.1515633,-48
1658564579.63358,336931.1515669,-72
1658564579.63358,336931.1515705,-65
1658564579.63358,336931.1515742,-60
1658564579.63358,336931.1515786,-60
1658564579.63358,336931.1515824,-48
1658564579.63358,336931.1515865,-58
1658564579.63358,336931.1515908,-87
1658564579.63358,336931.1515942,-75
1658564579.63358,336931.1515982,-29
1658564579.63358,336931.1516035,-4
1658564579.63358,336931.1516081,-9
1658564579.63358,336931.1516136,-2
1658564579.63358,336931.1516178,17
1658564579.63358,336931.1516219,-14
1658564579.63358,336931.1516314,-58
1658564579.63358,336931.151635,-43
1658564579.63358,336931.1516383,-4
1658564579.63358,336931.1516426,-7
1658564579.63358,336931.1516456,-34
1658564579.63358,336931.1516489,-31
1658564579.63358,336931.1516521,-7
1658564579.63358,336931.1516564,-17
1658564579.63358,336931.1516605,-104
1658564579.63358,336931.1516636,-223
1658564579.63358,336931.1516666,-41
1658564579.63358,336931.1516697,630
1658564579.63358,336931.151673,1260
1658564579.63358,336931.151676,1133
1658564579.63358,336931.1516792,284
1658564579.63358,336931.1516826,-364
1658564579.63358,336931.1516858,-231
1658564579.63358,336931.1516897,80
1658564579.63358,336931.1516933,48
1658564579.63358,336931.1516969,-17
1658564579.63358,336931.1517005,46
1658564579.63358,336931.1517042,55
1658564579.63358,336931.1517076,26
1658564579.63358,336931.1517109,41
1658564579.63358,336931.1517144,65
1658564579.63358,336931.1517182,77
1658564579.63358,336931.1517223,87
1658564579.63358,336931.1517263,90
1658564579.63358,336931.1517297,119
1658564579.63358,336931.1517337,165
1658564579.63358,336931.1517404,163
1658564579.63358,336931.1517459,160
1658564579.63358,336931.1517496,201
1658564579.63358,336931.1517549,216
1658564579.65153,336931.1517613,221
1658564579.65153,336931.1517679,255
1658564579.65153,336931.1517716,277
1658564579.65153,336931.151777,279
1658564579.65153,336931.1517814,284
1658564579.65153,336931.1517887,282
1658564579.65153,336931.7407409,272
1658564579.65153,336931.7407602,250
1658564579.65153,336931.7407664,201
1658564579.65153,336931.7407706,150
1658564579.65153,336931.7407758,97
1658564579.65153,336931.7407795,43
1658564579.65153,336931.7407849,12
1658564579.65153,336931.7407887,-4
1658564579.65153,336931.7407938,-26
1658564579.65153,336931.7407974,-48
1658564579.65153,336931.7408026,-48
1658564579.65153,336931.7408064,-36
1658564579.65153,336931.7408115,-36
1658564579.65153,336931.7408151,-29
1658564579.65153,336931.7408201,-21
1658564579.65153,336931.7408253,-41
1658564579.65153,336931.7408305,-34
1658564579.65153,336931.7408342,9
1658564580.22223,336931.7408395,12
1658564580.22223,336931.7408431,4
1658564580.22223,336931.7408466,29
1658564580.22223,336931.7410661,29
1658564580.22223,336931.7410792,9
1658564580.22223,336931.7410878,2
1658564580.22223,336931.741096,7
1658564580.22223,336931.7411033,4
1658564580.22223,336931.7411106,-7
1658564580.22223,336931.7411179,4
1658564580.22223,336931.7411247,41
1658564580.22223,336931.7411316,31
1658564580.22223,336931.7411391,19
1658564580.22223,336931.7411461,55
1658564580.22223,336931.7411534,65
1658564580.22223,336931.74116,43
1658564580.22223,336931.7411675,46
1658564580.22223,336931.7411744,48
1658564580.22223,336931.7411818,34
1658564580.22223,336931.7411888,34
1658564580.22223,336931.7411962,41
1658564580.22223,336931.7412033,29
1658564580.22223,336931.7412099,29
1658564580.22223,336931.7412169,51
1658564580.22223,336931.741224,48
1658564580.22223,336931.7412317,34
1658564580.22223,336931.7412387,60
1658564580.22223,336931.7412461,99
1658564580.22223,336931.7412528,102
1658564580.22223,336931.7412596,77
1658564580.22223,336931.7412673,53
1658564580.22223,336931.7412744,46
1658564580.22223,336931.7412825,53
1658564580.22223,336931.7412901,53
1658564580.22223,336931.7412975,46
1658564580.22223,336931.7413052,46
1658564580.22223,336931.7413125,55
1658564580.22223,336931.7413198,55
1658564580.22223,336931.7413271,14
1658564580.22223,336931.7413353,-109
1658564580.22223,336931.7413427,-126
1658564580.22223,336931.7413499,279
1658564580.22223,336931.7413574,946
1658564580.22223,336931.7413651,1231
1658564580.22223,336931.7413723,759
1658564580.22223,336931.7413792,-29
1658564580.22223,336931.741386,-306
1658564580.22223,336931.7413939,-29
1658564580.22223,336931.7414013,131
1658564580.22223,336931.741406,41
1658564580.24617,336931.7414097,36
1658564580.24617,336931.7414145,90
1658564580.24617,336931.7414216,68
1658564580.24617,336931.7414284,63
1658564580.24617,336931.7414349,92
1658564580.24617,336932.319434,102
1658564580.24617,336932.3194553,114
1658564580.24617,336932.3194704,133
1658564580.24617,336932.3194841,148
1658564580.24617,336932.3194945,153
1658564580.24617,336932.3195041,158
1658564580.24617,336932.3195107,167
1658564580.24617,336932.3195233,194
1658564580.24617,336932.3195343,231
1658564580.24617,336932.3195434,255
1658564580.24617,336932.3195561,265
1658564580.24617,336932.3195673,279
1658564580.24617,336932.3195758,282
1658564580.24617,336932.3195875,270
1658564580.24617,336932.3195983,282
1658564580.24617,336932.3196069,282
1658564580.24617,336932.3196183,245
1658564580.24617,336932.3196274,194
1658564580.24617,336932.3196376,138
1658564580.70141,336932.3196486,65
1658564580.70141,336932.3196553,17
1658564580.70141,336932.3196658,-14
1658564580.70141,336932.3196734,-65
1658564580.70141,336932.319684,-80
1658564580.70141,336932.3196982,-55
1658564580.70141,336932.3197091,-53
1658564580.70141,336932.3197189,-68
1658564580.70141,336932.319725,-53
1658564580.70141,336932.3197295,-36
1658564580.70141,336932.3197318,-48
1658564580.70141,336932.319734,-51
1658564580.70141,336932.3197362,-26
1658564580.70141,336932.3197383,-7
1658564580.70141,336932.3197404,-7
1658564580.70141,336932.3197426,-7
1658564580.70141,336932.3197465,7
1658564580.70141,336932.3197565,21
1658564580.70141,336932.319767,12
1658564580.70141,336932.3197768,26
1658564580.70141,336932.319782,60
1658564580.70141,336932.3197861,48
1658564580.70141,336932.3197882,29
1658564580.70141,336932.3197903,48
1658564580.70141,336932.3197924,51
1658564580.70141,336932.3197945,21
1658564580.70141,336932.3197966,26
1658564580.70141,336932.3197986,58
1658564580.70141,336932.3198024,77
1658564580.70141,336932.3198117,65
1658564580.70141,336932.3198223,43
1658564580.70141,336932.3198324,34
1658564580.70141,336932.3198376,34
1658564580.70141,336932.3198475,36
1658564580.70141,336932.319858,34
1658564580.70141,336932.3198675,46
1658564580.70141,336932.3198782,65
1658564580.70141,336932.3198855,68
1658564580.70141,336932.3199003,65
1658564580.70141,336932.3199082,70
1658564580.70141,336932.3199129,85
1658564580.70141,336932.3199173,85
1658564580.70141,336932.3199208,75
1658564580.70141,336932.3199245,70
1658564580.70141,336932.3199303,55
1658564580.70141,336932.3199341,43
1658564580.70141,336932.3199399,48
1658564580.70141,336932.3199493,46
1658564580.70141,336932.3199561,36
1658564580.70141,336932.3199637,38
1658564580.71437,336932.3199691,41
1658564580.71437,336932.319976,12
1658564580.71437,336932.3199816,-92
1658564580.71437,336932.3199887,-206
1658564580.71437,336932.8082649,31
1658564580.71437,336932.808283,737
1658564580.71437,336932.8082917,1323
1658564580.71437,336932.8082993,1143
1658564580.71437,336932.8083048,299
1658564580.71437,336932.8083099,-323
1658564580.71437,336932.8083148,-184
1658564580.71437,336932.8083199,97
1658564580.71437,336932.8083268,17
1658564580.71437,336932.8083314,-70
1658564580.71437,336932.8083381,2
1658564580.71437,336932.8083448,26
1658564580.71437,336932.8083499,7
1658564580.71437,336932.8083568,29
1658564580.71437,336932.8083637,38
1658564580.71437,336932.8083703,29
1658564580.71437,336932.8083768,34
1658564580.71437,336932.8083832,51
1658564580.71437,336932.8083973,75
1658564580.71437,336932.8084055,99
1658564581.28984,336932.8084124,116
1658564581.28984,336932.8084175,114
1658564581.28984,336932.8084295,109
1658564581.28984,336932.808435,143
1658564581.28984,336932.8084398,189
1658564581.28984,336932.8084448,211
1658564581.28984,336932.8084497,223
1658564581.28984,336932.8084545,231
1658564581.28984,336932.8084593,233
1658564581.28984,336932.8084639,233
1658564581.28984,336932.8084682,238
1658564581.28984,336932.8084728,231
1658564581.28984,336932.8084774,165
1658564581.28984,336932.8084823,75
1658564581.28984,336932.8084873,12
1658564581.28984,336932.8084923,-14
1658564581.28984,336932.8084967,-24
1658564581.28984,336932.8085009,-48
1658564581.28984,336932.8085052,-72
1658564581.28984,336932.8085096,-80
1658564581.28984,336932.808514,-85
1658564581.28984,336932.8085187,-85
1658564581.28984,336932.8085266,-70
1658564581.28984,336932.8085371,-53
1658564581.28984,336932.808542,-43
1658564581.28984,336932.8085485,-34
1658564581.28984,336932.8085529,-34
1658564581.28984,336932.8085591,-43
1658564581.28984,336932.8085642,-26
1658564581.28984,336932.8085705,0
1658564581.28984,336932.8085772,2
1658564581.28984,336932.8085818,14
1658564581.28984,336932.808588,29
1658564581.28984,336932.8085926,26
1658564581.28984,336932.8085987,38
1658564581.28984,336932.8086043,43
1658564581.28984,336932.8086104,29
1658564581.28984,336932.8086146,41
1658564581.28984,336932.8086193,65
1658564581.28984,336932.8086254,48
1658564581.28984,336932.80863,29
1658564581.28984,336932.808636,41
1658564581.28984,336932.8086406,46
1658564581.28984,336932.8086465,41
1658564581.28984,336932.8086509,55
1658564581.28984,336932.8086555,55
1658564581.28984,336932.8086615,38
1658564581.28984,336932.8086671,48
1658564581.28984,336932.808673,51
1658564581.28984,336932.8087188,31
1658564581.31178,336932.8087298,26
1658564581.31178,336932.8087338,46
1658564581.31178,336932.8087371,70
1658564581.31178,336933.3924924,77
1658564581.31178,336933.3925123,68
1658564581.31178,336933.3925201,70
1658564581.31178,336933.3925297,77
1658564581.31178,336933.3925366,53
1658564581.31178,336933.3925414,24
1658564581.31178,336933.3925473,9
1658564581.31178,336933.3925533,9
1658564581.31178,336933.392561,21
1658564581.31178,336933.3925692,24
1658564581.31178,336933.3925753,14
1658564581.31178,336933.3925821,7
1658564581.31178,336933.3925881,-19
1658564581.31178,336933.3925951,-119
1658564581.31178,336933.3926037,-253
1658564581.31178,336933.3926125,-75
1658564581.31178,336933.3926253,583
1658564581.31178,336933.3926384,1226
1658564581.31178,336933.3926466,1180
1658564581.31178,336933.3926491,391
1658564581.31178,336933.3926519,-313
1658564581.92473,336933.3926606,-240
1658564581.92473,336933.3926704,72
1658564581.92473,336933.3926799,12
1658564581.92473,336933.3926852,-99
1658564581.92473,336933.3926895,-26
1658564581.92473,336933.3926956,9
1658564581.92473,336933.3927009,-12
1658564581.92473,336933.3927113,12
1658564581.92473,336933.3927238,21
1658564581.92473,336933.3927334,2
1658564581.92473,336933.3927412,36
1658564581.92473,336933.3927497,85
1658564581.92473,336933.3927565,82
1658564581.92473,336933.3927612,85
1658564581.92473,336933.392774,121
1658564581.92473,336933.3927877,141
1658564581.92473,336933.3927989,153
1658564581.92473,336933.3928096,175
1658564581.92473,336933.3928192,197
1658564581.92473,336933.3928258,223
1658564581.92473,336933.3928337,245
1658564581.92473,336933.3928377,257
1658564581.92473,336933.3928427,270
1658564581.92473,336933.3928484,274
1658564581.92473,336933.3928535,255
1658564581.92473,336933.3928597,223
1658564581.92473,336933.3928637,170
1658564581.92473,336933.3928699,102
1658564581.92473,336933.3928745,43
1658564581.92473,336933.3928802,2
1658564581.92473,336933.3928859,-29
1658564581.92473,336933.3928937,-46
1658564581.92473,336933.3928992,-43
1658564581.92473,336933.3929046,-46
1658564581.92473,336933.3929121,-43
1658564581.92473,336933.3929212,-38
1658564581.92473,336933.3929291,-43
1658564581.92473,336933.3929371,-46
1658564581.92473,336933.3929451,-24
1658564581.92473,336933.3929534,0
1658564581.92473,336933.392962,-2
1658564581.92473,336933.3929694,-17
1658564581.92473,336933.3929766,-21
1658564581.92473,336933.3929837,-7
1658564581.92473,336933.3929925,4
1658564581.92473,336933.3929964,12
1658564581.92473,336933.3930002,14
1658564581.92473,336933.3930038,9
1658564581.92473,336933.3930074,12
1658564581.92473,336933.393011,19
1658564581.93569,336933.393018,17
1658564581.93569,336933.3930227,24
1658564581.93569,336934.0263001,34
1658564581.93569,336934.026358,36
1658564581.93569,336934.0264061,26
1658564581.93569,336934.0264194,17
1658564581.93569,336934.0264268,29
1658564581.93569,336934.0264347,46
1658564581.93569,336934.0264424,48
1658564581.93569,336934.02645,51
1658564581.93569,336934.0264563,41
1658564581.93569,336934.0264609,17
1658564581.93569,336934.0264659,14
1658564581.93569,336934.0264699,34
1658564581.93569,336934.0264762,38
1658564581.93569,336934.0264832,34
1658564581.93569,336934.0264883,46
1658564581.93569,336934.0264925,43
1658564581.93569,336934.026497,19
1658564581.93569,336934.0265034,19
1658564581.93569,336934.0265073,38
1658564581.93569,336934.0265112,46
1658564581.93569,336934.0265156,38
1658564581.93569,336934.0265202,24
1658564582.41091,336934.0265244,24
1658564582.41091,336934.0265286,36
1658564582.41091,336934.0265326,43
1658564582.41091,336934.0265371,51
1658564582.41091,336934.0265407,53
1658564582.41091,336934.0265451,43
1658564582.41091,336934.0265495,34
1658564582.41091,336934.0265539,38
1658564582.41091,336934.0265582,55
1658564582.41091,336934.0265628,55
1658564582.41091,336934.0265674,38
1658564582.41091,336934.0265716,31
1658564582.41091,336934.0265758,38
1658564582.41091,336934.0265804,51
1658564582.41091,336934.0265853,55
1658564582.41091,336934.0265901,43
1658564582.41091,336934.0265957,31
1658564582.41091,336934.0266002,31
1658564582.41091,336934.0266048,36
1658564582.41091,336934.0266094,34
1658564582.41091,336934.0266138,34
1658564582.41091,336934.0266181,43
1658564582.41091,336934.0266234,48
1658564582.41091,336934.0266286,41
1658564582.41091,336934.0266339,38
1658564582.41091,336934.0266391,53
1658564582.41091,336934.0266435,63
1658564582.41091,336934.0266478,55
1658564582.41091,336934.0266527,55
1658564582.41091,336934.0266582,55
1658564582.41091,336934.0266651,46
1658564582.41091,336934.0266723,48
1658564582.41091,336934.0266782,55
1658564582.41091,336934.0266837,51
1658564582.41091,336934.0266884,51
1658564582.41091,336934.0266947,53
1658564582.41091,336934.0267002,58
1658564582.41091,336934.026709,65
1658564582.41091,336934.0267161,63
1658564582.41091,336934.0267227,51
1658564582.41091,336934.0267297,60
1658564582.41091,336934.0267367,55
1658564582.41091,336934.0267438,38
1658564582.41091,336934.0267491,58
1658564582.41091,336934.0267542,102
1658564582.41091,336934.0267611,114
1658564582.41091,336934.0267822,104
1658564582.41091,336934.0267888,109
1658564582.41091,336934.0267944,109
1658564582.41091,336934.0268004,97
1658564582.43484,336934.0268075,82
1658564582.43484,336934.5138631,75
1658564582.43484,336934.5138825,82
1658564582.43484,336934.5138918,85
1658564582.43484,336934.5138979,75
1658564582.43484,336934.5139049,72
1658564582.43484,336934.5139112,82
1658564582.43484,336934.5139181,82
1658564582.43484,336934.5139231,60
1658564582.43484,336934.5139283,-58
1658564582.43484,336934.5139346,-182
1658564582.43484,336934.5139415,97
1658564582.43484,336934.5139468,832
1658564582.43484,336934.5139536,1413
1658564582.43484,336934.5139589,1275
1658564582.43484,336934.5139659,484
1658564582.43484,336934.5139721,-167
1658564582.43484,336934.5139791,-85
1658564582.43484,336934.5139842,153
1658564582.43484,336934.5139894,36
1658564582.43484,336934.5139946,-60
1658564582.43484,336934.5140013,17
1658564582.43484,336934.5140067,34
1658564582.43484,336934.5140132,7
1658564582.99198,336934.5140185,36
1658564582.99198,336934.5140235,46
1658564582.99198,336934.5140283,19
1658564582.99198,336934.5140334,36
1658564582.99198,336934.5140385,70
1658564582.99198,336934.5140435,72
1658564582.99198,336934.5140486,90
1658564582.99198,336934.5140537,119
1658564582.99198,336934.5140589,114
1658564582.99198,336934.514066,119
1658564582.99198,336934.5140728,155
1658564582.99198,336934.5140789,182
1658564582.99198,336934.514086,201
1658564582.99198,336934.5140912,228
1658564582.99198,336934.5140977,233
1658564582.99198,336934.5141029,238
1658564582.99198,336934.5141081,257
1658564582.99198,336934.514115,262
1658564582.99198,336934.51412,248
1658564582.99198,336934.5141273,231
1658564582.99198,336934.5141323,187
1658564582.99198,336934.5141375,116
1658564582.99198,336934.5141443,53
1658564582.99198,336934.5141495,19
1658564582.99198,336934.5141562,4
1658564582.99198,336934.5141615,-21
1658564582.99198,336934.5141686,-51
1658564582.99198,336934.5141739,-55
1658564582.99198,336934.5141809,-55
1658564582.99198,336934.5141861,-60
1658564582.99198,336934.5141957,-68
1658564582.99198,336934.514201,-72
1658564582.99198,336934.5142049,-68
1658564582.99198,336934.5142082,-63
1658564582.99198,336934.5142116,-58
1658564582.99198,336934.5142282,-51
1658564582.99198,336934.5142364,-43
1658564582.99198,336934.5142417,-31
1658564582.99198,336934.5142466,-21
1658564582.99198,336934.5142514,-17
1658564582.99198,336934.5142563,-9
1658564582.99198,336934.5142611,-9
1658564582.99198,336934.5142659,-12
1658564582.99198,336934.5142753,0
1658564582.99198,336934.5142801,2
1658564582.99198,336934.514285,0
1658564582.99198,336934.5142897,17
1658564582.99198,336934.514294,19
1658564582.99198,336934.5142987,7
1658564582.99198,336934.5143035,12
1658564583.00395,336935.0989996,21
1658564583.00395,336935.0990154,21
1658564583.00395,336935.0990224,14
1658564583.00395,336935.099029,9
1658564583.00395,336935.0990339,9
1658564583.00395,336935.09904,24
1658564583.00395,336935.099047,34
1658564583.00395,336935.099057,26
1658564583.00395,336935.0990643,14
1658564583.00395,336935.0990711,14
1658564583.00395,336935.0990761,19
1658564583.00395,336935.0990831,26
1658564583.00395,336935.0990899,31
1658564583.00395,336935.0990966,31
1658564583.00395,336935.0991024,19
1658564583.00395,336935.0991091,2
1658564583.00395,336935.0991142,7
1658564583.00395,336935.0991209,31
1658564583.00395,336935.0991287,36
1658564583.00395,336935.0991353,24
1658564583.00395,336935.0991404,29
1658564583.00395,336935.0991475,41
1658564583.00395,336935.0991543,41
1658564583.00395,336935.0991594,43
1658564583.53162,336935.0991662,46
1658564583.53162,336935.099171,48
1658564583.53162,336935.0991758,51
1658564583.53162,336935.0991808,55
1658564583.53162,336935.0991856,53
1658564583.53162,336935.0991943,55
1658564583.53162,336935.0991993,65
1658564583.53162,336935.0992038,70
1658564583.53162,336935.0992089,68
1658564583.53162,336935.0992149,68
1658564583.53162,336935.0992196,77
1658564583.53162,336935.0992282,80
1658564583.53162,336935.0992379,75
1658564583.53162,336935.0992468,82
1658564583.53162,336935.0992605,87
1658564583.53162,336935.0992678,82
1658564583.53162,336935.0992711,82
1658564583.53162,336935.0992745,85
1658564583.53162,336935.0992778,80
1658564583.53162,336935.0992832,85
1658564583.53162,336935.0992868,107
1658564583.53162,336935.0992919,104
1658564583.53162,336935.0992952,85
1658564583.53162,336935.0993006,82
1658564583.53162,336935.0993041,85
1658564583.53162,336935.0993092,80
1658564583.53162,336935.0993128,82
1658564583.53162,336935.0993196,90
1658564583.53162,336935.0993261,90
1658564583.53162,336935.0993316,99
1658564583.53162,336935.0993349,107
1658564583.53162,336935.0993379,104
1658564583.53162,336935.0993413,126
1658564583.53162,336935.0993444,150
1658564583.53162,336935.0993478,143
1658564583.53162,336935.0993523,136
1658564583.53162,336935.0993555,133
1658564583.53162,336935.0993591,116
1658564583.53162,336935.0993636,94
1658564583.53162,336935.0993681,92
1658564583.53162,336935.0993717,92
1658564583.53162,336935.0993749,77
1658564583.53162,336935.0993809,65
1658564583.53162,336935.099384,70
1658564583.53162,336935.0993896,75
1658564583.53162,336935.0993929,70
1658564583.53162,336935.0993984,51
1658564583.53162,336935.0994015,-34
1658564583.53162,336935.0994073,-141
1658564583.53162,336935.635437,48
1658564583.54259,336935.6354524,674
1658564583.54259,336935.6354565,1243
1658564583.54259,336935.6354602,1155
1658564583.54259,336935.6354638,437
1658564583.54259,336935.6354675,-167
1658564583.54259,336935.6354711,-119
1658564583.54259,336935.6354747,119
1658564583.54259,336935.6354782,72
1658564583.54259,336935.6354818,-4
1658564583.54259,336935.6354853,48
1658564583.54259,336935.6354888,60
1658564583.54259,336935.6354925,26
1658564583.54259,336935.635496,41
1658564583.54259,336935.6354996,63
1658564583.54259,336935.6355032,65
1658564583.54259,336935.6355068,72
1658564583.54259,336935.6355103,87
1658564583.54259,336935.6355138,92
1658564583.54259,336935.6355195,94
1658564583.54259,336935.6355259,109
1658564583.54259,336935.6355293,128
1658564583.54259,336935.6355324,148
1658564583.54259,336935.6355368,165
1658564583.54259,336935.635543,180
1658564584.06412,336935.6355492,194
1658564584.06412,336935.6355556,228
1658564584.06412,336935.6355621,257
1658564584.06412,336935.6355686,253
1658564584.06412,336935.6355752,255
1658564584.06412,336935.635581,265
1658564584.06412,336935.6355848,243
1658564584.06412,336935.6355878,214
1658564584.06412,336935.6355907,184
1658564584.06412,336935.6355938,133
1658564584.06412,336935.6355996,70
1658564584.06412,336935.6356043,21
1658564584.06412,336935.6356088,-2
1658564584.06412,336935.635613,-17
1658564584.06412,336935.6356176,-36
1658564584.06412,336935.6356229,-36
1658564584.06412,336935.6356268,-24
1658564584.06412,336935.6356313,-31
1658564584.06412,336935.6356382,-38
1658564584.06412,336935.6356452,-17
1658564584.06412,336935.6356514,2
1658564584.06412,336935.6356555,-2
1658564584.06412,336935.6356614,-4
1658564584.06412,336935.6356655,9
1658564584.06412,336935.6356692,19
1658564584.06412,336935.6356729,17
1658564584.06412,336935.6356765,26
1658564584.06412,336935.6356802,43
1658564584.06412,336935.6356838,43
1658564584.06412,336935.6356873,46
1658564584.06412,336935.6356911,53
1658564584.06412,336935.6356955,55
1658564584.06412,336935.6356991,60
1658564584.06412,336935.6357028,60
1658564584.06412,336935.6357071,51
1658564584.06412,336935.6357115,55
1658564584.06412,336935.635718,68
1658564584.06412,336935.6357219,68
1658564584.06412,336935.6357256,55
1658564584.06412,336935.6357291,53
1658564584.06412,336935.6357326,63
1658564584.06412,336935.6357364,70
1658564584.06412,336935.6357399,77
1658564584.06412,336935.6357435,72
1658564584.06412,336935.6357471,65
1658564584.06412,336935.6357507,75
1658564584.06412,336935.6357542,82
1658564584.06412,336935.6357579,70
1658564584.06412,336936.1710946,65
1658564584.06412,336936.1711134,70
1658564584.07509,336936.1711196,70
1658564584.07509,336936.1711229,65
1658564584.07509,336936.1711261,75
1658564584.07509,336936.1711292,77
1658564584.07509,336936.1711322,58
1658564584.07509,336936.1711353,68
1658564584.07509,336936.1711383,70
1658564584.07509,336936.1711415,31
1658564584.07509,336936.1711444,26
1658564584.07509,336936.1711486,51
1658564584.07509,336936.1711518,48
1658564584.07509,336936.1711548,36
1658564584.07509,336936.1711579,38
1658564584.07509,336936.1711609,26
1658564584.07509,336936.171164,4
1658564584.07509,336936.1711671,2
1658564584.07509,336936.1711703,2
1658564584.07509,336936.1711746,0
1658564584.07509,336936.1711787,4
1658564584.07509,336936.1711817,24
1658564584.07509,336936.1711847,41
1658564584.07509,336936.171188,31
1658564584.07509,336936.171191,26
1658564584.07509,336936.171196,43
1658564584.65577,336936.1711996,43
1658564584.65577,336936.171203,46
1658564584.65577,336936.1712061,55
1658564584.65577,336936.1712096,51
1658564584.65577,336936.1712146,43
1658564584.65577,336936.1712199,36
1658564584.65577,336936.1712251,29
1658564584.65577,336936.1712299,36
1658564584.65577,336936.1712345,29
1658564584.65577,336936.1712379,12
1658564584.65577,336936.1712444,26
1658564584.65577,336936.1712499,55
1658564584.65577,336936.1712551,72
1658564584.65577,336936.1712588,90
1658564584.65577,336936.171262,104
1658564584.65577,336936.1712666,107
1658564584.65577,336936.1712708,87
1658564584.65577,336936.1712753,51
1658564584.65577,336936.1712821,31
1658564584.65577,336936.1712899,55
1658564584.65577,336936.1712992,80
1658564584.65577,336936.1713085,65
1658564584.65577,336936.1713143,55
1658564584.65577,336936.1713212,70
1658564584.65577,336936.171327,70
1658564584.65577,336936.1713349,65
1658564584.65577,336936.1713441,36
1658564584.65577,336936.1713525,-68
1658564584.65577,336936.1713608,-111
1658564584.65577,336936.1713675,199
1658564584.65577,336936.1713756,812
1658564584.65577,336936.1713818,1202
1658564584.65577,336936.1713867,929
1658564584.65577,336936.1714451,223
1658564584.65577,336936.1714513,-165
1658564584.65577,336936.1714554,-4
1658564584.65577,336936.1714591,141
1658564584.65577,336936.1714627,48
1658564584.65577,336936.1714662,19
1658564584.65577,336936.1714839,68
1658564584.65577,336936.171491,58
1658564584.65577,336936.1714979,41
1658564584.65577,336936.1715025,65
1658564584.65577,336936.171509,94
1658564584.65577,336936.1715127,109
1658564584.65577,336936.1715191,114
1658564584.65577,336936.1715255,121
1658564584.65577,336936.7559531,133
1658564584.65577,336936.7559736,141
1658564584.65577,336936.7559847,163
1658564584.66774,336936.7559931,187
1658564584.66774,336936.7559996,189
1658564584.66774,336936.7560067,192
1658564584.66774,336936.7560152,199
1658564584.66774,336936.75602,214
1658564584.66774,336936.7560275,231
1658564584.66774,336936.7560332,236
1658564584.66774,336936.7560419,245
1658564584.66774,336936.756049,255
1658564584.66774,336936.756058,233
1658564584.66774,336936.7560671,204
1658564584.66774,336936.7560733,197
1658564584.66774,336936.7561099,153
1658564584.66774,336936.7561189,77
1658564584.66774,336936.7561284,29
1658564584.66774,336936.7561349,-9
1658564584.66774,336936.756141,-43
1658564584.66774,336936.7561464,-41
1658564584.66774,336936.7561541,-38
1658564584.66774,336936.7561595,-55
1658564584.66774,336936.7561666,-77
1658564584.66774,336936.7561719,-85
1658564584.66774,336936.7561771,-80
1658564584.66774,336936.7561823,-72
1658564585.23396,336936.7561872,-68
1658564585.23396,336936.7561924,-58

1658564585.23396,336936.7561979,-55
1658564585.23396,336936.7562031,-55
1658564585.23396,336936.7562082,-41
1658564585.23396,336936.7562131,-38
1658564585.23396,336936.7562177,-34
1658564585.23396,336936.7562226,-17
1658564585.23396,336936.7562275,-9
1658564585.23396,336936.7562324,-14
1658564585.23396,336936.7562374,-7
1658564585.23396,336936.7562424,7
1658564585.23396,336936.7562474,7
1658564585.23396,336936.7562525,7
1658564585.23396,336936.7562576,12
1658564585.23396,336936.7562628,12
1658564585.23396,336936.7562678,12
1658564585.23396,336936.7562734,17
1658564585.23396,336936.7562806,19
1658564585.23396,336936.756287,21
1658564585.23396,336936.7562936,31
1658564585.23396,336936.7562985,41
1658564585.23396,336936.7563051,51
1658564585.23396,336936.7563111,48
1658564585.23396,336936.7563179,38
1658564585.23396,336936.7563238,41
1658564585.23396,336936.7563308,55
1658564585.23396,336936.7563359,63
1658564585.23396,336936.7563429,63
1658564585.23396,336936.7563488,77
1658564585.23396,336936.7563556,80
1658564585.23396,336936.7563607,68
1658564585.23396,336936.7563681,72
1658564585.23396,336936.7563761,94
1658564585.23396,336936.7563829,97
1658564585.23396,336936.7563878,87
1658564585.23396,336936.7563947,80
1658564585.23396,336936.7563993,92
1658564585.23396,336936.7564059,109
1658564585.23396,336936.7564125,111
1658564585.23396,336936.756418,107
1658564585.23396,336936.7564284,102
1658564585.23396,336936.7564383,99
1658564585.23396,336936.7564505,104
1658564585.23396,336936.7564604,116
1658564585.23396,336936.7564683,124
1658564585.23396,336937.3414481,116
1658564585.23396,336937.341473,107
1658564585.23396,336937.3414833,111
1658564585.23396,336937.3414923,121
1658564585.24509,336937.341501,119
1658564585.24509,336937.3415079,114
1658564585.24509,336937.341516,114
1658564585.24509,336937.3415234,121
1658564585.24509,336937.3415324,124
1658564585.24509,336937.3415391,107
1658564585.24509,336937.3415468,104
1658564585.24509,336937.3415542,111
1658564585.24509,336937.3415618,107
1658564585.24509,336937.3415706,102
1658564585.24509,336937.3415797,102
1658564585.24509,336937.3415869,104
1658564585.24509,336937.3415958,119
1658564585.24509,336937.341603,124
1658564585.24509,336937.3416114,111
1658564585.24509,336937.3416206,111
1658564585.24509,336937.3416297,128
1658564585.24509,336937.341637,114
1658564585.24509,336937.3416457,77
1658564585.24509,336937.3416527,77
1658564585.24509,336937.341662,102
1658564585.24509,336937.3416704,102
1658564585.24509,336937.3416776,85
1658564585.24509,336937.3416863,85
1658564585.77683,336937.3416951,87
1658564585.77683,336937.341702,90
1658564585.77683,336937.3417086,70
1658564585.77683,336937.341716,-43
1658564585.77683,336937.3417228,-131
1658564585.77683,336937.34173,172
1658564585.77683,336937.3417373,846
1658564585.77683,336937.3417469,1279
1658564585.77683,336937.3417555,1004
1658564585.77683,336937.3417644,270
1658564585.77683,336937.3417733,-180
1658564585.77683,336937.3417803,-48
1658564585.77683,336937.3417895,138
1658564585.77683,336937.3417984,75
1658564585.77683,336937.3418056,36
1658564585.77683,336937.341814,82
1658564585.77683,336937.3418207,87
1658564585.77683,336937.3418296,90
1658564585.77683,336937.3418371,102
1658564585.77683,336937.3418462,109
1658564585.77683,336937.341853,121
1658564585.77683,336937.3418623,133
1658564585.77683,336937.3418714,150
1658564585.77683,336937.3418787,167
1658564585.77683,336937.3418882,172
1658564585.77683,336937.3418967,180
1658564585.77683,336937.341906,194
1658564585.77683,336937.3419145,216
1658564585.77683,336937.3419236,238
1658564585.77683,336937.3419327,253
1658564585.77683,336937.3419416,265
1658564585.77683,336937.3419501,296
1658564585.77683,336937.3419582,333
1658564585.77683,336937.3419646,335
1658564585.77683,336937.3419699,323
1658564585.77683,336937.3419766,311
1658564585.77683,336937.3419815,296
1658564585.77683,336937.3419891,277
1658564585.77683,336937.3419953,236
1658564585.77683,336937.3420034,167
1658564585.77683,336937.3420102,92
1658564585.77683,336937.342018,41
1658564585.77683,336937.3420255,19
1658564585.77683,336937.3420334,4
1658564585.77683,336937.3420388,-9
1658564585.77683,336937.8780373,-21
1658564585.77683,336937.8780499,-24
1658564585.77683,336937.8780552,-19
1658564585.77683,336937.8780576,-7
1658564585.77683,336937.8780597,-7
1658564585.7878,336937.8780618,-2
1658564585.7878,336937.8780641,17
1658564585.7878,336937.8780665,14
1658564585.7878,336937.8780689,9
1658564585.7878,336937.8780713,17
1658564585.7878,336937.8780736,2
1658564585.7878,336937.8780758,-21
1658564585.7878,336937.8780779,-14
1658564585.7878,336937.87808,-4
1658564585.7878,336937.878082,-14
1658564585.7878,336937.878084,-7
1658564585.7878,336937.8780863,2
1658564585.7878,336937.8780885,-7
1658564585.7878,336937.8780906,-21
1658564585.7878,336937.8780926,-31
1658564585.7878,336937.8780947,-29
1658564585.7878,336937.8780967,-24
1658564585.7878,336937.878099,-31
1658564585.7878,336937.8781011,-36
1658564585.7878,336937.8781032,-34
1658564585.7878,336937.8781052,-38
1658564585.7878,336937.8781073,-38
1658564585.7878,336937.8781093,-21
1658564585.7878,336937.8781113,-14
1658564586.36398,336937.8781134,-21
1658564586.36398,336937.8781157,-17
1658564586.36398,336937.8781197,-4
1658564586.36398,336937.878122,-4
1658564586.36398,336937.8781242,-7
1658564586.36398,336937.8781263,-4
1658564586.36398,336937.8781286,4
1658564586.36398,336937.8781318,17
1658564586.36398,336937.8781393,19
1658564586.36398,336937.8781449,17
1658564586.36398,336937.8781489,26
1658564586.36398,336937.8781528,34
1658564586.36398,336937.8781604,36
1658564586.36398,336937.878165,38
1658564586.36398,336937.8781735,36
1658564586.36398,336937.8781801,34
1658564586.36398,336937.8781868,43
1658564586.36398,336937.8781913,51
1658564586.36398,336937.8781946,38
1658564586.36398,336937.8781978,55
1658564586.36398,336937.878201,97
1658564586.36398,336937.8782041,107
1658564586.36398,336937.8782091,94
1658564586.36398,336937.8782143,99
1658564586.36398,336937.8782172,102
1658564586.36398,336937.8782219,99
1658564586.36398,336937.8782303,82
1658564586.36398,336937.8782387,58
1658564586.36398,336937.878245,55
1658564586.36398,336937.8782535,65
1658564586.36398,336937.87826,70
1658564586.36398,336937.8782657,72
1658564586.36398,336937.8782687,68
1658564586.36398,336937.8782723,68
1658564586.36398,336937.8782781,65
1658564586.36398,336937.8782862,-14
1658564586.36398,336937.8782927,-131
1658564586.36398,336937.8782989,24
1658564586.36398,336937.8783051,615
1658564586.36398,336937.8783109,1219
1658564586.36398,336937.8783158,1209
1658564586.36398,336937.8783194,515
1658564586.36398,336937.8783251,-150
1658564586.36398,336937.8783341,-145
1658564586.36398,336938.4622014,126
1658564586.36398,336938.4622229,107
1658564586.36398,336938.4622322,4
1658564586.36398,336938.4622348,53
1658564586.36398,336938.462237,90
1658564586.36398,336938.4622399,63
1658564586.37296,336938.4622481,68
1658564586.37296,336938.46226,97
1658564586.37296,336938.4622675,102
1658564586.37296,336938.4622724,94
1658564586.37296,336938.4622809,102
1658564586.37296,336938.4622855,121
1658564586.37296,336938.46229,124
1658564586.37296,336938.4622946,131
1658564586.37296,336938.4623023,153
1658564586.37296,336938.462307,160
1658564586.37296,336938.4623117,163
1658564586.37296,336938.4623196,187
1658564586.37296,336938.4623258,216
1658564586.37296,336938.4623394,240
1658564586.37296,336938.4623531,257
1658564586.37296,336938.4623654,265
1658564586.37296,336938.4623745,272
1658564586.37296,336938.4623819,274
1658564586.37296,336938.4623906,253
1658564586.37296,336938.4623953,223
1658564586.37296,336938.4623989,184
1658564586.37296,336938.4624118,121
1658564586.37296,336938.4624221,58
1658564586.37296,336938.4624275,19
1658564586.99514,336938.4624403,-14
1658564586.99514,336938.4624481,-46
1658564586.99514,336938.4624554,-51
1658564586.99514,336938.4624643,-41
1658564586.99514,336938.4624705,-41
1658564586.99514,336938.4624751,-38
1658564586.99514,336938.4624806,-26
1658564586.99514,336938.462485,-24
1658564586.99514,336938.4624893,-19
1658564586.99514,336938.4624937,-7
1658564586.99514,336938.4624982,0
1658564586.99514,336938.4625026,2
1658564586.99514,336938.4625072,4
1658564586.99514,336938.462513,4
1658564586.99514,336938.4625168,14
1658564586.99514,336938.4625221,29
1658564586.99514,336938.4625474,34
1658564586.99514,336938.4625546,31
1658564586.99514,336938.4625589,29
1658564586.99514,336938.4625644,31
1658564586.99514,336938.4625691,46
1658564586.99514,336938.4625728,55
1658564586.99514,336938.4625781,48
1658564586.99514,336938.4625817,48
1658564586.99514,336938.4625853,58
1658564586.99514,336938.4625889,48
1658564586.99514,336938.4625925,43
1658564586.99514,336938.4625979,55
1658564586.99514,336938.4626014,65
1658564586.99514,336938.4626065,58
1658564586.99514,336938.4626101,58
1658564586.99514,336938.4626137,60
1658564586.99514,336938.4626171,58
1658564586.99514,336938.4626206,65
1658564586.99514,336938.4626242,72
1658564586.99514,336938.4626291,68
1658564586.99514,336938.4626337,58
1658564586.99514,336938.4626456,58
1658564586.99514,336938.4626489,63
1658564586.99514,336938.4626522,63
1658564586.99514,336938.4626574,65
1658564586.99514,336938.4626608,68
1658564586.99514,336938.4626657,63
1658564586.99514,336939.0973658,53
1658564586.99514,336939.0973787,55
1658564586.99514,336939.0973826,63
1658564586.99514,336939.097388,68
1658564586.99514,336939.0973904,63
1658564586.99514,336939.0973929,51
1658564586.99514,336939.0973952,51
1658564587.00611,336939.0973976,55
1658564587.00611,336939.0973999,38
1658564587.00611,336939.0974022,26
1658564587.00611,336939.0974046,55
1658564587.00611,336939.097407,77
1658564587.00611,336939.0974093,60
1658564587.00611,336939.0974116,46
1658564587.00611,336939.0974139,55
1658564587.00611,336939.0974163,60
1658564587.00611,336939.0974196,41
1658564587.00611,336939.0974645,21
1658564587.00611,336939.0974739,4
1658564587.00611,336939.0974786,-7
1658564587.00611,336939.0974843,-7
1658564587.00611,336939.0974879,-2
1658564587.00611,336939.0974933,7
1658564587.00611,336939.0974967,12
1658564587.00611,336939.0975,-4
1658564587.00611,336939.0975042,-68
1658564587.00611,336939.0975095,-167
1658564587.00611,336939.097513,-82
1658564587.00611,336939.0975183,408
1658564587.00611,336939.0975244,1012
1658564587.00611,336939.0975316,1131
1658564587.43405,336939.0975593,571
1658564587.43405,336939.0975676,-99
1658564587.43405,336939.0975785,-199
1658564587.43405,336939.0975888,55
1658564587.43405,336939.0975969,82
1658564587.43405,336939.0976032,-19
1658564587.43405,336939.0976071,0
1658564587.43405,336939.0976104,31
1658564587.43405,336939.097624,17
1658564587.43405,336939.0976366,29
1658564587.43405,336939.0976471,46
1658564587.43405,336939.0976515,55
1658564587.43405,336939.0976538,75
1658564587.43405,336939.097656,82
1658564587.43405,336939.0976589,94
1658564587.43405,336939.0976716,121
1658564587.43405,336939.0976784,131
1658564587.43405,336939.097681,136
1658564587.43405,336939.0976832,155
1658564587.43405,336939.0976853,175
1658564587.43405,336939.0976882,189
1658564587.43405,336939.0976982,216
1658564587.43405,336939.0977062,243
1658564587.43405,336939.0977087,267
1658564587.43405,336939.0977109,284
1658564587.43405,336939.097713,282
1658564587.43405,336939.0977185,279
1658564587.43405,336939.09773,284
1658564587.43405,336939.0977352,267
1658564587.43405,336939.0977381,214
1658564587.43405,336939.0977403,138
1658564587.43405,336939.0977425,75
1658564587.43405,336939.0977453,34
1658564587.43405,336939.0977555,-7
1658564587.43405,336939.0977642,-34
1658564587.43405,336939.0977669,-34
1658564587.43405,336939.097769,-29
1658564587.43405,336939.0977712,-38
1658564587.43405,336939.0977748,-36
1658564587.43405,336939.0977877,-26
1658564587.43405,336939.0977934,-31
1658564587.43405,336939.0977956,-31
1658564587.43405,336939.5356036,-9
1658564587.43405,336939.5356209,-4
1658564587.43405,336939.5356298,-12
1658564587.43405,336939.5356346,2
1658564587.43405,336939.5356415,19
1658564587.43405,336939.5356456,12
1658564587.43405,336939.5356496,9
1658564587.43405,336939.5356547,26
1658564587.44403,336939.5356586,29
1658564587.44403,336939.5356637,29
1658564587.44403,336939.5356673,34
1658564587.44403,336939.5356711,34
1658564587.44403,336939.5356748,34
1658564587.44403,336939.5356799,41
1658564587.44403,336939.5356834,43
1658564587.44403,336939.535687,26
1658564587.44403,336939.5356924,12
1658564587.44403,336939.535696,19
1658564587.44403,336939.5357001,26
1658564587.44403,336939.535706,19
1658564587.44403,336939.5357168,19
1658564587.44403,336939.5357213,29
1658564587.44403,336939.5357251,26
1658564587.44403,336939.5357272,24
1658564587.44403,336939.5357293,31
1658564587.44403,336939.5357313,36
1658564587.44403,336939.5357334,36
1658564587.44403,336939.5357355,48
1658564587.44403,336939.5357376,51
1658564587.44403,336939.5357397,31
1658564587.44403,336939.5357418,31
1658564587.44403,336939.5357439,51
1658564588.02099,336939.5357461,63
1658564588.02099,336939.5357482,58
1658564588.02099,336939.5357502,46
1658564588.02099,336939.5357521,36
1658564588.02099,336939.5357541,46
1658564588.02099,336939.5357561,58
1658564588.02099,336939.535758,58
1658564588.02099,336939.53576,55
1658564588.02099,336939.535762,68
1658564588.02099,336939.535764,75
1658564588.02099,336939.5357659,55
1658564588.02099,336939.5357678,60
1658564588.02099,336939.5357699,109
1658564588.02099,336939.5357726,124
1658564588.02099,336939.5357747,102
1658564588.02099,336939.5357768,109
1658564588.02099,336939.5357789,121
1658564588.02099,336939.5357811,104
1658564588.02099,336939.5357831,87
1658564588.02099,336939.5357852,77
1658564588.02099,336939.5357873,72
1658564588.02099,336939.5357894,60
1658564588.02099,336939.5357917,55
1658564588.02099,336939.535794,55
1658564588.02099,336939.5357961,46
1658564588.02099,336939.5357982,43
1658564588.02099,336939.5358003,31
1658564588.02099,336939.5358025,-75
1658564588.02099,336939.5358047,-145
1658564588.02099,336939.5358083,160
1658564588.02099,336939.5358215,805
1658564588.02099,336939.5358274,1206
1658564588.02099,336939.5358297,900
1658564588.02099,336939.5358318,150
1658564588.02099,336939.5358339,-240
1658564588.02099,336939.5358375,-53
1658564588.02099,336939.5358505,99
1658564588.02099,336939.5358562,-4
1658564588.02099,336939.5358586,-36
1658564588.02099,336939.5358608,21
1658564588.02099,336939.5358629,17
1658564588.02099,336940.119684,7
1658564588.02099,336940.1197059,34
1658564588.02099,336940.1197227,48
1658564588.02099,336940.1197373,58
1658564588.02099,336940.1197517,70
1658564588.02099,336940.1197652,75
1658564588.02099,336940.1197785,70
1658564588.02099,336940.1197917,77
1658564588.02099,336940.119805,92
1658564588.03296,336940.1198182,104
1658564588.03296,336940.1198313,121
1658564588.03296,336940.1198445,138
1658564588.03296,336940.1198574,143
1658564588.03296,336940.1198717,170
1658564588.03296,336940.1198855,206
1658564588.03296,336940.1198987,218
1658564588.03296,336940.119913,226
1658564588.03296,336940.1199262,236
1658564588.03296,336940.1199392,228
1658564588.03296,336940.1199535,209
1658564588.03296,336940.1199666,180
1658564588.03296,336940.1199797,121
1658564588.03296,336940.1199941,43
1658564588.03296,336940.1200076,-12
1658564588.03296,336940.1200208,-34
1658564588.03296,336940.1200334,-41
1658564588.03296,336940.1200453,-58
1658564588.03296,336940.120059,-85
1658564588.03296,336940.1200724,-90
1658564588.03296,336940.120081,-72
1658564588.03296,336940.1200843,-63
1658564588.03296,336940.1200874,-63
1658564588.03296,336940.1200974,-63
1658564588.59966,336940.1201084,-51
1658564588.59966,336940.1201175,-34
1658564588.59966,336940.1201265,-26
1658564588.59966,336940.1201355,-24
1658564588.59966,336940.120146,-19
1658564588.59966,336940.1201572,-17
1658564588.59966,336940.1201656,-9
1658564588.59966,336940.1201803,7
1658564588.59966,336940.1201882,12
1658564588.59966,336940.1201917,4
1658564588.59966,336940.1201939,19
1658564588.59966,336940.1201961,31
1658564588.59966,336940.1201982,19
1658564588.59966,336940.1202003,14
1658564588.59966,336940.1202024,17
1658564588.59966,336940.1202045,9
1658564588.59966,336940.1202066,19
1658564588.59966,336940.1202087,29
1658564588.59966,336940.1202108,9
1658564588.59966,336940.1202129,-2
1658564588.59966,336940.1202151,12
1658564588.59966,336940.1202173,26
1658564588.59966,336940.1202193,26
1658564588.59966,336940.1202215,21
1658564588.59966,336940.1202235,21
1658564588.59966,336940.1202256,26
1658564588.59966,336940.1202277,29
1658564588.59966,336940.1202298,34
1658564588.59966,336940.120232,38
1658564588.59966,336940.120234,36
1658564588.59966,336940.1202361,41
1658564588.59966,336940.1202382,46
1658564588.59966,336940.1202403,36
1658564588.59966,336940.1202424,34
1658564588.59966,336940.1202445,41
1658564588.59966,336940.1202468,41
1658564588.59966,336940.1202488,46
1658564588.59966,336940.1202509,65
1658564588.59966,336940.120253,87
1658564588.59966,336940.1202564,102
1658564588.59966,336940.7057344,114
1658564588.59966,336940.7057548,107
1658564588.59966,336940.7057625,70
1658564588.59966,336940.7057687,43
1658564588.59966,336940.7057769,58
1658564588.59966,336940.7057832,75
1658564588.59966,336940.7057868,72
1658564588.59966,336940.7057902,72
1658564588.59966,336940.7057949,65
1658564588.59966,336940.7058004,38
1658564588.61063,336940.7058035,12
1658564588.61063,336940.7058076,-53
1658564588.61063,336940.7058104,-167
1658564588.61063,336940.7058156,-34
1658564588.61063,336940.7058229,559
1658564588.61063,336940.705828,1180
1658564588.61063,336940.7058353,1165
1658564588.61063,336940.7058442,450
1658564588.61063,336940.7058487,-214
1658564588.61063,336940.7058557,-194
1658564588.61063,336940.7058615,77
1658564588.61063,336940.7058681,48
1658564588.61063,336940.7058745,-36
1658564588.61063,336940.7058812,17
1658564588.61063,336940.7058884,41
1658564588.61063,336940.7058929,12
1658564588.61063,336940.7058996,29
1658564588.61063,336940.7059059,60
1658564588.61063,336940.7059125,55
1658564588.61063,336940.7059189,58
1658564588.61063,336940.7059253,94
1658564588.61063,336940.7059317,119
1658564588.61063,336940.7059433,116
1658564588.61063,336940.7059526,126
1658564589.13351,336940.7059601,138
1658564589.13351,336940.7059678,148
1658564589.13351,336940.7059747,175
1658564589.13351,336940.7059789,201
1658564589.13351,336940.7059849,221
1658564589.13351,336940.705991,221
1658564589.13351,336940.7059964,214
1658564589.13351,336940.7060006,216
1658564589.13351,336940.7060055,228
1658564589.13351,336940.7060123,233
1658564589.13351,336940.7060189,214
1658564589.13351,336940.7060263,167
1658564589.13351,336940.7060332,116
1658564589.13351,336940.7060378,63
1658564589.13351,336940.7060434,4
1658564589.13351,336940.7060476,-46
1658564589.13351,336940.7060516,-80
1658564589.13351,336940.7060557,-82
1658564589.13351,336940.7060595,-72
1658564589.13351,336940.7060646,-75
1658564589.13351,336940.7060704,-85
1658564589.13351,336940.7060768,-77
1658564589.13351,336940.7060835,-68
1658564589.13351,336940.7060885,-65
1658564589.13351,336940.7060965,-58
1658564589.13351,336940.7061027,-48
1658564589.13351,336940.706109,-43
1658564589.13351,336940.7061147,-31
1658564589.13351,336940.7061187,-19
1658564589.13351,336940.7061262,-12
1658564589.13351,336940.7061318,0
1658564589.13351,336940.7061402,2
1658564589.13351,336940.7061483,-2
1658564589.13351,336940.7061568,4
1658564589.13351,336940.7061641,12
1658564589.13351,336940.7061733,9
1658564589.13351,336940.7061805,14
1658564589.13351,336940.7061877,31
1658564589.13351,336940.7061933,31
1658564589.13351,336941.2414158,17
1658564589.13351,336941.2414288,21
1658564589.13351,336941.2414344,31
1658564589.13351,336941.2414427,31
1658564589.13351,336941.2414557,26
1658564589.13351,336941.2414723,26
1658564589.13351,336941.2414826,29
1658564589.13351,336941.2414906,36
1658564589.13351,336941.2414988,41
1658564589.13351,336941.2415037,41
1658564589.13351,336941.2415096,38
1658564589.14349,336941.241516,34
1658564589.14349,336941.241527,29
1658564589.14349,336941.2415424,31
1658564589.14349,336941.2415566,34
1658564589.14349,336941.2415679,34
1658564589.14349,336941.2415772,31
1658564589.14349,336941.241588,34
1658564589.14349,336941.2415984,17
1658564589.14349,336941.2416051,0
1658564589.14349,336941.2416135,24
1658564589.14349,336941.2416198,53
1658564589.14349,336941.2416282,58
1658564589.14349,336941.2416342,70
1658564589.14349,336941.2416461,90
1658564589.14349,336941.2416571,77
1658564589.14349,336941.2416661,53
1658564589.14349,336941.2416755,48
1658564589.14349,336941.2416864,48
1658564589.14349,336941.2416986,53
1658564589.14349,336941.2417089,58
1658564589.14349,336941.2417211,60
1658564589.14349,336941.2417329,46
1658564589.14349,336941.2417438,29
1658564589.14349,336941.2417507,9
1658564589.72663,336941.24176,-85
1658564589.72663,336941.241767,-172
1658564589.72663,336941.2417737,85
1658564589.72663,336941.241786,717
1658564589.72663,336941.2417956,1202
1658564589.72663,336941.2418021,1014
1658564589.72663,336941.2418082,284
1658564589.72663,336941.2418177,-201
1658564589.72663,336941.2418241,-53
1658564589.72663,336941.2418329,136
1658564589.72663,336941.2418408,46
1658564589.72663,336941.2418447,9
1658564589.72663,336941.2418506,70
1658564589.72663,336941.2418558,55
1658564589.72663,336941.2418619,36
1658564589.72663,336941.241869,65
1658564589.72663,336941.2418771,82
1658564589.72663,336941.2418819,87
1658564589.72663,336941.241889,99
1658564589.72663,336941.241897,119
1658564589.72663,336941.2419101,131
1658564589.72663,336941.2419233,136
1658564589.72663,336941.2419364,150
1658564589.72663,336941.2419496,172
1658564589.72663,336941.2419628,187
1658564589.72663,336941.2419758,204
1658564589.72663,336941.2421066,223
1658564589.72663,336941.2421202,243
1658564589.72663,336941.2421327,257
1658564589.72663,336941.2421408,279
1658564589.72663,336941.2421483,287
1658564589.72663,336941.2421572,277
1658564589.72663,336941.2421646,262
1658564589.72663,336941.2421713,243
1658564589.72663,336941.242184,209
1658564589.72663,336941.2421898,160
1658564589.72663,336941.2421941,97
1658564589.72663,336941.2421962,43
1658564589.72663,336941.8263218,14
1658564589.72663,336941.8263364,-12
1658564589.72663,336941.8263393,-38
1658564589.72663,336941.8263418,-53
1658564589.72663,336941.8263441,-55
1658564589.72663,336941.8263463,-48
1658564589.72663,336941.8263484,-36
1658564589.72663,336941.8263505,-38
1658564589.72663,336941.8263526,-58
1658564589.72663,336941.8263547,-65
1658564589.72663,336941.8263568,-51
1658564589.72663,336941.826359,-31
1658564589.7376,336941.8263611,-24
1658564589.7376,336941.8263634,-24
1658564589.7376,336941.8263657,-29
1658564589.7376,336941.8264141,-38
1658564589.7376,336941.8264186,-34
1658564589.7376,336941.8264207,-29
1658564589.7376,336941.826423,-21
1658564589.7376,336941.8264252,-14
1658564589.7376,336941.8264273,-12
1658564589.7376,336941.8264294,-17
1658564589.7376,336941.8264316,-19
1658564589.7376,336941.826434,-17
1658564589.7376,336941.8264361,-21
1658564589.7376,336941.8264383,-26
1658564589.7376,336941.8264405,-19
1658564589.7376,336941.8264426,-14
1658564589.7376,336941.8264447,-19
1658564589.7376,336941.8264468,-4
1658564589.7376,336941.826449,7
1658564589.7376,336941.8264512,2
1658564589.7376,336941.8264533,7
1658564589.7376,336941.8264554,17
1658564589.7376,336941.8264576,17
1658564589.7376,336941.8264596,21
1658564590.30702,336941.8264617,31
1658564590.30702,336941.8264638,34
1658564590.30702,336941.826466,36
1658564590.30702,336941.8264686,36
1658564590.30702,336941.8264706,36
1658564590.30702,336941.8264725,36
1658564590.30702,336941.8264745,36
1658564590.30702,336941.8264764,48
1658564590.30702,336941.826479,80
1658564590.30702,336941.8264817,99
1658564590.30702,336941.8264837,102
1658564590.30702,336941.8264856,111
1658564590.30702,336941.8264876,116
1658564590.30702,336941.8264897,94
1658564590.30702,336941.8264918,63
1658564590.30702,336941.8264937,65
1658564590.30702,336941.8265008,90
1658564590.30702,336941.8265111,99
1658564590.30702,336941.826521,90
1658564590.30702,336941.8265302,77
1658564590.30702,336941.8265397,75
1658564590.30702,336941.8265459,70
1658564590.30702,336941.8265483,12
1658564590.30702,336941.8265504,-116
1658564590.30702,336941.8265527,-65
1658564590.30702,336941.8265548,418
1658564590.30702,336941.826557,1046
1658564590.30702,336941.8265591,1214
1658564590.30702,336941.8265611,688
1658564590.30702,336941.8265633,-21
1658564590.30702,336941.8265654,-155
1658564590.30702,336941.8265675,109
1658564590.30702,336941.8265696,126
1658564590.30702,336941.8265717,-7
1658564590.30702,336941.8265739,24
1658564590.30702,336941.8265761,82
1658564590.30702,336941.8265782,51
1658564590.30702,336942.4118599,29
1658564590.30702,336942.4118757,63
1658564590.30702,336942.4118797,85
1658564590.30702,336942.4118848,82
1658564590.30702,336942.4118884,102
1658564590.30702,336942.4118925,131
1658564590.30702,336942.4118976,131
1658564590.30702,336942.4119012,133
1658564590.30702,336942.4119059,155
1658564590.30702,336942.4119093,177
1658564590.30702,336942.4119126,189
1658564590.30702,336942.4119159,192
1658564590.30702,336942.4119192,189
1658564590.317,336942.4119226,201
1658564590.317,336942.4119261,223
1658564590.317,336942.4119295,228
1658564590.317,336942.4119327,214
1658564590.317,336942.4119362,194
1658564590.317,336942.4119397,170
1658564590.317,336942.4119431,148
1658564590.317,336942.4119467,121
1658564590.317,336942.41195,75
1658564590.317,336942.4119546,19
1658564590.317,336942.4119582,-21
1658564590.317,336942.4119638,-48
1658564590.317,336942.4119671,-68
1658564590.317,336942.4119707,-63
1658564590.317,336942.4119757,-60
1658564590.317,336942.4119792,-90
1658564590.317,336942.4119843,-90
1658564590.317,336942.4119877,-63
1658564590.317,336942.4119926,-63
1658564590.317,336942.4119961,-53
1658564590.317,336942.412001,-38
1658564590.317,336942.4120047,-48
1658564590.317,336942.4120098,-46
1658564590.317,336942.4120131,-38
1658564590.79619,336942.4120166,-43
1658564590.79619,336942.41202,-41
1658564590.79619,336942.4120238,-31
1658564590.79619,336942.4120272,-31
1658564590.79619,336942.4120307,-34
1658564590.79619,336942.4120341,-26
1658564590.79619,336942.4120376,-19
1658564590.79619,336942.412041,-14
1658564590.79619,336942.4120443,-12
1658564590.79619,336942.4120475,-12
1658564590.79619,336942.412051,-12
1658564590.79619,336942.4120545,-17
1658564590.79619,336942.4120578,-14
1658564590.79619,336942.4120612,-2
1658564590.79619,336942.4120645,-14
1658564590.79619,336942.4120681,-26
1658564590.79619,336942.4120715,0
1658564590.79619,336942.4120748,14
1658564590.79619,336942.4120782,-4
1658564590.79619,336942.4120815,0
1658564590.79619,336942.412085,21
1658564590.79619,336942.4120882,21
1658564590.79619,336942.4120916,19
1658564590.79619,336942.412095,29
1658564590.79619,336942.4120983,31
1658564590.79619,336942.4121026,21
1658564590.79619,336942.4121061,19
1658564590.79619,336942.4121095,36
1658564590.79619,336942.4121131,55
1658564590.79619,336942.4121165,65
1658564590.79619,336942.41212,72
1658564590.79619,336942.4121322,82
1658564590.79619,336942.4121357,85
1658564590.79619,336942.4121391,72
1658564590.79619,336942.412144,46
1658564590.79619,336942.4121473,43
1658564590.79619,336942.899277,60
1658564590.79619,336942.8992985,63
1658564590.79619,336942.8993084,53
1658564590.79619,336942.8993111,53
1658564590.79619,336942.8993133,60
1658564590.79619,336942.8993155,60
1658564590.79619,336942.8993177,38
1658564590.79619,336942.8993199,-41
1658564590.79619,336942.899322,-65
1658564590.79619,336942.8993241,218
1658564590.79619,336942.8993263,725
1658564590.79619,336942.8993284,958
1658564590.79619,336942.8993304,618
1658564590.79619,336942.8993325,14
1658564590.80816,336942.8993346,-226
1658564590.80816,336942.8993367,-26
1658564590.80816,336942.8993388,92
1658564590.80816,336942.899341,0
1658564590.80816,336942.8993432,-4
1658564590.80816,336942.8993453,68
1658564590.80816,336942.8993474,60
1658564590.80816,336942.8993496,26
1658564590.80816,336942.8993517,41
1658564590.80816,336942.8993538,60
1658564590.80816,336942.899356,58
1658564590.80816,336942.8993582,68
1658564590.80816,336942.8993603,94
1658564590.80816,336942.8993624,111
1658564590.80816,336942.8993645,114
1658564590.80816,336942.8993665,126
1658564590.80816,336942.8993686,153
1658564590.80816,336942.8993707,177
1658564590.80816,336942.8993728,194
1658564590.80816,336942.8993749,199
1658564590.80816,336942.899377,209
1658564590.80816,336942.8993791,248
1658564590.80816,336942.8993813,277
1658564590.80816,336942.8993835,270
1658564591.43195,336942.8993855,250
1658564591.43195,336942.8993875,238
1658564591.43195,336942.8993895,223
1658564591.43195,336942.8993914,192
1658564591.43195,336942.8993934,143
1658564591.43195,336942.8993953,92
1658564591.43195,336942.8993973,43
1658564591.43195,336942.8993994,4
1658564591.43195,336942.8994014,-17
1658564591.43195,336942.8994034,-14
1658564591.43195,336942.8994054,-12
1658564591.43195,336942.8994074,-19
1658564591.43195,336942.8994094,-21
1658564591.43195,336942.8994114,-7
1658564591.43195,336942.8994135,7
1658564591.43195,336942.8994155,2
1658564591.43195,336942.8994175,0
1658564591.43195,336942.8994196,9
1658564591.43195,336942.8994215,26
1658564591.43195,336942.8994235,41
1658564591.43195,336942.8994255,38
1658564591.43195,336942.8994276,29
1658564591.43195,336942.8994297,34
1658564591.43195,336942.8994317,41
1658564591.43195,336942.8994337,38
1658564591.43195,336942.8994356,48
1658564591.43195,336942.8994376,55
1658564591.43195,336942.8994396,41
1658564591.43195,336942.8994415,34
1658564591.43195,336942.8994436,43
1658564591.43195,336942.8994458,41
1658564591.43195,336942.8994477,29
1658564591.43195,336942.8994498,19
1658564591.43195,336942.8994517,12
1658564591.43195,336942.8994538,9
1658564591.43195,336943.5346856,9
1658564591.43195,336943.5346976,9
1658564591.43195,336943.5347007,12
1658564591.43195,336943.5347036,14
1658564591.43195,336943.5347062,7
1658564591.43195,336943.5347087,-9
1658564591.43195,336943.5347111,-17
1658564591.43195,336943.5347136,-12
1658564591.43195,336943.534716,-14
1658564591.43195,336943.5347185,-24
1658564591.43195,336943.5347209,-4
1658564591.43195,336943.5347232,12
1658564591.43195,336943.5347255,9
1658564591.43195,336943.5347278,24
1658564591.43195,336943.5347303,51
1658564591.44193,336943.5347328,36
1658564591.44193,336943.5347353,2
1658564591.44193,336943.5347377,2
1658564591.44193,336943.53474,9
1658564591.44193,336943.5347424,9
1658564591.44193,336943.5347448,19
1658564591.44193,336943.5347471,21
1658564591.44193,336943.5347495,19
1658564591.44193,336943.5347518,24
1658564591.44193,336943.5347542,9
1658564591.44193,336943.5347565,-72
1658564591.44193,336943.5347586,-143
1658564591.44193,336943.5347608,99
1658564591.44193,336943.5347632,727
1658564591.44193,336943.5347673,1199
1658564591.44193,336943.5347806,946
1658564591.44193,336943.5347873,187
1658564591.44193,336943.5347897,-270
1658564591.44193,336943.5347919,-102
1658564591.44193,336943.534794,116
1658564591.44193,336943.5347961,60
1658564591.44193,336943.5347986,12
1658564591.44193,336943.5348082,63
1658564591.44193,336943.5348175,75
1658564592.06427,336943.5348214,70
1658564592.06427,336943.5348245,87
1658564592.06427,336943.5348266,99
1658564592.06427,336943.5348286,109
1658564592.06427,336943.5348307,124
1658564592.06427,336943.5348328,131
1658564592.06427,336943.5348348,148
1658564592.06427,336943.5348367,170
1658564592.06427,336943.5348402,177
1658564592.06427,336943.5348506,189
1658564592.06427,336943.5348626,216
1658564592.06427,336943.53487,240
1658564592.06427,336943.534874,260
1658564592.06427,336943.5348792,274
1658564592.06427,336943.5348868,287
1658564592.06427,336943.5348937,309
1658564592.06427,336943.5348978,316
1658564592.06427,336943.5349061,304
1658564592.06427,336943.5349148,287
1658564592.06427,336943.5349188,274
1658564592.06427,336943.5349255,240
1658564592.06427,336943.5349309,182
1658564592.06427,336943.5349439,128
1658564592.06427,336943.5349527,80
1658564592.06427,336943.5349626,31
1658564592.06427,336943.5349696,7
1658564592.06427,336943.5349794,9
1658564592.06427,336943.5349907,9
1658564592.06427,336943.5349998,-7
1658564592.06427,336943.5350071,-17
1658564592.06427,336943.5350152,-12
1658564592.06427,336943.5350234,-9
1658564592.06427,336943.535028,-4
1658564592.06427,336943.5350311,9
1658564592.06427,336944.1664723,24
1658564592.06427,336944.1664916,29
1658564592.06427,336944.1665064,21
1658564592.06427,336944.1665161,21
1658564592.06427,336944.1665188,38
1658564592.06427,336944.166521,51
1658564592.06427,336944.1665231,48
1658564592.06427,336944.1665254,46
1658564592.06427,336944.1665276,55
1658564592.06427,336944.1665298,63
1658564592.06427,336944.1665319,63
1658564592.06427,336944.1665341,60
1658564592.06427,336944.1665362,60
1658564592.06427,336944.1665382,53
1658564592.06427,336944.1665403,41
1658564592.06427,336944.1665424,36
1658564592.07624,336944.1665446,31
1658564592.07624,336944.1665467,26
1658564592.07624,336944.1665488,34
1658564592.07624,336944.1665509,43
1658564592.07624,336944.1665531,34
1658564592.07624,336944.1665553,17
1658564592.07624,336944.1665574,14
1658564592.07624,336944.166562,12
1658564592.07624,336944.1665696,4
1658564592.07624,336944.1665788,2
1658564592.07624,336944.1665828,4
1658564592.07624,336944.1665887,9
1658564592.07624,336944.1665922,24
1658564592.07624,336944.1665958,41
1658564592.07624,336944.1666011,46
1658564592.07624,336944.1666045,55
1658564592.07624,336944.1666077,51
1658564592.07624,336944.1666111,21
1658564592.07624,336944.1666143,12
1658564592.07624,336944.1666182,24
1658564592.07624,336944.1666218,29
1658564592.07624,336944.1666255,31
1658564592.07624,336944.1666305,34
1658564592.07624,336944.1666393,26
1658564592.5586,336944.1666467,24
1658564592.5586,336944.166654,24
1658564592.5586,336944.1666612,-53
1658564592.5586,336944.1666675,-150
1658564592.5586,336944.1666716,60
1658564592.5586,336944.1666749,671
1658564592.5586,336944.1666785,1177
1658564592.5586,336944.1666851,1021
1658564592.5586,336944.1666902,289
1658564592.5586,336944.1666971,-221
1658564592.5586,336944.1667024,-70
1658564592.5586,336944.1667056,153
1658564592.5586,336944.1667161,65
1658564592.5586,336944.1667265,-2
1658564592.5586,336944.1667393,53
1658564592.5586,336944.1667507,63
1658564592.5586,336944.1667623,53
1658564592.5586,336944.166771,77
1658564592.5586,336944.1667771,90
1658564592.5586,336944.1667896,85
1658564592.5586,336944.1668026,87
1658564592.5586,336944.1668163,99
1658564592.5586,336944.1668295,121
1658564592.5586,336944.1668413,136
1658564592.5586,336944.1668504,138
1658564592.5586,336944.166858,150
1658564592.5586,336944.1668665,180
1658564592.5586,336944.1668713,206
1658564592.5586,336944.1668783,221
1658564592.5586,336944.1668907,233
1658564592.5586,336944.1669049,250
1658564592.5586,336944.1669173,267
1658564592.5586,336944.1669277,279
1658564592.5586,336944.6542025,277
1658564592.5586,336944.654225,267
1658564592.5586,336944.6542327,248
1658564592.5586,336944.6542374,214
1658564592.5586,336944.6542423,165
1658564592.5586,336944.6542483,107
1658564592.5586,336944.6542527,53

1658564592.5586,336944.6542636,21
1658564592.5586,336944.654268,7
1658564592.5586,336944.6542702,-4
1658564592.5586,336944.6542722,-9
1658564592.5586,336944.6542745,0
1658564592.5586,336944.654278,0
1658564592.5586,336944.6542908,-7
1658564592.5586,336944.6542984,-2
1658564592.5586,336944.6543009,4
1658564592.5586,336944.6543031,9
1658564592.57456,336944.6543053,21
1658564592.57456,336944.6543075,34
1658564592.57456,336944.654311,36
1658564592.57456,336944.6543241,34
1658564592.57456,336944.65433,36
1658564592.57456,336944.6543323,51
1658564592.57456,336944.6543344,58
1658564592.57456,336944.6543365,41
1658564592.57456,336944.6543387,29
1658564592.57456,336944.6543465,38
1658564592.57456,336944.6543572,43
1658564592.57456,336944.6543607,41
1658564592.57456,336944.6543636,46
1658564592.57456,336944.6543672,41
1658564592.57456,336944.6543803,21
1658564592.57456,336944.6543867,24
1658564592.57456,336944.654389,38
1658564592.57456,336944.6543927,34
1658564592.57456,336944.6544047,29
1658564592.57456,336944.654412,36
1658564592.57456,336944.6544145,36
1658564592.57456,336944.6544167,29
1658564592.57456,336944.6544223,29
1658564592.57456,336944.6544334,43
1658564593.08313,336944.6544387,41
1658564593.08313,336944.6544409,38
1658564593.08313,336944.654443,38
1658564593.08313,336944.654445,17
1658564593.08313,336944.654447,-7
1658564593.08313,336944.654449,4
1658564593.08313,336944.6544509,41
1658564593.08313,336944.6544529,51
1658564593.08313,336944.6544549,46
1658564593.08313,336944.6544569,55
1658564593.08313,336944.6544603,65
1658564593.08313,336944.6544688,53
1658564593.08313,336944.6544762,26
1658564593.08313,336944.6544811,14
1658564593.08313,336944.6544887,14
1658564593.08313,336944.6544951,9
1658564593.08313,336944.6545057,4
1658564593.08313,336944.6545092,17
1658564593.08313,336944.6545122,29
1658564593.08313,336944.6545153,26
1658564593.08313,336944.6545192,9
1658564593.08313,336944.6545214,-82
1658564593.08313,336944.6545235,-163
1658564593.08313,336944.6545257,87
1658564593.08313,336944.6545279,703
1658564593.08313,336944.6545351,1155
1658564593.08313,336944.654546,944
1658564593.08313,336944.6545557,221
1658564593.08313,336944.6545648,-223
1658564593.08313,336944.6545702,-36
1658564593.08313,336944.6545743,163
1658564593.08313,336944.6545764,38
1658564593.08313,336945.1902071,-24
1658564593.08313,336945.1902519,51
1658564593.08313,336945.1902659,51
1658564593.08313,336945.1902763,24
1658564593.08313,336945.1902827,53
1658564593.08313,336945.1902904,72
1658564593.08313,336945.1902951,70
1658564593.08313,336945.1903002,75
1658564593.08313,336945.1903036,90
1658564593.08313,336945.1903083,111
1658564593.08313,336945.1903134,126
1658564593.08313,336945.1903201,136
1658564593.08313,336945.1903239,153
1658564593.08313,336945.1903299,172
1658564593.08313,336945.1903423,180
1658564593.08313,336945.1903561,180
1658564593.08313,336945.1903635,194
1658564593.08313,336945.1903717,223
1658564593.0951,336945.1903763,245
1658564593.0951,336945.1903874,248
1658564593.0951,336945.1904021,236
1658564593.0951,336945.190419,214
1658564593.0951,336945.1904282,192
1658564593.0951,336945.1904356,163
1658564593.0951,336945.1904431,114
1658564593.0951,336945.1904481,58
1658564593.0951,336945.1904512,17
1658564593.0951,336945.1904544,-14
1658564593.0951,336945.1904575,-36
1658564593.0951,336945.1904607,-43
1658564593.0951,336945.1904638,-43
1658564593.0951,336945.1904668,-41
1658564593.0951,336945.1904696,-34
1658564593.0951,336945.1904732,-29
1658564593.0951,336945.1904768,-29
1658564593.0951,336945.1904824,-29
1658564593.0951,336945.1904892,-24
1658564593.0951,336945.190494,-17
1658564593.0951,336945.1904979,-7
1658564593.0951,336945.1905016,2
1658564593.0951,336945.1905051,4
1658564593.0951,336945.1905087,7
1658564593.62537,336945.1905124,21
1658564593.62537,336945.190516,31
1658564593.62537,336945.1905197,29
1658564593.62537,336945.1905239,19
1658564593.62537,336945.1905273,9
1658564593.62537,336945.1905306,17
1658564593.62537,336945.1905342,29
1658564593.62537,336945.1905378,24
1658564593.62537,336945.1905422,26
1658564593.62537,336945.1905463,38
1658564593.62537,336945.1905506,41
1658564593.62537,336945.190555,36
1658564593.62537,336945.1905587,38
1658564593.62537,336945.1905632,36
1658564593.62537,336945.1905675,34
1658564593.62537,336945.1905716,46
1658564593.62537,336945.1905761,58
1658564593.62537,336945.1905802,51
1658564593.62537,336945.190585,46
1658564593.62537,336945.1905928,53
1658564593.62537,336945.1906012,53
1658564593.62537,336945.1906073,53
1658564593.62537,336945.190615,63
1658564593.62537,336945.1906217,58
1658564593.62537,336945.1906282,48
1658564593.62537,336945.1906349,43
1658564593.62537,336945.1906412,29
1658564593.62537,336945.1906457,24
1658564593.62537,336945.1906501,38
1658564593.62537,336945.1906551,38
1658564593.62537,336945.1906614,17
1658564593.62537,336945.7269907,0
1658564593.62537,336945.7270154,7
1658564593.62537,336945.7270249,43
1658564593.62537,336945.7270297,82
1658564593.62537,336945.727036,80
1658564593.62537,336945.7270403,72
1658564593.62537,336945.7270462,77
1658564593.62537,336945.727051,65
1658564593.62537,336945.7270569,51
1658564593.62537,336945.727061,55
1658564593.62537,336945.7270671,51
1658564593.62537,336945.7270719,29
1658564593.62537,336945.7270782,17
1658564593.62537,336945.7270842,26
1658564593.62537,336945.7270906,26
1658564593.62537,336945.7270973,26
1658564593.62537,336945.7271036,9
1658564593.62537,336945.727108,-97
1658564593.62537,336945.7271128,-165
1658564593.63934,336945.7271167,145
1658564593.63934,336945.7271229,766
1658564593.63934,336945.7271276,1119
1658564593.63934,336945.7271336,800
1658564593.63934,336945.7271377,97
1658564593.63934,336945.7271441,-231
1658564593.63934,336945.727149,-12
1658564593.63934,336945.727155,124
1658564593.63934,336945.7271595,-7
1658564593.63934,336945.7271634,-29
1658564593.63934,336945.7271696,48
1658564593.63934,336945.7271752,29
1658564593.63934,336945.7271811,4
1658564593.63934,336945.7271852,46
1658564593.63934,336945.7271915,68
1658564593.63934,336945.7271964,68
1658564593.63934,336945.7272027,92
1658564593.63934,336945.7272068,102
1658564593.63934,336945.7272148,97
1658564593.63934,336945.7272194,114
1658564593.63934,336945.7272241,128
1658564593.63934,336945.7272303,138
1658564593.63934,336945.7272341,163
1658564593.63934,336945.7272394,180
1658564594.25287,336945.7272431,194
1658564594.25287,336945.7272471,218
1658564594.25287,336945.7272507,236
1658564594.25287,336945.7272543,250
1658564594.25287,336945.7272586,265
1658564594.25287,336945.7272646,245
1658564594.25287,336945.727271,221
1658564594.25287,336945.7272787,233
1658564594.25287,336945.7272887,221
1658564594.25287,336945.7272959,148
1658564594.25287,336945.7272989,92
1658564594.25287,336945.7273068,65
1658564594.25287,336945.7273194,24
1658564594.25287,336945.7273272,-12
1658564594.25287,336945.727331,-4
1658564594.25287,336945.7273434,9
1658564594.25287,336945.7273528,-14
1658564594.25287,336945.727359,-29
1658564594.25287,336945.7273729,-7
1658564594.25287,336945.7273817,-2
1658564594.25287,336945.7274439,-7
1658564594.25287,336945.7274568,4
1658564594.25287,336945.7274702,9
1658564594.25287,336945.7274835,9
1658564594.25287,336945.7274975,21
1658564594.25287,336945.7275106,26
1658564594.25287,336945.7275241,29
1658564594.25287,336945.7275376,34
1658564594.25287,336945.7277297,46
1658564594.25287,336945.7277404,51
1658564594.25287,336946.3602759,46
1658564594.25287,336946.3602949,48
1658564594.25287,336946.360306,60
1658564594.25287,336946.3603153,58
1658564594.25287,336946.3603211,46
1658564594.25287,336946.3603246,38
1658564594.25287,336946.3603332,51
1658564594.25287,336946.3603402,58
1658564594.25287,336946.360346,41
1658564594.25287,336946.3603557,26
1658564594.25287,336946.3604229,29
1658564594.25287,336946.3604317,26
1658564594.25287,336946.3604344,34
1658564594.25287,336946.3604365,36
1658564594.25287,336946.3604387,19
1658564594.25287,336946.3604467,7
1658564594.25287,336946.3604598,2
1658564594.25287,336946.3604667,-9
1658564594.25287,336946.3604698,-12
1658564594.25287,336946.3604721,0
1658564594.26384,336946.3604742,7
1658564594.26384,336946.3604763,-12
1658564594.26384,336946.3604785,-19
1658564594.26384,336946.3604807,2
1658564594.26384,336946.3604829,4
1658564594.26384,336946.360485,-7
1658564594.26384,336946.3604871,-17
1658564594.26384,336946.3604892,-14
1658564594.26384,336946.3604913,7
1658564594.26384,336946.3604934,34
1658564594.26384,336946.3604954,43
1658564594.26384,336946.3604976,53
1658564594.26384,336946.3604997,53
1658564594.26384,336946.3605018,21
1658564594.26384,336946.360504,-4
1658564594.26384,336946.3605061,12
1658564594.26384,336946.3605082,34
1658564594.26384,336946.3605103,19
1658564594.26384,336946.3605124,9
1658564594.26384,336946.3605145,17
1658564594.26384,336946.3605166,14
1658564594.26384,336946.3605186,26
1658564594.26384,336946.3605207,26
1658564594.26384,336946.3605228,-70
1658564594.74273,336946.360525,-170
1658564594.74273,336946.360527,55
1658564594.74273,336946.3605291,683
1658564594.74273,336946.3605311,1206
1658564594.74273,336946.3605331,1031
1658564594.74273,336946.3605351,250
1658564594.74273,336946.3605417,-299
1658564594.74273,336946.3605531,-131
1658564594.74273,336946.3605624,141
1658564594.74273,336946.3605669,48
1658564594.74273,336946.360572,-43
1658564594.74273,336946.3605787,38
1658564594.74273,336946.3605837,55
1658564594.74273,336946.3605948,31
1658564594.74273,336946.3606088,65
1658564594.74273,336946.3606176,80
1658564594.74273,336946.3606325,68
1658564594.74273,336946.3606402,94
1658564594.74273,336946.360653,128
1658564594.74273,336946.3606641,133
1658564594.74273,336946.3606691,126
1658564594.74273,336946.360672,143
1658564594.74273,336946.3606741,170
1658564594.74273,336946.3606763,192
1658564594.74273,336946.3606783,211
1658564594.74273,336946.3606962,223
1658564594.74273,336946.360701,231
1658564594.74273,336946.3607038,260
1658564594.74273,336946.3607062,284
1658564594.74273,336946.8476596,279
1658564594.74273,336946.8476773,274
1658564594.74273,336946.8476843,277
1658564594.74273,336946.8476915,253
1658564594.74273,336946.8476954,209
1658564594.74273,336946.8476991,163
1658564594.74273,336946.8477096,99
1658564594.74273,336946.8477147,43
1658564594.74273,336946.8477218,12
1658564594.74273,336946.8477265,-19
1658564594.74273,336946.8477331,-34
1658564594.74273,336946.84774,-36
1658564594.74273,336946.8477447,-51
1658564594.74273,336946.8477512,-60
1658564594.74273,336946.8477577,-55
1658564594.74273,336946.8477694,-48
1658564594.74273,336946.8477754,-34
1658564594.74273,336946.8477778,-26
1658564594.74273,336946.847785,-41
1658564594.74273,336946.8477918,-46
1658564594.74273,336946.8477951,-31
1658564594.7527,336946.8477982,-9
1658564594.7527,336946.8478011,4
1658564594.7527,336946.8478041,0
1658564594.7527,336946.847807,-14
1658564594.7527,336946.8478349,-4
1658564594.7527,336946.8478456,7
1658564594.7527,336946.8478519,4
1658564594.7527,336946.8478583,0
1658564594.7527,336946.8478665,4
1658564594.7527,336946.8478704,12
1658564594.7527,336946.8478744,14
1658564594.7527,336946.8478806,4
1658564594.7527,336946.8478865,2
1658564594.7527,336946.8478929,4
1658564594.7527,336946.8478964,2
1658564594.7527,336946.8479015,0
1658564594.7527,336946.8479057,-2
1658564594.7527,336946.8479119,-2
1658564594.7527,336946.8479159,4
1658564594.7527,336946.8479212,-4
1658564594.7527,336946.8479244,-17
1658564594.7527,336946.847928,-4
1658564594.7527,336946.8479317,12
1658564594.7527,336946.8479351,7
1658564595.32698,336946.8479384,0
1658564595.32698,336946.8479416,9
1658564595.32698,336946.8479452,21
1658564595.32698,336946.8479486,24
1658564595.32698,336946.8479522,19
1658564595.32698,336946.8479555,17
1658564595.32698,336946.847959,21
1658564595.32698,336946.8479622,21
1658564595.32698,336946.8479664,9
1658564595.32698,336946.8479707,12
1658564595.32698,336946.8479757,38
1658564595.32698,336946.8479805,60
1658564595.32698,336946.8479855,68
1658564595.32698,336946.8479901,72
1658564595.32698,336946.8479945,94
1658564595.32698,336946.8479989,99
1658564595.32698,336946.8480073,65
1658564595.32698,336946.8480131,46
1658564595.32698,336946.8480198,63
1658564595.32698,336946.8480235,60
1658564595.32698,336946.8480271,48
1658564595.32698,336946.8480317,60
1658564595.32698,336946.848036,82
1658564595.32698,336946.84804,77
1658564595.32698,336946.8480444,60
1658564595.32698,336946.8480484,26
1658564595.32698,336946.848053,-87
1658564595.32698,336946.8480568,-102
1658564595.32698,336947.4335845,311
1658564595.32698,336947.4336116,978
1658564595.32698,336947.4336221,1253
1658564595.32698,336947.433639,768
1658564595.32698,336947.4336536,9
1658564595.32698,336947.4336621,-197
1658564595.32698,336947.4336657,82
1658564595.32698,336947.4336716,150
1658564595.32698,336947.4336769,2
1658564595.32698,336947.4336823,-2
1658564595.32698,336947.433686,48
1658564595.32698,336947.4336896,29
1658564595.32698,336947.4336934,38
1658564595.32698,336947.4336971,75
1658564595.32698,336947.4337029,70
1658564595.32698,336947.4337068,51
1658564595.32698,336947.4337108,63
1658564595.32698,336947.4337147,72
1658564595.32698,336947.4337206,72
1658564595.32698,336947.4337253,92
1658564595.32698,336947.4337293,116
1658564595.32698,336947.4337346,128
1658564595.33895,336947.4337384,143
1658564595.33895,336947.4337422,165
1658564595.33895,336947.4337461,184
1658564595.33895,336947.4337516,209
1658564595.33895,336947.4337554,231
1658564595.33895,336947.4337592,233
1658564595.33895,336947.433763,228
1658564595.33895,336947.4337668,231
1658564595.33895,336947.4337705,231
1658564595.33895,336947.4337743,204
1658564595.33895,336947.4337797,155
1658564595.33895,336947.4337843,99
1658564595.33895,336947.4337884,55
1658564595.33895,336947.4337924,21
1658564595.33895,336947.4337982,-12
1658564595.33895,336947.4338018,-26
1658564595.33895,336947.4338073,-24
1658564595.33895,336947.4338112,-29
1658564595.33895,336947.433815,-38
1658564595.33895,336947.4338186,-36
1658564595.33895,336947.4338221,-26
1658564595.33895,336947.4338273,-17
1658564595.33895,336947.4338311,-7
1658564595.33895,336947.4338363,-7
1658564595.91844,336947.4338401,-9
1658564595.91844,336947.4338438,2
1658564595.91844,336947.4338475,9
1658564595.91844,336947.4338512,7
1658564595.91844,336947.4338551,12
