Time,TimeLsl,Value
1658568841.54613,341192.1321657,114
1658568841.54613,341192.1321811,148
1658568841.54613,341192.132186,170
1658568841.54613,341192.1321931,163
1658568841.54613,341192.1321971,145
1658568841.54613,341192.1322024,145
1658568841.54613,341192.1322063,121
1658568841.54613,341192.1322115,63
1658568841.54613,341192.1322154,38
1658568841.54613,341192.1322206,51
1658568841.54613,341192.1322246,51
1658568841.54613,341192.1322298,48
1658568841.54613,341192.1322336,48
1658568841.54613,341192.1322388,41
1658568841.54613,341192.1322428,26
1658568841.54613,341192.132248,51
1658568841.54613,341192.1322529,197
1658568841.54613,341192.1322567,467
1658568841.54613,341192.1322606,710
1658568841.54613,341192.1322644,666
1658568841.54613,341192.1322697,262
1658568841.54613,341192.1322735,-158
1658568841.54613,341192.1322778,-245
1658568841.54613,341192.1322817,-111
1658568841.54613,341192.1322871,-9
1658568841.54613,341192.132291,14
1658568841.54613,341192.1322962,19
1658568841.54613,341192.1323,24
1658568841.54613,341192.1323052,31
1658568841.54613,341192.1323117,53
1658568841.54613,341192.132354,70
1658568841.54613,341192.1323638,63
1658568841.54613,341192.1323676,60
1658568841.54613,341192.1323709,75
1658568841.54613,341192.132401,75
1658568841.54613,341192.1324079,75
1658568841.54613,341192.1324117,94
1658568841.54613,341192.1324168,109
1658568841.54613,341192.1324205,116
1658568841.54613,341192.1324257,124
1658568841.54613,341192.1324294,138
1658568841.54613,341192.1324329,150
1658568841.54613,341192.1324365,160
1658568841.54613,341192.1324417,175
1658568841.54613,341192.1324463,189
1658568841.54613,341192.1324515,199
1658568841.54613,341192.1324551,209
1658568841.54613,341192.1324588,214
1658568841.54613,341192.1324639,201
1658568841.54613,341192.1324675,201
1658568841.65829,341192.1324712,201
1658568841.65829,341192.1324763,175
1658568841.65829,341192.1324798,145
1658568841.65829,341192.1324835,128
1658568841.65829,341192.1324886,102
1658568841.65829,341192.1324921,75
1658568841.65829,341192.1324958,68
1658568841.65829,341192.1325009,63
1658568841.65829,341192.1325044,51
1658568841.65829,341192.132508,58
1658568841.65829,341192.1325132,68
1658568841.65829,341192.1325167,65
1658568841.65829,341192.1325212,63
1658568841.65829,341192.1325262,63
1658568841.65829,341192.1325298,55
1658568841.65829,341192.1325334,60
1658568841.65829,341192.1325391,68
1658568841.65829,341192.1325442,63
1658568841.65829,341192.1325496,65
1658568841.65829,341192.1325531,72
1658568841.65829,341192.1325568,68
1658568841.65829,341192.1325617,70
1658568841.65829,341192.1325653,82
1658568841.65829,341192.6634042,70
1658568841.65829,341192.663424,60
1658568841.65829,341192.6634329,68
1658568841.65829,341192.6634372,72
1658568841.65829,341192.6634406,68
1658568841.65829,341192.6634463,65
1658568841.65829,341192.6634509,68
1658568841.65829,341192.6634555,70
1658568841.65829,341192.663459,80
1658568841.65829,341192.6634625,90
1658568841.65829,341192.6634658,75
1658568841.65829,341192.6634694,60
1658568841.65829,341192.6634745,87
1658568841.65829,341192.663479,121
1658568841.65829,341192.6634819,128
1658568841.65829,341192.6634854,133
1658568841.65829,341192.6634891,119
1658568841.65829,341192.6634937,80
1658568841.65829,341192.6634988,63
1658568841.65829,341192.6635067,55
1658568841.65829,341192.6635146,19
1658568841.65829,341192.6635215,-4
1658568841.65829,341192.663528,9
1658568841.65829,341192.6635366,9
1658568841.65829,341192.6635433,0
1658568841.65829,341192.6635521,9
1658568841.65829,341192.6635586,17
1658568841.69318,341192.6635655,26
1658568841.69318,341192.6635726,109
1658568841.69318,341192.6635818,309
1658568841.69318,341192.6635895,581
1658568841.69318,341192.6635964,698
1658568841.69318,341192.6636041,406
1658568841.69318,341192.6636135,-94
1658568841.69318,341192.66362,-309
1658568841.69318,341192.663624,-189
1658568841.69318,341192.6636309,-63
1658568841.69318,341192.6636342,-36
1658568841.69318,341192.6636372,-21
1658568841.69318,341192.6636403,-7
1658568841.69318,341192.6636463,0
1658568841.69318,341192.6636494,2
1658568841.69318,341192.6636523,0
1658568841.69318,341192.6636551,2
1658568841.69318,341192.6636582,17
1658568841.69318,341192.6636611,26
1658568841.69318,341192.6636639,29
1658568841.69318,341192.6636667,38
1658568841.69318,341192.6636696,43
1658568841.69318,341192.6636723,46
1658568841.69318,341192.6636753,60
1658568841.69318,341192.6636782,80
1658568841.69318,341192.663681,94
1658568841.69318,341192.6636839,109
1658568841.69318,341192.6636874,121
1658568841.69318,341192.6636931,136
1658568841.69318,341192.6636962,153
1658568841.69318,341192.663699,158
1658568841.69318,341192.663702,155
1658568841.69318,341192.6637049,153
1658568841.69318,341192.6637079,153
1658568841.69318,341192.6637107,148
1658568841.69318,341192.6637135,143
1658568841.69318,341192.6637164,128
1658568841.69318,341192.6637193,99
1658568841.69318,341192.6637222,65
1658568841.69318,341192.663725,41
1658568841.69318,341192.6637279,21
1658568841.69318,341192.6637308,0
1658568841.69318,341192.6637337,-4
1658568841.69318,341192.6637365,-2
1658568841.69318,341192.6637394,-7
1658568841.69318,341192.663746,-4
1658568841.69318,341193.1995674,2
1658568841.69318,341193.1995885,7
1658568841.73318,341193.1995984,17
1658568841.73318,341193.1996024,24
1658568841.73318,341193.1996046,31
1658568841.73318,341193.1996067,31
1658568841.73318,341193.1996088,29
1658568841.73318,341193.1996107,17
1658568841.73318,341193.1996127,12
1658568841.73318,341193.1996146,26
1658568841.73318,341193.1996172,34
1658568841.73318,341193.1996246,24
1658568841.73318,341193.1996312,19
1658568841.73318,341193.1996356,19
1658568841.73318,341193.1996393,9
1658568841.73318,341193.1996448,14
1658568841.73318,341193.1996499,26
1658568841.73318,341193.1996551,29
1658568841.73318,341193.1996647,38
1658568841.73318,341193.1996697,53
1658568841.73318,341193.1996744,58
1658568841.73318,341193.1996765,63
1658568841.73318,341193.1996786,77
1658568841.73318,341193.1996807,94
1658568841.73318,341193.1996829,111
1658568841.73318,341193.1996855,131
1658568841.73318,341193.1996958,136
1658568841.73318,341193.1997044,126
1658568841.73318,341193.1997068,121
1658568841.73318,341193.1997089,114
1658568841.73318,341193.199711,87
1658568841.73318,341193.1997131,53
1658568841.73318,341193.199721,41
1658568841.73318,341193.1997321,51
1658568841.73318,341193.199735,55
1658568841.73318,341193.1997372,53
1658568841.73318,341193.1997393,58
1658568841.73318,341193.1997446,65
1658568841.73318,341193.1997558,90
1658568841.73318,341193.1997611,189
1658568841.73318,341193.1997633,413
1658568841.73318,341193.1997654,691
1658568841.73318,341193.1997676,776
1658568841.73318,341193.1997702,455
1658568841.73318,341193.1997809,-43
1658568841.73318,341193.1997887,-240
1658568841.73318,341193.1997912,-102
1658568841.73318,341193.1997934,31
1658568841.73318,341193.1997957,51
1658568841.73318,341193.1998057,51
1658568841.73318,341193.1998143,58
1658568841.73318,341193.1998168,65
1658568841.74315,341193.1998189,72
1658568841.74315,341193.199821,77
1658568841.74315,341193.1998269,85
1658568841.74315,341193.1998378,94
1658568841.74315,341193.1998428,92
1658568841.74315,341193.1998451,92
1658568841.74315,341193.1998472,99
1658568841.74315,341193.1998494,114
1658568841.74315,341193.1998527,133
1658568841.74315,341193.1998635,148
1658568841.74315,341193.199871,158
1658568841.74315,341193.1998734,177
1658568841.74315,341193.1998756,194
1658568841.74315,341193.1998777,209
1658568841.74315,341193.1998798,238
1658568841.74315,341193.1998874,257
1658568841.74315,341193.1998981,267
1658568841.74315,341193.1999026,277
1658568841.74315,341193.199905,274
1658568841.74315,341193.199907,270
1658568841.74315,341193.1999149,270
1658568841.74315,341193.8335321,255
1658568841.74315,341193.8335488,231
1658568841.74315,341193.8335535,206
1658568842.26561,341193.8335604,165
1658568842.26561,341193.8335642,114
1658568842.26561,341193.833568,85
1658568842.26561,341193.8335718,77
1658568842.26561,341193.8335755,65
1658568842.26561,341193.8335792,63
1658568842.26561,341193.8335829,65
1658568842.26561,341193.8335866,55
1658568842.26561,341193.8335902,51
1658568842.26561,341193.8335938,65
1658568842.26561,341193.8335973,77
1658568842.26561,341193.8336009,75
1658568842.26561,341193.8336045,72
1658568842.26561,341193.8336086,77
1658568842.26561,341193.8336168,85
1658568842.26561,341193.8336259,90
1658568842.26561,341193.8336311,92
1658568842.26561,341193.8336386,94
1658568842.26561,341193.8336459,102
1658568842.26561,341193.8336558,107
1658568842.26561,341193.8336603,99
1658568842.26561,341193.8336689,99
1658568842.26561,341193.8336753,109
1658568842.26561,341193.8336834,109
1658568842.26561,341193.8336899,121
1658568842.26561,341193.8336979,136
1658568842.26561,341193.8337041,131
1658568842.26561,341193.8337121,131
1658568842.26561,341193.8337218,148
1658568842.26561,341193.8337311,167
1658568842.26561,341193.8337383,184
1658568842.26561,341193.8337432,201
1658568842.26561,341193.8337479,211
1658568842.26561,341193.8337581,221
1658568842.26561,341193.8337693,228
1658568842.26561,341193.833774,218
1658568842.26561,341193.8337809,211
1658568842.26561,341193.8337842,189
1658568842.26561,341193.8337903,145
1658568842.26561,341193.8337942,131
1658568842.26561,341193.833798,138
1658568842.26561,341193.8338022,131
1658568842.26561,341193.8338086,133
1658568842.26561,341193.8338119,143
1658568842.26561,341193.8338169,136
1658568842.26561,341193.8338306,145
1658568842.26561,341193.8338441,267
1658568842.26561,341193.8338516,571
1658568842.26561,341193.8338585,931
1658568842.26561,341193.8338617,1031
1658568842.27658,341193.8338673,644
1658568842.27658,341193.8338711,53
1658568842.27658,341193.8338783,-211
1658568842.27658,341193.8338861,-85
1658568842.27658,341193.8338935,72
1658568842.27658,341193.8338984,111
1658568842.27658,341193.8339061,126
1658568842.27658,341193.8339137,141
1658568842.27658,341193.8339218,136
1658568842.27658,341193.8339269,138
1658568842.27658,341193.8339342,153
1658568842.27658,341193.8339421,160
1658568842.27658,341193.8339494,172
1658568842.27658,341193.8339554,189
1658568842.27658,341193.8339616,192
1658568842.27658,341193.8339669,199
1658568842.27658,341193.833974,221
1658568842.27658,341193.8339857,233
1658568842.27658,341193.8339968,236
1658568842.27658,341193.8340042,250
1658568842.27658,341194.3705187,270
1658568842.27658,341194.370536,284
1658568842.27658,341194.370542,299
1658568842.27658,341194.3705472,323
1658568842.85256,341194.3705506,350
1658568842.85256,341194.3705537,357
1658568842.85256,341194.370557,345
1658568842.85256,341194.37056,335
1658568842.85256,341194.3705632,330
1658568842.85256,341194.3705672,321
1658568842.85256,341194.3705721,296
1658568842.85256,341194.3705755,265
1658568842.85256,341194.3705793,228
1658568842.85256,341194.3705825,175
1658568842.85256,341194.3705856,121
1658568842.85256,341194.3705888,94
1658568842.85256,341194.3705919,80
1658568842.85256,341194.3705959,72
1658568842.85256,341194.3705992,72
1658568842.85256,341194.3706024,68
1658568842.85256,341194.3706056,55
1658568842.85256,341194.3706086,53
1658568842.85256,341194.3706117,63
1658568842.85256,341194.3706151,75
1658568842.85256,341194.3706186,82
1658568842.85256,341194.370622,80
1658568842.85256,341194.3706254,75
1658568842.85256,341194.3706291,82
1658568842.85256,341194.3706324,90
1658568842.85256,341194.3706361,92
1658568842.85256,341194.3706396,97
1658568842.85256,341194.370643,94
1658568842.85256,341194.370646,90
1658568842.85256,341194.370649,99
1658568842.85256,341194.3706523,111
1658568842.85256,341194.3706553,102
1658568842.85256,341194.3706584,87
1658568842.85256,341194.3706628,90
1658568842.85256,341194.3706663,97
1658568842.85256,341194.3706694,94
1658568842.85256,341194.3706728,104
1658568842.85256,341194.370676,138
1658568842.85256,341194.3706789,163
1658568842.85256,341194.3706819,167
1658568842.85256,341194.3706851,167
1658568842.85256,341194.370689,163
1658568842.85256,341194.3706922,155
1658568842.85256,341194.3706957,138
1658568842.85256,341194.3706991,111
1658568842.85256,341194.3707021,90
1658568842.85256,341194.370743,90
1658568842.85256,341194.3707524,92
1658568842.85256,341194.3707559,87
1658568842.85256,341194.3707593,90
1658568842.86354,341194.3707627,90
1658568842.86354,341194.3707685,85
1658568842.86354,341194.3707718,126
1658568842.86354,341194.3707749,316
1658568842.86354,341194.3707781,681
1658568842.86354,341194.3707813,1012
1658568842.86354,341194.3707846,907
1658568842.86354,341194.3707879,311
1658568842.86354,341194.3707913,-197
1658568842.86354,341194.3707943,-233
1658568842.86354,341194.3707976,-60
1658568842.86354,341194.3708017,24
1658568842.86354,341194.3708056,41
1658568842.86354,341194.3708102,65
1658568842.86354,341194.3708135,85
1658568842.86354,341194.3708164,87
1658568842.86354,341194.3708197,92
1658568842.86354,341194.3708228,104
1658568842.86354,341194.3708259,109
1658568842.86354,341194.9562167,109
1658568842.86354,341194.9562374,116
1658568842.86354,341194.9562412,138
1658568842.86354,341194.9562446,165
1658568842.86354,341194.9562476,180
1658568843.43309,341194.9562506,180
1658568843.43309,341194.9562544,182
1658568843.43309,341194.956259,204
1658568843.43309,341194.9562621,231
1658568843.43309,341194.9562652,238
1658568843.43309,341194.9562683,236
1658568843.43309,341194.9562715,248
1658568843.43309,341194.9562749,265
1658568843.43309,341194.9562783,267
1658568843.43309,341194.9562818,260
1658568843.43309,341194.9562855,260
1658568843.43309,341194.9562891,240
1658568843.43309,341194.9562923,201
1658568843.43309,341194.9562957,175
1658568843.43309,341194.9562989,148
1658568843.43309,341194.956302,109
1658568843.43309,341194.9563051,75
1658568843.43309,341194.9563087,46
1658568843.43309,341194.956312,21
1658568843.43309,341194.9563156,9
1658568843.43309,341194.956319,4
1658568843.43309,341194.9563243,0
1658568843.43309,341194.9563278,0
1658568843.43309,341194.9563316,-2
1658568843.43309,341194.9563349,-7
1658568843.43309,341194.956338,0
1658568843.43309,341194.9563412,9
1658568843.43309,341194.9563474,14
1658568843.43309,341194.9563509,21
1658568843.43309,341194.9563543,34
1658568843.43309,341194.9563575,38
1658568843.43309,341194.9563607,36
1658568843.43309,341194.9563648,29
1658568843.43309,341194.9563693,36
1658568843.43309,341194.9563728,43
1658568843.43309,341194.9563761,43
1658568843.43309,341194.9563801,43
1658568843.43309,341194.956445,46
1658568843.43309,341194.9564518,48
1658568843.43309,341194.9564554,55
1658568843.43309,341194.9564589,63
1658568843.43309,341194.9564622,72
1658568843.43309,341194.9564654,97
1658568843.43309,341194.9564686,121
1658568843.43309,341194.9564729,131
1658568843.43309,341194.9564779,136
1658568843.43309,341194.9564813,133
1658568843.43309,341194.9564845,131
1658568843.43309,341194.9564877,133
1658568843.43309,341194.956492,102
1658568843.44406,341194.956497,58
1658568843.44406,341194.9565002,48
1658568843.44406,341194.9565033,58
1658568843.44406,341194.9565065,58
1658568843.44406,341194.9565097,58
1658568843.44406,341194.9565133,60
1658568843.44406,341194.9565165,53
1658568843.44406,341194.9565214,72
1658568843.44406,341194.9565249,209
1658568843.44406,341194.9565282,518
1658568843.44406,341194.9565314,878
1658568843.44406,341194.9565345,924
1658568843.44406,341194.9565378,462
1658568843.44406,341194.9565413,-104
1658568843.44406,341194.9565453,-279
1658568843.44406,341194.9565491,-141
1658568843.44406,341194.9565525,-12
1658568843.44406,341194.9565573,24
1658568843.44406,341195.5405405,41
1658568843.44406,341195.5405597,58
1658568843.44406,341195.5405682,65
1658568843.44406,341195.5405724,75
1658568843.44406,341195.540578,92
1658568843.44406,341195.5405821,102
1658568843.94189,341195.5405874,99
1658568843.94189,341195.5405913,99
1658568843.94189,341195.540595,114
1658568843.94189,341195.5405985,131
1658568843.94189,341195.5406021,138
1658568843.94189,341195.5406243,148
1658568843.94189,341195.5406301,165
1658568843.94189,341195.5406353,165
1658568843.94189,341195.540641,170
1658568843.94189,341195.5406451,201
1658568843.94189,341195.5406502,223
1658568843.94189,341195.5406549,233
1658568843.94189,341195.5406591,248
1658568843.94189,341195.540665,257
1658568843.94189,341195.5406692,248
1658568843.94189,341195.5406749,231
1658568843.94189,341195.5406787,214
1658568843.94189,341195.5406838,197
1658568843.94189,341195.5406885,170
1658568843.94189,341195.5406938,128
1658568843.94189,341195.5406989,82
1658568843.94189,341195.5407025,55
1658568843.94189,341195.5407062,34
1658568843.94189,341195.5407119,2
1658568843.94189,341195.5407167,-19
1658568843.94189,341195.5407224,-21
1658568843.94189,341195.5407264,-21
1658568843.94189,341195.5407315,-19
1658568843.94189,341195.5407352,-9
1658568843.94189,341195.5407404,-9
1658568843.94189,341195.5407443,-12
1658568843.94189,341195.5407495,4
1658568843.94189,341195.5407559,21
1658568843.94189,341195.5407614,19
1658568843.94189,341195.5407655,17
1658568843.94189,341195.5407693,26
1658568843.94189,341195.5407734,29
1658568843.94189,341195.5407787,31
1658568843.94189,341195.5407836,34
1658568843.94189,341195.5407889,31
1658568843.94189,341195.5407929,31
1658568843.94189,341195.5407966,38
1658568843.94189,341195.5408021,46
1658568843.94189,341195.5408058,48
1658568843.94189,341195.5408096,53
1658568843.94189,341195.5408146,58
1658568843.94189,341195.5408182,53
1658568843.94189,341195.5408221,70
1658568843.94189,341195.5408275,109
1658568843.94189,341195.5408325,126
1658568843.96383,341195.5408364,124
1658568843.96383,341195.5408418,114
1658568843.96383,341195.5408457,107
1658568843.96383,341195.5408499,102
1658568843.96383,341195.5408617,85
1658568843.96383,341195.5408729,51
1658568843.96383,341195.5408822,31
1658568843.96383,341195.5408871,36
1658568843.96383,341195.5409006,41
1658568843.96383,341195.5409114,41
1658568843.96383,341195.5409186,46
1658568843.96383,341195.5409249,46
1658568843.96383,341195.5409327,48
1658568843.96383,341195.5409412,133
1658568843.96383,341195.5409485,396
1658568843.96383,341195.5409553,773
1658568843.96383,341195.5409638,956
1658568843.96383,341196.0279601,637
1658568843.96383,341196.0280539,24
1658568843.96383,341196.0280673,-287
1658568843.96383,341196.0280733,-172
1658568843.96383,341196.0280765,-17
1658568843.96383,341196.0280796,9
1658568843.96383,341196.0280836,24
1658568844.46148,341196.0280982,46
1658568844.46148,341196.0281681,48
1658568844.46148,341196.0281741,58
1658568844.46148,341196.0281779,82
1658568844.46148,341196.0281813,82
1658568844.46148,341196.0281858,70
1658568844.46148,341196.028189,75
1658568844.46148,341196.0281928,90
1658568844.46148,341196.0281959,99
1658568844.46148,341196.0282317,97
1658568844.46148,341196.028241,97
1658568844.46148,341196.0282452,119
1658568844.46148,341196.0282506,148
1658568844.46148,341196.0282544,170
1658568844.46148,341196.028258,192
1658568844.46148,341196.0282616,206
1658568844.46148,341196.0282651,209
1658568844.46148,341196.0282687,223
1658568844.46148,341196.0282729,240
1658568844.46148,341196.0282765,250
1658568844.46148,341196.0282801,257
1658568844.46148,341196.0282838,248
1658568844.46148,341196.0282876,223
1658568844.46148,341196.0282914,197
1658568844.46148,341196.028295,163
1658568844.46148,341196.028299,119
1658568844.46148,341196.0283034,82
1658568844.46148,341196.0283066,38
1658568844.46148,341196.0283115,4
1658568844.46148,341196.0283185,-4
1658568844.46148,341196.0283226,-14
1658568844.46148,341196.0283271,-34
1658568844.46148,341196.0283321,-24
1658568844.46148,341196.0283372,-7
1658568844.46148,341196.0283459,-12
1658568844.46148,341196.0283507,-12
1658568844.46148,341196.0283538,-12
1658568844.46148,341196.0283569,-14
1658568844.46148,341196.0283644,0
1658568844.46148,341196.0283724,14
1658568844.46148,341196.0283795,12
1658568844.46148,341196.0283838,9
1658568844.46148,341196.0283918,2
1658568844.46148,341196.0283979,-2
1658568844.46148,341196.0284056,14
1658568844.46148,341196.0284143,24
1658568844.46148,341196.0284222,9
1658568844.46148,341196.0284304,9
1658568844.46148,341196.028439,17
1658568844.46148,341196.028447,17
1658568844.47544,341196.0284553,24
1658568844.47544,341196.0284632,26
1658568844.47544,341196.0284706,21
1658568844.47544,341196.0284787,31
1658568844.47544,341196.0284869,63
1658568844.47544,341196.0284934,92
1658568844.47544,341196.0284994,97
1658568844.47544,341196.0285074,82
1658568844.47544,341196.0285156,68
1658568844.47544,341196.0285234,70
1658568844.47544,341196.0285325,55
1658568844.47544,341196.0285403,12
1658568844.47544,341196.0285482,-7
1658568844.47544,341196.0285544,14
1658568844.47544,341196.0285605,17
1658568844.47544,341196.0285673,2
1658568844.47544,341196.563238,2
1658568844.47544,341196.5632613,4
1658568844.47544,341196.5632732,4
1658568844.47544,341196.563282,55
1658568844.47544,341196.5632907,270
1658568844.47544,341196.5632976,627
1658568844.47544,341196.5633066,858
1658568844.47544,341196.5633139,630
1658568845.1005,341196.5633213,46
1658568845.1005,341196.5633285,-352
1658568845.1005,341196.5633356,-326
1658568845.1005,341196.5633413,-155
1658568845.1005,341196.5633486,-87
1658568845.1005,341196.5633546,-87
1658568845.1005,341196.5633591,-85
1658568845.1005,341196.5633658,-70
1658568845.1005,341196.5633701,-51
1658568845.1005,341196.5633735,-48
1658568845.1005,341196.5633766,-41
1658568845.1005,341196.5633795,-19
1658568845.1005,341196.5633877,-7
1658568845.1005,341196.5633946,-2
1658568845.1005,341196.5634038,12
1658568845.1005,341196.5634107,26
1658568845.1005,341196.5634197,41
1658568845.1005,341196.5634284,63
1658568845.1005,341196.5634367,82
1658568845.1005,341196.5634407,104
1658568845.1005,341196.5634461,126
1658568845.1005,341196.5634526,145
1658568845.1005,341196.5634605,172
1658568845.1005,341196.5634726,194
1658568845.1005,341196.5634806,201
1658568845.1005,341196.5634927,209
1658568845.1005,341196.5635038,206
1658568845.1005,341196.5635116,201
1658568845.1005,341196.5635204,201
1658568845.1005,341196.5635275,180
1658568845.1005,341196.5635364,138
1658568845.1005,341196.5635456,104
1658568845.1005,341196.5635539,65
1658568845.1005,341196.563563,24
1658568845.1005,341196.5635684,-2
1658568845.1005,341196.5635785,-21
1658568845.1005,341196.5635901,-41
1658568845.1005,341196.5636166,-53
1658568845.1005,341196.563626,-53
1658568845.1005,341196.5636319,-51
1658568845.1005,341196.5636352,-58
1658568845.1005,341196.5636386,-63
1658568845.1005,341196.5636436,-51
1658568845.1005,341196.5636514,-41
1658568845.1005,341196.5636594,-41
1658568845.1005,341196.5636669,-31
1658568845.1005,341196.5636735,-17
1658568845.1005,341196.5636809,-17
1658568845.1005,341196.563688,-31
1658568845.1005,341196.5636919,-31
1658568845.12244,341196.5636951,-12
1658568845.12244,341196.5637023,-9
1658568845.12244,341196.5637106,-19
1658568845.12244,341196.5637164,-9
1658568845.12244,341196.5637232,-2
1658568845.12244,341196.5637307,2
1658568845.12244,341196.5637373,4
1658568845.12244,341196.5637508,0
1658568845.12244,341196.5637617,-4
1658568845.12244,341196.5637688,12
1658568845.12244,341196.5637736,41
1658568845.12244,341196.5637774,51
1658568845.12244,341196.5637812,55
1658568845.12244,341196.5637848,58
1658568845.12244,341196.5637886,34
1658568845.12244,341197.1968148,17
1658568845.12244,341197.1968387,24
1658568845.12244,341197.196848,-9
1658568845.12244,341197.1968547,-63
1658568845.12244,341197.1968614,-77
1658568845.12244,341197.1968664,-65
1658568845.12244,341197.1968728,-60
1658568845.12244,341197.1968775,-58
1658568845.12244,341197.1968835,-55
1658568845.63071,341197.1968883,-58
1658568845.63071,341197.1968928,-48
1658568845.63071,341197.1968973,70
1658568845.63071,341197.1969019,362
1658568845.63071,341197.1969064,698
1658568845.63071,341197.1969104,739
1658568845.63071,341197.1969144,287
1658568845.63071,341197.1969192,-272
1658568845.63071,341197.1969289,-423
1658568845.63071,341197.1969356,-255
1658568845.63071,341197.1969461,-133
1658568845.63071,341197.1969546,-111
1658568845.63071,341197.1969676,-85
1658568845.63071,341197.1969809,-60
1658568845.63071,341197.1969897,-60
1658568845.63071,341197.1969923,-43
1658568845.63071,341197.1969945,-24
1658568845.63071,341197.1969966,-29
1658568845.63071,341197.1969987,-24
1658568845.63071,341197.1970009,2
1658568845.63071,341197.1970029,21
1658568845.63071,341197.1970049,29
1658568845.63071,341197.197007,53
1658568845.63071,341197.1970091,72
1658568845.63071,341197.1970112,85
1658568845.63071,341197.1970133,102
1658568845.63071,341197.1970154,126
1658568845.63071,341197.1970175,145
1658568845.63071,341197.1970195,177
1658568845.63071,341197.1970216,204
1658568845.63071,341197.1970237,211
1658568845.63071,341197.1970257,223
1658568845.63071,341197.1970284,245
1658568845.63071,341197.1970305,243
1658568845.63071,341197.1970326,223
1658568845.63071,341197.1970348,214
1658568845.63071,341197.1970369,197
1658568845.63071,341197.1970389,160
1658568845.63071,341197.197041,121
1658568845.63071,341197.197043,87
1658568845.63071,341197.1970452,55
1658568845.63071,341197.1970473,31
1658568845.63071,341197.1970493,7
1658568845.63071,341197.1970514,-17
1658568845.63071,341197.1970535,-14
1658568845.63071,341197.1970563,-12
1658568845.63071,341197.1970594,-19
1658568845.63071,341197.1970698,-9
1658568845.63071,341197.1970827,-2
1658568845.63071,341197.197096,-21
1658568845.64168,341197.1971104,-19
1658568845.64168,341197.1971229,2
1658568845.64168,341197.1971309,4
1658568845.64168,341197.1971446,-4
1658568845.64168,341197.1971573,-2
1658568845.64168,341197.197172,-2
1658568845.64168,341197.1971855,-12
1658568845.64168,341197.1971996,-17
1658568845.64168,341197.1972116,-17
1658568845.64168,341197.1972219,-19
1658568845.64168,341197.1972261,-19
1658568845.64168,341197.1972314,-14
1658568845.64168,341197.1972393,-9
1658568845.64168,341197.1972449,2
1658568845.64168,341197.7335534,9
1658568845.64168,341197.7335985,12
1658568845.64168,341197.7336038,12
1658568845.64168,341197.7336082,31
1658568845.64168,341197.7336159,63
1658568845.64168,341197.7336204,94
1658568845.64168,341197.7336274,104
1658568845.64168,341197.7336317,102
1658568845.64168,341197.7336394,97
1658568845.64168,341197.7336435,94
1658568846.22018,341197.7336474,85
1658568846.22018,341197.7336515,58
1658568846.22018,341197.7336555,29
1658568846.22018,341197.7336595,12
1658568846.22018,341197.7336636,4
1658568846.22018,341197.7336675,7
1658568846.22018,341197.7336715,17
1658568846.22018,341197.7336756,24
1658568846.22018,341197.7336799,19
1658568846.22018,341197.733684,7
1658568846.22018,341197.733688,80
1658568846.22018,341197.7336919,345
1658568846.22018,341197.733696,722
1658568846.22018,341197.7337001,897
1658568846.22018,341197.7337042,586
1658568846.22018,341197.7337083,-9
1658568846.22018,341197.7337124,-323
1658568846.22018,341197.7337165,-223
1658568846.22018,341197.7337205,-72
1658568846.22018,341197.7337246,-31
1658568846.22018,341197.7337287,-12
1658568846.22018,341197.7337327,12
1658568846.22018,341197.7337368,19
1658568846.22018,341197.7337407,29
1658568846.22018,341197.7337448,48
1658568846.22018,341197.7337488,68
1658568846.22018,341197.7337528,80
1658568846.22018,341197.7337568,85
1658568846.22018,341197.7337608,94
1658568846.22018,341197.733765,111
1658568846.22018,341197.7337691,128
1658568846.22018,341197.7337727,141
1658568846.22018,341197.7337784,155
1658568846.22018,341197.733784,175
1658568846.22018,341197.7337882,192
1658568846.22018,341197.7337924,216
1658568846.22018,341197.733798,245
1658568846.22018,341197.7338021,270
1658568846.22018,341197.7338077,284
1658568846.22018,341197.7338125,291
1658568846.22018,341197.7338184,294
1658568846.22018,341197.7338225,291
1658568846.22018,341197.733828,294
1658568846.22018,341197.7338321,304
1658568846.22018,341197.7338363,287
1658568846.22018,341197.7338416,231
1658568846.22018,341197.733846,182
1658568846.22018,341197.7338516,136
1658568846.22018,341197.7338559,90
1658568846.22018,341197.733862,58
1658568846.23015,341197.7338662,48
1658568846.23015,341197.733872,41
1658568846.23015,341197.7338759,29
1658568846.23015,341197.7338802,26
1658568846.23015,341197.7338857,31
1658568846.23015,341197.7338898,31
1658568846.23015,341197.7338942,34
1658568846.23015,341197.7338997,34
1658568846.23015,341197.7339038,34
1658568846.23015,341197.733908,48
1658568846.23015,341197.7339123,65
1658568846.23015,341197.7339178,60
1658568846.23015,341197.7339238,48
1658568846.23015,341198.3182417,48
1658568846.23015,341198.3182637,70
1658568846.23015,341198.3182737,99
1658568846.23015,341198.3182855,97
1658568846.23015,341198.3182959,82
1658568846.23015,341198.3183015,85
1658568846.23015,341198.3183049,92
1658568846.23015,341198.3183083,85
1658568846.23015,341198.3183115,77
1658568846.23015,341198.3183148,87
1658568846.23015,341198.3183191,77
1658568846.75392,341198.3183239,63
1658568846.75392,341198.3183288,77
1658568846.75392,341198.3183342,82
1658568846.75392,341198.3183389,82
1658568846.75392,341198.3183458,102
1658568846.75392,341198.3183528,128
1658568846.75392,341198.31836,138
1658568846.75392,341198.3183676,143
1658568846.75392,341198.3183809,160
1658568846.75392,341198.3183888,163
1658568846.75392,341198.3183932,148
1658568846.75392,341198.3183987,116
1658568846.75392,341198.3184035,85
1658568846.75392,341198.3184126,85
1658568846.75392,341198.318425,94
1658568846.75392,341198.3184379,85
1658568846.75392,341198.3184489,87
1658568846.75392,341198.3184598,109
1658568846.75392,341198.3184734,109
1658568846.75392,341198.3184862,90
1658568846.75392,341198.3185002,107
1658568846.75392,341198.3185132,255
1658568846.75392,341198.3185265,608
1658568846.75392,341198.3185397,1004
1658568846.75392,341198.3185529,1068
1658568846.75392,341198.3185661,618
1658568846.75392,341198.3185792,9
1658568846.75392,341198.3185878,-243
1658568846.75392,341198.3185905,-126
1658568846.75392,341198.3185927,9
1658568846.75392,341198.3185948,34
1658568846.75392,341198.3185968,46
1658568846.75392,341198.3185989,68
1658568846.75392,341198.318601,75
1658568846.75392,341198.3186042,90
1658568846.75392,341198.318616,116
1658568846.75392,341198.3186215,128
1658568846.75392,341198.318628,133
1658568846.75392,341198.3186319,141
1658568846.75392,341198.3186376,138
1658568846.75392,341198.3186428,131
1658568846.75392,341198.3186465,148
1658568846.75392,341198.3186517,175
1658568846.75392,341198.3186553,189
1658568846.75392,341198.3186602,199
1658568846.75392,341198.3186677,223
1658568846.75392,341198.3186797,250
1658568846.75392,341198.3186926,270
1658568846.75392,341198.3187,299
1658568846.75392,341198.3187129,328
1658568846.77487,341198.3187204,338
1658568846.77487,341198.318724,340
1658568846.77487,341198.3187278,335
1658568846.77487,341198.3187334,316
1658568846.77487,341198.318737,284
1658568846.77487,341198.3187403,257
1658568846.77487,341198.318744,223
1658568846.77487,341198.3187491,172
1658568846.77487,341198.3187526,111
1658568846.77487,341198.3187562,65
1658568846.77487,341198.3187617,26
1658568846.77487,341198.3187694,-7
1658568846.77487,341198.8551529,-31
1658568846.77487,341198.8551694,-38
1658568846.77487,341198.8551754,-38
1658568846.77487,341198.8551808,-31
1658568846.77487,341198.8551847,-24
1658568846.77487,341198.8551883,-19
1658568846.77487,341198.8551919,-26
1658568846.77487,341198.8551955,-36
1658568846.77487,341198.855199,-26
1658568846.77487,341198.8552026,-17
1658568846.77487,341198.8552063,-14
1658568846.77487,341198.8552099,-9
1658568847.34243,341198.855215,-9
1658568847.34243,341198.8552187,-24
1658568847.34243,341198.8552222,-41
1658568847.34243,341198.8552258,-38
1658568847.34243,341198.8552293,-36
1658568847.34243,341198.8552329,-36
1658568847.34243,341198.8552365,-26
1658568847.34243,341198.8552401,-31
1658568847.34243,341198.8552436,-51
1658568847.34243,341198.8552471,-53
1658568847.34243,341198.8552507,-41
1658568847.34243,341198.8552544,-31
1658568847.34243,341198.8552579,-31
1658568847.34243,341198.8552614,-34
1658568847.34243,341198.855265,-36
1658568847.34243,341198.8552685,-36
1658568847.34243,341198.855272,-19
1658568847.34243,341198.8552755,-2
1658568847.34243,341198.8552806,-7
1658568847.34243,341198.8552842,-9
1658568847.34243,341198.8552894,14
1658568847.34243,341198.855294,51
1658568847.34243,341198.8552994,72
1658568847.34243,341198.8553043,77
1658568847.34243,341198.8553088,68
1658568847.34243,341198.8553147,58
1658568847.34243,341198.8553182,41
1658568847.34243,341198.855323,24
1658568847.34243,341198.8553263,14
1658568847.34243,341198.8553298,4
1658568847.34243,341198.8553346,-7
1658568847.34243,341198.8553379,-9
1658568847.34243,341198.8553414,-4
1658568847.34243,341198.8553462,-4
1658568847.34243,341198.8553496,-14
1658568847.34243,341198.8553531,-14
1658568847.34243,341198.8553588,68
1658568847.34243,341198.8553658,355
1658568847.34243,341198.8553702,802
1658568847.34243,341198.8553757,1097
1658568847.34243,341198.8553812,839
1658568847.34243,341198.8553865,109
1658568847.34243,341198.8553906,-396
1658568847.34243,341198.855397,-311
1658568847.34243,341198.8554005,-87
1658568847.34243,341198.8554054,-55
1658568847.34243,341198.8554084,-41
1658568847.34243,341198.8554122,17
1658568847.34243,341198.8554172,14
1658568847.34243,341198.8554209,4
1658568847.35241,341198.8554256,24
1658568847.35241,341198.855434,29
1658568847.35241,341198.85544,38
1658568847.35241,341198.8554472,63
1658568847.35241,341198.8554528,80
1658568847.35241,341198.8554602,92
1658568847.35241,341198.8554657,114
1658568847.35241,341198.8554708,119
1658568847.35241,341198.855474,116
1658568847.35241,341198.8554782,145
1658568847.35241,341198.8554817,177
1658568847.35241,341199.4392204,187
1658568847.35241,341199.4392398,209
1658568847.35241,341199.4392507,243
1658568847.35241,341199.4392534,260
1658568847.35241,341199.4392556,274
1658568847.35241,341199.4392577,287
1658568847.35241,341199.4392598,287
1658568847.35241,341199.4392623,282
1658568847.35241,341199.4392643,274
1658568847.35241,341199.4392664,253
1658568847.35241,341199.4392685,189
1658568847.35241,341199.4392706,119
1658568847.35241,341199.4392727,80
1658568847.88581,341199.4392748,46
1658568847.88581,341199.4392772,12
1658568847.88581,341199.4392823,-4
1658568847.88581,341199.4392923,-26
1658568847.88581,341199.4393022,-58
1658568847.88581,341199.4393082,-60
1658568847.88581,341199.4393124,-38
1658568847.88581,341199.4393182,-26
1658568847.88581,341199.4393226,-29
1658568847.88581,341199.4393285,-46
1658568847.88581,341199.4393418,-48
1658568847.88581,341199.4393501,-31
1658568847.88581,341199.4393527,-24
1658568847.88581,341199.4393549,-12
1658568847.88581,341199.439357,12
1658568847.88581,341199.4393592,26
1658568847.88581,341199.439367,19
1658568847.88581,341199.4393778,12
1658568847.88581,341199.4393823,34
1658568847.88581,341199.4393845,46
1658568847.88581,341199.4393871,34
1658568847.88581,341199.4393971,24
1658568847.88581,341199.439406,21
1658568847.88581,341199.4394086,29
1658568847.88581,341199.4394108,43
1658568847.88581,341199.439413,43
1658568847.88581,341199.4394151,46
1658568847.88581,341199.4394176,63
1658568847.88581,341199.4394253,68
1658568847.88581,341199.4394358,55
1658568847.88581,341199.4394393,60
1658568847.88581,341199.4394431,68
1658568847.88581,341199.4394453,60
1658568847.88581,341199.4394477,68
1658568847.88581,341199.4394554,87
1658568847.88581,341199.4394661,94
1658568847.88581,341199.4394695,104
1658568847.88581,341199.4394735,119

1658568847.88581,341199.4394756,133
1658568847.88581,341199.4394777,158
1658568847.88581,341199.4394799,175
1658568847.88581,341199.439482,165
1658568847.88581,341199.4394841,158
1658568847.88581,341199.4394865,160
1658568847.88581,341199.4394886,153
1658568847.88581,341199.4394907,133
1658568847.88581,341199.4394929,107
1658568847.88581,341199.4394952,77
1658568847.88581,341199.4394973,80
1658568847.88581,341199.4394994,99
1658568847.90775,341199.4395015,102
1658568847.90775,341199.4395036,104
1658568847.90775,341199.4395058,104
1658568847.90775,341199.439508,90
1658568847.90775,341199.43951,87
1658568847.90775,341199.4395121,175
1658568847.90775,341199.4395142,464
1658568847.90775,341199.4395172,866
1658568847.90775,341199.4395263,1051
1658568847.90775,341199.4395366,749
1658568847.90775,341199.9752775,114
1658568847.90775,341199.9752903,-277
1658568847.90775,341199.9752931,-175
1658568847.90775,341199.9752953,21
1658568847.90775,341199.9752974,46
1658568847.90775,341199.9752994,46
1658568847.90775,341199.9753014,77
1658568847.90775,341199.9753034,77
1658568847.90775,341199.9753054,77
1658568847.90775,341199.9753073,104
1658568847.90775,341199.9753094,126
1658568847.90775,341199.9753114,133
1658568847.90775,341199.9753133,136
1658568847.90775,341199.9753153,145
1658568848.50827,341199.9753174,167
1658568848.50827,341199.9753194,184
1658568848.50827,341199.9753213,204
1658568848.50827,341199.9753234,236
1658568848.50827,341199.9753255,265
1658568848.50827,341199.9753278,284
1658568848.50827,341199.9753333,284
1658568848.50827,341199.9753413,296
1658568848.50827,341199.9753475,333
1658568848.50827,341199.9753548,360
1658568848.50827,341199.9753635,372
1658568848.50827,341199.9753746,389
1658568848.50827,341199.9753878,396
1658568848.50827,341199.9753985,382
1658568848.50827,341199.9754049,357
1658568848.50827,341199.9754169,340
1658568848.50827,341199.9754292,316
1658568848.50827,341199.9754385,260
1658568848.50827,341199.9754444,184
1658568848.50827,341199.9754536,121
1658568848.50827,341199.9754599,90
1658568848.50827,341199.9754675,92
1658568848.50827,341199.9754737,77
1658568848.50827,341199.9754839,48
1658568848.50827,341199.975488,53
1658568848.50827,341199.9754977,65
1658568848.50827,341199.9755206,68
1658568848.50827,341199.9755284,68
1658568848.50827,341199.975538,70
1658568848.50827,341199.9755457,72
1658568848.50827,341199.9755506,70
1658568848.50827,341199.9755573,72
1658568848.50827,341199.9755627,90
1658568848.50827,341199.9755697,92
1658568848.50827,341199.9755815,80
1658568848.50827,341199.9756002,82
1658568848.50827,341199.9756066,94
1658568848.50827,341199.9756114,87
1658568848.50827,341199.9756186,72
1658568848.50827,341199.9756244,75
1658568848.50827,341199.9756306,90
1658568848.50827,341199.9756353,92
1658568848.50827,341199.9756412,80
1658568848.50827,341199.9756466,70
1658568848.50827,341199.9756526,72
1658568848.50827,341199.9756581,85
1658568848.50827,341199.9756646,87
1658568848.50827,341199.9756691,77
1658568848.50827,341199.9756752,85
1658568848.50827,341199.9756817,94
1658568848.52822,341199.9756861,87
1658568848.52822,341199.9756921,85
1658568848.52822,341199.9756973,94
1658568848.52822,341199.9757034,104
1658568848.52822,341199.9757086,109
1658568848.52822,341199.9757146,104
1658568848.52822,341199.975719,90
1658568848.52822,341199.9757233,90
1658568848.52822,341199.9757278,109
1658568848.52822,341200.6099428,124
1658568848.52822,341200.6099628,148
1658568848.52822,341200.6100023,170
1658568848.52822,341200.6100156,180
1658568848.52822,341200.6100303,180
1658568848.52822,341200.6100426,165
1658568848.52822,341200.6100505,160
1658568848.52822,341200.6100585,163
1658568848.52822,341200.610067,148
1658568848.52822,341200.6100752,107
1658568848.52822,341200.6100833,60
1658568848.52822,341200.6100962,53
1658568848.52822,341200.610107,75
1658568848.52822,341200.6101155,87
1658568848.52822,341200.6101236,87
1658568848.99624,341200.6101311,75
1658568848.99624,341200.6101405,43
1658568848.99624,341200.6101482,58
1658568848.99624,341200.6101555,248
1658568848.99624,341200.6101628,622
1658568848.99624,341200.6101691,948
1658568848.99624,341200.6101753,888
1658568848.99624,341200.6101798,362
1658568848.99624,341200.6101841,-192
1658568848.99624,341200.6101892,-301
1658568848.99624,341200.6101944,-119
1658568848.99624,341200.6102005,-26
1658568848.99624,341200.6102101,-17
1658568848.99624,341200.6102177,2
1658568848.99624,341200.6102237,2
1658568848.99624,341200.610233,4
1658568848.99624,341200.6102413,31
1658568848.99624,341200.6102471,46
1658568848.99624,341200.6102553,46
1658568848.99624,341200.610264,58
1658568848.99624,341200.6102702,68
1658568848.99624,341200.6102754,72
1658568848.99624,341200.6102843,80
1658568848.99624,341200.6102928,102
1658568848.99624,341200.6103001,126
1658568848.99624,341200.6103083,138
1658568848.99624,341200.6103137,143
1658568848.99624,341200.6103196,165
1658568848.99624,341200.6103262,189
1658568848.99624,341200.6103342,206
1658568848.99624,341200.6103405,228
1658568848.99624,341200.610349,248
1658568848.99624,341200.6103557,255
1658568848.99624,341200.6103648,250
1658568848.99624,341200.6103717,245
1658568848.99624,341200.6103775,240
1658568848.99624,341200.6103829,221
1658568848.99624,341200.6103879,187
1658568848.99624,341200.6103916,150
1658568848.99624,341200.6103946,111
1658568848.99624,341200.6104249,63
1658568848.99624,341200.6104323,17
1658568848.99624,341200.6104361,-9
1658568848.99624,341200.6104402,-29
1658568848.99624,341200.6104446,-38
1658568848.99624,341200.6104479,-43
1658568848.99624,341200.6104512,-58
1658568848.99624,341200.6104544,-60
1658568848.99624,341200.6104575,-53
1658568848.99624,341200.6104615,-48
1658568849.0092,341200.610466,-41
1658568849.0092,341200.6104726,-34
1658568849.0092,341200.6104795,-34
1658568849.0092,341200.6104844,-36
1658568849.0092,341200.6104902,-34
1658568849.0092,341200.610498,-31
1658568849.0092,341200.610501,-26
1658568849.0092,341200.6105049,-29
1658568849.0092,341201.0976841,-29
1658568849.0092,341201.0977169,-26
1658568849.0092,341201.0977319,-26
1658568849.0092,341201.097745,-29
1658568849.0092,341201.0977538,-29
1658568849.0092,341201.0977565,-29
1658568849.0092,341201.0977588,-29
1658568849.0092,341201.097761,-21
1658568849.0092,341201.0977631,-19
1658568849.0092,341201.0977676,-19
1658568849.0092,341201.0977698,-19
1658568849.0092,341201.0977721,-12
1658568849.0092,341201.0977743,-7
1658568849.0092,341201.0977766,-19
1658568849.0092,341201.0977788,-31
1658568849.0092,341201.0977809,-24
1658568849.53031,341201.097783,-17
1658568849.53031,341201.0977851,-21
1658568849.53031,341201.0977872,-19
1658568849.53031,341201.0977892,-21
1658568849.53031,341201.0977912,-38
1658568849.53031,341201.0977932,-43
1658568849.53031,341201.0977953,-31
1658568849.53031,341201.0977977,-26
1658568849.53031,341201.0977996,-26
1658568849.53031,341201.0978016,-31
1658568849.53031,341201.0978036,-48
1658568849.53031,341201.0978057,-36
1658568849.53031,341201.0978077,-12
1658568849.53031,341201.0978097,-7
1658568849.53031,341201.0978117,-7
1658568849.53031,341201.0978137,-7
1658568849.53031,341201.0978157,-26
1658568849.53031,341201.0978177,-38
1658568849.53031,341201.0978198,-51
1658568849.53031,341201.0978219,-80
1658568849.53031,341201.0978246,-94
1658568849.53031,341201.0978326,-85
1658568849.53031,341201.0978396,-80
1658568849.53031,341201.097848,-85
1658568849.53031,341201.0978506,-85
1658568849.53031,341201.0978528,-80
1658568849.53031,341201.0978549,-80
1658568849.53031,341201.0978571,-24
1658568849.53031,341201.0978593,187
1658568849.53031,341201.0978616,532
1658568849.53031,341201.0978637,776
1658568849.53031,341201.0978659,603
1658568849.53031,341201.097868,48
1658568849.53031,341201.0978702,-384
1658568849.53031,341201.0978725,-352
1658568849.53031,341201.0978747,-153
1658568849.53031,341201.0978768,-99
1658568849.53031,341201.097879,-102
1658568849.53031,341201.0978811,-70
1658568849.53031,341201.0978833,-60
1658568849.53031,341201.0978854,-55
1658568849.53031,341201.0978875,-34
1658568849.53031,341201.0978897,-19
1658568849.53031,341201.0978918,-14
1658568849.53031,341201.0978941,-9
1658568849.53031,341201.0978962,12
1658568849.53031,341201.0978984,34
1658568849.53031,341201.0979006,38
1658568849.53031,341201.0979027,53
1658568849.53031,341201.0979049,80
1658568849.54028,341201.097907,102
1658568849.54028,341201.0979091,116
1658568849.54028,341201.0979113,150
1658568849.54028,341201.0979134,182
1658568849.54028,341201.0979156,204
1658568849.54028,341201.0979177,231
1658568849.54028,341201.0979198,262
1658568849.54028,341201.6337384,277
1658568849.54028,341201.6337576,279
1658568849.54028,341201.6337648,282
1658568849.54028,341201.6337685,282
1658568849.54028,341201.6337748,270
1658568849.54028,341201.6337829,231
1658568849.54028,341201.6337881,177
1658568849.54028,341201.6337922,124
1658568849.54028,341201.6337963,75
1658568849.54028,341201.6337996,19
1658568849.54028,341201.6338027,-29
1658568849.54028,341201.6338071,-43
1658568849.54028,341201.6338104,-48
1658568849.54028,341201.6338153,-65
1658568849.54028,341201.6338218,-68
1658568849.54028,341201.6338257,-65
1658568849.54028,341201.6338291,-75
1658568850.11833,341201.6338322,-68
1658568850.11833,341201.6338395,-46
1658568850.11833,341201.6338431,-48
1658568850.11833,341201.6338466,-48
1658568850.11833,341201.6338497,-24
1658568850.11833,341201.6338531,-29
1658568850.11833,341201.6338565,-34
1658568850.11833,341201.6338598,-4
1658568850.11833,341201.6338633,4
1658568850.11833,341201.633867,0
1658568850.11833,341201.6338707,17
1658568850.11833,341201.6338767,26
1658568850.11833,341201.6338801,19
1658568850.11833,341201.6338846,24
1658568850.11833,341201.6338882,29
1658568850.11833,341201.6338918,19
1658568850.11833,341201.6338959,29
1658568850.11833,341201.6339002,48
1658568850.11833,341201.6339036,41
1658568850.11833,341201.6339105,29
1658568850.11833,341201.6339213,29
1658568850.11833,341201.6339342,29
1658568850.11833,341201.6339479,31
1658568850.11833,341201.6339617,31
1658568850.11833,341201.6340165,34
1658568850.11833,341201.6340244,41
1658568850.11833,341201.6340279,34
1658568850.11833,341201.6340325,34
1658568850.11833,341201.6340377,48
1658568850.11833,341201.6340409,55
1658568850.11833,341201.634044,51
1658568850.11833,341201.634047,58
1658568850.11833,341201.6340499,72
1658568850.11833,341201.6340528,77
1658568850.11833,341201.6340558,104
1658568850.11833,341201.6340588,145
1658568850.11833,341201.6340617,150
1658568850.11833,341201.6340647,133
1658568850.11833,341201.6340677,131
1658568850.11833,341201.6340707,136
1658568850.11833,341201.6340736,121
1658568850.11833,341201.6340765,99
1658568850.11833,341201.6340794,92
1658568850.11833,341201.6340825,94
1658568850.11833,341201.6340854,94
1658568850.11833,341201.6340884,87
1658568850.11833,341201.6340913,94
1658568850.11833,341201.6340943,107
1658568850.11833,341201.6341009,104
1658568850.11833,341201.6341091,119
1658568850.13029,341201.6341184,260
1658568850.13029,341201.6341307,598
1658568850.13029,341201.6341423,987
1658568850.13029,341201.6341574,1048
1658568850.13029,341201.6341709,547
1658568850.13029,341201.6341831,-114
1658568850.13029,341202.2195942,-330
1658568850.13029,341202.2196167,-133
1658568850.13029,341202.2196271,19
1658568850.13029,341202.2196305,21
1658568850.13029,341202.2196343,31
1658568850.13029,341202.2196366,58
1658568850.13029,341202.2196395,53
1658568850.13029,341202.2196418,43
1658568850.13029,341202.2196439,58
1658568850.13029,341202.219646,77
1658568850.13029,341202.2196482,75
1658568850.13029,341202.2196503,80
1658568850.13029,341202.2196524,97
1658568850.13029,341202.2196546,92
1658568850.13029,341202.2196572,92
1658568850.13029,341202.2196643,124
1658568850.13029,341202.2196732,148
1658568850.13029,341202.2196785,160
1658568850.6488,341202.2196887,187
1658568850.6488,341202.2196951,218
1658568850.6488,341202.2196975,250
1658568850.6488,341202.2197011,289
1658568850.6488,341202.2197098,309
1658568850.6488,341202.2197645,316
1658568850.6488,341202.2197709,343
1658568850.6488,341202.2197743,360
1658568850.6488,341202.2197822,338
1658568850.6488,341202.2197914,313
1658568850.6488,341202.2198018,284
1658568850.6488,341202.2198064,233
1658568850.6488,341202.2198105,182
1658568850.6488,341202.2198126,133
1658568850.6488,341202.2198147,82
1658568850.6488,341202.2198169,43
1658568850.6488,341202.2198191,21
1658568850.6488,341202.2198212,0
1658568850.6488,341202.2198234,-4
1658568850.6488,341202.2198254,4
1658568850.6488,341202.2198275,4
1658568850.6488,341202.2198296,4
1658568850.6488,341202.2198317,19
1658568850.6488,341202.2198337,29
1658568850.6488,341202.2198358,24
1658568850.6488,341202.2198378,34
1658568850.6488,341202.21984,53
1658568850.6488,341202.2198421,65
1658568850.6488,341202.2198441,60
1658568850.6488,341202.2198462,55
1658568850.6488,341202.2198484,58
1658568850.6488,341202.2198505,68
1658568850.6488,341202.2198525,77
1658568850.6488,341202.2198546,77
1658568850.6488,341202.2198567,70
1658568850.6488,341202.2198588,68
1658568850.6488,341202.2198608,65
1658568850.6488,341202.2198629,63
1658568850.6488,341202.2198649,72
1658568850.6488,341202.219867,65
1658568850.6488,341202.219869,46
1658568850.6488,341202.2198711,55
1658568850.6488,341202.2198733,75
1658568850.6488,341202.2198754,68
1658568850.6488,341202.2198776,51
1658568850.6488,341202.2198797,55
1658568850.6488,341202.2198818,55
1658568850.6488,341202.2198838,34
1658568850.6488,341202.2198859,29
1658568850.6488,341202.2198882,46
1658568850.66034,341202.2198903,48
1658568850.66034,341202.2198924,41
1658568850.66034,341202.2198945,48
1658568850.66034,341202.2198965,53
1658568850.66034,341202.2198986,46
1658568850.66034,341202.7564529,53
1658568850.66034,341202.7564748,85
1658568850.66034,341202.7564891,107
1658568850.66034,341202.7564992,109
1658568850.66034,341202.7565065,104
1658568850.66034,341202.7565156,104
1658568850.66034,341202.7565228,102
1658568850.66034,341202.7565354,90
1658568850.66034,341202.7565486,63
1658568850.66034,341202.7565625,29
1658568850.66034,341202.7565757,19
1658568850.66034,341202.7565895,34
1658568850.66034,341202.7566032,41
1658568850.66034,341202.7566166,41
1658568850.66034,341202.7566302,48
1658568850.66034,341202.7566437,41
1658568850.66034,341202.7566573,51
1658568850.66034,341202.7566722,189
1658568850.66034,341202.7566857,496
1658568851.18463,341202.7566985,820
1658568851.18463,341202.7567087,832
1658568851.18463,341202.7567163,360
1658568851.18463,341202.7567246,-199
1658568851.18463,341202.7567294,-343
1658568851.18463,341202.7567368,-163
1658568851.18463,341202.7567455,-24
1658568851.18463,341202.7567568,-2
1658568851.18463,341202.7567711,19
1658568851.18463,341202.7567848,51
1658568851.18463,341202.7567985,58
1658568851.18463,341202.7568121,60
1658568851.18463,341202.7568259,75
1658568851.18463,341202.7568406,82
1658568851.18463,341202.756851,92
1658568851.18463,341202.7568606,114
1658568851.18463,341202.7568732,121
1658568851.18463,341202.7568828,121
1658568851.18463,341202.7568907,143
1658568851.18463,341202.7569057,167
1658568851.18463,341202.7569137,177
1658568851.18463,341202.756918,189
1658568851.18463,341202.7569223,214
1658568851.18463,341202.7569254,238
1658568851.18463,341202.7569283,257
1658568851.18463,341202.7569312,279
1658568851.18463,341202.7569341,306
1658568851.18463,341202.756937,326
1658568851.18463,341202.7569399,330
1658568851.18463,341202.7569427,323
1658568851.18463,341202.7569457,313
1658568851.18463,341202.7569486,309
1658568851.18463,341202.7569515,296
1658568851.18463,341202.7569543,257
1658568851.18463,341202.7569572,204
1658568851.18463,341202.7569601,160
1658568851.18463,341202.7569629,121
1658568851.18463,341202.7569658,80
1658568851.18463,341202.7569687,53
1658568851.18463,341202.7569721,48
1658568851.18463,341202.7569782,36
1658568851.18463,341202.7569818,24
1658568851.18463,341202.7569868,31
1658568851.18463,341202.7569905,48
1658568851.18463,341202.7569941,51
1658568851.18463,341202.7569976,38
1658568851.18463,341202.7570031,31
1658568851.18463,341202.7570063,48
1658568851.18463,341202.7570093,77
1658568851.18463,341202.7570121,80
1658568851.1956,341202.7570149,70
1658568851.1956,341202.7570179,72
1658568851.1956,341202.7570208,72
1658568851.1956,341202.7570237,65
1658568851.1956,341203.2913397,60
1658568851.1956,341203.2913605,63
1658568851.1956,341203.2913683,65
1658568851.1956,341203.2913751,68
1658568851.1956,341203.2913822,58
1658568851.1956,341203.2913878,53
1658568851.1956,341203.2913946,46
1658568851.1956,341203.2913999,29
1658568851.1956,341203.2914034,26
1658568851.1956,341203.2914092,34
1658568851.1956,341203.2914166,34
1658568851.1956,341203.2914205,36
1658568851.1956,341203.2914258,43
1658568851.1956,341203.29143,34
1658568851.1956,341203.2914338,21
1658568851.1956,341203.2914371,26
1658568851.1956,341203.2914408,31
1658568851.1956,341203.2914464,31
1658568851.1956,341203.2914502,43
1658568851.1956,341203.2914555,51
1658568851.87559,341203.2914591,38
1658568851.87559,341203.2914632,24
1658568851.87559,341203.2914676,38
1658568851.87559,341203.2914733,72
1658568851.87559,341203.2914781,99
1658568851.87559,341203.2914824,109
1658568851.87559,341203.2914855,116
1658568851.87559,341203.2914891,114
1658568851.87559,341203.2914925,107
1658568851.87559,341203.2914983,104
1658568851.87559,341203.2915021,90
1658568851.87559,341203.2915081,48
1658568851.87559,341203.2915128,31
1658568851.87559,341203.2915162,53
1658568851.87559,341203.2915246,58
1658568851.87559,341203.2915305,46
1658568851.87559,341203.2915345,55
1658568851.87559,341203.2915381,60
1658568851.87559,341203.2915421,63
1658568851.87559,341203.2915458,160
1658568851.87559,341203.2915528,440
1658568851.87559,341203.2915587,854
1658568851.87559,341203.2915643,1133
1658568851.87559,341203.2915681,897
1658568851.87559,341203.2915719,189
1658568851.87559,341203.2915773,-330
1658568851.87559,341203.2915811,-265
1658568851.87559,341203.2915857,-29
1658568851.87559,341203.2915933,9
1658568851.87559,341203.2915984,7
1658568851.87559,341203.2916054,55
1658568851.87559,341203.2916105,58
1658568851.87559,341203.2916143,41
1658568851.87559,341203.2916181,65
1658568851.87559,341203.2916202,90
1658568851.87559,341203.2916223,94
1658568851.87559,341203.2916246,99
1658568851.87559,341203.291627,104
1658568851.87559,341203.291629,114
1658568851.87559,341203.2916317,136
1658568851.87559,341203.2916417,160
1658568851.87559,341203.29165,184
1658568851.87559,341203.2916525,214
1658568851.87559,341203.2916546,231
1658568851.87559,341203.2916568,238
1658568851.87559,341203.2916612,274
1658568851.87559,341203.291673,311
1658568851.87559,341203.2916785,340
1658568851.87559,341203.2916808,374
1658568851.87559,341203.29169,391
1658568851.88357,341203.291701,382
1658568851.88357,341203.2917065,377
1658568851.88357,341203.2917131,377
1658568851.88357,341203.9734984,360
1658568851.88357,341203.9735104,318
1658568851.88357,341203.9735139,260
1658568851.88357,341203.9735168,187
1658568851.88357,341203.9735194,111
1658568851.88357,341203.9735219,68
1658568851.88357,341203.9735243,48
1658568851.88357,341203.9735267,34
1658568851.88357,341203.9735292,21
1658568851.88357,341203.973533,9
1658568851.88357,341203.9735414,-9
1658568851.88357,341203.9735465,-12
1658568851.88357,341203.9735505,7
1658568851.88357,341203.9735554,17
1658568851.88357,341203.9735607,14
1658568851.88357,341203.9735667,12
1658568851.88357,341203.9735781,9
1658568851.88357,341203.973581,14
1658568851.88357,341203.9735833,24
1658568851.88357,341203.9735854,26
1658568851.88357,341203.9735875,24
1658568852.36303,341203.9735896,24
1658568852.36303,341203.9735917,29
1658568852.36303,341203.9735936,29
1658568852.36303,341203.9735956,24
1658568852.36303,341203.9735975,26
1658568852.36303,341203.9735996,21
1658568852.36303,341203.9736015,9
1658568852.36303,341203.9736034,19
1658568852.36303,341203.9736056,31
1658568852.36303,341203.973612,26
1658568852.36303,341203.9736229,19
1658568852.36303,341203.9736337,26
1658568852.36303,341203.973638,38
1658568852.36303,341203.9736402,41
1658568852.36303,341203.9736424,34
1658568852.36303,341203.9736445,36
1658568852.36303,341203.9736466,43
1658568852.36303,341203.9736487,51
1658568852.36303,341203.9736508,53
1658568852.36303,341203.9736529,53
1658568852.36303,341203.973655,55
1658568852.36303,341203.9736572,63
1658568852.36303,341203.9736593,90
1658568852.36303,341203.9736614,107
1658568852.36303,341203.9736635,104
1658568852.36303,341203.9736656,109
1658568852.36303,341203.9736677,109
1658568852.36303,341203.9736698,99
1658568852.36303,341203.9736719,90
1658568852.36303,341203.973674,65
1658568852.36303,341203.973676,38
1658568852.36303,341203.9736781,31
1658568852.36303,341203.9736802,38
1658568852.36303,341203.9736823,43
1658568852.36303,341203.9736844,43
1658568852.36303,341203.9736865,48
1658568852.36303,341203.9736888,48
1658568852.36303,341203.973691,58
1658568852.36303,341203.973693,177
1658568852.36303,341203.9736952,513
1658568852.36303,341203.9736974,973
1658568852.36303,341203.9736995,1189
1658568852.36303,341203.9737016,822
1658568852.36303,341203.9737037,36
1658568852.36303,341203.9737059,-406
1658568852.36303,341203.973708,-211
1658568852.36303,341203.9737102,17
1658568852.36303,341203.9737143,-14
1658568852.36303,341203.9737176,-17
1658568852.36303,341203.9737373,46
1658568852.374,341203.9737488,48
1658568852.374,341203.973755,43
1658568852.374,341204.4610871,65
1658568852.374,341204.4610999,82
1658568852.374,341204.461104,94
1658568852.374,341204.4611062,104
1658568852.374,341204.4611084,111
1658568852.374,341204.4611105,128
1658568852.374,341204.4611126,143
1658568852.374,341204.4611147,155
1658568852.374,341204.4611168,175
1658568852.374,341204.4611189,199
1658568852.374,341204.461121,218
1658568852.374,341204.4611231,245
1658568852.374,341204.4611254,272
1658568852.374,341204.4611275,287
1658568852.374,341204.4611295,299
1658568852.374,341204.4611316,326
1658568852.374,341204.4611337,347
1658568852.374,341204.4611357,350
1658568852.374,341204.4611379,335
1658568852.374,341204.4611399,318
1658568852.374,341204.461142,289
1658568852.374,341204.4611441,245
1658568852.9464,341204.4611462,189
1658568852.9464,341204.4611482,133
1658568852.9464,341204.4611501,85
1658568852.9464,341204.4611521,34
1658568852.9464,341204.4611543,-9
1658568852.9464,341204.4611563,-17
1658568852.9464,341204.4611583,-2
1658568852.9464,341204.4611603,-4
1658568852.9464,341204.4611622,-7
1658568852.9464,341204.4611641,-4
1658568852.9464,341204.4611661,-4
1658568852.9464,341204.4611682,9
1658568852.9464,341204.4611701,38
1658568852.9464,341204.4611721,43
1658568852.9464,341204.4611742,24
1658568852.9464,341204.4611762,14
1658568852.9464,341204.4611798,26
1658568852.9464,341204.4611898,38
1658568852.9464,341204.4611994,46
1658568852.9464,341204.4612111,53
1658568852.9464,341204.4612239,63
1658568852.9464,341204.4612356,60
1658568852.9464,341204.4612402,38
1658568852.9464,341204.4612424,29
1658568852.9464,341204.4612446,36
1658568852.9464,341204.4612467,24
1658568852.9464,341204.461249,2
1658568852.9464,341204.4612511,2
1658568852.9464,341204.4612532,9
1658568852.9464,341204.4612553,7
1658568852.9464,341204.4612574,7
1658568852.9464,341204.4612595,9
1658568852.9464,341204.4612616,12
1658568852.9464,341204.4612638,14
1658568852.9464,341204.4612659,12
1658568852.9464,341204.4612681,2
1658568852.9464,341204.4612702,4
1658568852.9464,341204.4612723,17
1658568852.9464,341204.4612745,14
1658568852.9464,341204.4612766,9
1658568852.9464,341204.4612786,7
1658568852.9464,341204.4612807,4
1658568852.9464,341204.4612829,24
1658568852.9464,341204.461285,55
1658568852.9464,341204.4612871,75
1658568852.9464,341204.4612893,85
1658568852.9464,341204.4612914,87
1658568852.9464,341204.4612934,92
1658568852.9464,341204.4612956,92
1658568852.9464,341204.4612977,75
1658568852.95737,341204.4613,46
1658568852.95737,341205.0471564,24
1658568852.95737,341205.0471776,19
1658568852.95737,341205.047183,31
1658568852.95737,341205.0471895,38
1658568852.95737,341205.0471946,36
1658568852.95737,341205.0472012,41
1658568852.95737,341205.0472061,46
1658568852.95737,341205.047212,80
1658568852.95737,341205.0472152,306
1658568852.95737,341205.0472183,768
1658568852.95737,341205.0472218,1209
1658568852.95737,341205.0472341,1219
1658568852.95737,341205.0472442,562
1658568852.95737,341205.0472516,-274
1658568852.95737,341205.0472613,-428
1658568852.95737,341205.0472657,-87
1658568852.95737,341205.0472699,-12
1658568852.95737,341205.047272,-104
1658568852.95737,341205.0472743,-51
1658568852.95737,341205.0472764,-9
1658568852.95737,341205.0472786,-24
1658568852.95737,341205.0472807,2
1658568852.95737,341205.0472828,29
1658568853.48715,341205.0472849,26
1658568853.48715,341205.0472873,31
1658568853.48715,341205.0472893,43
1658568853.48715,341205.0472913,58
1658568853.48715,341205.0472939,82
1658568853.48715,341205.0472983,109
1658568853.48715,341205.0473026,121
1658568853.48715,341205.0473049,121
1658568853.48715,341205.047307,141
1658568853.48715,341205.0473089,180
1658568853.48715,341205.0473109,206
1658568853.48715,341205.0473129,226
1658568853.48715,341205.0473149,255
1658568853.48715,341205.0473169,284
1658568853.48715,341205.047319,299
1658568853.48715,341205.0473209,306
1658568853.48715,341205.0473231,309
1658568853.48715,341205.0473253,299
1658568853.48715,341205.0473273,272
1658568853.48715,341205.0473295,231
1658568853.48715,341205.0473315,182
1658568853.48715,341205.0473337,131
1658568853.48715,341205.0473357,87
1658568853.48715,341205.0473378,53
1658568853.48715,341205.0473401,29
1658568853.48715,341205.0473422,14
1658568853.48715,341205.0473443,7
1658568853.48715,341205.0473464,9
1658568853.48715,341205.0473485,17
1658568853.48715,341205.0473521,17
1658568853.48715,341205.0473589,19
1658568853.48715,341205.0473635,26
1658568853.48715,341205.0473701,36
1658568853.48715,341205.0473736,46
1658568853.48715,341205.0473772,46
1658568853.48715,341205.0473793,48
1658568853.48715,341205.0473815,60
1658568853.48715,341205.047384,65
1658568853.48715,341205.0473862,63
1658568853.48715,341205.0473888,53
1658568853.48715,341205.0473934,51
1658568853.48715,341205.0473999,63
1658568853.48715,341205.0474041,65
1658568853.48715,341205.0474083,60
1658568853.48715,341205.0474148,60
1658568853.48715,341205.0474206,48
1658568853.48715,341205.047427,48
1658568853.48715,341205.047432,60
1658568853.48715,341205.0474369,58
1658568853.48715,341205.047439,53
1658568853.49712,341205.5834227,46
1658568853.49712,341205.5834392,38
1658568853.49712,341205.5834479,41
1658568853.49712,341205.5834523,48
1658568853.49712,341205.5834579,51
1658568853.49712,341205.5834639,36
1658568853.49712,341205.5834692,17
1658568853.49712,341205.5834731,12
1658568853.49712,341205.583482,14
1658568853.49712,341205.5834912,9
1658568853.49712,341205.5834995,4
1658568853.49712,341205.5835086,2
1658568853.49712,341205.5835168,4
1658568853.49712,341205.5835212,9
1658568853.49712,341205.5835252,26
1658568853.49712,341205.5835293,51
1658568853.49712,341205.583535,58
1658568853.49712,341205.583539,58
1658568853.49712,341205.5835443,60
1658568853.49712,341205.5835482,53
1658568853.49712,341205.5835521,21
1658568853.49712,341205.583556,-19
1658568853.49712,341205.5835597,-43
1658568853.49712,341205.5835656,-43
1658568854.01959,341205.5835729,-34
1658568854.01959,341205.5835802,-36
1658568854.01959,341205.5835873,-43
1658568854.01959,341205.5835945,-46
1658568854.01959,341205.5836015,-21
1658568854.01959,341205.5836058,138
1658568854.01959,341205.58361,542
1658568854.01959,341205.5836141,1009
1658568854.01959,341205.583618,1131
1658568854.01959,341205.5836222,627
1658568854.01959,341205.583626,-192
1658568854.01959,341205.5836323,-510
1658568854.01959,341205.5836362,-214
1658568854.01959,341205.5836402,-24
1658568854.01959,341205.5836455,-94
1658568854.01959,341205.5836492,-87
1658568854.01959,341205.583658,-34
1658568854.01959,341205.5836652,-38
1658568854.01959,341205.5836741,-34
1658568854.01959,341205.5836813,-7
1658568854.01959,341205.5836899,0
1658568854.01959,341205.5836943,7
1658568854.01959,341205.5837002,26
1658568854.01959,341205.5837044,36
1658568854.01959,341205.5837086,46
1658568854.01959,341205.5837138,63
1658568854.01959,341205.5837178,75
1658568854.01959,341205.5837231,87
1658568854.01959,341205.5837281,111
1658568854.01959,341205.5837337,133
1658568854.01959,341205.5837406,148
1658568854.01959,341205.5837496,167
1658568854.01959,341205.5837576,201
1658568854.01959,341205.5837668,226
1658568854.01959,341205.5837731,238
1658568854.01959,341205.5837794,245
1658568854.01959,341205.5837851,253
1658568854.01959,341205.5837892,248
1658568854.01959,341205.5837949,233
1658568854.01959,341205.5837988,201
1658568854.01959,341205.5838044,160
1658568854.01959,341205.5838084,119
1658568854.01959,341205.5838122,75
1658568854.01959,341205.5838161,41
1658568854.01959,341205.5838208,12
1658568854.01959,341205.5838297,-9
1658568854.01959,341205.5838387,-19
1658568854.01959,341205.583846,-26
1658568854.01959,341205.5838552,-34
1658568854.01959,341206.1181316,-26
1658568854.02758,341206.1181559,-19
1658568854.02758,341206.118171,-17
1658568854.02758,341206.1181787,-12
1658568854.02758,341206.1181886,-2
1658568854.02758,341206.1181963,-2
1658568854.02758,341206.1182053,4
1658568854.02758,341206.1182104,12
1658568854.02758,341206.118218,7
1658568854.02758,341206.118226,-7
1658568854.02758,341206.1182342,-14
1658568854.02758,341206.1182423,-19
1658568854.02758,341206.1182457,-29
1658568854.02758,341206.1182592,-26
1658568854.02758,341206.118267,-24
1658568854.02758,341206.1182762,-41
1658568854.02758,341206.1182846,-63
1658568854.02758,341206.1182907,-70
1658568854.02758,341206.1182995,-63
1658568854.02758,341206.1183081,-55
1658568854.02758,341206.1183118,-55
1658568854.02758,341206.1183175,-58
1658568854.02758,341206.1183236,-70
1658568854.02758,341206.1183269,-82
1658568854.02758,341206.1183328,-82
1658568854.54745,341206.1183383,-80
1658568854.54745,341206.1183417,-85
1658568854.54745,341206.1183454,-90
1658568854.54745,341206.1183487,-87
1658568854.54745,341206.1183563,-85
1658568854.54745,341206.1183623,-77
1658568854.54745,341206.1183701,-72
1658568854.54745,341206.1183795,-68
1658568854.54745,341206.1183873,-51
1658568854.54745,341206.1183966,-19
1658568854.54745,341206.1184054,2
1658568854.54745,341206.1184146,14
1658568854.54745,341206.1184233,21
1658568854.54745,341206.1184306,21
1658568854.54745,341206.1184338,19
1658568854.54745,341206.1184368,4
1658568854.54745,341206.1184398,-29
1658568854.54745,341206.1184428,-58
1658568854.54745,341206.1184459,-63
1658568854.54745,341206.11845,-60
1658568854.54745,341206.1184561,-65
1658568854.54745,341206.1184604,-60
1658568854.54745,341206.1184675,-46
1658568854.54745,341206.1184741,-43
1658568854.54745,341206.1184774,-29
1658568854.54745,341206.1184849,77
1658568854.54745,341206.1184887,340
1658568854.54745,341206.1184939,678
1658568854.54745,341206.1184982,807
1658568854.54745,341206.118503,455
1658568854.54745,341206.1185072,-141
1658568854.54745,341206.1185157,-403
1658568854.54745,341206.1185229,-255
1658568854.54745,341206.1185289,-99
1658568854.54745,341206.1185342,-75
1658568854.54745,341206.1185402,-58
1658568854.54745,341206.118546,-26
1658568854.54745,341206.118552,-14
1658568854.54745,341206.1185587,0
1658568854.54745,341206.1185671,9
1658568854.54745,341206.1185731,17
1658568854.54745,341206.11858,36
1658568854.54745,341206.1185868,51
1658568854.54745,341206.1185955,60
1658568854.54745,341206.1186014,80
1658568854.54745,341206.1186075,92
1658568854.54745,341206.1186142,107
1658568854.54745,341206.118622,136
1658568854.54745,341206.6548283,160
1658568854.54745,341206.6548504,182
1658568854.55642,341206.6548604,204
1658568854.55642,341206.6548632,223
1658568854.55642,341206.6548655,243
1658568854.55642,341206.6548678,267
1658568854.55642,341206.65487,282
1658568854.55642,341206.6548721,274
1658568854.55642,341206.654876,262
1658568854.55642,341206.6548898,257
1658568854.55642,341206.6548962,255
1658568854.55642,341206.6548985,233
1658568854.55642,341206.6549007,192
1658568854.55642,341206.6549028,133
1658568854.55642,341206.6549049,87
1658568854.55642,341206.654908,68
1658568854.55642,341206.6549212,41
1658568854.55642,341206.6549277,4
1658568854.55642,341206.6549302,-14
1658568854.55642,341206.6549324,-14
1658568854.55642,341206.6549345,-14
1658568854.55642,341206.6549371,-17
1658568854.55642,341206.6549475,-9
1658568854.55642,341206.6549567,12
1658568854.55642,341206.6549594,29
1658568854.55642,341206.6549616,24
1658568855.23925,341206.6549638,21
1658568855.23925,341206.6549659,34
1658568855.23925,341206.6549679,38
1658568855.23925,341206.6549699,36
1658568855.23925,341206.6549719,43
1658568855.23925,341206.6549739,55
1658568855.23925,341206.6549759,63
1658568855.23925,341206.654979,60
1658568855.23925,341206.6549873,55
1658568855.23925,341206.6549939,55
1658568855.23925,341206.6550005,63
1658568855.23925,341206.6550067,60
1658568855.23925,341206.6550129,51
1658568855.23925,341206.6550214,48
1658568855.23925,341206.6550298,55
1658568855.23925,341206.6550323,60
1658568855.23925,341206.6550345,63
1658568855.23925,341206.6550367,65
1658568855.23925,341206.6550388,65
1658568855.23925,341206.6550415,63
1658568855.23925,341206.6550435,70
1658568855.23925,341206.6550456,82
1658568855.23925,341206.6550477,92
1658568855.23925,341206.6550499,90
1658568855.23925,341206.655052,85
1658568855.23925,341206.6550541,87
1658568855.23925,341206.6550562,107
1658568855.23925,341206.6550583,150
1658568855.23925,341206.6550604,189
1658568855.23925,341206.6550626,216
1658568855.23925,341206.6550647,228
1658568855.23925,341206.6550668,216
1658568855.23925,341206.6550689,214
1658568855.23925,341206.6550719,211
1658568855.23925,341206.6550741,172
1658568855.23925,341206.6550765,136
1658568855.23925,341206.6550786,145
1658568855.23925,341206.6550808,160
1658568855.23925,341206.6550829,145
1658568855.23925,341206.655085,138
1658568855.23925,341206.6550872,155
1658568855.23925,341206.6550892,160
1658568855.23925,341206.6550914,189
1658568855.23925,341206.6550934,372
1658568855.23925,341206.6550955,742
1658568855.23925,341206.6550977,1150
1658568855.23925,341206.6550998,1214
1658568855.23925,341207.3374603,647
1658568855.23925,341207.3374804,-104
1658568855.23925,341207.3374964,-330
1658568855.25022,341207.3375099,-138
1658568855.25022,341207.3375196,-2
1658568855.25022,341207.3375288,29
1658568855.25022,341207.3375359,70
1658568855.25022,341207.3375438,99
1658568855.25022,341207.3375496,104
1658568855.25022,341207.337553,107
1658568855.25022,341207.3375553,111
1658568855.25022,341207.3375574,121
1658568855.25022,341207.3375595,138
1658568855.25022,341207.3375616,160
1658568855.25022,341207.3375637,180
1658568855.25022,341207.3375659,192
1658568855.25022,341207.337568,218
1658568855.25022,341207.3375701,245
1658568855.25022,341207.3375723,262
1658568855.25022,341207.3375744,282
1658568855.25022,341207.3375765,304
1658568855.25022,341207.3375786,326
1658568855.25022,341207.3375806,362
1658568855.25022,341207.3375828,411
1658568855.25022,341207.3375849,442
1658568855.25022,341207.337587,450
1658568855.25022,341207.3375891,452
1658568855.77299,341207.3375912,452
1658568855.77299,341207.3375932,435

1658568855.77299,341207.3375952,408
1658568855.77299,341207.3375972,379
1658568855.77299,341207.3375992,328
1658568855.77299,341207.3376011,265
1658568855.77299,341207.3376032,218
1658568855.77299,341207.3376051,177
1658568855.77299,341207.3376071,136
1658568855.77299,341207.3376091,109
1658568855.77299,341207.3376131,99
1658568855.77299,341207.3376218,90
1658568855.77299,341207.337629,85
1658568855.77299,341207.3376366,82
1658568855.77299,341207.3376431,85
1658568855.77299,341207.3376535,94
1658568855.77299,341207.3376598,102
1658568855.77299,341207.3376621,102
1658568855.77299,341207.337665,97
1658568855.77299,341207.3376671,92
1658568855.77299,341207.3376692,94
1658568855.77299,341207.3376713,104
1658568855.77299,341207.3376734,107
1658568855.77299,341207.337679,107
1658568855.77299,341207.3376908,104
1658568855.77299,341207.3376963,107
1658568855.77299,341207.3376993,111
1658568855.77299,341207.3377013,109
1658568855.77299,341207.3377037,104
1658568855.77299,341207.3377114,109
1658568855.77299,341207.3377221,102
1658568855.77299,341207.3377258,87
1658568855.77299,341207.3377295,90
1658568855.77299,341207.3377318,90
1658568855.77299,341207.3377339,87
1658568855.77299,341207.3377359,102
1658568855.77299,341207.3377392,109
1658568855.77299,341207.3377476,97
1658568855.77299,341207.3377579,85
1658568855.77299,341207.3377654,77
1658568855.77299,341207.3377758,94
1658568855.77299,341207.3377791,121
1658568855.77299,341207.3377821,143
1658568855.77299,341207.337785,150
1658568855.77299,341207.3377879,141
1658568855.77299,341207.3377909,131
1658568855.77299,341207.8737658,116
1658568855.77299,341207.873778,77
1658568855.77299,341207.8737825,46
1658568855.77299,341207.8737867,51
1658568855.78396,341207.8737891,63
1658568855.78396,341207.8737925,60
1658568855.78396,341207.8737948,53
1658568855.78396,341207.8737972,51
1658568855.78396,341207.8737994,46
1658568855.78396,341207.8738017,87
1658568855.78396,341207.873804,287
1658568855.78396,341207.8738062,691
1658568855.78396,341207.8738084,1102
1658568855.78396,341207.8738107,1080
1658568855.78396,341207.8738131,428
1658568855.78396,341207.8738154,-274
1658568855.78396,341207.8738177,-384
1658568855.78396,341207.8738199,-136
1658568855.78396,341207.873822,-26
1658568855.78396,341207.8738275,-51
1658568855.78396,341207.8738297,-36
1658568855.78396,341207.873832,7
1658568855.78396,341207.8738343,19
1658568855.78396,341207.8738366,24
1658568855.78396,341207.8738389,38
1658568855.78396,341207.8738413,46
1658568855.78396,341207.8738436,41
1658568855.78396,341207.8738458,58
1658568856.26035,341207.8738481,82
1658568856.26035,341207.8738503,94
1658568856.26035,341207.8738525,121
1658568856.26035,341207.8738546,143
1658568856.26035,341207.8738569,145
1658568856.26035,341207.8738592,167
1658568856.26035,341207.8738613,216
1658568856.26035,341207.8738635,250
1658568856.26035,341207.8738658,274
1658568856.26035,341207.8738679,304
1658568856.26035,341207.87387,328
1658568856.26035,341207.8738722,347
1658568856.26035,341207.8738742,352
1658568856.26035,341207.8738763,347
1658568856.26035,341207.8738786,347
1658568856.26035,341207.8738808,333
1658568856.26035,341207.8738831,291
1658568856.26035,341207.8738853,233
1658568856.26035,341207.8738877,180
1658568856.26035,341207.87389,131
1658568856.26035,341207.8738922,92
1658568856.26035,341207.8738945,68
1658568856.26035,341207.8738967,46
1658568856.26035,341207.8738989,21
1658568856.26035,341207.8739012,17
1658568856.26035,341207.8739034,26
1658568856.26035,341207.8739057,34
1658568856.26035,341207.8739079,36
1658568856.26035,341207.8739101,36
1658568856.26035,341207.8739124,41
1658568856.26035,341207.8739148,41
1658568856.26035,341207.873917,38
1658568856.26035,341207.8739195,46
1658568856.26035,341207.8739217,60
1658568856.26035,341207.8739241,68
1658568856.26035,341207.8739264,60
1658568856.26035,341207.8739287,58
1658568856.26035,341207.8739309,70
1658568856.26035,341207.8739333,82
1658568856.26035,341207.8739355,82
1658568856.26035,341207.8739378,80
1658568856.26035,341207.8739401,82
1658568856.26035,341207.8739426,87
1658568856.26035,341207.8739449,85
1658568856.26035,341207.8739471,85
1658568856.26035,341208.3607297,99
1658568856.26035,341208.3607503,107
1658568856.26035,341208.3607591,102
1658568856.26035,341208.3607668,104
1658568856.26035,341208.3607744,111
1658568856.27191,341208.360782,111
1658568856.27191,341208.3607896,109
1658568856.27191,341208.3607945,119
1658568856.27191,341208.3607982,138
1658568856.27191,341208.3608016,143
1658568856.27191,341208.3608073,136
1658568856.27191,341208.3608157,138
1658568856.27191,341208.3608301,145
1658568856.27191,341208.360842,133
1658568856.27191,341208.3608493,109
1658568856.27191,341208.3608589,65
1658568856.27191,341208.3608678,21
1658568856.27191,341208.360876,14
1658568856.27191,341208.3608825,19
1658568856.27191,341208.3608906,4
1658568856.27191,341208.3608971,-2
1658568856.27191,341208.3609057,19
1658568856.27191,341208.3609131,21
1658568856.27191,341208.3609214,34
1658568856.27191,341208.3609274,204
1658568856.27191,341208.3609357,571
1658568856.27191,341208.3609431,941
1658568856.27191,341208.3609513,951
1658568856.27191,341208.3609577,408
1658568856.88999,341208.3609662,-253
1658568856.88999,341208.3609752,-399
1658568856.88999,341208.3609817,-150
1658568856.88999,341208.3609882,-31
1658568856.88999,341208.3609948,-48
1658568856.88999,341208.3610018,-12
1658568856.88999,341208.3610105,19
1658568856.88999,341208.3610181,14
1658568856.88999,341208.3610264,36
1658568856.88999,341208.3610348,60
1658568856.88999,341208.3610413,58
1658568856.88999,341208.3610499,55
1658568856.88999,341208.3610564,72
1658568856.88999,341208.3610644,92
1658568856.88999,341208.3610708,107
1658568856.88999,341208.361079,124
1658568856.88999,341208.3610854,143
1658568856.88999,341208.3610937,155
1658568856.88999,341208.3610998,172
1658568856.88999,341208.3611084,199
1658568856.88999,341208.3611149,223
1658568856.88999,341208.3611235,238
1658568856.88999,341208.3611301,260
1658568856.88999,341208.3611387,289
1658568856.88999,341208.3611448,306
1658568856.88999,341208.3611531,306
1658568856.88999,341208.3611593,306
1658568856.88999,341208.3611675,301
1658568856.88999,341208.3611739,287
1658568856.88999,341208.3611821,260
1658568856.88999,341208.3611885,218
1658568856.88999,341208.3611968,165
1658568856.88999,341208.3612035,114
1658568856.88999,341208.3612118,75
1658568856.88999,341208.3612181,55
1658568856.88999,341208.3612261,43
1658568856.88999,341208.3612325,29
1658568856.88999,341208.3612409,12
1658568856.88999,341208.3612473,0
1658568856.88999,341208.3612557,2
1658568856.88999,341208.3612621,17
1658568856.88999,341208.3612704,29
1658568856.88999,341208.3612765,51
1658568856.88999,341208.3612846,55
1658568856.88999,341208.9949509,43
1658568856.88999,341208.9949696,43
1658568856.88999,341208.9949785,58
1658568856.88999,341208.9949847,63
1658568856.88999,341208.994991,65
1658568856.88999,341208.9949956,63
1658568856.90096,341208.9950013,41
1658568856.90096,341208.9950056,26
1658568856.90096,341208.9950118,55
1658568856.90096,341208.9950168,77
1658568856.90096,341208.9950227,65
1658568856.90096,341208.995027,58
1658568856.90096,341208.9950328,51
1658568856.90096,341208.9950379,29
1658568856.90096,341208.9950433,21
1658568856.90096,341208.9950471,36
1658568856.90096,341208.9950514,53
1658568856.90096,341208.995057,68
1658568856.90096,341208.995061,65
1658568856.90096,341208.9950661,53
1658568856.90096,341208.99507,70
1658568856.90096,341208.9950752,107
1658568856.90096,341208.9950792,126
1658568856.90096,341208.9950943,124
1658568856.90096,341208.9951005,126
1658568856.90096,341208.9951046,126
1658568856.90096,341208.9951086,111
1658568856.90096,341208.9951137,102
1658568856.90096,341208.9951178,77
1658568856.90096,341208.9951257,38
1658568857.48295,341208.9951392,36
1658568857.48295,341208.9951462,51
1658568857.48295,341208.9951548,38
1658568857.48295,341208.9951632,31
1658568857.48295,341208.9951701,38
1658568857.48295,341208.9951748,29
1658568857.48295,341208.9951789,14
1658568857.48295,341208.9951827,97
1658568857.48295,341208.9951863,367
1658568857.48295,341208.9951901,773
1658568857.48295,341208.9951953,1024
1658568857.48295,341208.9952018,754
1658568857.48295,341208.9952075,68
1658568857.48295,341208.9952124,-384
1658568857.48295,341208.9952175,-296
1658568857.48295,341208.995221,-94
1658568857.48295,341208.9952246,-63
1658568857.48295,341208.9952299,-60
1658568857.48295,341208.9952338,-29
1658568857.48295,341208.9952389,-24
1658568857.48295,341208.9952439,-12
1658568857.48295,341208.9952471,19
1658568857.48295,341208.9952506,31
1658568857.48295,341208.9952556,34
1658568857.48295,341208.9952589,51
1658568857.48295,341208.9952625,65
1658568857.48295,341208.9952676,77
1658568857.48295,341208.9952717,92
1658568857.48295,341208.9952749,116
1658568857.48295,341208.9952782,141
1658568857.48295,341208.9952836,155
1658568857.48295,341208.9952884,177
1658568857.48295,341208.9952928,209
1658568857.48295,341208.9952978,238
1658568857.48295,341208.9953013,255
1658568857.48295,341208.9953049,284
1658568857.48295,341208.99531,311
1658568857.48295,341208.9953144,316
1658568857.48295,341208.9953176,318
1658568857.48295,341208.995323,318
1658568857.48295,341208.9953297,294
1658568857.48295,341208.9953333,265
1658568857.48295,341208.9953413,240
1658568857.48295,341209.579606,187
1658568857.48295,341209.5796317,126
1658568857.48295,341209.5796371,80
1658568857.48295,341209.5796394,41
1658568857.48295,341209.5796416,14
1658568857.48295,341209.5796437,4
1658568857.48295,341209.5796458,4
1658568857.49292,341209.5796479,4
1658568857.49292,341209.5796501,-2
1658568857.49292,341209.5796523,-17
1658568857.49292,341209.5796546,-24
1658568857.49292,341209.5796574,-12
1658568857.49292,341209.5796619,4
1658568857.49292,341209.5796685,12
1658568857.49292,341209.5796729,17
1658568857.49292,341209.5796788,19
1658568857.49292,341209.5796831,2
1658568857.49292,341209.5796895,-7
1658568857.49292,341209.5796953,12
1658568857.49292,341209.5797015,26
1658568857.49292,341209.5797051,29
1658568857.49292,341209.5797081,26
1658568857.49292,341209.5797111,21
1658568857.49292,341209.5797141,29
1658568857.49292,341209.579717,29
1658568857.49292,341209.5797199,12
1658568857.49292,341209.579736,17
1658568857.49292,341209.5797391,46
1658568857.49292,341209.5797411,51
1658568857.49292,341209.5797565,41
1658568857.49292,341209.5797587,53
1658568857.91629,341209.5797607,65
1658568857.91629,341209.5797629,63
1658568857.91629,341209.5797651,77
1658568857.91629,341209.5797671,99
1658568857.91629,341209.5797691,114
1658568857.91629,341209.5797711,119
1658568857.91629,341209.5797741,99
1658568857.91629,341209.5797829,87
1658568857.91629,341209.5797878,90
1658568857.91629,341209.5797986,70
1658568857.91629,341209.5798022,36
1658568857.91629,341209.5798154,21
1658568857.91629,341209.5798268,24
1658568857.91629,341209.5798506,29
1658568857.91629,341209.579859,36
1658568857.91629,341209.5798779,48
1658568857.91629,341209.5798824,43
1658568857.91629,341209.5798871,29
1658568857.91629,341209.5798933,80
1658568857.91629,341209.5799021,313
1658568857.91629,341209.5799154,744
1658568857.91629,341209.5799196,1138
1658568857.91629,341209.5799237,1058
1658568857.91629,341209.5799274,364
1658568857.91629,341209.5799295,-326
1658568857.91629,341209.5799352,-394
1658568857.91629,341209.5799468,-133
1658568857.91629,341209.5799522,-53
1658568857.91629,341209.5799545,-77
1658568857.91629,341209.5799568,-31
1658568857.91629,341209.5799589,4
1658568857.91629,341209.5799611,0
1658568857.91629,341209.5799632,9
1658568857.91629,341209.5799652,29
1658568857.91629,341209.5799674,36
1658568857.91629,341209.5799695,46
1658568857.91629,341209.5799717,63
1658568857.91629,341209.5799736,72
1658568857.91629,341209.5799757,90
1658568857.91629,341209.5799777,116
1658568857.91629,341209.5799798,128
1658568857.91629,341209.5799819,138
1658568857.91629,341210.0208429,165
1658568857.91629,341210.0208609,204
1658568857.91629,341210.020866,228
1658568857.91629,341210.0208719,253
1658568857.91629,341210.0208768,287
1658568857.91629,341210.0208818,318
1658568857.91629,341210.0208861,335
1658568857.91629,341210.0208899,330
1658568857.92741,341210.0208939,318
1658568857.92741,341210.0208993,309
1658568857.92741,341210.0209034,291
1658568857.92741,341210.0209073,248
1658568857.92741,341210.0209132,177
1658568857.92741,341210.0209183,107
1658568857.92741,341210.0209235,63
1658568857.92741,341210.0209273,36
1658568857.92741,341210.0209326,9
1658568857.92741,341210.0209359,-14
1658568857.92741,341210.0209398,-26
1658568857.92741,341210.0209451,-38
1658568857.92741,341210.0209487,-55
1658568857.92741,341210.0209524,-43
1658568857.92741,341210.0209561,-24
1658568857.92741,341210.0209605,-21
1658568857.92741,341210.0209655,-29
1658568857.92741,341210.0209695,-31
1658568857.92741,341210.0209745,-31
1658568857.92741,341210.0209798,-21
1658568857.92741,341210.0209833,-12
1658568857.92741,341210.0209867,-14
1658568857.92741,341210.02099,-26
1658568857.92741,341210.0209934,-36
1658568858.56233,341210.0209969,-21
1658568858.56233,341210.0210005,4
1658568858.56233,341210.0210037,12
1658568858.56233,341210.0210072,4
1658568858.56233,341210.0210106,4
1658568858.56233,341210.0210162,-2
1658568858.56233,341210.0210202,-14
1658568858.56233,341210.0210238,-4
1658568858.56233,341210.0210276,14
1658568858.56233,341210.0210344,12
1658568858.56233,341210.0210395,2
1658568858.56233,341210.0210468,2
1658568858.56233,341210.0210527,-4
1658568858.56233,341210.0210562,-14
1658568858.56233,341210.02107,4
1658568858.56233,341210.0210826,46
1658568858.56233,341210.0210921,70
1658568858.56233,341210.0210995,75
1658568858.56233,341210.0211083,70
1658568858.56233,341210.021113,63
1658568858.56233,341210.0211234,55
1658568858.56233,341210.0211292,36
1658568858.56233,341210.0211368,4
1658568858.56233,341210.0211497,-12
1658568858.56233,341210.0211613,-31
1658568858.56233,341210.0211742,-36
1658568858.56233,341210.0211815,12
1658568858.56233,341210.0211848,51
1658568858.56233,341210.0211967,36
1658568858.56233,341210.0212111,7
1658568858.56233,341210.0212205,4
1658568858.56233,341210.021232,148
1658568858.56233,341210.0212433,545
1658568858.56233,341210.0212569,1043
1658568858.56233,341210.0212709,1245
1658568858.56233,341210.0212838,793
1658568858.56233,341210.0212976,-65
1658568858.56233,341210.0213111,-479
1658568858.56233,341210.0213246,-253
1658568858.56233,341210.0213382,-63
1658568858.56233,341210.0213521,-94
1658568858.56233,341210.6527352,-72
1658568858.56233,341210.6527517,-34
1658568858.56233,341210.6527573,-60
1658568858.56233,341210.6527706,-70
1658568858.56233,341210.6527791,-55
1658568858.56233,341210.6527893,-55
1658568858.56233,341210.6528011,-46
1658568858.56233,341210.6528097,-26
1658568858.56233,341210.6528201,-24
1658568858.58427,341210.6528315,-17
1658568858.58427,341210.6528444,2
1658568858.58427,341210.6528567,34
1658568858.58427,341210.6528658,72
1658568858.58427,341210.6528727,82
1658568858.58427,341210.6528817,87
1658568858.58427,341210.6528843,119
1658568858.58427,341210.6528865,128
1658568858.58427,341210.6528886,131
1658568858.58427,341210.6528909,172
1658568858.58427,341210.652893,233
1658568858.58427,341210.6528963,248
1658568858.58427,341210.6529096,216
1658568858.58427,341210.6529158,201
1658568858.58427,341210.652922,187
1658568858.58427,341210.6529307,131
1658568858.58427,341210.6529343,85
1658568858.58427,341210.652939,63
1658568858.58427,341210.652942,12
1658568858.58427,341210.6529453,-48
1658568858.58427,341210.6529485,-68
1658568858.58427,341210.6529533,-70
1658568858.58427,341210.6529563,-70
1658568858.58427,341210.6529595,-70
1658568859.08954,341210.6529637,-72
1658568859.08954,341210.6529667,-72
1658568859.08954,341210.6529698,-55
1658568859.08954,341210.6529727,-41
1658568859.08954,341210.6529756,-34
1658568859.08954,341210.6529785,-43
1658568859.08954,341210.6529814,-55
1658568859.08954,341210.6529844,-21
1658568859.08954,341210.6529874,7
1658568859.08954,341210.6529904,-9
1658568859.08954,341210.6529933,-34
1658568859.08954,341210.6529964,-19
1658568859.08954,341210.6529992,9
1658568859.08954,341210.6530021,0
1658568859.08954,341210.653005,-17
1658568859.08954,341210.6530079,12
1658568859.08954,341210.6530107,43
1658568859.08954,341210.6530135,34
1658568859.08954,341210.6530175,19
1658568859.08954,341210.653023,17
1658568859.08954,341210.6530259,12
1658568859.08954,341210.6530299,19
1658568859.08954,341210.6530329,29
1658568859.08954,341210.6530359,26
1658568859.08954,341210.6530388,21
1658568859.08954,341210.6530419,24
1658568859.08954,341210.6530462,26
1658568859.08954,341210.653049,31
1658568859.08954,341210.6530518,48
1658568859.08954,341210.6530548,94
1658568859.08954,341210.6530577,119
1658568859.08954,341210.653062,107
1658568859.08954,341210.6530648,104
1658568859.08954,341210.6530678,111
1658568859.08954,341210.6530706,94
1658568859.08954,341210.6530735,53
1658568859.08954,341210.6530765,12
1658568859.08954,341210.653081,-4
1658568859.08954,341210.6530839,0
1658568859.08954,341210.6530868,-4
1658568859.08954,341211.1890814,-14
1658568859.08954,341211.1891093,-9
1658568859.08954,341211.189112,-9
1658568859.08954,341211.1891141,-38
1658568859.08954,341211.1891163,7
1658568859.08954,341211.1891185,250
1658568859.08954,341211.1891206,625
1658568859.08954,341211.1891229,905
1658568859.08954,341211.189125,773
1658568859.08954,341211.189127,160
1658568859.10152,341211.1891292,-401
1658568859.10152,341211.1891313,-423
1658568859.10152,341211.1891334,-201
1658568859.10152,341211.1891355,-150
1658568859.10152,341211.1891377,-165
1658568859.10152,341211.1891398,-126
1658568859.10152,341211.1891419,-119
1658568859.10152,341211.189144,-128
1658568859.10152,341211.1891481,-119
1658568859.10152,341211.1891622,-133
1658568859.10152,341211.1891684,-138
1658568859.10152,341211.1891707,-116
1658568859.10152,341211.1891729,-109
1658568859.10152,341211.189175,-90
1658568859.10152,341211.1891772,-41
1658568859.10152,341211.1891841,-24
1658568859.10152,341211.1891952,-38
1658568859.10152,341211.1892002,-34
1658568859.10152,341211.1892031,0
1658568859.10152,341211.1892053,31
1658568859.10152,341211.1892074,55
1658568859.10152,341211.1892109,85
1658568859.10152,341211.1892241,107
1658568859.10152,341211.1892281,128
1658568859.6834,341211.189232,163
1658568859.6834,341211.1892341,177
1658568859.6834,341211.1892361,165
1658568859.6834,341211.1892381,155
1658568859.6834,341211.1892452,138
1658568859.6834,341211.1892552,97
1658568859.6834,341211.189259,55
1658568859.6834,341211.1892611,9
1658568859.6834,341211.1892641,-34
1658568859.6834,341211.1892725,-43
1658568859.6834,341211.1892824,-60
1658568859.6834,341211.1892918,-87
1658568859.6834,341211.1892981,-99
1658568859.6834,341211.1893097,-104
1658568859.6834,341211.189315,-87
1658568859.6834,341211.1893173,-68
1658568859.6834,341211.1893195,-65
1658568859.6834,341211.1893216,-63
1658568859.6834,341211.1893244,-46
1658568859.6834,341211.1893348,-31
1658568859.6834,341211.189343,-29
1658568859.6834,341211.1893456,-14
1658568859.6834,341211.1893478,7
1658568859.6834,341211.18935,14
1658568859.6834,341211.1893521,24
1658568859.6834,341211.1893548,29
1658568859.6834,341211.1893627,21
1658568859.6834,341211.1893734,7
1658568859.6834,341211.1893769,-4
1658568859.6834,341211.1893799,2
1658568859.6834,341211.1893828,31
1658568859.6834,341211.1893887,46
1658568859.6834,341211.1894007,36
1658568859.6834,341211.1894041,34
1658568859.6834,341211.1894081,38
1658568859.6834,341211.1894102,43
1658568859.6834,341211.1894122,48
1658568859.6834,341211.1894142,55
1658568859.6834,341211.1894166,58
1658568859.6834,341211.77429,41
1658568859.6834,341211.7743034,48
1658568859.6834,341211.7743066,109
1658568859.6834,341211.7743089,150
1658568859.6834,341211.7743111,141
1658568859.6834,341211.7743134,138
1658568859.6834,341211.7743156,133
1658568859.6834,341211.7743178,109
1658568859.6834,341211.7743199,72
1658568859.6834,341211.7743222,41
1658568859.6834,341211.7743243,46
1658568859.70535,341211.7743263,55
1658568859.70535,341211.7743283,36
1658568859.70535,341211.7743302,29
1658568859.70535,341211.7743322,38
1658568859.70535,341211.7743341,31
1658568859.70535,341211.7743361,4
1658568859.70535,341211.7743392,-2
1658568859.70535,341211.7743499,90
1658568859.70535,341211.7743582,345
1658568859.70535,341211.7743632,700
1658568859.70535,341211.7743754,922
1658568859.70535,341211.7743822,703
1658568859.70535,341211.7743847,104
1658568859.70535,341211.774387,-326
1658568859.70535,341211.7743894,-284
1658568859.70535,341211.774399,-92
1658568859.70535,341211.7744079,-29
1658568859.70535,341211.7744104,-17
1658568859.70535,341211.7744125,4
1658568859.70535,341211.7744147,17
1658568859.70535,341211.7744167,26
1658568859.70535,341211.7744226,34
1658568859.70535,341211.7744339,31
1658568859.70535,341211.774439,36
1658568860.21184,341211.7744412,51
1658568860.21184,341211.7744433,58
1658568860.21184,341211.7744457,70
1658568860.21184,341211.7744557,94
1658568860.21184,341211.7744627,116
1658568860.21184,341211.7744755,124
1658568860.21184,341211.7744871,131
1658568860.21184,341211.7744925,148
1658568860.21184,341211.774495,170
1658568860.21184,341211.7744972,182
1658568860.21184,341211.7744997,199
1658568860.21184,341211.7745097,253
1658568860.21184,341211.7745183,301
1658568860.21184,341211.7745209,284
1658568860.21184,341211.774523,262
1658568860.21184,341211.7745546,272
1658568860.21184,341211.7745636,255
1658568860.21184,341211.7745677,197
1658568860.21184,341211.7745732,155
1658568860.21184,341211.7745775,143
1658568860.21184,341211.7745843,107
1658568860.21184,341211.7745928,38
1658568860.21184,341211.7745993,14
1658568860.21184,341211.7746065,24
1658568860.21184,341211.7746131,4
1658568860.21184,341211.7746206,-26
1658568860.21184,341211.7746256,-36
1658568860.21184,341211.7746311,-21
1658568860.21184,341211.7746345,-9
1658568860.21184,341211.7746382,-9
1658568860.21184,341211.7746438,-2
1658568860.21184,341211.7746511,12
1658568860.21184,341211.7746628,14
1658568860.21184,341211.7746726,12
1658568860.21184,341211.7746781,14
1658568860.21184,341211.7746826,26
1658568860.21184,341211.7746889,34
1658568860.21184,341211.7746943,14
1658568860.21184,341212.3099959,9
1658568860.21184,341212.3100186,60
1658568860.21184,341212.3100288,85
1658568860.21184,341212.3100397,43
1658568860.21184,341212.3100447,12
1658568860.21184,341212.3100469,17
1658568860.21184,341212.3100512,38
1658568860.21184,341212.3100595,55
1658568860.21184,341212.3100707,34
1658568860.21184,341212.3100786,-4
1658568860.21184,341212.310083,4
1658568860.21184,341212.310087,48
1658568860.23478,341212.3100963,48
1658568860.23478,341212.3101055,2
1658568860.23478,341212.3101168,-7
1658568860.23478,341212.3101222,41
1658568860.23478,341212.3101243,107
1658568860.23478,341212.3101296,124
1658568860.23478,341212.3101318,82
1658568860.23478,341212.3101339,68
1658568860.23478,341212.310136,80
1658568860.23478,341212.3101381,65
1658568860.23478,341212.3101401,43
1658568860.23478,341212.3101423,31
1658568860.23478,341212.3101445,4
1658568860.23478,341212.3101465,-17
1658568860.23478,341212.3101486,2
1658568860.23478,341212.3101507,29
1658568860.23478,341212.3101527,26
1658568860.23478,341212.3101548,24
1658568860.23478,341212.3101569,21
1658568860.23478,341212.3101589,0
1658568860.23478,341212.3101611,53
1658568860.23478,341212.3101632,309
1658568860.23478,341212.3101653,693
1658568860.23478,341212.3101673,951
1658568860.79229,341212.3101695,776
1658568860.79229,341212.3101715,189
1658568860.79229,341212.3101736,-294
1658568860.79229,341212.3101756,-321
1658568860.79229,341212.3101775,-119
1658568860.79229,341212.3101795,-31
1658568860.79229,341212.3101815,-53
1658568860.79229,341212.3101835,-34
1658568860.79229,341212.3101855,-7
1658568860.79229,341212.3101874,-12
1658568860.79229,341212.3101893,-2
1658568860.79229,341212.3101914,17
1658568860.79229,341212.3101935,21
1658568860.79229,341212.3101956,38
1658568860.79229,341212.3101977,58
1658568860.79229,341212.3101998,63
1658568860.79229,341212.3102019,70
1658568860.79229,341212.310204,90
1658568860.79229,341212.3102061,107
1658568860.79229,341212.3102082,126
1658568860.79229,341212.3102103,150
1658568860.79229,341212.3102124,172
1658568860.79229,341212.3102145,194
1658568860.79229,341212.3102167,231
1658568860.79229,341212.3102189,267
1658568860.79229,341212.3102209,279
1658568860.79229,341212.310223,299
1658568860.79229,341212.3102252,323
1658568860.79229,341212.3102272,316
1658568860.79229,341212.3102293,299
1658568860.79229,341212.3102315,282
1658568860.79229,341212.3102335,233
1658568860.79229,341212.3102357,170
1658568860.79229,341212.3102378,119
1658568860.79229,341212.31024,75
1658568860.79229,341212.3102427,41
1658568860.79229,341212.3102449,19
1658568860.79229,341212.895022,-4
1658568860.79229,341212.8950396,-17
1658568860.79229,341212.895046,-19
1658568860.79229,341212.8950505,-24
1658568860.79229,341212.8950548,-24
1658568860.79229,341212.8950589,-21
1658568860.79229,341212.895064,-26
1658568860.79229,341212.8950681,-34
1658568860.79229,341212.8950721,-24
1658568860.79229,341212.8950762,-19
1658568860.79229,341212.8950803,-29
1658568860.79229,341212.8950844,-38
1658568860.79229,341212.8950894,-41
1658568860.81423,341212.8950937,-41
1658568860.81423,341212.8950982,-34
1658568860.81423,341212.8951024,-43
1658568860.81423,341212.8951072,-65
1658568860.81423,341212.8951113,-68
1658568860.81423,341212.8951151,-65
1658568860.81423,341212.8951187,-72
1658568860.81423,341212.8951226,-72
1658568860.81423,341212.8951263,-72
1658568860.81423,341212.8951301,-80
1658568860.81423,341212.8951341,-85
1658568860.81423,341212.8951714,-75
1658568860.81423,341212.8951784,-68
1658568860.81423,341212.8951849,-55
1658568860.81423,341212.895189,-43
1658568860.81423,341212.8951948,-38
1658568860.81423,341212.8952002,-31
1658568860.81423,341212.8952042,-4
1658568860.81423,341212.8952095,34
1658568860.81423,341212.8952135,60
1658568860.81423,341212.8952188,70
1658568860.81423,341212.8952229,77
1658568860.81423,341212.8952284,87
1658568860.81423,341212.8952324,87
1658568861.34382,341212.8952379,72
1658568861.34382,341212.8952416,53
1658568861.34382,341212.8952631,48
1658568861.34382,341212.8952692,51
1658568861.34382,341212.8952734,55
1658568861.34382,341212.8952801,63
1658568861.34382,341212.895284,65
1658568861.34382,341212.895291,60
1658568861.34382,341212.8952963,65
1658568861.34382,341212.8953002,82
1658568861.34382,341212.8953034,126
1658568861.34382,341212.8953065,321
1658568861.34382,341212.8953095,678
1658568861.34382,341212.8953136,973
1658568861.34382,341212.8953169,839
1658568861.34382,341212.8953201,238
1658568861.34382,341212.8953234,-284
1658568861.34382,341212.8953267,-304
1658568861.34382,341212.8953302,-87
1658568861.34382,341212.8953336,4
1658568861.34382,341212.895337,12
1658568861.34382,341212.8953429,38
1658568861.34382,341212.8953461,41
1658568861.34382,341212.8953517,21
1658568861.34382,341212.8953571,48
1658568861.34382,341212.8953604,85
1658568861.34382,341212.8953637,85
1658568861.34382,341212.8953687,72
1658568861.34382,341212.895372,77
1658568861.34382,341212.8953755,92
1658568861.34382,341212.8953809,97
1658568861.34382,341212.8953854,109
1658568861.34382,341212.8953905,141
1658568861.34382,341212.8953963,165
1658568861.34382,341212.895401,182
1658568861.34382,341212.8954348,206
1658568861.34382,341213.431017,226
1658568861.34382,341213.4310538,236
1658568861.34382,341213.431062,255
1658568861.34382,341213.4310682,284
1658568861.34382,341213.4310736,294
1658568861.34382,341213.4310788,304
1658568861.34382,341213.4310839,318
1658568861.34382,341213.4310876,304
1658568861.34382,341213.4310927,265
1658568861.34382,341213.4310985,221
1658568861.34382,341213.4311056,172
1658568861.34382,341213.431113,111
1658568861.34382,341213.4311213,55
1658568861.34382,341213.4311281,14
1658568861.36576,341213.4311349,-17
1658568861.36576,341213.4311432,-53
1658568861.36576,341213.4311537,-63
1658568861.36576,341213.4311606,-38
1658568861.36576,341213.4311692,-36
1658568861.36576,341213.4311781,-60
1658568861.36576,341213.4311902,-60
1658568861.36576,341213.4311985,-38
1658568861.36576,341213.4312056,-31
1658568861.36576,341213.4312139,-36
1658568861.36576,341213.431221,-31
1658568861.36576,341213.4312326,-19
1658568861.36576,341213.4312421,-2
1658568861.36576,341213.4312462,4
1658568861.36576,341213.4312501,4
1658568861.36576,341213.4312555,2
1658568861.36576,341213.4312592,9
1658568861.36576,341213.4312632,9
1658568861.36576,341213.4312676,4
1658568861.36576,341213.431271,7
1658568861.36576,341213.4312746,12
1658568861.36576,341213.4312783,14
1658568861.36576,341213.4312848,21
1658568861.36576,341213.4312889,26
1658568861.91133,341213.4312951,31
1658568861.91133,341213.4312998,31
1658568861.91133,341213.4313042,19
1658568861.91133,341213.4313082,2
1658568861.91133,341213.4313127,17
1658568861.91133,341213.431317,36
1658568861.91133,341213.4313235,31
1658568861.91133,341213.4313281,29
1658568861.91133,341213.4313321,36
1658568861.91133,341213.4313366,43
1658568861.91133,341213.4313412,58
1658568861.91133,341213.4313477,72
1658568861.91133,341213.431354,90
1658568861.91133,341213.4313607,104
1658568861.91133,341213.4313652,99
1658568861.91133,341213.4313691,99
1658568861.91133,341213.4313741,109
1658568861.91133,341213.4313794,104
1658568861.91133,341213.4313835,92
1658568861.91133,341213.4313902,85
1658568861.91133,341213.431395,60
1658568861.91133,341213.4313988,38
1658568861.91133,341213.4314035,21
1658568861.91133,341213.4314082,-7
1658568861.91133,341213.4314125,-21
1658568861.91133,341213.4314191,4
1658568861.91133,341213.431425,29
1658568861.91133,341213.4314334,7
1658568861.91133,341213.4314388,-17
1658568861.91133,341213.4314426,51
1658568861.91133,341213.4314479,299
1658568861.91133,341213.4314515,686
1658568861.91133,341213.4314553,934
1658568861.91133,341213.4314612,720
1658568861.91133,341213.431468,99
1658568861.91133,341214.0162267,-382
1658568861.91133,341214.0162455,-362
1658568861.91133,341214.01625,-148
1658568861.91133,341214.0162625,-80
1658568861.91133,341214.0162908,-75
1658568861.91133,341214.0163021,-34
1658568861.91133,341214.0163092,-12
1658568861.91133,341214.0163153,2
1658568861.91133,341214.0163236,7
1658568861.91133,341214.0163307,-29
1658568861.91133,341214.0163383,-43
1658568861.91133,341214.0163461,-2
1658568861.91133,341214.0163542,31
1658568861.91133,341214.0163568,43
1658568861.91133,341214.016359,55
1658568861.93328,341214.0163611,55
1658568861.93328,341214.0163632,53
1658568861.93328,341214.0163654,53
1658568861.93328,341214.0163676,63
1658568861.93328,341214.0163706,99
1658568861.93328,341214.0163792,158
1658568861.93328,341214.0163914,199
1658568861.93328,341214.0164032,211
1658568861.93328,341214.0164167,221
1658568861.93328,341214.0164278,236
1658568861.93328,341214.0164381,238
1658568861.93328,341214.01646,245
1658568861.93328,341214.0164685,240
1658568861.93328,341214.0164922,194
1658568861.93328,341214.0165005,160
1658568861.93328,341214.0165053,138
1658568861.93328,341214.0165109,94
1658568861.93328,341214.0165152,51
1658568861.93328,341214.0165206,29
1658568861.93328,341214.0165245,-14
1658568861.93328,341214.0165297,-63
1658568861.93328,341214.0165334,-60
1658568861.93328,341214.0165369,-48
1658568861.93328,341214.0165407,-53
1658568862.44606,341214.0165442,-29
1658568862.44606,341214.0165477,-17
1658568862.44606,341214.0165513,-60
1658568862.44606,341214.0165548,-72
1658568862.44606,341214.0165585,-31
1658568862.44606,341214.0165621,-29
1658568862.44606,341214.0165656,-48
1658568862.44606,341214.0165692,-34
1658568862.44606,341214.0165727,-14
1658568862.44606,341214.0165762,-17
1658568862.44606,341214.0165798,-24
1658568862.44606,341214.0165833,-26
1658568862.44606,341214.0165869,-19
1658568862.44606,341214.0165905,-19
1658568862.44606,341214.016594,-24
1658568862.44606,341214.0165983,-17
1658568862.44606,341214.0166162,-14
1658568862.44606,341214.0166221,-24
1658568862.44606,341214.0166376,-19
1658568862.44606,341214.0166422,-7
1658568862.44606,341214.0166459,-2
1658568862.44606,341214.0166515,-2
1658568862.44606,341214.0166552,0
1658568862.44606,341214.0166617,-2
1658568862.44606,341214.0166653,4
1658568862.44606,341214.0166704,14
1658568862.44606,341214.016674,7
1658568862.44606,341214.0166777,4
1658568862.44606,341214.0166833,21
1658568862.44606,341214.0166875,31
1658568862.44606,341214.0166927,29
1658568862.44606,341214.0166963,29
1658568862.44606,341214.0166999,46
1658568862.44606,341214.0167036,80
1658568862.44606,341214.5525626,97
1658568862.44606,341214.5526086,87
1658568862.44606,341214.5526159,80
1658568862.44606,341214.5526272,90
1658568862.44606,341214.5526402,75
1658568862.44606,341214.5526538,29
1658568862.44606,341214.5526678,-17
1658568862.44606,341214.5526796,-36
1658568862.44606,341214.5526875,-26
1658568862.44606,341214.5526925,-14
1658568862.44606,341214.5526962,-17
1658568862.44606,341214.5527019,-19
1658568862.44606,341214.5527053,-31
1658568862.44606,341214.5527107,-53
1658568862.44606,341214.5527198,-48
1658568862.44606,341214.5527323,87
1658568862.46938,341214.5527455,416
1658568862.46938,341214.5527591,793
1658568862.46938,341214.5527723,875
1658568862.46938,341214.552786,411
1658568862.46938,341214.5527997,-265
1658568862.46938,341214.5528131,-515
1658568862.46938,341214.5528265,-316
1658568862.46938,341214.5528337,-138
1658568862.46938,341214.5528433,-119
1658568862.46938,341214.5528516,-109
1658568862.46938,341214.5528634,-85
1658568862.46938,341214.5528763,-72
1658568862.46938,341214.5528905,-51
1658568862.46938,341214.5528981,-29
1658568862.46938,341214.5529012,-19
1658568862.46938,341214.5529223,-14
1658568862.46938,341214.5529428,-4
1658568862.46938,341214.5529515,12
1658568862.46938,341214.5529562,36
1658568862.46938,341214.5529651,58
1658568862.46938,341214.5529809,72
1658568862.46938,341214.5529938,70
1658568862.46938,341214.5530016,70
1658568862.46938,341214.5530068,97
1658568863.00375,341214.5530159,145
1658568863.00375,341214.5530225,182
1658568863.00375,341214.5530269,209
1658568863.00375,341214.5530357,248
1658568863.00375,341214.5530438,272
1658568863.00375,341214.5530483,277
1658568863.00375,341214.5530525,277
1658568863.00375,341214.5530585,279
1658568863.00375,341214.5530625,265
1658568863.00375,341214.5530688,240
1658568863.00375,341214.5530775,211
1658568863.00375,341214.5530822,150
1658568863.00375,341214.5530844,77
1658568863.00375,341214.5530864,38
1658568863.00375,341214.5530893,12
1658568863.00375,341214.5530915,-14
1658568863.00375,341214.5530967,-29
1658568863.00375,341214.5531096,-29
1658568863.00375,341214.553122,-26
1658568863.00375,341214.5531293,-24
1658568863.00375,341214.5531318,-19
1658568863.00375,341214.5531339,-12
1658568863.00375,341214.5531359,-9
1658568863.00375,341214.553138,-17
1658568863.00375,341214.5531408,-9
1658568863.00375,341214.553143,12
1658568863.00375,341214.5531451,19
1658568863.00375,341214.5531472,17
1658568863.00375,341214.5531494,31
1658568863.00375,341214.5531514,48
1658568863.00375,341214.5531552,38
1658568863.00375,341214.5531573,31
1658568863.00375,341214.5531635,63
1658568863.00375,341215.089198,97
1658568863.00375,341215.0892164,90
1658568863.00375,341215.0892238,51
1658568863.00375,341215.0892308,29
1658568863.00375,341215.0892374,68
1658568863.00375,341215.0892443,63
1658568863.00375,341215.0892512,-7

1658568863.00375,341215.0892582,-2
1658568863.00375,341215.089265,55
1658568863.00375,341215.0892717,31
1658568863.00375,341215.0892782,-2
1658568863.00375,341215.0892851,29
1658568863.00375,341215.0892907,46
1658568863.00375,341215.089295,36
1658568863.00375,341215.0892992,36
1658568863.00375,341215.0893041,24
1658568863.00375,341215.0893105,19
1658568863.02669,341215.0893189,55
1658568863.02669,341215.0893246,85
1658568863.02669,341215.0893331,72
1658568863.02669,341215.0893415,75
1658568863.02669,341215.0893499,85
1658568863.02669,341215.0893581,70
1658568863.02669,341215.0893639,51
1658568863.02669,341215.0893714,29
1658568863.02669,341215.0893757,0
1658568863.02669,341215.0893822,-7
1658568863.02669,341215.0893885,4
1658568863.02669,341215.0893965,4
1658568863.02669,341215.089402,-7
1658568863.02669,341215.0894105,-19
1658568863.02669,341215.0894173,-36
1658568863.02669,341215.0894259,-48
1658568863.02669,341215.0894347,12
1658568863.02669,341215.0894435,257
1658568863.02669,341215.0894526,674
1658568863.02669,341215.0894627,1002
1658568863.02669,341215.0894709,883
1658568863.02669,341215.0894799,231
1658568863.02669,341215.0894884,-386
1658568863.02669,341215.0894969,-408
1658568863.62561,341215.0895057,-150
1658568863.62561,341215.0895127,-87
1658568863.62561,341215.0895193,-99
1658568863.62561,341215.0895266,-38
1658568863.62561,341215.0895332,-4
1658568863.62561,341215.0895387,-7
1658568863.62561,341215.0895435,0
1658568863.62561,341215.0895496,7
1658568863.62561,341215.0895531,7
1658568863.62561,341215.0895562,9
1658568863.62561,341215.0895593,34
1658568863.62561,341215.0895623,70
1658568863.62561,341215.0895653,90
1658568863.62561,341215.0895682,82
1658568863.62561,341215.0895712,80
1658568863.62561,341215.0895741,114
1658568863.62561,341215.0895771,170
1658568863.62561,341215.08958,199
1658568863.62561,341215.0895828,209
1658568863.62561,341215.089596,245
1658568863.62561,341215.0896049,279
1658568863.62561,341215.0896153,287
1658568863.62561,341215.0896235,296
1658568863.62561,341215.0896259,316
1658568863.62561,341215.0896286,321
1658568863.62561,341215.0896308,311
1658568863.62561,341215.089633,289
1658568863.62561,341215.0896351,253
1658568863.62561,341215.0896372,211
1658568863.62561,341215.0896393,155
1658568863.62561,341215.0896421,107
1658568863.62561,341215.0896523,82
1658568863.62561,341215.7220783,60
1658568863.62561,341215.7221146,41
1658568863.62561,341215.72213,29
1658568863.62561,341215.7221445,19
1658568863.62561,341215.7221533,21
1658568863.62561,341215.722156,21
1658568863.62561,341215.7221715,-4
1658568863.62561,341215.7221735,-21
1658568863.62561,341215.7221755,-4
1658568863.62561,341215.7221773,17
1658568863.62561,341215.7221942,21
1658568863.62561,341215.7221965,21
1658568863.62561,341215.7221985,38
1658568863.62561,341215.7222007,58
1658568863.62561,341215.7222039,75
1658568863.62561,341215.722206,90
1658568863.62561,341215.7222082,68
1658568863.62561,341215.7222102,34
1658568863.64755,341215.7222124,26
1658568863.64755,341215.7222144,34
1658568863.64755,341215.7222165,41
1658568863.64755,341215.7222186,51
1658568863.64755,341215.7222207,70
1658568863.64755,341215.7222227,70
1658568863.64755,341215.7222249,41
1658568863.64755,341215.722227,26
1658568863.64755,341215.7222291,24
1658568863.64755,341215.7222312,17
1658568863.64755,341215.7222332,26
1658568863.64755,341215.7222353,60
1658568863.64755,341215.7222374,80
1658568863.64755,341215.7222395,68
1658568863.64755,341215.7222416,60
1658568863.64755,341215.7222438,63
1658568863.64755,341215.7222459,70
1658568863.64755,341215.722248,70
1658568863.64755,341215.7222501,75
1658568863.64755,341215.7222521,104
1658568863.64755,341215.7222543,138
1658568863.64755,341215.7222563,143
1658568863.64755,341215.7222585,116
1658568863.64755,341215.7222605,97
1658568864.1143,341215.7222627,97
1658568864.1143,341215.7222647,90
1658568864.1143,341215.7222667,60
1658568864.1143,341215.7222686,34
1658568864.1143,341215.7222706,36
1658568864.1143,341215.7222726,43
1658568864.1143,341215.7222746,34
1658568864.1143,341215.7222765,31
1658568864.1143,341215.7222785,36
1658568864.1143,341215.7222805,26
1658568864.1143,341215.7222824,17
1658568864.1143,341215.7222843,68
1658568864.1143,341215.7222863,253
1658568864.1143,341215.7222883,552
1658568864.1143,341215.7222903,785
1658568864.1143,341215.7222922,666
1658568864.1143,341215.7222942,148
1658568864.1143,341215.7222966,-311
1658568864.1143,341215.7223052,-313
1658568864.1143,341215.7223131,-99
1658568864.1143,341215.7223265,-24
1658568864.1143,341215.72234,-29
1658568864.1143,341215.7223532,19
1658568864.1143,341215.7223794,53
1658568864.1143,341215.7224075,29
1658568864.1143,341215.7224209,26
1658568864.1143,341215.7224291,72
1658568864.1143,341215.7224316,111
1658568864.1143,341215.7224338,116
1658568864.1143,341215.7224359,107
1658568864.1143,341215.722438,116
1658568864.1143,341216.2096076,167
1658568864.1143,341216.2096245,226
1658568864.1143,341216.2096298,231
1658568864.1143,341216.2096346,170
1658568864.1143,341216.2096385,141
1658568864.1143,341216.2096432,180
1658568864.1143,341216.2096472,218
1658568864.1143,341216.2096534,248
1658568864.1143,341216.2096613,282
1658568864.1143,341216.2096657,289
1658568864.1143,341216.2096725,291
1658568864.1143,341216.2096758,309
1658568864.1143,341216.2096788,299
1658568864.1143,341216.2096832,282
1658568864.1143,341216.2096889,291
1658568864.1143,341216.2096935,272
1658568864.1143,341216.2097022,201
1658568864.1143,341216.2097098,143
1658568864.1143,341216.2097177,109
1658568864.13724,341216.2097238,70
1658568864.13724,341216.2097384,38
1658568864.13724,341216.2097483,17
1658568864.13724,341216.2097556,-7
1658568864.13724,341216.2097633,4
1658568864.13724,341216.2097692,29
1658568864.13724,341216.2097782,7
1658568864.13724,341216.209784,-7
1658568864.13724,341216.2097923,17
1658568864.13724,341216.2097962,19
1658568864.13724,341216.2097992,2
1658568864.13724,341216.2098045,17
1658568864.13724,341216.20981,41
1658568864.13724,341216.2098191,34
1658568864.13724,341216.2098258,29
1658568864.13724,341216.2098282,51
1658568864.13724,341216.2098305,55
1658568864.13724,341216.2098327,43
1658568864.13724,341216.2098348,41
1658568864.13724,341216.2098368,53
1658568864.13724,341216.2098389,63
1658568864.13724,341216.209841,63
1658568864.13724,341216.2098431,60
1658568864.13724,341216.2098451,70
1658568864.70308,341216.2098472,75
1658568864.70308,341216.2098492,60
1658568864.70308,341216.2098512,48
1658568864.70308,341216.2098531,41
1658568864.70308,341216.2098551,41
1658568864.70308,341216.2098571,65
1658568864.70308,341216.2098591,75
1658568864.70308,341216.209861,55
1658568864.70308,341216.209863,34
1658568864.70308,341216.209865,26
1658568864.70308,341216.209867,17
1658568864.70308,341216.2098689,38
1658568864.70308,341216.2098708,94
1658568864.70308,341216.2098728,121
1658568864.70308,341216.2098747,92
1658568864.70308,341216.209878,70
1658568864.70308,341216.2098871,68
1658568864.70308,341216.2098983,63
1658568864.70308,341216.2099095,55
1658568864.70308,341216.209919,29
1658568864.70308,341216.2099264,-2
1658568864.70308,341216.2099288,4
1658568864.70308,341216.209931,24
1658568864.70308,341216.2099332,12
1658568864.70308,341216.2099353,-2
1658568864.70308,341216.2099374,4
1658568864.70308,341216.2099395,2
1658568864.70308,341216.2099417,-4
1658568864.70308,341216.2099438,77
1658568864.70308,341216.2099459,316
1658568864.70308,341216.7960727,649
1658568864.70308,341216.7960992,844
1658568864.70308,341216.7961018,603
1658568864.70308,341216.7961041,29
1658568864.70308,341216.7961063,-355
1658568864.70308,341216.7961084,-311
1658568864.70308,341216.7961105,-141
1658568864.70308,341216.7961126,-94
1658568864.70308,341216.7961147,-87
1658568864.70308,341216.79613,-53
1658568864.70308,341216.7961321,-48
1658568864.70308,341216.7961341,-63
1658568864.70308,341216.7961361,-77
1658568864.70308,341216.7961381,-53
1658568864.70308,341216.796154,-7
1658568864.70308,341216.7961561,-17
1658568864.70308,341216.7961582,-7
1658568864.70308,341216.7961603,38
1658568864.70308,341216.7961625,31
1658568864.70308,341216.7961646,31
1658568864.72503,341216.7961666,82
1658568864.72503,341216.7961687,97
1658568864.72503,341216.7961707,99
1658568864.72503,341216.7961728,155
1658568864.72503,341216.7961749,192
1658568864.72503,341216.796177,160
1658568864.72503,341216.796179,153
1658568864.72503,341216.7961814,199
1658568864.72503,341216.7961835,226
1658568864.72503,341216.7961856,231
1658568864.72503,341216.7961877,240
1658568864.72503,341216.7961898,233
1658568864.72503,341216.7961919,211
1658568864.72503,341216.796194,189
1658568864.72503,341216.7961961,145
1658568864.72503,341216.7961981,87
1658568864.72503,341216.7962003,46
1658568864.72503,341216.7962024,12
1658568864.72503,341216.7962045,-17
1658568864.72503,341216.7962066,-26
1658568864.72503,341216.7962329,-46
1658568864.72503,341216.7962584,-58
1658568864.72503,341216.7962625,-34
1658568864.72503,341216.796267,-21
1658568865.3303,341216.7962707,-36
1658568865.3303,341216.7962743,-31
1658568865.3303,341216.7962776,-17
1658568865.3303,341216.7962847,-7
1658568865.3303,341216.7962965,17
1658568865.3303,341216.7963058,34
1658568865.3303,341216.7963142,24
1658568865.3303,341216.796321,4
1658568865.3303,341216.7963268,7
1658568865.3303,341216.796331,14
1658568865.3303,341216.7963448,4
1658568865.3303,341216.796353,0
1658568865.3303,341216.7963556,12
1658568865.3303,341216.7963577,17
1658568865.3303,341216.7963599,12
1658568865.3303,341216.796362,12
1658568865.3303,341216.7963642,14
1658568865.3303,341216.7963664,26
1658568865.3303,341216.7963726,34
1658568865.3303,341216.796384,26
1658568865.3303,341216.7963948,29
1658568865.3303,341216.7964083,38
1658568865.3303,341216.7964172,36
1658568865.3303,341216.7964197,29
1658568865.3303,341216.7964219,24
1658568865.3303,341216.7964241,14
1658568865.3303,341216.7964263,12
1658568865.3303,341216.7964283,43
1658568865.3303,341216.7964319,80
1658568865.3303,341217.4286675,87
1658568865.3303,341217.4286865,87
1658568865.3303,341217.4286958,92
1658568865.3303,341217.4287008,75
1658568865.3303,341217.4287054,41
1658568865.3303,341217.4287098,14
1658568865.3303,341217.4287142,-17
1658568865.3303,341217.4287185,-34
1658568865.3303,341217.4287223,-26
1658568865.3303,341217.428726,-41
1658568865.3303,341217.4287295,-48
1658568865.3303,341217.4287336,-14
1658568865.3303,341217.428738,0
1658568865.3303,341217.4287418,-34
1658568865.3303,341217.4287456,-51
1658568865.3303,341217.4287492,41
1658568865.3303,341217.4287529,291
1658568865.3303,341217.4287572,661
1658568865.3303,341217.4287615,934
1658568865.3303,341217.4287657,768
1658568865.3303,341217.4287699,141
1658568865.34725,341217.4287741,-396
1658568865.34725,341217.4287794,-406
1658568865.34725,341217.4287854,-170
1658568865.34725,341217.4287896,-80
1658568865.34725,341217.4287958,-70
1658568865.34725,341217.4288001,-31
1658568865.34725,341217.4288063,-29
1658568865.34725,341217.4288107,-53
1658568865.34725,341217.4288172,-29
1658568865.34725,341217.4288235,7
1658568865.34725,341217.4288279,17
1658568865.34725,341217.4288342,26
1658568865.34725,341217.4288385,48
1658568865.34725,341217.4288444,68
1658568865.34725,341217.4288487,77
1658568865.34725,341217.4288549,90
1658568865.34725,341217.4288592,116
1658568865.34725,341217.4288651,141
1658568865.34725,341217.4288695,163
1658568865.34725,341217.4288752,197
1658568865.34725,341217.4288809,233
1658568865.34725,341217.4288859,243
1658568865.34725,341217.4288917,253
1658568865.34725,341217.428896,296
1658568865.82136,341217.4289018,333
1658568865.82136,341217.4289059,343
1658568865.82136,341217.4289101,347
1658568865.82136,341217.4289141,326
1658568865.82136,341217.4289182,289
1658568865.82136,341217.4289223,257
1658568865.82136,341217.4289264,204
1658568865.82136,341217.4289304,153
1658568865.82136,341217.4289347,116
1658568865.82136,341217.4289388,77
1658568865.82136,341217.4289428,51
1658568865.82136,341217.4289469,36
1658568865.82136,341217.428951,4
1658568865.82136,341217.4289553,-7
1658568865.82136,341217.4289593,4
1658568865.82136,341217.428964,19
1658568865.82136,341217.4289683,29
1658568865.82136,341217.4289725,26
1658568865.82136,341217.4289769,29
1658568865.82136,341217.4289827,43
1658568865.82136,341217.4289869,53
1658568865.82136,341217.4289928,51
1658568865.82136,341217.428997,43
1658568865.82136,341217.4290032,46
1658568865.82136,341217.4290076,60
1658568865.82136,341217.4290118,72
1658568865.82136,341217.4290158,68
1658568865.82136,341217.42902,55
1658568865.82136,341217.9176821,58
1658568865.82136,341217.9177101,65
1658568865.82136,341217.9177132,55
1658568865.82136,341217.9177154,63
1658568865.82136,341217.9177174,82
1658568865.82136,341217.9177195,77
1658568865.82136,341217.9177216,75
1658568865.82136,341217.9177237,94
1658568865.82136,341217.9177259,97
1658568865.82136,341217.9177279,90
1658568865.82136,341217.91773,94
1658568865.82136,341217.9177321,97
1658568865.82136,341217.9177342,92
1658568865.82136,341217.9177362,87
1658568865.82136,341217.9177383,75
1658568865.82136,341217.9177404,63
1658568865.82136,341217.9177425,70
1658568865.82136,341217.9177445,77
1658568865.82136,341217.9177467,75
1658568865.82136,341217.9177488,82
1658568865.82136,341217.9177509,107
1658568865.82136,341217.9177529,119
1658568865.8423,341217.917755,126
1658568865.8423,341217.917757,128
1658568865.8423,341217.9177591,102
1658568865.8423,341217.9177612,72
1658568865.8423,341217.9177632,70
1658568865.8423,341217.9177786,65
1658568865.8423,341217.9177807,31
1658568865.8423,341217.9177827,12
1658568865.8423,341217.9177847,19
1658568865.8423,341217.9177868,29
1658568865.8423,341217.9178022,31
1658568865.8423,341217.9178043,34
1658568865.8423,341217.9178064,19
1658568865.8423,341217.9178084,9
1658568865.8423,341217.9178105,99
1658568865.8423,341217.9178127,345
1658568865.8423,341217.9178148,686
1658568865.8423,341217.9178168,963
1658568865.8423,341217.9178189,873
1658568865.8423,341217.917821,262
1658568865.8423,341217.9178231,-338
1658568865.8423,341217.9178252,-347
