Time,TimeLsl,Value
1658571986.6833,344337.3777387,-63
1658571986.6833,344337.3777619,-51
1658571986.6833,344337.3777728,-26
1658571986.6833,344337.3777782,-29
1658571986.6833,344337.3777851,-19
1658571986.6833,344337.3777917,-7
1658571986.6833,344337.3778026,-4
1658571986.6833,344337.3778114,0
1658571986.6833,344337.3778175,14
1658571986.6833,344337.3778283,19
1658571986.6833,344337.3778407,21
1658571986.6833,344337.3778552,24
1658571986.6833,344337.3778688,12
1658571986.6833,344337.3778827,-9
1658571986.6833,344337.3778971,-21
1658571986.6833,344337.3779113,-34
1658571986.6833,344337.3779215,-38
1658571986.6833,344337.3779388,-14
1658571986.6833,344337.3779618,12
1658571986.6833,344337.3779716,21
1658571986.6833,344337.3779874,31
1658571986.6833,344337.3779951,48
1658571986.6833,344337.3779993,53
1658571986.6833,344337.3780031,46
1658571986.6833,344337.3780066,41
1658571986.6833,344337.3780105,41
1658571986.6833,344337.3780141,41
1658571986.6833,344337.3780177,34
1658571986.6833,344337.3780217,21
1658571986.6833,344337.3780298,17
1658571986.6833,344337.3780378,26
1658571986.6833,344337.3780442,31
1658571986.6833,344337.3780476,19
1658571986.6833,344337.3780534,17
1658571986.6833,344337.3780568,26
1658571986.6833,344337.3780639,26
1658571986.6833,344337.3780671,7
1658571986.6833,344337.3780738,2
1658571986.6833,344337.3780787,34
1658571986.6833,344337.3780859,70
1658571986.6833,344337.3780894,60
1658571986.6833,344337.3780935,38
1658571986.6833,344337.3781012,36
1658571986.6833,344337.3781089,34
1658571986.6833,344337.3781139,29
1658571986.6833,344337.3781175,36
1658571986.6833,344337.3781243,46
1658571986.6833,344337.3781306,48
1658571986.6833,344337.378136,19
1658571986.6833,344337.3781434,-29
1658571986.79266,344337.3781466,92
1658571986.79266,344337.3781495,559
1658571986.79266,344337.3781524,1114
1658571986.79266,344337.3781552,1187
1658571986.79266,344337.3781581,554
1658571986.79266,344337.3781609,-189
1658571986.79266,344337.3781639,-262
1658571986.79266,344337.3781669,31
1658571986.79266,344337.3781697,2
1658571986.79266,344337.3781726,-111
1658571986.79266,344337.3781757,-41
1658571986.79266,344337.3781787,-19
1658571986.79266,344337.3781815,-63
1658571986.79266,344337.3781847,-41
1658571986.79266,344337.3781917,-9
1658571986.79266,344337.3781964,-12
1658571986.79266,344337.3782046,-2
1658571986.79266,344337.3782114,9
1658571986.79266,344337.3782145,14
1658571986.79266,344337.3782175,21
1658571986.79266,344337.3782234,31
1658571986.79266,344337.3782273,46
1658571986.79266,344337.3782336,53
1658571986.79266,344337.9627013,55
1658571986.79266,344337.9627162,55
1658571986.79266,344337.9627206,51
1658571986.79266,344337.9627985,36
1658571986.79266,344337.9628165,26
1658571986.79266,344337.9628216,31
1658571986.79266,344337.9628264,51
1658571986.79266,344337.962832,82
1658571986.79266,344337.9628381,109
1658571986.79266,344337.9628446,107
1658571986.79266,344337.9628511,87
1658571986.79266,344337.9628579,85
1658571986.79266,344337.9628628,90
1658571986.79266,344337.9628661,82
1658571986.79266,344337.9628697,80
1658571986.79266,344337.9628726,77
1658571986.79266,344337.9628759,68
1658571986.79266,344337.9628792,68
1658571986.79266,344337.9628826,80
1658571986.79266,344337.9628858,82
1658571986.79266,344337.9628893,80
1658571986.79266,344337.9628949,70
1658571986.79266,344337.9629001,60
1658571986.79266,344337.9629038,60
1658571986.79266,344337.9629072,58
1658571986.79266,344337.9629108,55
1658571986.79266,344337.9629144,68
1658571986.83256,344337.962918,99
1658571986.83256,344337.9629213,102
1658571986.83256,344337.9629247,70
1658571986.83256,344337.9629283,63
1658571986.83256,344337.9629318,65
1658571986.83256,344337.9629354,58
1658571986.83256,344337.9629389,60
1658571986.83256,344337.9629426,70
1658571986.83256,344337.9629462,68
1658571986.83256,344337.9629499,48
1658571986.83256,344337.9629536,-2
1658571986.83256,344337.9629574,12
1658571986.83256,344337.962961,316
1658571986.83256,344337.9629646,885
1658571986.83256,344337.9629681,1243
1658571986.83256,344337.9629718,929
1658571986.83256,344337.9629754,128
1658571986.83256,344337.9629792,-309
1658571986.83256,344337.9629828,-77
1658571986.83256,344337.9629864,75
1658571986.83256,344337.96299,-75
1658571986.83256,344337.9629938,-85
1658571986.83256,344337.9629974,-12
1658571986.83256,344337.9630011,-34
1658571986.83256,344337.9630049,-38
1658571986.83256,344337.9630084,-9
1658571986.83256,344337.9630122,-14
1658571986.83256,344337.9630157,-19
1658571986.83256,344337.9630194,0
1658571986.83256,344337.9630232,9
1658571986.83256,344337.963027,14
1658571986.83256,344337.9630306,31
1658571986.83256,344337.9630338,38
1658571986.83256,344337.9630373,38
1658571986.83256,344337.9630409,41
1658571986.83256,344337.9630446,43
1658571986.83256,344337.9630481,36
1658571986.83256,344337.9630536,29
1658571986.83256,344337.9630573,26
1658571986.83256,344337.9630609,21
1658571986.83256,344337.9630644,26
1658571986.83256,344337.9630679,51
1658571986.83256,344337.9630717,80
1658571986.83256,344337.9630753,94
1658571986.83256,344337.9630788,104
1658571986.83256,344337.9630824,107
1658571986.83256,344338.4986286,104
1658571986.83256,344338.4986471,97
1658571986.93329,344338.4986536,94
1658571986.93329,344338.4986601,97
1658571986.93329,344338.4986667,104
1658571986.93329,344338.4986728,104
1658571986.93329,344338.4986779,92
1658571986.93329,344338.4986816,85
1658571986.93329,344338.4986851,90
1658571986.93329,344338.4986883,94
1658571986.93329,344338.4986919,94
1658571986.93329,344338.4986956,90
1658571986.93329,344338.4987005,77
1658571986.93329,344338.4987054,65
1658571986.93329,344338.49871,77
1658571986.93329,344338.4987163,104
1658571986.93329,344338.4987201,111
1658571986.93329,344338.4987237,87
1658571986.93329,344338.4987276,63
1658571986.93329,344338.4987314,51
1658571986.93329,344338.4987383,51
1658571986.93329,344338.4987426,58
1658571986.93329,344338.4987521,60
1658571986.93329,344338.4987596,58
1658571986.93329,344338.4987667,29
1658571986.93329,344338.4987764,-36
1658571986.93329,344338.4987868,53
1658571986.93329,344338.4987937,501
1658571986.93329,344338.4987985,1075
1658571986.93329,344338.4988049,1202
1658571986.93329,344338.4988087,610
1658571986.93329,344338.4988126,-143
1658571986.93329,344338.4988163,-265
1658571986.93329,344338.4988203,14
1658571986.93329,344338.4988245,7
1658571986.93329,344338.498829,-116
1658571986.93329,344338.4988328,-60
1658571986.93329,344338.4988374,-29
1658571986.93329,344338.4988415,-63
1658571986.93329,344338.4988486,-51
1658571986.93329,344338.4988581,-24
1658571986.93329,344338.4988653,-24
1658571986.93329,344338.4988715,-19
1658571986.93329,344338.49888,-17
1658571986.93329,344338.4988865,-19
1658571986.93329,344338.4988954,-9
1658571986.93329,344338.4989037,4
1658571986.93329,344338.4989098,7
1658571986.93329,344338.4989172,7
1658571986.93329,344338.4989262,12
1658571986.93329,344338.4989352,19
1658571986.93329,344338.4989447,9
1658571986.94226,344338.4989523,-7
1658571986.94226,344338.4989619,-12
1658571986.94226,344338.4989696,-9
1658571986.94226,344338.4989784,7
1658571986.94226,344338.4989875,43
1658571986.94226,344338.4989967,75
1658571986.94226,344338.499006,87
1658571986.94226,344338.4990112,90
1658571986.94226,344338.4990191,92
1658571986.94226,344338.4990263,94
1658571986.94226,344338.4990355,90
1658571986.94226,344338.4990428,80
1658571986.94226,344338.4990527,82
1658571986.94226,344338.4990593,94
1658571986.94226,344338.4990684,94
1658571986.94226,344338.4990735,99
1658571986.94226,344338.4990827,114
1658571986.94226,344338.49909,116
1658571986.94226,344338.4991003,111
1658571986.94226,344338.4991074,119
1658571986.94226,344338.4991145,116
1658571986.94226,344339.0359892,104
1658571986.94226,344339.0360114,109
1658571986.94226,344339.0360185,128
1658571987.521,344339.0360246,138
1658571987.521,344339.0360283,121
1658571987.521,344339.0360313,92
1658571987.521,344339.0360341,80
1658571987.521,344339.0360367,82
1658571987.521,344339.0360394,85
1658571987.521,344339.036042,75
1658571987.521,344339.0360446,63
1658571987.521,344339.0360474,48
1658571987.521,344339.0360501,7
1658571987.521,344339.0360527,24
1658571987.521,344339.0360554,316
1658571987.521,344339.0360581,866
1658571987.521,344339.0361017,1192
1658571987.521,344339.03611,856
1658571987.521,344339.0361147,99
1658571987.521,344339.036119,-287
1658571987.521,344339.036123,-72
1658571987.521,344339.0361268,60
1658571987.521,344339.0361311,-70
1658571987.521,344339.0361352,-82
1658571987.521,344339.0361402,-19
1658571987.521,344339.0361447,-41
1658571987.521,344339.0361493,-51
1658571987.521,344339.0361532,-14
1658571987.521,344339.0361571,-2
1658571987.521,344339.0361609,-4
1658571987.521,344339.0362011,14
1658571987.521,344339.0362128,24
1658571987.521,344339.0362191,19
1658571987.521,344339.0362231,29
1658571987.521,344339.0362267,34
1658571987.521,344339.03623,29
1658571987.521,344339.036233,41
1658571987.521,344339.0362359,58
1658571987.521,344339.0362411,58
1658571987.521,344339.036247,48
1658571987.521,344339.0362505,38
1658571987.521,344339.0362556,41
1658571987.521,344339.0362591,51
1658571987.521,344339.0362622,72
1658571987.521,344339.0362654,102
1658571987.521,344339.0362703,126
1658571987.521,344339.0362735,128
1658571987.521,344339.0362787,121
1658571987.521,344339.0362821,116
1658571987.521,344339.0362876,114
1658571987.521,344339.0362912,109
1658571987.521,344339.0362968,109
1658571987.521,344339.0363,111
1658571987.53497,344339.0363033,114
1658571987.53497,344339.0363064,124
1658571987.53497,344339.0363097,136
1658571987.53497,344339.0363148,138
1658571987.53497,344339.0363182,133
1658571987.53497,344339.0363217,136
1658571987.53497,344339.036327,131
1658571987.53497,344339.0363308,114
1658571987.53497,344339.036336,111
1658571987.53497,344339.0363394,136
1658571987.53497,344339.0363443,160
1658571987.53497,344339.0363477,148
1658571987.53497,344339.0363512,121
1658571987.53497,344339.0363548,111
1658571987.53497,344339.0363586,109
1658571987.53497,344339.036363,109
1658571987.53497,344339.0363688,111
1658571987.53497,344339.0363723,111
1658571987.53497,344339.0363774,97
1658571987.53497,344339.0363805,38
1658571987.53497,344339.6205362,14
1658571987.53497,344339.6205545,250
1658571987.53497,344339.6205679,795
1658571987.53497,344339.6205769,1233
1658571988.09974,344339.6205894,1039
1658571988.09974,344339.6205978,272
1658571988.09974,344339.6206055,-277
1658571988.09974,344339.6206135,-141
1658571988.09974,344339.6206239,70
1658571988.09974,344339.6206328,-38
1658571988.09974,344339.620641,-90
1658571988.09974,344339.6206488,-19
1658571988.09974,344339.6206561,-41
1658571988.09974,344339.6206629,-82
1658571988.09974,344339.6206666,-58
1658571988.09974,344339.6206724,-41
1658571988.09974,344339.6206763,-51
1658571988.09974,344339.620682,-36
1658571988.09974,344339.620686,-21
1658571988.09974,344339.6206915,-26
1658571988.09974,344339.6206956,-21
1658571988.09974,344339.6207009,-7
1658571988.09974,344339.6207053,-2
1658571988.09974,344339.6207089,-2
1658571988.09974,344339.6207141,0
1658571988.09974,344339.6207176,-12
1658571988.09974,344339.620721,-24
1658571988.09974,344339.6207244,-21
1658571988.09974,344339.6207277,-26
1658571988.09974,344339.6207326,-19
1658571988.09974,344339.6207367,17
1658571988.09974,344339.6207424,48
1658571988.09974,344339.6207486,55
1658571988.09974,344339.6207525,53
1658571988.09974,344339.6207571,51
1658571988.09974,344339.6207603,41
1658571988.09974,344339.6207632,36
1658571988.09974,344339.6207664,41
1658571988.09974,344339.6207696,43
1658571988.09974,344339.6207728,43
1658571988.09974,344339.6207762,51
1658571988.09974,344339.6207793,55
1658571988.09974,344339.6207826,63
1658571988.09974,344339.6207859,75
1658571988.09974,344339.6207892,68
1658571988.09974,344339.6207925,53
1658571988.09974,344339.6207956,51
1658571988.09974,344339.6207989,48
1658571988.09974,344339.6208026,48
1658571988.09974,344339.620806,70
1658571988.09974,344339.6208125,85
1658571988.09974,344339.6208189,70
1658571988.09974,344339.6208224,48
1658571988.09974,344339.6208254,46
1658571988.12168,344339.6208284,53
1658571988.12168,344339.6208323,60
1658571988.12168,344339.620836,63
1658571988.12168,344339.6208392,58
1658571988.12168,344339.620842,36
1658571988.12168,344339.6208457,-12
1658571988.12168,344339.6208495,21
1658571988.12168,344339.6208531,340
1658571988.12168,344339.6208592,905
1658571988.12168,344339.6208628,1231
1658571988.12168,344339.6208679,866
1658571988.12168,344339.6208726,48
1658571988.12168,344339.6208787,-338
1658571988.12168,344339.6208824,-72
1658571988.12168,344339.6208861,60
1658571988.12168,344339.6208921,-87
1658571988.12168,344339.6208979,-77
1658571988.12168,344339.620904,-7
1658571988.12168,344339.6209099,-36
1658571988.12168,344340.2055362,-48
1658571988.12168,344340.2055565,-17
1658571988.12168,344340.205568,-19
1658571988.12168,344340.2055788,-34
1658571988.12168,344340.2055861,-29
1658571988.64529,344340.2055931,-19
1658571988.64529,344340.2055986,-4
1658571988.64529,344340.2056024,9
1658571988.64529,344340.2056067,9
1658571988.64529,344340.2056132,-4
1658571988.64529,344340.2056196,-9
1658571988.64529,344340.2056236,0
1658571988.64529,344340.2056272,2
1658571988.64529,344340.2056336,-7
1658571988.64529,344340.2056382,-9
1658571988.64529,344340.2056445,-7
1658571988.64529,344340.2056504,2
1658571988.64529,344340.2056547,26
1658571988.64529,344340.2056602,51
1658571988.64529,344340.2056671,63
1658571988.64529,344340.2056739,70
1658571988.64529,344340.205683,68
1658571988.64529,344340.2056911,51
1658571988.64529,344340.205699,38
1658571988.64529,344340.2057058,46
1658571988.64529,344340.2057141,53
1658571988.64529,344340.2057203,48
1658571988.64529,344340.205726,58
1658571988.64529,344340.2057327,75
1658571988.64529,344340.2057365,80
1658571988.64529,344340.20574,77
1658571988.64529,344340.2057438,82
1658571988.64529,344340.2057475,82
1658571988.64529,344340.205753,70
1658571988.64529,344340.2057585,68
1658571988.64529,344340.2057667,90
1658571988.64529,344340.2057728,111
1658571988.64529,344340.2057808,109
1658571988.64529,344340.2057867,90
1658571988.64529,344340.2057943,75
1658571988.64529,344340.2058011,72
1658571988.64529,344340.2058089,77
1658571988.64529,344340.2058152,80
1658571988.64529,344340.2058229,82
1658571988.64529,344340.2058289,77
1658571988.64529,344340.2058364,38
1658571988.64529,344340.2058424,-7
1658571988.64529,344340.2058501,150
1658571988.64529,344340.2058572,652
1658571988.64529,344340.2058646,1172
1658571988.64529,344340.2058719,1148
1658571988.64529,344340.205881,462
1658571988.64529,344340.2058854,-216
1658571988.64529,344340.2058933,-199
1658571988.64529,344340.2059017,80
1658571988.65626,344340.2059082,17
1658571988.65626,344340.2059163,-82
1658571988.65626,344340.2059225,-24
1658571988.65626,344340.205931,-14
1658571988.65626,344340.2059373,-43
1658571988.65626,344340.2059461,-24
1658571988.65626,344340.2059524,-4
1658571988.65626,344340.205961,-7
1658571988.65626,344340.205967,-7
1658571988.65626,344340.2059784,-2
1658571988.65626,344340.2059849,4
1658571988.65626,344340.205991,14
1658571988.65626,344340.2059974,19
1658571988.65626,344340.2060033,21
1658571988.65626,344340.2060098,29
1658571988.65626,344340.2060171,38
1658571988.65626,344340.2060208,34
1658571988.65626,344340.2060245,19
1658571988.65626,344340.743233,9
1658571988.65626,344340.7432556,4
1658571988.65626,344340.7432647,19
1658571988.65626,344340.7432674,51
1658571988.65626,344340.7432698,80
1658571988.65626,344340.7432719,102
1658571989.18077,344340.7432741,107
1658571989.18077,344340.7432762,97
1658571989.18077,344340.7432783,90
1658571989.18077,344340.7432806,85
1658571989.18077,344340.7432839,82
1658571989.18077,344340.7432932,82
1658571989.18077,344340.7432978,80
1658571989.18077,344340.7433043,70
1658571989.18077,344340.7433124,68
1658571989.18077,344340.7433202,82
1658571989.18077,344340.7433291,92
1658571989.18077,344340.7433373,90
1658571989.18077,344340.7433438,77
1658571989.18077,344340.7433519,55
1658571989.18077,344340.7433581,46
1658571989.18077,344340.7433657,65
1658571989.18077,344340.7433722,99
1658571989.18077,344340.7433809,107
1658571989.18077,344340.7433874,85
1658571989.18077,344340.7433954,65
1658571989.18077,344340.7434017,65
1658571989.18077,344340.7434102,72
1658571989.18077,344340.7434166,77
1658571989.18077,344340.7434246,77
1658571989.18077,344340.7434309,72
1658571989.18077,344340.743439,21
1658571989.18077,344340.7434455,-17
1658571989.18077,344340.7434542,194
1658571989.18077,344340.7434607,749
1658571989.18077,344340.7434689,1243
1658571989.18077,344340.743475,1126
1658571989.18077,344340.7434824,384
1658571989.18077,344340.7434878,-226
1658571989.18077,344340.7434968,-143
1658571989.18077,344340.7435043,85
1658571989.18077,344340.7435112,-9
1658571989.18077,344340.7435222,-65
1658571989.18077,344340.7435327,9
1658571989.18077,344340.7435396,4
1658571989.18077,344340.7435479,-21
1658571989.18077,344340.7435572,7
1658571989.18077,344340.7435778,19
1658571989.18077,344340.7435831,17
1658571989.18077,344340.743587,29
1658571989.18077,344340.7435906,26
1658571989.18077,344340.7435937,12
1658571989.18077,344340.7435968,26
1658571989.18077,344340.7436001,51
1658571989.18077,344340.7436034,48
1658571989.18077,344340.7436079,38
1658571989.22067,344340.7436139,41
1658571989.22067,344340.7436184,38
1658571989.22067,344340.743622,34
1658571989.22067,344340.7436264,29
1658571989.22067,344340.7436307,29
1658571989.22067,344340.7436343,38
1658571989.22067,344340.7436384,65
1658571989.22067,344340.7436421,99
1658571989.22067,344340.7436456,124
1658571989.22067,344340.7436492,131
1658571989.22067,344340.7436527,136
1658571989.22067,344340.7436563,133
1658571989.22067,344340.7436599,126
1658571989.22067,344340.7436635,124
1658571989.22067,344340.743667,121
1658571989.22067,344340.7436708,114
1658571989.22067,344340.7436743,116
1658571989.22067,344341.2805385,126
1658571989.22067,344341.2805582,124
1658571989.22067,344341.2805654,121
1658571989.22067,344341.280574,128
1658571989.22067,344341.2805827,126
1658571989.22067,344341.2805913,114
1658571989.22067,344341.2805999,111
1658571989.77908,344341.2806087,136
1658571989.77908,344341.2806158,163
1658571989.77908,344341.2806223,138
1658571989.77908,344341.2806278,92
1658571989.77908,344341.2806318,85
1658571989.77908,344341.2806357,85
1658571989.77908,344341.2806391,80
1658571989.77908,344341.2806428,85
1658571989.77908,344341.2806505,85
1658571989.77908,344341.2806561,60
1658571989.77908,344341.2806618,7
1658571989.77908,344341.2806655,12
1658571989.77908,344341.2806738,296
1658571989.77908,344341.2806823,875
1658571989.77908,344341.2806895,1270
1658571989.77908,344341.2806943,963
1658571989.77908,344341.280701,143
1658571989.77908,344341.2807081,-318
1658571989.77908,344341.2807164,-107
1658571989.77908,344341.2807229,60
1658571989.77908,344341.2807261,-70
1658571989.77908,344341.2807306,-90
1658571989.77908,344341.2807363,-19
1658571989.77908,344341.28075,-48
1658571989.77908,344341.2807575,-68
1658571989.77908,344341.280766,-36
1658571989.77908,344341.2807732,-31
1658571989.77908,344341.280782,-41
1658571989.77908,344341.2807885,-31
1658571989.77908,344341.2807964,-24
1658571989.77908,344341.280805,-24
1658571989.77908,344341.2808122,-19
1658571989.77908,344341.280821,-12
1658571989.77908,344341.2808285,-14
1658571989.77908,344341.2808406,-24
1658571989.77908,344341.2808476,-38
1658571989.77908,344341.2808703,-60
1658571989.77908,344341.280876,-70
1658571989.77908,344341.2808836,-77
1658571989.77908,344341.2808888,-92
1658571989.77908,344341.2808928,-90
1658571989.77908,344341.2808981,-60
1658571989.77908,344341.2809032,-31
1658571989.77908,344341.2809074,-19
1658571989.77908,344341.2809127,-9
1658571989.77908,344341.2809176,-2
1658571989.77908,344341.2809218,-2
1658571989.77908,344341.2809272,2
1658571989.77908,344341.2809324,12
1658571989.77908,344341.2809386,17
1658571989.80401,344341.280943,24
1658571989.80401,344341.2809461,41
1658571989.80401,344341.280949,46
1658571989.80401,344341.2809519,46
1658571989.80401,344341.2809548,51
1658571989.80401,344341.2809578,51
1658571989.80401,344341.2809607,43
1658571989.80401,344341.2809638,36
1658571989.80401,344341.2809667,41
1658571989.80401,344341.2809698,58
1658571989.80401,344341.2809728,90
1658571989.80401,344341.2809757,99
1658571989.80401,344341.2809785,75
1658571989.80401,344341.2809814,48
1658571989.80401,344341.2809843,46
1658571989.80401,344341.2809873,53
1658571989.80401,344341.8648997,53
1658571989.80401,344341.8649169,55
1658571989.80401,344341.8649257,58
1658571989.80401,344341.8649327,14
1658571989.80401,344341.8649386,21
1658571989.80401,344341.8649433,299
1658571989.80401,344341.8649491,846
1658571989.80401,344341.8649537,1231
1658571990.31458,344341.8649597,980
1658571990.31458,344341.8649642,187
1658571990.31458,344341.8649686,-330
1658571990.31458,344341.8649729,-114
1658571990.31458,344341.8649786,94
1658571990.31458,344341.8649844,-80
1658571990.31458,344341.8649923,-124
1658571990.31458,344341.8650018,-9
1658571990.31458,344341.8650078,-31
1658571990.31458,344341.865015,-80
1658571990.31458,344341.8650239,-48
1658571990.31458,344341.8650318,-60
1658571990.31458,344341.865035,-97
1658571990.31458,344341.8650419,-68
1658571990.31458,344341.8650454,-46
1658571990.31458,344341.8650523,-51
1658571990.31458,344341.8650623,-34
1658571990.31458,344341.8650739,-26
1658571990.31458,344341.8650835,-26
1658571990.31458,344341.865089,-12
1658571990.31458,344341.865103,-17
1658571990.31458,344341.8651133,-43
1658571990.31458,344341.8651204,-53
1658571990.31458,344341.8651307,-58
1658571990.31458,344341.8651366,-70
1658571990.31458,344341.8651444,-55
1658571990.31458,344341.8651555,-17
1658571990.31458,344341.8651624,4
1658571990.31458,344341.8651657,12
1658571990.31458,344341.8651756,31
1658571990.31458,344341.8651786,58
1658571990.31458,344341.8651863,41
1658571990.31458,344341.8652006,0
1658571990.31458,344341.8652135,-2
1658571990.31458,344341.8652268,19
1658571990.31458,344341.8652398,34
1658571990.31458,344341.8652545,48
1658571990.31458,344341.8652678,55
1658571990.31458,344341.865281,68
1658571990.31458,344341.8652951,94
1658571990.31458,344341.8653093,85
1658571990.31458,344341.8653225,51
1658571990.31458,344341.8653362,43
1658571990.31458,344341.8653486,51
1658571990.31458,344341.8653611,75
1658571990.31458,344341.8653933,114
1658571990.31458,344341.8654041,104
1658571990.31458,344341.8654094,68
1658571990.31458,344341.8654127,65
1658571990.31458,344341.8655091,90
1658571990.3344,344341.8655324,92
1658571990.3344,344341.8655396,53
1658571990.3344,344341.8655438,34
1658571990.3344,344341.8655474,58
1658571990.3344,344341.8655505,38
1658571990.3344,344341.8655539,-2
1658571990.3344,344341.8655573,187
1658571990.3344,344341.8655611,742
1658571990.3344,344341.865565,1279
1658571990.3344,344341.8655681,1214
1658571990.3344,344341.8655728,435
1658571990.3344,344341.8655769,-301
1658571990.3344,344341.8655825,-240
1658571990.3344,344341.8655891,90
1658571990.3344,344341.8655958,17
1658571990.3344,344342.3994446,-85
1658571990.3344,344342.3994656,12
1658571990.3344,344342.3994796,34
1658571990.3344,344342.3994895,-9
1658571990.3344,344342.3994984,9
1658571990.3344,344342.3995053,51
1658571990.3344,344342.3995137,60
1658571990.3344,344342.3995191,51
1658571990.3344,344342.3995239,36
1658571990.88744,344342.3995262,31
1658571990.88744,344342.3995283,38
1658571990.88744,344342.3995304,58
1658571990.88744,344342.3995324,70
1658571990.88744,344342.3995343,68
1658571990.88744,344342.3995364,65
1658571990.88744,344342.3995385,65
1658571990.88744,344342.3995405,51
1658571990.88744,344342.3995425,34
1658571990.88744,344342.3995446,24
1658571990.88744,344342.3995465,29
1658571990.88744,344342.3995501,51
1658571990.88744,344342.3995583,75
1658571990.88744,344342.3995656,87
1658571990.88744,344342.3995705,87
1658571990.88744,344342.3995778,70
1658571990.88744,344342.3995833,41
1658571990.88744,344342.3995961,38
1658571990.88744,344342.399607,41
1658571990.88744,344342.3996159,21
1658571990.88744,344342.3996257,17
1658571990.88744,344342.3996297,31
1658571990.88744,344342.3996338,38
1658571990.88744,344342.3996358,48
1658571990.88744,344342.3996379,70
1658571990.88744,344342.3996401,82
1658571990.88744,344342.3996422,80
1658571990.88744,344342.3996443,65
1658571990.88744,344342.3996464,53
1658571990.88744,344342.3996496,65
1658571990.88744,344342.3996625,90
1658571990.88744,344342.3996697,109
1658571990.88744,344342.399672,104
1658571990.88744,344342.3996741,94
1658571990.88744,344342.3996762,99
1658571990.88744,344342.3996785,102
1658571990.88744,344342.3996861,82
1658571990.88744,344342.3996968,65
1658571990.88744,344342.3997003,68
1658571990.88744,344342.3997041,58
1658571990.88744,344342.3997063,-4
1658571990.88744,344342.3997085,21
1658571990.88744,344342.3997112,374
1658571990.88744,344342.3997134,970
1658571990.88744,344342.3997156,1328
1658571990.88744,344342.3997183,1029
1658571990.88744,344342.3997204,184
1658571990.88744,344342.3997227,-350
1658571990.88744,344342.3997249,-116
1658571990.88744,344342.3997269,116
1658571990.90339,344342.399729,-24
1658571990.90339,344342.3997314,-68
1658571990.90339,344342.3997335,9
1658571990.90339,344342.3997357,-4
1658571990.90339,344342.3997414,-24
1658571990.90339,344342.3997528,12
1658571990.90339,344342.3997614,43
1658571990.90339,344342.3997691,36
1658571990.90339,344342.3997756,21
1658571990.90339,344342.399778,34
1658571990.90339,344342.3997802,58
1658571990.90339,344342.3997824,68
1658571990.90339,344342.3997844,72
1658571990.90339,344342.3997866,77
1658571990.90339,344342.984655,77
1658571990.90339,344342.9846743,82
1658571990.90339,344342.9846828,94
1658571990.90339,344342.984688,87
1658571990.90339,344342.9846965,58
1658571990.90339,344342.9847011,31
1658571990.90339,344342.9847047,26
1658571990.90339,344342.9847099,41
1658571990.90339,344342.9847133,75
1658571990.90339,344342.9847171,92
1658571991.53168,344342.9847204,90
1658571991.53168,344342.9847244,99
1658571991.53168,344342.9847293,97
1658571991.53168,344342.9847334,72
1658571991.53168,344342.9847377,70
1658571991.53168,344342.9847421,99
1658571991.53168,344342.9847489,109
1658571991.53168,344342.984754,77
1658571991.53168,344342.9847591,58
1658571991.53168,344342.9847653,75
1658571991.53168,344342.9847694,80
1658571991.53168,344342.9847727,68
1658571991.53168,344342.9847761,80
1658571991.53168,344342.9847802,104
1658571991.53168,344342.9847855,104
1658571991.53168,344342.9847891,94
1658571991.53168,344342.9847966,114
1658571991.53168,344342.9848044,136
1658571991.53168,344342.9848093,121
1658571991.53168,344342.9848166,94
1658571991.53168,344342.9848255,99
1658571991.53168,344342.9848305,114
1658571991.53168,344342.9848388,119
1658571991.53168,344342.9848439,111
1658571991.53168,344342.9848534,116
1658571991.53168,344342.9848581,104
1658571991.53168,344342.9848684,24
1658571991.53168,344342.9848766,17
1658571991.53168,344342.9848837,369
1658571991.53168,344342.9848884,1021
1658571991.53168,344342.9848979,1406
1658571991.53168,344342.9849051,1031
1658571991.53168,344342.9849137,165
1658571991.53168,344342.9849226,-294
1658571991.53168,344342.9849293,-58
1658571991.53168,344342.9849379,109
1658571991.53168,344342.984952,-29
1658571991.53168,344342.9849599,-36
1658571991.53168,344342.9849693,41
1658571991.53168,344342.9849759,17
1658571991.53168,344342.9849826,14
1658571991.53168,344342.984991,65
1658571991.53168,344342.9849989,70
1658571991.53168,344342.9850033,38
1658571991.53168,344342.9850064,43
1658571991.53168,344342.9850095,68
1658571991.53168,344342.9850124,85
1658571991.53168,344342.9850155,94
1658571991.53168,344342.9850184,92
1658571991.53168,344342.9850228,104
1658571991.55462,344342.985031,138
1658571991.55462,344342.9850373,150
1658571991.55462,344342.9850448,131
1658571991.55462,344342.985054,119
1658571991.55462,344342.985082,102
1658571991.55462,344342.9850912,87
1658571991.55462,344342.9850973,104
1658571991.55462,344342.9851045,148
1658571991.55462,344342.9851105,184
1658571991.55462,344342.9851148,204
1658571991.55462,344342.985122,211
1658571991.55462,344342.9851276,209
1658571991.55462,344342.9851313,192
1658571991.55462,344343.6182707,182
1658571991.55462,344343.6182836,192
1658571991.55462,344343.6182876,199
1658571991.55462,344343.618291,192
1658571991.55462,344343.6182934,184
1658571991.55462,344343.6182958,199
1658571991.55462,344343.6182979,226
1658571991.55462,344343.6183001,238
1658571991.55462,344343.6183023,231
1658571991.55462,344343.6183044,197
1658571991.55462,344343.6183065,167
1658571992.06824,344343.6183086,170
1658571992.06824,344343.6183108,163
1658571992.06824,344343.6183142,160
1658571992.06824,344343.6183223,194
1658571992.06824,344343.6183318,192
1658571992.06824,344343.6183403,138
1658571992.06824,344343.6183456,121
1658571992.06824,344343.6183494,138
1658571992.06824,344343.6183541,128
1658571992.06824,344343.6183606,114
1658571992.06824,344343.6183667,128
1658571992.06824,344343.6183762,126
1658571992.06824,344343.6183848,65
1658571992.06824,344343.6183936,-7
1658571992.06824,344343.618405,141
1658571992.06824,344343.6184085,686
1658571992.06824,344343.6184139,1313
1658571992.06824,344343.618427,1389
1658571992.06824,344343.6184355,681
1658571992.06824,344343.6184379,-148
1658571992.06824,344343.6184401,-253
1658571992.06824,344343.6184422,46
1658571992.06824,344343.6184443,14
1658571992.06824,344343.6184464,-109
1658571992.06824,344343.6184485,-38
1658571992.06824,344343.6184505,-12
1658571992.06824,344343.6184526,-51
1658571992.06824,344343.6184546,-34
1658571992.06824,344343.6184568,-17
1658571992.06824,344343.6184589,-31
1658571992.06824,344343.6184609,-29
1658571992.06824,344343.6184631,-21
1658571992.06824,344343.6184651,-29
1658571992.06824,344343.6184672,-29
1658571992.06824,344343.6184693,-19
1658571992.06824,344343.6184713,-17
1658571992.06824,344343.6184733,-19
1658571992.06824,344343.6184754,-17
1658571992.06824,344343.6184775,-14
1658571992.06824,344343.6184796,-21
1658571992.06824,344343.6184817,-29
1658571992.06824,344343.6184853,-36
1658571992.06824,344343.6184992,-51
1658571992.06824,344343.6185087,-58
1658571992.06824,344343.6185112,-46
1658571992.06824,344343.6185149,-7
1658571992.06824,344343.6185286,19
1658571992.06824,344343.618538,9
1658571992.06824,344343.6185405,-4
1658571992.06824,344343.6185468,-9
1658571992.09019,344343.6185598,-17
1658571992.09019,344343.6185677,-14
1658571992.09019,344343.6185702,-12
1658571992.09019,344343.6185725,-29
1658571992.09019,344343.6185747,-38
1658571992.09019,344343.6185768,-24
1658571992.09019,344343.61858,-12
1658571992.09019,344343.6185902,-14
1658571992.09019,344343.6185986,-14
1658571992.09019,344343.6186011,-4
1658571992.09019,344343.6186033,9
1658571992.09019,344343.6186054,4
1658571992.09019,344344.155138,-19
1658571992.09019,344344.1551559,-31
1658571992.09019,344344.1551664,-12
1658571992.09019,344344.1551756,19
1658571992.09019,344344.1551813,17
1658571992.09019,344344.1551834,-19
1658571992.09019,344344.1551863,-48
1658571992.09019,344344.1551885,-65
1658571992.09019,344344.1551907,-77
1658571992.09019,344344.1551964,-85
1658571992.09019,344344.1552065,-80
1658571992.09019,344344.1552117,-80
1658571992.55726,344344.1552211,-145
1658571992.55726,344344.1552278,-250
1658571992.55726,344344.155234,-145
1658571992.55726,344344.1552431,386
1658571992.55726,344344.1552506,1102
1658571992.55726,344344.1552562,1369
1658571992.55726,344344.1552605,788
1658571992.55726,344344.1552665,-199
1658571992.55726,344344.1552706,-552
1658571992.55726,344344.1552744,-226
1658571992.55726,344344.1552786,-141
1658571992.55726,344344.1552841,-296
1658571992.55726,344344.1552888,-248
1658571992.55726,344344.1552944,-192
1658571992.55726,344344.1552981,-257
1658571992.55726,344344.1553022,-260
1658571992.55726,344344.1553078,-216
1658571992.55726,344344.1553128,-223
1658571992.55726,344344.1553179,-228
1658571992.55726,344344.1553225,-189
1658571992.55726,344344.155326,-163
1658571992.55726,344344.1553291,-163
1658571992.55726,344344.1553325,-163
1658571992.55726,344344.1553381,-145
1658571992.55726,344344.1553415,-136
1658571992.55726,344344.1553465,-150
1658571992.55726,344344.1553496,-148
1658571992.55726,344344.1553566,-119
1658571992.55726,344344.15536,-109
1658571992.55726,344344.1553652,-128
1658571992.55726,344344.1553689,-148
1658571992.55726,344344.1553738,-141
1658571992.55726,344344.1553773,-109
1658571992.55726,344344.1553808,-70
1658571992.55726,344344.1553857,-14
1658571992.55726,344344.1553906,24
1658571992.55726,344344.1553956,26
1658571992.55726,344344.1553988,24
1658571992.55726,344344.1554022,17
1658571992.55726,344344.155407,-7
1658571992.55726,344344.1554121,-9
1658571992.55726,344344.1554158,14
1658571992.55726,344344.1554215,24
1658571992.55726,344344.1554246,17
1658571992.55726,344344.1554277,21
1658571992.55726,344344.1554308,38
1658571992.55726,344344.1554339,55
1658571992.55726,344344.155437,63
1658571992.55726,344344.1554402,60
1658571992.55726,344344.1554434,58
1658571992.58056,344344.1554473,60
1658571992.58056,344344.1554514,68
1658571992.58056,344344.1554546,55
1658571992.58056,344344.1554576,29
1658571992.58056,344344.1554608,34
1658571992.58056,344344.155464,68
1658571992.58056,344344.1554674,87
1658571992.58056,344344.1554706,92
1658571992.58056,344344.155474,82
1658571992.58056,344344.1554774,51
1658571992.58056,344344.1554809,41
1658571992.58056,344344.6415456,72
1658571992.58056,344344.6415743,82
1658571992.58056,344344.6415784,60
1658571992.58056,344344.6416226,36
1658571992.58056,344344.6416293,-4
1658571992.58056,344344.6416329,31
1658571992.58056,344344.6416359,408
1658571992.58056,344344.641639,1124
1658571992.58056,344344.6416424,1620
1658571992.58056,344344.6416484,1323
1658571992.58056,344344.6416517,343
1658571992.58056,344344.6416567,-345
1658571992.58056,344344.6416598,-158
1658571993.13095,344344.6416648,99
1658571993.13095,344344.6416682,-48
1658571993.13095,344344.6416718,-111
1658571993.13095,344344.6416752,-21
1658571993.13095,344344.6416802,-26
1658571993.13095,344344.6416843,-51
1658571993.13095,344344.6416884,-34
1658571993.13095,344344.6416927,-29
1658571993.13095,344344.6416961,-26
1658571993.13095,344344.6416996,-21
1658571993.13095,344344.6417034,-26
1658571993.13095,344344.641707,-24
1658571993.13095,344344.6417106,-14
1658571993.13095,344344.6417141,4
1658571993.13095,344344.6417181,21
1658571993.13095,344344.641722,7
1658571993.13095,344344.6417255,-17
1658571993.13095,344344.6417292,-14
1658571993.13095,344344.6417328,9
1658571993.13095,344344.6417381,17
1658571993.13095,344344.6417422,0
1658571993.13095,344344.6417489,2
1658571993.13095,344344.641756,12
1658571993.13095,344344.6417607,14
1658571993.13095,344344.6417646,21
1658571993.13095,344344.6417692,21
1658571993.13095,344344.6417742,12
1658571993.13095,344344.6417781,34
1658571993.13095,344344.6417826,53
1658571993.13095,344344.6417868,31
1658571993.13095,344344.6417913,21
1658571993.13095,344344.641796,46
1658571993.13095,344344.6418,46
1658571993.13095,344344.6418065,24
1658571993.13095,344344.6418112,19
1658571993.13095,344344.6418174,2
1658571993.13095,344344.6418232,-9
1658571993.13095,344344.6418297,17

1658571993.13095,344344.6418343,46
1658571993.13095,344344.6418383,43
1658571993.13095,344344.6418447,31
1658571993.13095,344344.6418515,38
1658571993.13095,344344.6418561,48
1658571993.13095,344344.6418622,34
1658571993.13095,344344.6418705,4
1658571993.13095,344344.641877,4
1658571993.13095,344344.6418816,12
1658571993.13095,344344.641888,12
1658571993.13095,344344.6418967,21
1658571993.13095,344344.6419034,14
1658571993.15288,344344.6419096,-14
1658571993.15288,344344.6419145,-7
1658571993.15288,344344.6419198,26
1658571993.15288,344344.6419237,19
1658571993.15288,344344.6419296,-7
1658571993.15288,344344.6419343,4
1658571993.15288,344344.6419412,26
1658571993.15288,344344.6419522,36
1658571993.15288,344344.6419641,43
1658571993.15288,344344.6419707,38
1658571993.15288,344345.228085,48
1658571993.15288,344345.2281119,60
1658571993.15288,344345.2281145,43
1658571993.15288,344345.2281167,19
1658571993.15288,344345.2281192,-17
1658571993.15288,344345.2281213,97
1658571993.15288,344345.2281234,596
1658571993.15288,344345.2281256,1306
1658571993.15288,344345.2281278,1574
1658571993.15288,344345.2281298,948
1658571993.15288,344345.228132,-70
1658571993.15288,344345.2281341,-428
1658571993.15288,344345.2281362,-136
1658571993.15288,344345.2281383,-111
1658571993.66167,344345.2281405,-296
1658571993.66167,344345.2281426,-226
1658571993.66167,344345.2281445,-138
1658571993.66167,344345.2281465,-170
1658571993.66167,344345.2281485,-160
1658571993.66167,344345.2281504,-111
1658571993.66167,344345.2281523,-80
1658571993.66167,344345.2281543,-60
1658571993.66167,344345.2281562,-97
1658571993.66167,344345.2281581,-138
1658571993.66167,344345.2281602,-97
1658571993.66167,344345.2281622,-38
1658571993.66167,344345.2281642,-9
1658571993.66167,344345.2281662,4
1658571993.66167,344345.2281682,-2
1658571993.66167,344345.2281701,-4
1658571993.66167,344345.2281721,14
1658571993.66167,344345.2281741,26
1658571993.66167,344345.2281761,14
1658571993.66167,344345.2281785,0
1658571993.66167,344345.2281808,4
1658571993.66167,344345.2281828,21
1658571993.66167,344345.2281849,38
1658571993.66167,344345.228187,58
1658571993.66167,344345.2281891,60
1658571993.66167,344345.2281913,55
1658571993.66167,344345.2281934,58
1658571993.66167,344345.2281955,51
1658571993.66167,344345.2281993,38
1658571993.66167,344345.2282022,48
1658571993.66167,344345.2282086,55
1658571993.66167,344345.2282197,41
1658571993.66167,344345.2282245,46
1658571993.66167,344345.2282304,70
1658571993.66167,344345.2282339,70
1658571993.66167,344345.228239,70
1658571993.66167,344345.2282424,87
1658571993.66167,344345.2282474,82
1658571993.66167,344345.2282516,72
1658571993.66167,344345.2282569,94
1658571993.66167,344345.2282606,114
1658571993.66167,344345.228267,102
1658571993.66167,344345.2282724,68
1658571993.66167,344345.2282777,63
1658571993.66167,344345.2282832,87
1658571993.66167,344345.2282885,94
1658571993.66167,344345.2282923,70
1658571993.66167,344345.2282969,46
1658571993.66167,344345.2283022,41
1658571993.66167,344345.2283057,55
1658571993.67364,344345.2283095,75
1658571993.67364,344345.2283161,65
1658571993.67364,344345.2283205,51
1658571993.67364,344345.2283263,53
1658571993.67364,344345.2283327,65
1658571993.67364,344345.2283375,55
1658571993.67364,344345.228346,21
1658571993.67364,344345.2283506,12
1658571993.67364,344345.2283564,26
1658571993.67364,344345.7627645,34
1658571993.67364,344345.7627765,53
1658571993.67364,344345.7627802,75
1658571993.67364,344345.7627826,72
1658571993.67364,344345.7627848,65
1658571993.67364,344345.762787,65
1658571993.67364,344345.7627892,55
1658571993.67364,344345.7627913,51
1658571993.67364,344345.7627934,58
1658571993.67364,344345.7627955,43
1658571993.67364,344345.7627977,38
1658571993.67364,344345.7627999,48
1658571993.67364,344345.762802,7
1658571993.67364,344345.7628042,21
1658571993.67364,344345.7628064,384
1658571994.2495,344345.7628086,1092
1658571994.2495,344345.7628106,1635
1658571994.2495,344345.7628127,1445
1658571994.2495,344345.7628149,489
1658571994.2495,344345.762817,-357
1658571994.2495,344345.7628191,-306
1658571994.2495,344345.7628212,7
1658571994.2495,344345.7628232,-87
1658571994.2495,344345.7628252,-175
1658571994.2495,344345.7628273,-92
1658571994.2495,344345.7628295,-72
1658571994.2495,344345.7628316,-82
1658571994.2495,344345.7628336,-60
1658571994.2495,344345.7628356,-48
1658571994.2495,344345.7628377,-41
1658571994.2495,344345.7628399,-26
1658571994.2495,344345.7628451,-14
1658571994.2495,344345.762854,-7
1658571994.2495,344345.7628656,12
1658571994.2495,344345.7628709,36
1658571994.2495,344345.7628729,46
1658571994.2495,344345.7628758,53
1658571994.2495,344345.762878,72
1658571994.2495,344345.76288,97
1658571994.2495,344345.7628822,111
1658571994.2495,344345.7628844,102
1658571994.2495,344345.7628865,92
1658571994.2495,344345.7628886,80
1658571994.2495,344345.7628907,55
1658571994.2495,344345.7628968,58
1658571994.2495,344345.7628988,82
1658571994.2495,344345.7629018,92
1658571994.2495,344345.7629039,92
1658571994.2495,344345.762906,99
1658571994.2495,344345.762908,90
1658571994.2495,344345.7629102,51
1658571994.2495,344345.7629123,34
1658571994.2495,344345.7629143,46
1658571994.2495,344345.7629185,34
1658571994.2495,344345.7629207,2
1658571994.2495,344345.7629227,4
1658571994.2495,344345.7629248,14
1658571994.2495,344345.7629409,19
1658571994.2495,344345.762959,34
1658571994.2495,344345.7630146,46
1658571994.2495,344345.7630244,43
1658571994.2495,344345.7630306,53
1658571994.2495,344345.7630364,63
1658571994.2495,344345.7630403,55
1658571994.2495,344345.763044,48
1658571994.26047,344345.7630473,41
1658571994.26047,344345.7630517,41
1658571994.26047,344345.7630551,51
1658571994.26047,344345.7630584,53
1658571994.26047,344345.7630618,41
1658571994.26047,344345.7630663,34
1658571994.26047,344345.7630699,38
1658571994.26047,344345.7630779,43
1658571994.26047,344346.3476843,51
1658571994.26047,344346.3476973,51
1658571994.26047,344346.3477005,46
1658571994.26047,344346.3477032,43
1658571994.26047,344346.3477058,46
1658571994.26047,344346.3477082,36
1658571994.26047,344346.3477105,26
1658571994.26047,344346.347713,29
1658571994.26047,344346.3477153,46
1658571994.26047,344346.3477177,51
1658571994.26047,344346.34772,36
1658571994.26047,344346.3477224,26
1658571994.26047,344346.3477247,24
1658571994.26047,344346.3477307,14
1658571994.26047,344346.3477427,14
1658571994.26047,344346.3477487,14
1658571994.9428,344346.3477518,17
1658571994.9428,344346.3477887,29
1658571994.9428,344346.3478354,38
1658571994.9428,344346.3478915,36
1658571994.9428,344346.3479012,41
1658571994.9428,344346.3479079,51
1658571994.9428,344346.3479143,38
1658571994.9428,344346.3479206,21
1658571994.9428,344346.3479277,31
1658571994.9428,344346.3479336,48
1658571994.9428,344346.3479398,55
1658571994.9428,344346.3479469,70
1658571994.9428,344346.3479521,92
1658571994.9428,344346.3479554,99
1658571994.9428,344346.3479655,82
1658571994.9428,344346.3479721,72
1658571994.9428,344346.3479757,75
1658571994.9428,344346.3479795,70
1658571994.9428,344346.3479858,60
1658571994.9428,344346.3479908,68
1658571994.9428,344346.3479955,70
1658571994.9428,344346.3479988,26
1658571994.9428,344346.3480029,29
1658571994.9428,344346.3480093,326
1658571994.9428,344346.3480126,995
1658571994.9428,344346.3480159,1615
1658571994.9428,344346.3480193,1547
1658571994.9428,344346.3480224,642
1658571994.9428,344346.3480269,-296
1658571994.9428,344346.3480327,-350
1658571994.9428,344346.3480375,-24
1658571994.9428,344346.3480418,-107
1658571994.9428,344346.348047,-214
1658571994.9428,344346.3480519,-99
1658571994.9428,344346.348059,-80
1658571994.9428,344346.3480673,-128
1658571994.9428,344346.3480752,-99
1658571994.9428,344346.3480812,-77
1658571994.9428,344346.3480912,-82
1658571994.9428,344346.3480972,-68
1658571994.9428,344346.3481026,-55
1658571994.9428,344346.348108,-53
1658571994.9428,344346.3481166,-36
1658571994.9428,344346.3481231,-19
1658571994.9428,344346.3481317,-12
1658571994.9428,344346.3481375,9
1658571994.9428,344346.3481417,34
1658571994.9428,344346.3481459,43
1658571994.9428,344346.3481529,48
1658571994.9428,344346.3481594,55
1658571994.97173,344346.3481659,53
1658571994.97173,344346.3481706,51
1658571994.97173,344346.3481745,48
1658571994.97173,344346.3481801,31
1658571994.97173,344346.3481848,24
1658571994.97173,344346.3481898,38
1658571994.97173,344346.348197,53
1658571994.97173,344346.933877,51
1658571994.97173,344346.9339036,53
1658571994.97173,344346.9339189,53
1658571994.97173,344346.9339315,41
1658571994.97173,344346.9339394,36
1658571994.97173,344346.9339442,36
1658571994.97173,344346.9339484,34
1658571994.97173,344346.9339541,36
1658571994.97173,344346.9339588,41
1658571994.97173,344346.9339632,34
1658571994.97173,344346.9339686,26
1658571994.97173,344346.9339739,43
1658571994.97173,344346.9339784,60
1658571994.97173,344346.9340022,63
1658571994.97173,344346.9340117,63
1658571994.97173,344346.9340165,58
1658571994.97173,344346.9340209,43
1658571995.37259,344346.9340253,46
1658571995.37259,344346.9340299,53
1658571995.37259,344346.9340344,46
1658571995.37259,344346.9340399,36
1658571995.37259,344346.9340441,38
1658571995.37259,344346.9340486,36
1658571995.37259,344346.9340533,29
1658571995.37259,344346.9340576,31
1658571995.37259,344346.934062,34
1658571995.37259,344346.9340666,21
1658571995.37259,344346.9340711,19
1658571995.37259,344346.9340754,19
1658571995.37259,344346.9340797,17
1658571995.37259,344346.9340843,21
1658571995.37259,344346.9340888,24
1658571995.37259,344346.9340929,17
1658571995.37259,344346.9340969,17
1658571995.37259,344346.934101,21
1658571995.37259,344346.9341052,9
1658571995.37259,344346.9341095,2
1658571995.37259,344346.9341138,14
1658571995.37259,344346.9341183,19
1658571995.37259,344346.9341229,29
1658571995.37259,344346.9341271,53
1658571995.37259,344346.9341312,51
1658571995.37259,344346.9341354,36
1658571995.37259,344346.9341394,36
1658571995.37259,344346.9341437,31
1658571995.37259,344346.9341478,26
1658571995.37259,344346.9341522,34
1658571995.37259,344346.9341571,48
1658571995.37259,344346.9341618,38
1658571995.37259,344346.9341665,0
1658571995.37259,344346.9341711,7
1658571995.37259,344346.9341759,279
1658571995.37259,344346.9341838,912
1658571995.37259,344346.9341886,1520
1658571995.37259,344346.9341934,1476
1658571995.37259,344346.9342001,620
1658571995.37259,344346.934205,-250
1658571995.37259,344346.9342113,-291
1658571995.37259,344346.934216,9
1658571995.37259,344346.9342224,-60
1658571995.37259,344346.9342275,-160
1658571995.37259,344346.9342338,-63
1658571995.37259,344346.9342403,-43
1658571995.37259,344346.9342471,-85
1658571995.37259,344346.934252,-51
1658571995.37259,344346.9342584,-21
1658571995.37259,344346.9342633,-26
1658571995.39952,344346.9342682,-14
1658571995.39952,344346.9342744,2
1658571995.39952,344346.9342787,7
1658571995.39952,344346.934283,9
1658571995.39952,344346.9342881,21
1658571995.39952,344346.9342946,36
1658571995.39952,344347.4695239,51
1658571995.39952,344347.4695362,68
1658571995.39952,344347.4695403,80
1658571995.39952,344347.4695431,92
1658571995.39952,344347.4695457,107
1658571995.39952,344347.4695482,107
1658571995.39952,344347.4695507,92
1658571995.39952,344347.4695533,82
1658571995.39952,344347.4695557,72
1658571995.39952,344347.4695581,68
1658571995.39952,344347.4695615,72
1658571995.39952,344347.4695704,77
1658571995.39952,344347.469581,60
1658571995.39952,344347.4695844,36
1658571995.39952,344347.4695874,29
1658571995.39952,344347.4695903,26
1658571995.39952,344347.469594,17
1658571995.39952,344347.4696067,12
1658571995.95032,344347.4696131,-4
1658571995.95032,344347.4696154,-29
1658571995.95032,344347.4696175,-24
1658571995.95032,344347.4696198,0
1658571995.95032,344347.4696294,12
1658571995.95032,344347.4696365,21
1658571995.95032,344347.4696392,29
1658571995.95032,344347.4696413,24
1658571995.95032,344347.4696433,31
1658571995.95032,344347.4696453,43
1658571995.95032,344347.4696473,31
1658571995.95032,344347.4696492,12
1658571995.95032,344347.4696512,14
1658571995.95032,344347.4696532,17
1658571995.95032,344347.4696552,7
1658571995.95032,344347.4696626,9
1658571995.95032,344347.4696741,17
1658571995.95032,344347.469685,19
1658571995.95032,344347.4696883,21
1658571995.95032,344347.4696956,24
1658571995.95032,344347.4697064,21
1658571995.95032,344347.4697111,24
1658571995.95032,344347.4697132,29
1658571995.95032,344347.4697154,34
1658571995.95032,344347.4697175,36
1658571995.95032,344347.469724,38
1658571995.95032,344347.4697349,43
1658571995.95032,344347.4697377,48
1658571995.95032,344347.46974,48
1658571995.95032,344347.4697422,46
1658571995.95032,344347.4697454,53
1658571995.95032,344347.4697584,58
1658571995.95032,344347.4697643,55
1658571995.95032,344347.4697666,58
1658571995.95032,344347.4697688,65
1658571995.95032,344347.4697709,68
1658571995.95032,344347.469773,68
1658571995.95032,344347.4697808,68
1658571995.95032,344347.4697912,68
1658571995.95032,344347.4697946,70
1658571995.95032,344347.4697982,72
1658571995.95032,344347.4698012,72
1658571995.95032,344347.4698118,70
1658571995.95032,344347.469819,70
1658571995.95032,344347.4698215,70
1658571995.95032,344347.4698237,68
1658571995.95032,344347.4698265,68
1658571995.95032,344347.4698369,75
1658571995.95032,344347.4698448,75
1658571995.95032,344347.4698474,70
1658571995.96029,344347.4698655,75
1658571995.96029,344347.4698752,85
1658571995.96029,344347.4698813,97
1658571995.96029,344347.4698905,109
1658571995.96029,344347.4698978,111
1658571995.96029,344348.054401,109
1658571995.96029,344348.0544164,107
1658571995.96029,344348.0544203,92
1658571995.96029,344348.0544236,77
1658571995.96029,344348.0544268,82
1658571995.96029,344348.05443,92
1658571995.96029,344348.0544353,82
1658571995.96029,344348.0544391,58
1658571995.96029,344348.0544521,14
1658571995.96029,344348.054477,58
1658571995.96029,344348.0545034,416
1658571995.96029,344348.0545188,1094
1658571995.96029,344348.0545332,1613
1658571995.96029,344348.0545471,1374
1658571995.96029,344348.0545624,406
1658571995.96029,344348.0545946,-355
1658571995.96029,344348.0546118,-260
1658571995.96029,344348.0546201,-19
1658571995.96029,344348.0546253,-148
1658571996.52692,344348.05463,-199
1658571996.52692,344348.0546348,-111
1658571996.52692,344348.0546399,-136
1658571996.52692,344348.0546459,-165
1658571996.52692,344348.0546669,-121
1658571996.52692,344348.0546902,-104
1658571996.52692,344348.0546958,-107
1658571996.52692,344348.0546997,-80
1658571996.52692,344348.0547249,-63
1658571996.52692,344348.0547337,-68
1658571996.52692,344348.0547382,-53
1658571996.52692,344348.0547424,-24
1658571996.52692,344348.0547471,-7
1658571996.52692,344348.054758,4
1658571996.52692,344348.0547654,21
1658571996.52692,344348.0547703,38
1658571996.52692,344348.0547732,53
1658571996.52692,344348.0547764,70
1658571996.52692,344348.0547812,75
1658571996.52692,344348.0548002,68
1658571996.52692,344348.0548094,65
1658571996.52692,344348.0548191,63
1658571996.52692,344348.0548321,55
1658571996.52692,344348.0548406,55
1658571996.52692,344348.0548462,65
1658571996.52692,344348.0548543,68
1658571996.52692,344348.0548594,72
1658571996.52692,344348.0548716,75
1658571996.52692,344348.0548839,65
1658571996.52692,344348.0548938,58
1658571996.52692,344348.0549017,60
1658571996.52692,344348.054906,60
1658571996.52692,344348.0549108,58
1658571996.52692,344348.0549185,58
1658571996.52692,344348.0549277,53
1658571996.52692,344348.0549351,58
1658571996.52692,344348.0549444,72
1658571996.52692,344348.054949,85
1658571996.52692,344348.0549556,87
1658571996.52692,344348.0549638,87
1658571996.52692,344348.0549729,92
1658571996.52692,344348.0549775,90
1658571996.52692,344348.0549864,82
1658571996.52692,344348.0549941,80
1658571996.52692,344348.0550027,82
1658571996.52692,344348.055007,80
1658571996.52692,344348.0550138,77
1658571996.52692,344348.0550218,75
1658571996.52692,344348.0550309,65
1658571996.52692,344348.0550351,63
1658571996.54786,344348.0550421,65
1658571996.54786,344348.0550494,65
1658571996.54786,344348.055057,60
1658571996.54786,344348.0550641,55
1658571996.54786,344348.6179154,48
1658571996.54786,344348.6179352,43
1658571996.54786,344348.6179449,51
1658571996.54786,344348.6179533,55
1658571996.54786,344348.6179579,53
1658571996.54786,344348.6179611,53
1658571996.54786,344348.6179642,43
1658571996.54786,344348.6179672,31
1658571996.54786,344348.6179702,29
1658571996.54786,344348.6179732,31
1658571996.54786,344348.6179763,26
1658571996.54786,344348.6179793,21
1658571996.54786,344348.6179823,12
1658571996.54786,344348.6179855,-2
1658571996.54786,344348.6179905,-14
1658571996.54786,344348.6179984,-19
1658571996.54786,344348.6180019,-19
1658571996.54786,344348.6180105,-19
1658571996.54786,344348.6180175,-29
1658571996.54786,344348.6180251,-34
1658571997.22548,344348.6180294,-19
1658571997.22548,344348.6180354,2
1658571997.22548,344348.6180425,4
1658571997.22548,344348.6180496,4
1658571997.22548,344348.6180565,9
1658571997.22548,344348.6180637,-2
1658571997.22548,344348.6180705,-12
1658571997.22548,344348.6180762,-2
1658571997.22548,344348.6180833,2
1658571997.22548,344348.6180904,-7
1658571997.22548,344348.6180976,0
1658571997.22548,344348.6181048,-2
1658571997.22548,344348.6181113,-34
1658571997.22548,344348.6181174,104
1658571997.22548,344348.6181246,649
1658571997.22548,344348.6181316,1391
1658571997.22548,344348.618139,1659
1658571997.22548,344348.6181462,1041
1658571997.22548,344348.6181523,-7
1658571997.22548,344348.6181596,-423
1658571997.22548,344348.6181822,-119
1658571997.22548,344348.6181892,-17
1658571997.22548,344348.6181964,-175
1658571997.22548,344348.6182026,-136
1658571997.22548,344348.6182089,-68
1658571997.22548,344348.618214,-97
1658571997.22548,344348.6182207,-85
1658571997.22548,344348.6182275,-46
1658571997.22548,344348.6182331,-43
1658571997.22548,344348.6182393,-38
1658571997.22548,344348.6182465,-19
1658571997.22548,344348.6182534,-2
1658571997.22548,344348.6182606,17
1658571997.22548,344348.6182677,31
1658571997.22548,344348.6182736,38
1658571997.22548,344348.6182808,55
1658571997.22548,344348.618288,75
1658571997.22548,344348.6182952,94
1658571997.22548,344348.6183023,119
1658571997.22548,344348.6183085,128
1658571997.22548,344348.6183155,126
1658571997.22548,344348.618323,131
1658571997.22548,344348.61833,126
1658571997.22548,344348.6183371,97
1658571997.22548,344348.6183442,82
1658571997.22548,344348.6183501,94
1658571997.22548,344348.6183573,107
1658571997.22548,344348.6183645,107
1658571997.22548,344348.6183715,104
1658571997.22548,344348.6183786,99
1658571997.23744,344348.6183848,87
1658571997.23744,344348.6183915,82
1658571997.23744,344348.6183985,80
1658571997.23744,344349.3225915,82
1658571997.23744,344349.3226103,85
1658571997.23744,344349.3226231,87
1658571997.23744,344349.3226362,87
1658571997.23744,344349.3226416,92
1658571997.23744,344349.3226469,90
1658571997.23744,344349.3226547,85
1658571997.23744,344349.3226605,87
1658571997.23744,344349.3226653,92
1658571997.23744,344349.3226703,85
1658571997.23744,344349.3226754,75
1658571997.23744,344349.3226825,75
1658571997.23744,344349.3226919,80
1658571997.23744,344349.3226985,82
1658571997.23744,344349.3227057,77
1658571997.23744,344349.3227113,60
1658571997.23744,344349.3227155,43
1658571997.23744,344349.3227196,34
1658571997.23744,344349.3227236,34
1658571997.23744,344349.3227284,38
1658571997.23744,344349.3227347,43
1658571997.62699,344349.3227402,48
1658571997.62699,344349.3227455,53
1658571997.62699,344349.322752,48
1658571997.62699,344349.3227589,43
1658571997.62699,344349.322765,53
1658571997.62699,344349.3227843,65
1658571997.62699,344349.3228083,72
1658571997.62699,344349.3228144,70
1658571997.62699,344349.3228177,55
1658571997.62699,344349.3228218,43
1658571997.62699,344349.322825,43
1658571997.62699,344349.3228282,53
1658571997.62699,344349.3228312,60
1658571997.62699,344349.3228342,55
1658571997.62699,344349.3228374,46
1658571997.62699,344349.3228404,55
1658571997.62699,344349.3228435,70
1658571997.62699,344349.3228469,60
1658571997.62699,344349.3228509,55
1658571997.62699,344349.3228594,68
1658571997.62699,344349.3228697,68
1658571997.62699,344349.3228828,63
1658571997.62699,344349.3228942,72
1658571997.62699,344349.3229015,92
1658571997.62699,344349.3229055,116
1658571997.62699,344349.3229087,119
1658571997.62699,344349.3229117,97
1658571997.62699,344349.3229147,75
1658571997.62699,344349.3229176,68
1658571997.62699,344349.3229206,80
1658571997.62699,344349.3229234,97
1658571997.62699,344349.3229537,90
1658571997.62699,344349.3229718,65
1658571997.62699,344349.3229768,26
1658571997.62699,344349.3229805,55
1658571997.62699,344349.3229842,360
1658571997.62699,344349.3229878,1012
1658571997.62699,344349.3229914,1579
1658571997.62699,344349.322995,1445
1658571997.62699,344349.3229986,545
1658571997.62699,344349.3230023,-270
1658571997.62699,344349.323006,-231
1658571997.62699,344349.3230094,63
1658571997.62699,344349.3230133,-34
1658571997.62699,344349.3230169,-124
1658571997.62699,344349.3230205,-36
1658571997.62699,344349.3230242,-31
1658571997.62699,344349.323028,-60
1658571997.62699,344349.3230338,-24
1658571997.62699,344349.3230374,-9
1658571997.6609,344349.3230413,-26
1658571997.6609,344349.323045,-26
1658571997.6609,344349.7122142,-14
1658571997.6609,344349.7122363,4
1658571997.6609,344349.7122513,26
1658571997.6609,344349.7122676,31
1658571997.6609,344349.7122817,26
1658571997.6609,344349.712295,38
1658571997.6609,344349.7123083,68
1658571997.6609,344349.7123214,94
1658571997.6609,344349.7123301,116
1658571997.6609,344349.7123327,128
1658571997.6609,344349.7123349,138
1658571997.6609,344349.7123371,138
1658571997.6609,344349.7123394,121
1658571997.6609,344349.7123415,97
1658571997.6609,344349.7123436,97
1658571997.6609,344349.7123458,114
1658571997.6609,344349.712348,116
1658571997.6609,344349.71235,109
1658571997.6609,344349.7123523,102
1658571997.6609,344349.7123544,92
1658571997.6609,344349.7123564,80
1658571997.6609,344349.7123585,82
1658571998.19423,344349.7123606,87
1658571998.19423,344349.7123627,87
1658571998.19423,344349.7123649,94
1658571998.19423,344349.712367,102
1658571998.19423,344349.7123692,109
1658571998.19423,344349.7123712,119
1658571998.19423,344349.7123731,121
1658571998.19423,344349.712375,126
1658571998.19423,344349.712377,131
1658571998.19423,344349.712379,126
1658571998.19423,344349.7123809,116
1658571998.19423,344349.7123829,109
1658571998.19423,344349.7123849,102
1658571998.19423,344349.7123868,92
1658571998.19423,344349.7123889,85
1658571998.19423,344349.7123908,75
1658571998.19423,344349.7123929,68
1658571998.19423,344349.7123949,60
1658571998.19423,344349.7123969,43
1658571998.19423,344349.7123988,29
1658571998.19423,344349.7124007,31
1658571998.19423,344349.7124026,29
1658571998.19423,344349.7124046,14
1658571998.19423,344349.7124066,17
1658571998.19423,344349.7124089,36
1658571998.19423,344349.712411,58
1658571998.19423,344349.7124131,63
1658571998.19423,344349.7124152,43
1658571998.19423,344349.7124451,36
1658571998.19423,344349.7124492,41
1658571998.19423,344349.7124513,48
1658571998.19423,344349.7124543,60
1658571998.19423,344349.7124565,68
1658571998.19423,344349.7124587,70
1658571998.19423,344349.7124608,51
1658571998.19423,344349.7124629,24
1658571998.19423,344349.712465,187
1658571998.19423,344349.7124671,732
1658571998.19423,344349.7124697,1399
1658571998.19423,344349.7124724,1542
1658571998.19423,344349.7124749,834
1658571998.19423,344349.7124771,-102
1658571998.19423,344349.7124793,-309
1658571998.19423,344349.7124817,-2
1658571998.19423,344349.7124841,0
1658571998.19423,344349.7124862,-133
1658571998.19423,344349.7124884,-63
1658571998.19423,344349.7124904,-21
1658571998.19423,344349.7124925,-60
1658571998.19423,344349.7124947,-38
1658571998.2042,344349.7124969,-4
1658571998.2042,344350.2973017,-4
1658571998.2042,344350.2973157,2
1658571998.2042,344350.2973204,19
1658571998.2042,344350.2973228,26
1658571998.2042,344350.297325,31
1658571998.2042,344350.2973272,48
1658571998.2042,344350.2973295,65
1658571998.2042,344350.2973316,80
1658571998.2042,344350.2973338,90
1658571998.2042,344350.2973358,85
1658571998.2042,344350.2973377,94
1658571998.2042,344350.2973397,121
1658571998.2042,344350.2973418,126
1658571998.2042,344350.2973438,116
1658571998.2042,344350.2973458,109
1658571998.2042,344350.2973488,87
1658571998.2042,344350.297357,70
1658571998.2042,344350.2973665,75
1658571998.2042,344350.2973721,82
1658571998.2042,344350.2973742,72
1658571998.2042,344350.2973773,58
1658571998.2042,344350.2973816,46
1658571998.2042,344350.297393,36
1658571998.73686,344350.297401,36
1658571998.73686,344350.2974054,41
1658571998.73686,344350.2974092,46
1658571998.73686,344350.2974133,48
1658571998.73686,344350.2974171,53
1658571998.73686,344350.2974229,58
1658571998.73686,344350.2974312,65
1658571998.73686,344350.2974379,70
1658571998.73686,344350.2974464,80
1658571998.73686,344350.2974509,92
1658571998.73686,344350.2974548,90
1658571998.73686,344350.29746,80
1658571998.73686,344350.2974633,80
1658571998.73686,344350.2974776,82
1658571998.73686,344350.2974822,82
1658571998.73686,344350.297485,70
1658571998.73686,344350.2974877,55
1658571998.73686,344350.2974903,48
1658571998.73686,344350.297493,53
1658571998.73686,344350.2974956,53
1658571998.73686,344350.2974982,51
1658571998.73686,344350.2975011,70
1658571998.73686,344350.2975038,104
1658571998.73686,344350.2975376,102
1658571998.73686,344350.2975569,63
1658571998.73686,344350.2975723,41
1658571998.73686,344350.2975845,46
1658571998.73686,344350.2975946,43
1658571998.73686,344350.2976009,29
1658571998.73686,344350.2976099,24
1658571998.73686,344350.2976124,26
1658571998.73686,344350.2976145,4
1658571998.73686,344350.2976167,-34
1658571998.73686,344350.2976188,82
1658571998.73686,344350.297621,564
1658571998.73686,344350.2976231,1243
1658571998.73686,344350.2976252,1513
1658571998.73686,344350.2976274,939
1658571998.73686,344350.2976295,-41
1658571998.73686,344350.2976317,-418
1658571998.73686,344350.2976337,-133
1658571998.73686,344350.2976358,-55
1658571998.73686,344350.2976378,-216
1658571998.73686,344350.29764,-172
1658571998.73686,344350.2976421,-94
1658571998.73686,344350.2976442,-133
1658571998.73686,344350.2976463,-133
1658571998.73686,344350.2976484,-97
1658571998.73686,344350.2976505,-99
1658571998.73686,344350.2976526,-104
1658571998.74882,344350.8350758,-82
1658571998.74882,344350.8350997,-65
1658571998.74882,344350.8351062,-63
1658571998.74882,344350.8351341,-48
1658571998.74882,344350.8351385,-34
1658571998.74882,344350.8351446,-24
1658571998.74882,344350.8351483,-4
1658571998.74882,344350.8351522,17
1658571998.74882,344350.8351575,24
1658571998.74882,344350.8351611,21
1658571998.74882,344350.8351647,24
1658571998.74882,344350.8351682,21
1658571998.74882,344350.8351719,-2
1658571998.74882,344350.8351755,-21
1658571998.74882,344350.8351792,-7
1658571998.74882,344350.8351828,7
1658571998.74882,344350.8351866,0
1658571998.74882,344350.8351902,-4
1658571998.74882,344350.8351943,-19
1658571998.74882,344350.8351981,-51
1658571998.74882,344350.8352018,-68
1658571998.74882,344350.8352056,-60
1658571998.74882,344350.835209,-41
1658571998.74882,344350.8352177,-26
1658571999.31965,344350.8352214,-29
1658571999.31965,344350.8352249,-29
1658571999.31965,344350.8352285,-17
1658571999.31965,344350.8352321,7
1658571999.31965,344350.8352361,12
1658571999.31965,344350.83524,-7
1658571999.31965,344350.8352438,-19
1658571999.31965,344350.8352473,-12
1658571999.31965,344350.8352844,-7
1658571999.31965,344350.835294,0
1658571999.31965,344350.835299,2
1658571999.31965,344350.8353023,-9
1658571999.31965,344350.8353061,-17
1658571999.31965,344350.8353094,-9
1658571999.31965,344350.8353125,-7
1658571999.31965,344350.8353158,-12
1658571999.31965,344350.8353196,7
1658571999.31965,344350.8353233,41
1658571999.31965,344350.8353269,29
1658571999.31965,344350.8353305,-21
1658571999.31965,344350.8353342,-36
1658571999.31965,344350.8353768,-4
1658571999.31965,344350.8353845,19
1658571999.31965,344350.8353892,21
1658571999.31965,344350.835393,17
1658571999.31965,344350.8353966,12
1658571999.31965,344350.8354003,-14
1658571999.31965,344350.8354039,-58
1658571999.31965,344350.8354076,75
1658571999.31965,344350.8354114,610
1658571999.31965,344350.835415,1304
1658571999.31965,344350.8354187,1511
1658571999.31965,344350.8354223,861
1658571999.31965,344350.8354261,-119
1658571999.31965,344350.8354297,-401
1658571999.31965,344350.8354331,-63
1658571999.31965,344350.8354364,-14
1658571999.31965,344350.8354394,-172
1658571999.31965,344350.8354427,-114
1658571999.31965,344350.8354461,-63
1658571999.31965,344350.8354496,-102
1658571999.31965,344350.8354537,-77
1658571999.31965,344350.8354573,-43
1658571999.31965,344350.8354607,-53
1658571999.31965,344350.8354642,-46
1658571999.31965,344350.8354678,-19
1658571999.31965,344350.8354718,-9
1658571999.31965,344350.8354787,-2
1658571999.31965,344350.8354826,2
1658571999.31965,344351.4182403,7
1658571999.33042,344351.4182577,17
1658571999.33042,344351.4182645,34
1658571999.33042,344351.418268,51
1658571999.33042,344351.4182725,55
1658571999.33042,344351.4182771,58
1658571999.33042,344351.4182821,58
1658571999.33042,344351.418286,53
1658571999.33042,344351.4182891,31
1658571999.33042,344351.4182935,17
1658571999.33042,344351.4182999,29
1658571999.33042,344351.4183073,46
1658571999.33042,344351.4183212,31
1658571999.33042,344351.4183344,2
1658571999.33042,344351.4183458,-4
1658571999.33042,344351.4183589,2
1658571999.33042,344351.418367,0
1658571999.33042,344351.4183696,-2
1658571999.33042,344351.4183771,7
1658571999.33042,344351.4183901,14
1658571999.33042,344351.4183966,12
1658571999.33042,344351.4183998,2
1658571999.33042,344351.4184118,-2
1658571999.33042,344351.4184287,7
1658571999.33042,344351.4184357,17
1658571999.84853,344351.418442,14
1658571999.84853,344351.4184474,7
1658571999.84853,344351.4184534,14
1658571999.84853,344351.4184597,21
1658571999.84853,344351.418466,21
1658571999.84853,344351.4184752,7
1658571999.84853,344351.4184885,-4
1658571999.84853,344351.4185037,-7
1658571999.84853,344351.4185165,-2
1658571999.84853,344351.4185298,17
1658571999.84853,344351.4185428,41
1658571999.84853,344351.4185561,41
1658571999.84853,344351.418569,21
1658571999.84853,344351.4185822,17
1658571999.84853,344351.4185907,24
1658571999.84853,344351.4185933,24
1658571999.84853,344351.4185955,21
1658571999.84853,344351.4185989,24
1658571999.84853,344351.4186113,26
1658571999.84853,344351.4186222,0
1658571999.84853,344351.4186257,-48
1658571999.84853,344351.4186362,53
1658571999.84853,344351.4186483,520
1658571999.84853,344351.4186534,1202
1658571999.84853,344351.418657,1501
1658571999.84853,344351.4186654,970
1658571999.84853,344351.4186775,21
1658571999.84853,344351.4186868,-350
1658571999.84853,344351.4186993,-65
1658571999.84853,344351.4187069,17
1658571999.84853,344351.4187095,-138
1658571999.84853,344351.4187124,-97
1658571999.84853,344351.4187215,-26
1658571999.84853,344351.4187333,-65
1658571999.84853,344351.4187384,-63
1658571999.84853,344351.4187416,-26
1658571999.84853,344351.4187541,-31
1658571999.84853,344351.4187646,-31
1658571999.84853,344351.4187744,-9
1658571999.84853,344351.4187827,0
1658571999.84853,344351.4187899,2
1658571999.84853,344351.4187932,9
1658571999.84853,344351.4187954,21
1658571999.84853,344351.4187984,34
1658571999.84853,344351.4188075,51
1658571999.84853,344351.4188195,65
1658571999.84853,344351.4188249,75
1658571999.84853,344351.4188329,75
1658571999.84853,344351.9542232,70
1658571999.84853,344351.9542434,65
1658571999.8585,344351.9542536,58
1658571999.8585,344351.9542669,60
1658571999.8585,344351.9542748,75
1658571999.8585,344351.9542838,92
1658571999.8585,344351.9542928,92
1658571999.8585,344351.9543002,85
1658571999.8585,344351.9543075,90
1658571999.8585,344351.9543169,97
1658571999.8585,344351.9543259,94
1658571999.8585,344351.9543323,85
1658571999.8585,344351.9543374,77
1658571999.8585,344351.9543454,80
1658571999.8585,344351.9543519,92
1658571999.8585,344351.9543566,99
1658571999.8585,344351.9543596,102
1658571999.8585,344351.9543625,102
1658571999.8585,344351.9543656,90
1658571999.8585,344351.9543764,72
1658571999.8585,344351.9543799,75
1658571999.8585,344351.9543822,80
1658571999.8585,344351.9543844,72
1658571999.8585,344351.95439,68
1658571999.8585,344351.9544026,68
1658571999.8585,344351.9544085,55
1658572000.43683,344351.9544137,41
1658572000.43683,344351.9544589,60
1658572000.43683,344351.9544679,94
1658572000.43683,344351.9544733,97
1658572000.43683,344351.9544809,68
1658572000.43683,344351.9544866,58
1658572000.43683,344351.9544927,63
1658572000.43683,344351.954497,63
1658572000.43683,344351.9545018,60
1658572000.43683,344351.9545072,63
1658572000.43683,344351.9545109,60
1658572000.43683,344351.9545144,29
1658572000.43683,344351.9545179,-31
1658572000.43683,344351.9545232,-17
1658572000.43683,344351.9545273,294
1658572000.43683,344351.954531,934
1658572000.43683,344351.9545368,1455
1658572000.43683,344351.9545425,1265
1658572000.43683,344351.9545475,384
1658572000.43683,344351.9545509,-289
1658572000.43683,344351.9545562,-170
1658572000.43683,344351.9545596,41
1658572000.43683,344351.9545662,-102
1658572000.43683,344351.9545738,-143
1658572000.43683,344351.9545795,-48
1658572000.43683,344351.9545831,-60
1658572000.43683,344351.9545869,-77
1658572000.43683,344351.9545929,-43
1658572000.43683,344351.9545965,-43
1658572000.43683,344351.9546024,-55
1658572000.43683,344351.9546061,-34
1658572000.43683,344351.9546118,-17
1658572000.43683,344351.9546154,-12
1658572000.43683,344351.9546205,0
1658572000.43683,344351.9546243,7
1658572000.43683,344351.9546302,12
1658572000.43683,344351.9546353,24
1658572000.43683,344351.954639,36
1658572000.43683,344351.954643,41
1658572000.43683,344351.9546487,43
1658572000.43683,344351.954654,41
1658572000.43683,344351.9546595,34
1658572000.43683,344351.9546628,26
1658572000.43683,344351.9546662,21
1658572000.43683,344351.9546697,34
1658572000.43683,344351.9546731,55
1658572000.43683,344351.9546764,72
1658572000.43683,344352.5408862,82
1658572000.43683,344352.5409045,87
1658572000.43683,344352.5409126,87
1658572000.4478,344352.5409195,87
1658572000.4478,344352.5409247,97
1658572000.4478,344352.5409284,102
1658572000.4478,344352.5409319,104
1658572000.4478,344352.5409354,114
1658572000.4478,344352.5409388,111
1658572000.4478,344352.540942,94
1658572000.4478,344352.5409453,92
1658572000.4478,344352.5409487,94
1658572000.4478,344352.5409523,94
1658572000.4478,344352.5409558,92
1658572000.4478,344352.5409593,87
1658572000.4478,344352.5409627,72
1658572000.4478,344352.5409663,58
1658572000.4478,344352.5409698,53
1658572000.4478,344352.5409735,58
1658572000.4478,344352.5409786,53
1658572000.4478,344352.5409828,51
1658572000.4478,344352.5409863,75
1658572000.4478,344352.5409919,104
1658572000.4478,344352.540997,104
1658572000.4478,344352.5410004,80
1658572000.4478,344352.5410041,72
1658572000.4478,344352.5410093,77
1658572000.973,344352.5410135,80
1658572000.973,344352.5410167,80

1658572000.973,344352.5410198,72
1658572000.973,344352.5410229,68
1658572000.973,344352.541027,51
1658572000.973,344352.5410315,0
1658572000.973,344352.5410351,65
1658572000.973,344352.5410386,481
1658572000.973,344352.5410439,1143
1658572000.973,344352.5410471,1476
1658572000.973,344352.5410526,1019
1658572000.973,344352.5410592,109
1658572000.973,344352.5410654,-294
1658572000.973,344352.5410787,-36
1658572000.973,344352.5410881,63
1658572000.973,344352.5410939,-90
1658572000.973,344352.5411013,-65
1658572000.973,344352.5411055,9
1658572000.973,344352.5411091,-26
1658572000.973,344352.5411126,-36
1658572000.973,344352.5411161,-4
1658572000.973,344352.5411198,0
1658572000.973,344352.5411231,0
1658572000.973,344352.541128,21
1658572000.973,344352.5411335,31
1658572000.973,344352.5411382,29
1658572000.973,344352.5411412,31
1658572000.973,344352.541146,41
1658572000.973,344352.5411499,53
1658572000.973,344352.541153,63
1658572000.973,344352.5411562,68
1658572000.973,344352.5411628,68
1658572000.973,344352.5411701,63
1658572000.973,344352.5411776,51
1658572000.973,344352.5411859,46
1658572000.973,344352.5411908,46
1658572000.973,344352.5411944,46
1658572000.973,344352.5411983,68
1658572000.973,344352.5412024,94
1658572000.973,344352.5412081,107
1658572000.973,344352.5412121,111
1658572000.973,344352.5412171,119
1658572000.973,344352.5412302,119
1658572000.973,344352.541239,116
1658572000.973,344352.5412447,114
1658572000.973,344352.5412522,116
1658572000.973,344353.0765113,124
1658572000.973,344353.0765307,128
1658572000.973,344353.076536,131
1658572000.973,344353.0765402,128
1658572000.98398,344353.0765461,119
1658572000.98398,344353.0765494,102
1658572000.98398,344353.0765542,87
1658572000.98398,344353.0765597,90
1658572000.98398,344353.0765655,92
1658572000.98398,344353.0765726,82
1658572000.98398,344353.0765784,72
1658572000.98398,344353.0765819,65
1658572000.98398,344353.0765871,51
1658572000.98398,344353.0765901,36
1658572000.98398,344353.0765935,48
1658572000.98398,344353.0766002,80
1658572000.98398,344353.0766034,94
1658572000.98398,344353.076609,75
1658572000.98398,344353.0766122,58
1658572000.98398,344353.0766151,58
1658572000.98398,344353.076618,60
1658572000.98398,344353.0766208,58
1658572000.98398,344353.0766237,53
1658572000.98398,344353.0766265,53
1658572000.98398,344353.0766293,43
1658572000.98398,344353.0766323,0
1658572000.98398,344353.0766354,-14
1658572000.98398,344353.0766383,218
1658572001.60774,344353.0766414,812
1658572001.60774,344353.0766464,1382
1658572001.60774,344353.076653,1304
1658572001.60774,344353.0766596,496
1658572001.60774,344353.0766663,-236
1658572001.60774,344353.0766733,-197
1658572001.60774,344353.0766802,55
1658572001.60774,344353.0766836,-41
1658572001.60774,344353.0766886,-121
1658572001.60774,344353.076695,-46
1658572001.60774,344353.0767008,-38
1658572001.60774,344353.0767058,-60
1658572001.60774,344353.0767116,-31
1658572001.60774,344353.0767148,-19
1658572001.60774,344353.0767181,-24
1658572001.60774,344353.0767212,-14
1658572001.60774,344353.0767244,-2
1658572001.60774,344353.0767276,0
1658572001.60774,344353.0767311,12
1658572001.60774,344353.0767343,29
1658572001.60774,344353.0767381,38
1658572001.60774,344353.0767417,43
1658572001.60774,344353.0767473,43
1658572001.60774,344353.0767509,53
1658572001.60774,344353.0767546,55
1658572001.60774,344353.0767584,34
1658572001.60774,344353.0767622,14
1658572001.60774,344353.0767651,9
1658572001.60774,344353.0767678,7
1658572001.60774,344353.0767705,7
1658572001.60774,344353.0767733,19
1658572001.60774,344353.076776,43
1658572001.60774,344353.0767788,55
1658572001.60774,344353.0767815,53
1658572001.60774,344353.0767844,48
1658572001.60774,344353.0767874,43
1658572001.60774,344353.0767901,36
1658572001.60774,344353.0767928,34
1658572001.60774,344353.0767956,34
1658572001.60774,344353.0767982,34
1658572001.60774,344353.0768012,34
1658572001.60774,344353.0768039,21
1658572001.60774,344353.0768068,12
1658572001.60774,344353.0768097,21
1658572001.60774,344353.0768125,31
1658572001.60774,344353.7103064,26
1658572001.60774,344353.7103236,24
1658572001.60774,344353.71033,21
1658572001.60774,344353.7103374,9
1658572001.60774,344353.7103412,2
1658572001.61772,344353.7103465,7
1658572001.61772,344353.71035,4
1658572001.61772,344353.7103576,14
1658572001.61772,344353.7103655,46
1658572001.61772,344353.7103697,46
1658572001.61772,344353.7103752,14
1658572001.61772,344353.7103794,4
1658572001.61772,344353.7103851,14
1658572001.61772,344353.7103887,9
1658572001.61772,344353.7103924,-4
1658572001.61772,344353.7103986,-14
1658572001.61772,344353.7104022,-12
1658572001.61772,344353.7104077,-9
1658572001.61772,344353.7104122,-53
1658572001.61772,344353.7104179,-63
1658572001.61772,344353.7104221,204
1658572001.61772,344353.7104257,810
1658572001.61772,344353.7104293,1328
1658572001.61772,344353.7104329,1182
1658572001.61772,344353.7104367,345
1658572001.61772,344353.7104407,-333
1658572001.61772,344353.710445,-226
1658572001.61772,344353.710451,19
1658572001.61772,344353.7104569,-90
1658572002.14077,344353.7104631,-138
1658572002.14077,344353.710467,-43
1658572002.14077,344353.7104709,-51
1658572002.14077,344353.7104747,-75
1658572002.14077,344353.7104784,-36
1658572002.14077,344353.7104823,-24
1658572002.14077,344353.7104862,-29
1658572002.14077,344353.7104903,-4
1658572002.14077,344353.7104939,19
1658572002.14077,344353.7104985,21
1658572002.14077,344353.7105045,31
1658572002.14077,344353.7105093,48
1658572002.14077,344353.710513,55
1658572002.14077,344353.7105185,65
1658572002.14077,344353.7105233,82
1658572002.14077,344353.7105262,85
1658572002.14077,344353.7105291,77
1658572002.14077,344353.710532,75
1658572002.14077,344353.7105347,70
1658572002.14077,344353.7105376,60
1658572002.14077,344353.7105404,60
1658572002.14077,344353.7105433,87
1658572002.14077,344353.710546,114
1658572002.14077,344353.7105486,116
1658572002.14077,344353.7105514,111
1658572002.14077,344353.710554,109
1658572002.14077,344353.7105568,104
1658572002.14077,344353.7105596,102
1658572002.14077,344353.7105624,97
1658572002.14077,344353.7105652,87
1658572002.14077,344353.710568,87
1658572002.14077,344353.7105709,90
1658572002.14077,344353.7105737,87
1658572002.14077,344353.7105766,87
1658572002.14077,344353.7105795,85
1658572002.14077,344353.7105823,87
1658572002.14077,344353.7105855,94
1658572002.14077,344353.7105883,90
1658572002.14077,344353.7105911,75
1658572002.14077,344353.7105939,68
1658572002.14077,344353.7105968,72
1658572002.14077,344353.7106045,72
1658572002.14077,344353.7106154,58
1658572002.14077,344353.7106302,65
1658572002.14077,344354.2465076,97
1658572002.14077,344354.2465272,107
1658572002.14077,344354.2465376,82
1658572002.14077,344354.2465404,63
1658572002.14077,344354.2465426,68
1658572002.14077,344354.2465448,75
1658572002.15175,344354.2465469,72
1658572002.15175,344354.246549,60
1658572002.15175,344354.2465512,53
1658572002.15175,344354.2465534,46
1658572002.15175,344354.2465584,-2
1658572002.15175,344354.2465716,-19
1658572002.15175,344354.2465839,248
1658572002.15175,344354.2465927,863
1658572002.15175,344354.2466011,1362
1658572002.15175,344354.2466135,1175
1658572002.15175,344354.2466238,333
1658572002.15175,344354.2466325,-301
1658572002.15175,344354.2466409,-175
1658572002.15175,344354.2466527,43
1658572002.15175,344354.2466651,-75
1658572002.15175,344354.24667,-116
1658572002.15175,344354.2466722,-26
1658572002.15175,344354.2466751,-36
1658572002.15175,344354.2466852,-70
1658572002.15175,344354.2466927,-55
1658572002.15175,344354.2467021,-41
1658572002.15175,344354.2467119,-34
1658572002.15175,344354.2467181,-19
1658572002.15175,344354.2467261,-4
1658572002.73597,344354.2467351,0
1658572002.73597,344354.2467398,0
1658572002.73597,344354.2467448,14
1658572002.73597,344354.2467494,34
1658572002.73597,344354.2467559,41
1658572002.73597,344354.2467604,46
1658572002.73597,344354.2467658,51
1658572002.73597,344354.2467704,48
1658572002.73597,344354.2467801,36
1658572002.73597,344354.2467888,24
1658572002.73597,344354.246797,19
1658572002.73597,344354.2468005,29
1658572002.73597,344354.2468056,51
1658572002.73597,344354.2468106,75
1658572002.73597,344354.2468143,87
1658572002.73597,344354.2468181,92
1658572002.73597,344354.2468231,92
1658572002.73597,344354.2468276,90
1658572002.73597,344354.2468328,87
1658572002.73597,344354.2468363,94
1658572002.73597,344354.2468412,94
1658572002.73597,344354.246845,85
1658572002.73597,344354.24685,90
1658572002.73597,344354.2468536,92
1658572002.73597,344354.2468588,85
1658572002.73597,344354.2468624,82
1658572002.73597,344354.2468674,80
1658572002.73597,344354.2468719,70
1658572002.73597,344354.2468785,65
1658572002.73597,344354.2468852,63
1658572002.73597,344354.2468915,58
1658572002.73597,344354.2468963,55
1658572002.73597,344354.2468996,43
1658572002.73597,344354.2469032,36
1658572002.73597,344354.2469066,65
1658572002.73597,344354.2469097,94
1658572002.73597,344354.2469138,80
1658572002.73597,344354.2469169,51
1658572002.73597,344354.2469201,41
1658572002.73597,344354.2469249,48
1658572002.73597,344354.2469326,58
1658572002.73597,344354.2469392,60
1658572002.73597,344354.2469435,51
1658572002.73597,344354.8309224,38
1658572002.73597,344354.8309402,7
1658572002.73597,344354.8309475,-43
1658572002.73597,344354.8309559,72
1658572002.73597,344354.830965,562
1658572002.73597,344354.830972,1199
1658572002.73597,344354.8309763,1382
1658572002.74694,344354.8309802,793
1658572002.74694,344354.8309891,-51
1658572002.74694,344354.8309965,-267
1658572002.74694,344354.8310058,7
1658572002.74694,344354.8310144,14
1658572002.74694,344354.8310224,-119
1658572002.74694,344354.8310331,-58
1658572002.74694,344354.8310397,-21
1658572002.74694,344354.8310439,-75
1658572002.74694,344354.8310461,-70
1658572002.74694,344354.8310483,-34
1658572002.74694,344354.8310517,-31
1658572002.74694,344354.8310647,-26
1658572002.74694,344354.8310793,-17
1658572002.74694,344354.8310895,-21
1658572002.74694,344354.8310994,-21
1658572002.74694,344354.8311082,-4
1658572002.74694,344354.8311163,4
1658572002.74694,344354.8311215,7
1658572002.74694,344354.8311306,14
1658572002.74694,344354.8311366,17
1658572002.74694,344354.8311431,9
1658572002.74694,344354.8311462,7
1658572002.74694,344354.8311494,2
1658572003.21533,344354.8311541,-9
1658572003.21533,344354.8311604,-9
1658572003.21533,344354.8311796,7
1658572003.21533,344354.8312041,34
1658572003.21533,344354.8312112,63
1658572003.21533,344354.8312218,82
1658572003.21533,344354.8312321,90
1658572003.21533,344354.8313162,94
1658572003.21533,344354.8313306,99
1658572003.21533,344354.8313362,99
1658572003.21533,344354.83134,97
1658572003.21533,344354.8313438,92
1658572003.21533,344354.8313474,90
1658572003.21533,344354.8313511,92
1658572003.21533,344354.8313546,97
1658572003.21533,344354.8313582,97
1658572003.21533,344354.8313618,90
1658572003.21533,344354.8313654,82
1658572003.21533,344354.831369,82
1658572003.21533,344354.8313726,72
1658572003.21533,344354.831378,58
1658572003.21533,344354.831384,58
1658572003.21533,344354.8313906,53
1658572003.21533,344354.8313953,43
1658572003.21533,344354.8313994,53
1658572003.21533,344354.8314029,90
1658572003.21533,344354.8314072,94
1658572003.21533,344354.8314101,65
1658572003.21533,344354.8314128,51
1658572003.21533,344354.8314157,58
1658572003.21533,344354.8314184,55
1658572003.21533,344354.831421,53
1658572003.21533,344354.8314237,63
1658572003.21533,344354.8314264,68
1658572003.21533,344354.8314291,48
1658572003.21533,344354.8314381,-17
1658572003.21533,344354.8314433,-7
1658572003.21533,344354.8314462,316
1658572003.21533,344354.8314556,936
1658572003.21533,344354.8314691,1355
1658572003.21533,344354.8314765,1065
1658572003.21533,344354.8314829,226
1658572003.21533,344355.318617,-282
1658572003.21533,344355.3186344,-92
1658572003.21533,344355.3186389,55
1658572003.21533,344355.318643,-87
1658572003.21533,344355.3186477,-92
1658572003.21533,344355.3186516,-14
1658572003.21533,344355.3186548,-38
1658572003.21533,344355.3186579,-48
1658572003.2262,344355.3186613,-14
1658572003.2262,344355.3186646,-9
1658572003.2262,344355.3186681,-12
1658572003.2262,344355.3186712,-2
1658572003.2262,344355.3186743,-12
1658572003.2262,344355.3186774,-9
1658572003.2262,344355.3186807,12
1658572003.2262,344355.3186838,19
1658572003.2262,344355.318687,19
1658572003.2262,344355.3186919,26
1658572003.2262,344355.3186956,26
1658572003.2262,344355.3186988,24
1658572003.2262,344355.3187024,21
1658572003.2262,344355.3187058,12
1658572003.2262,344355.3187091,0
1658572003.2262,344355.3187124,-2
1658572003.2262,344355.3187169,-2
1658572003.2262,344355.3187226,7
1658572003.2262,344355.3187265,43
1658572003.2262,344355.3187301,70
1658572003.2262,344355.3187339,77
1658572003.2262,344355.3187376,80
1658572003.2262,344355.3187421,82
1658572003.2262,344355.3187466,80
1658572003.7506,344355.3187505,82
1658572003.7506,344355.3187541,85
1658572003.7506,344355.3187578,90
1658572003.7506,344355.3187616,94
1658572003.7506,344355.3187654,90
1658572003.7506,344355.3187689,82
1658572003.7506,344355.3187733,85
1658572003.7506,344355.3187781,87
1658572003.7506,344355.3187817,82
1658572003.7506,344355.3187852,70
1658572003.7506,344355.3187886,63
1658572003.7506,344355.318793,63
1658572003.7506,344355.3187968,53
1658572003.7506,344355.3188013,41
1658572003.7506,344355.3188056,55
1658572003.7506,344355.3188101,87
1658572003.7506,344355.3188136,94
1658572003.7506,344355.3188167,68
1658572003.7506,344355.3188202,48
1658572003.7506,344355.3188234,55
1658572003.7506,344355.3188293,63
1658572003.7506,344355.3188337,60
1658572003.7506,344355.3188388,55
1658572003.7506,344355.3188448,60
1658572003.7506,344355.3188495,55
1658572003.7506,344355.3188559,4
1658572003.7506,344355.3188615,-9
1658572003.7506,344355.3188682,248
1658572003.7506,344355.3188779,827
1658572003.7506,344355.3188819,1284
1658572003.7506,344355.3188866,1075
1658572003.7506,344355.3188927,272
1658572003.7506,344355.3188966,-287
1658572003.7506,344355.3189027,-133
1658572003.7506,344355.3189076,55
1658572003.7506,344355.3189137,-70
1658572003.7506,344355.3189185,-94
1658572003.7506,344355.3189246,-21
1658572003.7506,344355.3189303,-43
1658572003.7506,344355.3189352,-58
1658572003.7506,344355.3189414,-17
1658572003.7506,344355.8552189,-7
1658572003.7506,344355.855237,-14
1658572003.7506,344355.8552429,-2
1658572003.7506,344355.8552466,12
1658572003.7506,344355.8552497,17
1658572003.7506,344355.8552528,26
1658572003.7506,344355.8552563,34
1658572003.7506,344355.8552595,43
1658572003.7506,344355.8552626,48
1658572003.76157,344355.8552658,29
1658572003.76157,344355.8552689,14
1658572003.76157,344355.8552722,19
1658572003.76157,344355.8552755,19
1658572003.76157,344355.8552787,7
1658572003.76157,344355.8552819,-4
1658572003.76157,344355.8552851,-9
1658572003.76157,344355.8552885,7
1658572003.76157,344355.8552917,43
1658572003.76157,344355.8552948,68
1658572003.76157,344355.8552977,68
1658572003.76157,344355.8553005,63
1658572003.76157,344355.8553036,60
1658572003.76157,344355.8553071,63
1658572003.76157,344355.8553113,58
1658572003.76157,344355.8553156,58
1658572003.76157,344355.8553194,65
1658572003.76157,344355.8553224,70
1658572003.76157,344355.8553254,65
1658572003.76157,344355.8553317,65
1658572003.76157,344355.8553364,65
1658572003.76157,344355.8553398,58
1658572003.76157,344355.855343,55
1658572003.76157,344355.8553473,63
1658572004.43971,344355.855354,58
1658572004.43971,344355.8553595,41
1658572004.43971,344355.8553626,31
1658572004.43971,344355.8553664,29
1658572004.43971,344355.8553707,38
1658572004.43971,344355.8553743,60
1658572004.43971,344355.8553778,63
1658572004.43971,344355.8553811,38
1658572004.43971,344355.8553843,21
1658572004.43971,344355.8553872,29
1658572004.43971,344355.8553901,29
1658572004.43971,344355.8553932,29
1658572004.43971,344355.8553974,34
1658572004.43971,344355.8554014,31
1658572004.43971,344355.8554056,17
1658572004.43971,344355.8554098,-17
1658572004.43971,344355.8554129,34
1658572004.43971,344355.8554162,396
1658572004.43971,344355.8554196,995
1658572004.43971,344355.855423,1272
1658572004.43971,344355.8554267,785
1658572004.43971,344355.8554298,-72
1658572004.43971,344355.8554331,-374
1658572004.43971,344355.8554363,-72
1658572004.43971,344355.8554397,19
1658572004.43971,344355.8554431,-124
1658572004.43971,344355.8554463,-92
1658572004.43971,344355.8554496,-34
1658572004.43971,344355.8554526,-68
1658572004.43971,344355.8554559,-55
1658572004.43971,344355.8554609,-17
1658572004.43971,344355.855465,-19
1658572004.43971,344355.8554683,-21
1658572004.43971,344355.8554733,0
1658572004.43971,344355.8554769,12
1658572004.43971,344355.8554801,21
1658572004.43971,344355.8554837,36
1658572004.43971,344355.855487,48
1658572004.43971,344355.8554902,55
1658572004.43971,344355.8554933,63
1658572004.43971,344356.5366346,68
1658572004.43971,344356.5366481,72
1658572004.43971,344356.5366515,75
1658572004.43971,344356.5366545,68
1658572004.43971,344356.5366572,53
1658572004.43971,344356.53666,48
1658572004.43971,344356.5366628,63
1658572004.43971,344356.5366654,87
1658572004.43971,344356.5366681,94
1658572004.43971,344356.5366706,85
1658572004.44968,344356.5366733,70
1658572004.44968,344356.5366759,46
1658572004.44968,344356.5366785,31
1658572004.44968,344356.536681,43
1658572004.44968,344356.5366836,48
1658572004.44968,344356.5366862,38
1658572004.44968,344356.5366889,36
1658572004.44968,344356.5366915,41
1658572004.44968,344356.5366941,43
1658572004.44968,344356.5366977,53
1658572004.44968,344356.5367106,65
1658572004.44968,344356.5367177,65
1658572004.44968,344356.5367223,53
1658572004.44968,344356.5367246,48
1658572004.44968,344356.5367268,46
1658572004.44968,344356.5367295,36
1658572004.44968,344356.53674,34
1658572004.44968,344356.5367478,55
1658572004.44968,344356.5367502,77
1658572004.44968,344356.5367524,63
1658572004.44968,344356.5367546,31
1658572004.44968,344356.5367604,14
1658572004.44968,344356.5367714,19
1658572004.44968,344356.5367766,21
1658572004.92636,344356.5367793,21
1658572004.92636,344356.5367815,24
1658572004.92636,344356.5367835,29
1658572004.92636,344356.5367855,4
1658572004.92636,344356.5367876,-46
1658572004.92636,344356.5367925,31
1658572004.92636,344356.5368025,442
1658572004.92636,344356.536807,1043
1658572004.92636,344356.5368186,1257
1658572004.92636,344356.5368257,715
1658572004.92636,344356.5368281,-121
1658572004.92636,344356.5368303,-347
1658572004.92636,344356.536833,-48
1658572004.92636,344356.5368435,-9
1658572004.92636,344356.536851,-145
1658572004.92636,344356.5368541,-92
1658572004.92636,344356.5368564,-43
1658572004.92636,344356.5368589,-82
1658572004.92636,344356.5368688,-70
1658572004.92636,344356.5368774,-36
1658572004.92636,344356.53688,-38
1658572004.92636,344356.5368821,-29
1658572004.92636,344356.5368842,-7
1658572004.92636,344356.5368864,2
1658572004.92636,344356.5368884,4
1658572004.92636,344356.536896,19
1658572004.92636,344356.5369066,29
1658572004.92636,344356.5369109,41
1658572004.92636,344356.5369131,53
1658572004.92636,344356.5369153,55
1658572004.92636,344356.5369174,48
1658572004.92636,344356.5369252,43
1658572004.92636,344356.5369355,43
1658572004.92636,344356.536939,38
1658572004.92636,344356.5369427,48
1658572004.92636,344356.5369451,68
1658572004.92636,344356.5369552,87
1658572004.92636,344356.5370004,102
1658572004.92636,344356.537012,109
1658572004.92636,344357.0246062,102
1658572004.92636,344357.024628,90
1658572004.92636,344357.0246363,87
1658572004.92636,344357.0246401,90
1658572004.92636,344357.0246433,94
1658572004.92636,344357.0246467,99
1658572004.92636,344357.0246501,97
1658572004.92636,344357.024654,94
1658572004.92636,344357.024657,94
1658572004.92636,344357.0246603,92
1658572004.92636,344357.0246636,90
1658572004.93651,344357.024667,87
1658572004.93651,344357.0246708,90
1658572004.93651,344357.0246745,87
1658572004.93651,344357.0246796,65
1658572004.93651,344357.0246834,43
1658572004.93651,344357.0246889,63
1658572004.93651,344357.0246932,99
1658572004.93651,344357.0246966,90
1658572004.93651,344357.0247032,58
1658572004.93651,344357.0247078,43
1658572004.93651,344357.0247132,29
1658572004.93651,344357.0247169,14
1658572004.93651,344357.0247206,21
1658572004.93651,344357.0247268,24
1658572004.93651,344357.0247308,17
1658572004.93651,344357.0247373,-26
1658572004.93651,344357.0247429,-97
1658572004.93651,344357.0247465,14
1658572004.93651,344357.0247503,506
1658572004.93651,344357.0247559,1104
1658572004.93651,344357.0247622,1245
1658572004.93651,344357.0247669,678
1658572004.93651,344357.0247726,-97
1658572004.93651,344357.0247773,-272
1658572005.459,344357.0247858,-12
1658572005.459,344357.0247902,-21
1658572005.459,344357.0247944,-158
1658572005.459,344357.0247995,-109
1658572005.459,344357.0248035,-68
1658572005.459,344357.0248087,-99
1658572005.459,344357.0248131,-85
1658572005.459,344357.0248172,-55
1658572005.459,344357.0248218,-58
1658572005.459,344357.0248266,-51
1658572005.459,344357.0248305,-36
1658572005.459,344357.0248352,-34
1658572005.459,344357.0248399,-21
1658572005.459,344357.0248447,-2
1658572005.459,344357.0248493,7
1658572005.459,344357.0248546,9
1658572005.459,344357.0248593,12
1658572005.459,344357.0248633,14
1658572005.459,344357.0248681,9
1658572005.459,344357.0248724,4
1658572005.459,344357.0248768,4
1658572005.459,344357.0248834,4
1658572005.459,344357.0248898,9
1658572005.459,344357.0248957,29
1658572005.459,344357.0249004,55
1658572005.459,344357.0249052,82
1658572005.459,344357.0249093,99
1658572005.459,344357.0249144,104
1658572005.459,344357.0249183,102
1658572005.459,344357.0249218,104
1658572005.459,344357.0249254,111
1658572005.459,344357.0249305,119
1658572005.459,344357.0249363,124
1658572005.459,344357.0249418,126
1658572005.459,344357.0249471,126
1658572005.459,344357.0249559,119
1658572005.459,344357.0249618,114
1658572005.459,344357.0249651,109
1658572005.459,344357.5625353,102
1658572005.459,344357.5625541,97
1658572005.459,344357.5625621,94
1658572005.459,344357.5625655,94
1658572005.459,344357.562569,109
1658572005.459,344357.5625725,136
1658572005.459,344357.5625761,143
1658572005.459,344357.5625792,116
1658572005.459,344357.5625824,90
1658572005.459,344357.5625857,85
1658572005.459,344357.562593,85
1658572005.459,344357.5625985,75
1658572005.47097,344357.562602,63
1658572005.47097,344357.5626057,60
1658572005.47097,344357.5626093,48
1658572005.47097,344357.5626129,-7
1658572005.47097,344357.5626172,-9
1658572005.47097,344357.5626211,250
1658572005.47097,344357.562625,795
1658572005.47097,344357.5626293,1202
1658572005.47097,344357.5626336,978
1658572005.47097,344357.5626394,206
1658572005.47097,344357.562645,-296
1658572005.47097,344357.5626507,-126
1658572005.47097,344357.5626564,41
1658572005.47097,344357.5626629,-94
1658572005.47097,344357.5626669,-116
1658572005.47097,344357.5626708,-29
1658572005.47097,344357.5626759,-41
1658572005.47097,344357.5626812,-72
1658572005.47097,344357.562686,-63
1658572005.47097,344357.5626896,-55
1658572005.47097,344357.5626945,-51
1658572005.47097,344357.5627002,-31
1658572005.47097,344357.5627037,-14
1658572005.47097,344357.5627078,-9
1658572006.09425,344357.5627138,2
1658572006.09425,344357.5627187,14
1658572006.09425,344357.5627245,19
1658572006.09425,344357.5627277,26
1658572006.09425,344357.5627307,29
1658572006.09425,344357.5627341,26
1658572006.09425,344357.5627374,26
1658572006.09425,344357.5627404,14
1658572006.09425,344357.5627459,0
1658572006.09425,344357.5627527,7
1658572006.09425,344357.5627586,36
1658572006.09425,344357.5627624,65
1658572006.09425,344357.5627681,87
1658572006.09425,344357.5627719,97
1658572006.09425,344357.5627775,92
1658572006.09425,344357.5627816,85
1658572006.09425,344357.5627873,90
1658572006.09425,344357.5627926,97
1658572006.09425,344357.5627961,99
1658572006.09425,344357.5628,99
1658572006.09425,344357.5628054,102
1658572006.09425,344357.5628091,102
1658572006.09425,344357.5628128,104
1658572006.09425,344357.5628185,107
1658572006.09425,344357.5628239,104
1658572006.09425,344357.5628289,92
1658572006.09425,344357.5628334,80
1658572006.09425,344357.5628367,72
1658572006.09425,344357.5628403,63
1658572006.09425,344357.5628437,70
1658572006.09425,344357.5628472,102
1658572006.09425,344357.5628506,124
1658572006.09425,344357.5628541,102
1658572006.09425,344357.5628575,77
1658572006.09425,344357.5628628,77
1658572006.09425,344357.5628663,82
1658572006.09425,344357.5628697,75
1658572006.09425,344358.1959517,70
1658572006.09425,344358.1959686,68
1658572006.09425,344358.1959728,63
1658572006.09425,344358.1959761,24
1658572006.09425,344358.1959795,4
1658572006.09425,344358.1959837,236
1658572006.09425,344358.1959881,785
1658572006.09425,344358.1959912,1228
1658572006.09425,344358.1959943,1017
1658572006.09425,344358.1959981,218
1658572006.09425,344358.1960013,-328
1658572006.09425,344358.1960055,-160
1658572006.09425,344358.1960102,34
1658572006.10522,344358.1960146,-102
1658572006.10522,344358.1960177,-141
1658572006.10522,344358.1960211,-63
1658572006.10522,344358.1960245,-82
1658572006.10522,344358.1960277,-104
1658572006.10522,344358.1960312,-75
1658572006.10522,344358.1960372,-68
1658572006.10522,344358.1960431,-75
1658572006.10522,344358.1960483,-85
1658572006.10522,344358.1960519,-97
1658572006.10522,344358.1960557,-90
1658572006.10522,344358.1960592,-72
1658572006.10522,344358.1960628,-72
1658572006.10522,344358.1960665,-75
1658572006.10522,344358.1960699,-60
1658572006.10522,344358.1960735,-48
1658572006.10522,344358.1960772,-55
1658572006.10522,344358.1960807,-65
1658572006.10522,344358.1960842,-70
1658572006.10522,344358.1960878,-75
1658572006.10522,344358.1960915,-72
1658572006.10522,344358.1960952,-48
1658572006.10522,344358.1960988,-9
1658572006.10522,344358.1961024,17
1658572006.58383,344358.196106,26
1658572006.58383,344358.1961102,26
1658572006.58383,344358.1961136,21
1658572006.58383,344358.1961169,17
1658572006.58383,344358.1961201,21
1658572006.58383,344358.1961234,34
1658572006.58383,344358.1961266,34
1658572006.58383,344358.19613,36
1658572006.58383,344358.1961332,51
1658572006.58383,344358.1961378,68
1658572006.58383,344358.1961411,77
1658572006.58383,344358.1961445,65
1658572006.58383,344358.1961478,46
1658572006.58383,344358.1961513,53
1658572006.58383,344358.1961545,68
1658572006.58383,344358.1961579,55
1658572006.58383,344358.1961612,55
1658572006.58383,344358.1961645,90
1658572006.58383,344358.196169,102
1658572006.58383,344358.196175,80
1658572006.58383,344358.1961798,60
1658572006.58383,344358.1961852,58
1658572006.58383,344358.1961893,60
1658572006.58383,344358.1961941,65
1658572006.58383,344358.1961979,65
1658572006.58383,344358.1962015,53
1658572006.58383,344358.1962051,31
1658572006.58383,344358.1962087,-4
1658572006.58383,344358.1962123,14
1658572006.58383,344358.196216,306
1658572006.58383,344358.1962195,875
1658572006.58383,344358.1962232,1243
1658572006.58383,344358.1962268,914
1658572006.58383,344358.1962304,85
1658572006.58383,344358.1962341,-357
1658572006.58383,344358.1962378,-116
1658572006.58383,344358.6834778,41
1658572006.58383,344358.6834909,-102
1658572006.58383,344358.6834947,-107
1658572006.58383,344358.6834971,-31
1658572006.58383,344358.6834991,-43
1658572006.58383,344358.6835016,-51
1658572006.58383,344358.6835037,-34
1658572006.58383,344358.6835058,-31
1658572006.58383,344358.6835079,-17
1658572006.58383,344358.68351,0
1658572006.58383,344358.6835121,0
1658572006.58383,344358.6835142,9
1658572006.58383,344358.6835162,29
1658572006.58383,344358.6835193,36
1658572006.60727,344358.6835254,41
1658572006.60727,344358.6835345,41
1658572006.60727,344358.6835409,34
1658572006.60727,344358.6835502,29
1658572006.60727,344358.6835565,14
1658572006.60727,344358.6835608,4
1658572006.60727,344358.683563,17
1658572006.60727,344358.683565,31
1658572006.60727,344358.6835688,58
1658572006.60727,344358.683571,87
1658572006.60727,344358.6835731,87
1658572006.60727,344358.6835752,75
1658572006.60727,344358.6835773,75
1658572006.60727,344358.6835795,65
1658572006.60727,344358.6835816,63
1658572006.60727,344358.6835838,65
1658572006.60727,344358.683586,63
1658572006.60727,344358.6835881,58
1658572006.60727,344358.6835902,63
1658572006.60727,344358.6835923,77
1658572006.60727,344358.6835946,87
1658572006.60727,344358.6835966,82
1658572006.60727,344358.6835989,77
1658572006.60727,344358.6836051,80
1658572007.11753,344358.6836174,82
1658572007.11753,344358.6836263,77
1658572007.11753,344358.6836333,82
1658572007.11753,344358.6836376,104
1658572007.11753,344358.6836435,111
1658572007.11753,344358.6836504,87
1658572007.11753,344358.683655,65
1658572007.11753,344358.6836606,75
1658572007.11753,344358.6836654,90
1658572007.11753,344358.6836724,90
1658572007.11753,344358.6836873,80
1658572007.11753,344358.6836971,58
1658572007.11753,344358.6837021,38
1658572007.11753,344358.6837084,43
1658572007.11753,344358.6837137,51
1658572007.11753,344358.6837178,192
1658572007.11753,344358.6837225,661
1658572007.11753,344358.6837292,1194
1658572007.11753,344358.6837392,1202
1658572007.11753,344358.6837514,530
1658572007.11753,344358.6837595,-189
1658572007.11753,344358.6837684,-231
1658572007.11753,344358.6837737,46
1658572007.11753,344358.6837799,9
1658572007.11753,344358.6837894,-82
1658572007.11753,344358.6837939,-21
1658572007.11753,344358.6838006,-12
1658572007.11753,344358.6838038,-41
1658572007.11753,344358.6838071,-24
1658572007.11753,344358.683812,-4
1658572007.11753,344358.6838247,-9
1658572007.11753,344358.6838334,-7
1658572007.11753,344358.6838464,2
1658572007.11753,344358.6838593,12
1658572007.11753,344358.6838694,24
1658572007.11753,344359.2194696,36
1658572007.11753,344359.2194925,43
1658572007.11753,344359.2195011,43
1658572007.11753,344359.219505,31
1658572007.11753,344359.2195087,12
1658572007.11753,344359.2195146,14
1658572007.11753,344359.219518,34
1658572007.11753,344359.2195233,34
1658572007.11753,344359.2195305,4
1658572007.11753,344359.2195372,-2
1658572007.11753,344359.2195441,24
1658572007.11753,344359.2195538,53
1658572007.11753,344359.2195604,65
1658572007.11753,344359.2195667,70
1658572007.11753,344359.219572,72
1658572007.14124,344359.2195789,53
1658572007.14124,344359.2195872,29
1658572007.14124,344359.2195953,26
1658572007.14124,344359.2196159,34
1658572007.14124,344359.2196286,51
1658572007.14124,344359.2196379,80
1658572007.14124,344359.2196463,97
1658572007.14124,344359.2196534,87
1658572007.14124,344359.2196617,58
1658572007.14124,344359.2196716,46
1658572007.14124,344359.2196793,60
1658572007.14124,344359.2196863,70
1658572007.14124,344359.2196946,75
1658572007.14124,344359.219699,97
1658572007.14124,344359.2197055,116
1658572007.14124,344359.2197144,99
1658572007.14124,344359.2197208,70
1658572007.14124,344359.2197283,65
1658572007.14124,344359.2197371,65
1658572007.14124,344359.2197459,53
1658572007.14124,344359.2197541,38
1658572007.14124,344359.2197608,41
1658572007.14124,344359.2197669,48
1658572007.14124,344359.2197782,0
1658572007.71684,344359.2199084,-51
1658572007.71684,344359.2199182,138
1658572007.71684,344359.2199223,678
1658572007.71684,344359.2199257,1177
1658572007.71684,344359.2199292,1085
1658572007.71684,344359.2199329,352
1658572007.71684,344359.2199368,-304
1658572007.71684,344359.2199406,-236
1658572007.71684,344359.2199441,36
1658572007.71684,344359.2199478,-58
1658572007.71684,344359.2199524,-138
1658572007.71684,344359.2199566,-41
1658572007.71684,344359.2199605,-29
1658572007.71684,344359.2199641,-68
1658572007.71684,344359.2199677,-46
1658572007.71684,344359.2199713,-4
1658572007.71684,344359.219975,12
1658572007.71684,344359.2199785,14
1658572007.71684,344359.2199822,14
1658572007.71684,344359.2199858,17
1658572007.71684,344359.2199896,29
1658572007.71684,344359.2199937,43
1658572007.71684,344359.2199973,43
1658572007.71684,344359.2200009,46
1658572007.71684,344359.2200049,65
1658572007.71684,344359.2200086,75
1658572007.71684,344359.220013,53
1658572007.71684,344359.2200177,34
1658572007.71684,344359.2200216,24
1658572007.71684,344359.2200252,24
1658572007.71684,344359.2200287,41
1658572007.71684,344359.2200324,63
1658572007.71684,344359.220036,80
1658572007.71684,344359.2200395,90
1658572007.71684,344359.8038766,87
1658572007.71684,344359.8038905,80
1658572007.71684,344359.8038939,70
1658572007.71684,344359.8038962,68
1658572007.71684,344359.8038983,75
1658572007.71684,344359.8039004,70
1658572007.71684,344359.8039025,53
1658572007.71684,344359.8039045,51
1658572007.71684,344359.8039066,70
1658572007.71684,344359.8039086,90
1658572007.71684,344359.8039107,82
1658572007.71684,344359.8039127,58
1658572007.71684,344359.8039149,26
1658572007.71684,344359.803917,17
1658572007.71684,344359.803919,60
1658572007.71684,344359.8039211,114
1658572007.73977,344359.8039232,92
1658572007.73977,344359.8039253,31
1658572007.73977,344359.8039275,14
1658572007.73977,344359.8039297,9
1658572007.73977,344359.8039318,4
1658572007.73977,344359.8039338,2
1658572007.73977,344359.8039361,-19
1658572007.73977,344359.8039382,-7
1658572007.73977,344359.8039404,12
1658572007.73977,344359.8039425,-53
1658572007.73977,344359.8039446,4
1658572007.73977,344359.8039468,450
1658572007.73977,344359.8039489,1034
1658572007.73977,344359.803951,1158
1658572007.73977,344359.8039531,591
1658572007.73977,344359.8039552,-141
1658572007.73977,344359.8039574,-284
1658572007.73977,344359.8039595,2
1658572007.73977,344359.8039617,38
1658572007.73977,344359.8039637,-75
1658572007.73977,344359.8039658,-24
1658572007.73977,344359.8039679,29
1658572007.73977,344359.80397,12
1658572007.73977,344359.8039721,36
1658572008.28238,344359.8039741,60
1658572008.28238,344359.8039764,51
1658572008.28238,344359.8039818,63
1658572008.28238,344359.8039887,75
1658572008.28238,344359.8039929,58
1658572008.28238,344359.8039965,55
1658572008.28238,344359.8040001,92
1658572008.28238,344359.8040038,121
1658572008.28238,344359.8040073,116
1658572008.28238,344359.8040107,109
1658572008.28238,344359.8040142,121
1658572008.28238,344359.8040177,121
1658572008.28238,344359.8040212,109
1658572008.28238,344359.8040247,99
1658572008.28238,344359.8040282,97
1658572008.28238,344359.8040339,102
1658572008.28238,344359.8040401,116
1658572008.28238,344359.8040524,143
1658572008.28238,344359.8040658,158
1658572008.28238,344359.8040764,163
1658572008.28238,344359.8040883,170
1658572008.28238,344359.8040975,163
1658572008.28238,344359.804107,150
1658572008.28238,344359.8041173,153
1658572008.28238,344359.8041261,148
1658572008.28238,344359.8041385,141
1658572008.28238,344359.8041426,131
1658572008.28238,344359.804146,124
1658572008.28238,344359.8041492,121
1658572008.28238,344359.8041533,116
1658572008.28238,344359.8041567,109
1658572008.28238,344359.804161,104
1658572008.28238,344359.8041645,97
1658572008.28238,344360.3884705,107
1658572008.28238,344360.3884945,138
1658572008.28238,344360.3885035,133
1658572008.28238,344360.3885076,90
1658572008.28238,344360.3885099,77
1658572008.28238,344360.3885121,90
1658572008.28238,344360.3885143,90

1658572008.28238,344360.3885164,82
1658572008.28238,344360.3885185,72
1658572008.28238,344360.3885212,48
1658572008.28238,344360.3885233,7
1658572008.28238,344360.3885256,-36
1658572008.28238,344360.3885278,107
1658572008.28238,344360.3885301,618
1658572008.28238,344360.3885322,1177
1658572008.28238,344360.3885356,1177
1658572008.28238,344360.3885485,476
1658572008.29336,344360.3885556,-250
1658572008.29336,344360.3885582,-274
1658572008.29336,344360.3885604,9
1658572008.29336,344360.3885626,-36
1658572008.29336,344360.3885647,-141
1658572008.29336,344360.3885671,-77
1658572008.29336,344360.3885751,-60
1658572008.29336,344360.3885859,-97
1658572008.29336,344360.3885893,-75
1658572008.29336,344360.388593,-53
1658572008.29336,344360.388595,-72
1658572008.29336,344360.3885971,-77
1658572008.29336,344360.3885992,-48
1658572008.29336,344360.3886013,-36
1658572008.29336,344360.3886034,-48
1658572008.29336,344360.3886055,-58
1658572008.29336,344360.3886076,-51
1658572008.29336,344360.3886211,-43
1658572008.29336,344360.3886306,-38
1658572008.29336,344360.3886381,-31
1658572008.29336,344360.3886427,-36
1658572008.29336,344360.3886482,-51
1658572008.29336,344360.3886527,-55
1658572008.29336,344360.3886573,-48
1658572008.82634,344360.3886622,-29
1658572008.82634,344360.3886677,0
1658572008.82634,344360.3886733,24
1658572008.82634,344360.3886785,29
1658572008.82634,344360.3886834,31
1658572008.82634,344360.3886882,41
1658572008.82634,344360.3886931,41
1658572008.82634,344360.388698,38
1658572008.82634,344360.3887034,36
1658572008.82634,344360.3887083,36
1658572008.82634,344360.3887131,53
1658572008.82634,344360.3887181,72
1658572008.82634,344360.3887238,80
1658572008.82634,344360.3887294,82
1658572008.82634,344360.3887346,85
1658572008.82634,344360.38874,92
1658572008.82634,344360.3887475,92
1658572008.82634,344360.3887556,87
1658572008.82634,344360.3887605,97
1658572008.82634,344360.3887667,121
1658572008.82634,344360.388771,119
1658572008.82634,344360.3887781,92
1658572008.82634,344360.3887835,85
1658572008.82634,344360.3887895,94
1658572008.82634,344360.3887934,87
1658572008.82634,344360.388798,80
1658572008.82634,344360.388804,90
1658572008.82634,344360.3888137,75
1658572008.82634,344360.388819,0
1658572008.82634,344360.3888258,-12
1658572008.82634,344360.3888318,291
1658572008.82634,344360.3888364,922
1658572008.82634,344360.924789,1369
1658572008.82634,344360.9248019,1121
1658572008.82634,344360.9248065,274
1658572008.82634,344360.9248113,-328
1658572008.82634,344360.9248138,-163
1658572008.82634,344360.9248161,60
1658572008.82634,344360.9248184,-85
1658572008.82634,344360.9248205,-121
1658572008.82634,344360.9248226,-17
1658572008.82634,344360.9248247,-41
1658572008.82634,344360.9248272,-75
1658572008.82634,344360.9248326,-48
1658572008.82634,344360.9248445,-55
1658572008.82634,344360.9248486,-46
1658572008.82634,344360.9248509,2
1658572008.82634,344360.9248531,12
1658572008.82634,344360.9248553,4
1658572008.82634,344360.9248574,12
1658572008.83753,344360.9248597,31
1658572008.83753,344360.9248658,58
1658572008.83753,344360.9248774,68
1658572008.83753,344360.9248821,60
1658572008.83753,344360.9248862,60
1658572008.83753,344360.9248883,75
1658572008.83753,344360.9248903,97
1658572008.83753,344360.9248924,102
1658572008.83753,344360.9248944,99
1658572008.83753,344360.9248964,124
1658572008.83753,344360.9248984,163
1658572008.83753,344360.9249004,182
1658572008.83753,344360.9249027,187
1658572008.83753,344360.9249102,194
1658572008.83753,344360.9249212,192
1658572008.83753,344360.9249247,175
1658572008.83753,344360.9249286,153
1658572008.83753,344360.9249339,153
1658572008.83753,344360.9249441,187
1658572008.83753,344360.9249503,214
1658572008.83753,344360.9249525,211
1658572008.83753,344360.9249546,194
1658572008.83753,344360.9249566,187
1658572008.83753,344360.9249717,192
1658572009.41423,344360.9249747,180
1658572009.41423,344360.9249998,158
1658572009.41423,344360.9250068,170
1658572009.41423,344360.9250092,194
1658572009.41423,344360.9250113,214
1658572009.41423,344360.9250134,226
1658572009.41423,344360.9250154,192
1658572009.41423,344360.9250174,141
1658572009.41423,344360.9250195,136
1658572009.41423,344360.925022,143
1658572009.41423,344360.9250294,136
1658572009.41423,344360.9250378,136
1658572009.41423,344360.9250497,124
1658572009.41423,344360.9250648,65
1658572009.41423,344360.9250745,77
1658572009.41423,344360.9250771,433
1658572009.41423,344360.9250793,1099
1658572009.41423,344360.9250815,1494
1658572009.41423,344360.9250837,1126
1658572009.41423,344360.9250859,214
1658572009.41423,344360.9250881,-309
1658572009.41423,344360.9250902,-51
1658572009.41423,344360.9250924,143
1658572009.41423,344360.9250997,-26
1658572009.41423,344360.9251108,-48
1658572009.41423,344360.9251153,29
1658572009.41423,344360.9251177,-4
1658572009.41423,344360.9251198,-9
1658572009.41423,344360.925122,29
1658572009.41423,344360.9251241,26
1658572009.41423,344360.9251263,24
1658572009.41423,344361.5098999,41
1658572009.41423,344361.5099139,43
1658572009.41423,344361.5099176,36
1658572009.41423,344361.5099208,51
1658572009.41423,344361.509924,70
1658572009.41423,344361.5099269,75
1658572009.41423,344361.5099298,72
1658572009.41423,344361.5099327,72
1658572009.41423,344361.5099356,60
1658572009.41423,344361.5099386,46
1658572009.41423,344361.5099415,29
1658572009.41423,344361.5099445,7
1658572009.41423,344361.5099474,14
1658572009.41423,344361.509952,43
1658572009.41423,344361.5099548,65
1658572009.41423,344361.5099578,82
1658572009.41423,344361.5099607,109
1658572009.41423,344361.5099635,121
1658572009.41423,344361.5099667,111
1658572009.42585,344361.5099711,97
1658572009.42585,344361.5099738,102
1658572009.42585,344361.5099776,116
1658572009.42585,344361.5099805,119
1658572009.42585,344361.5099835,119
1658572009.42585,344361.5099877,141
1658572009.42585,344361.5099905,167
1658572009.42585,344361.5099933,172
1658572009.42585,344361.509996,170
1658572009.42585,344361.5099986,167
1658572009.42585,344361.510001,158
1658572009.42585,344361.5100034,153
1658572009.42585,344361.5100057,145
1658572009.42585,344361.5100082,150
1658572009.42585,344361.5100106,158
1658572009.42585,344361.510013,136
1658572009.42585,344361.5100153,104
1658572009.42585,344361.5100176,97
1658572009.42585,344361.51002,92
1658572009.42585,344361.5100222,99
1658572009.42585,344361.5100266,119
1658572009.42585,344361.5100287,90
1658572009.42585,344361.510031,-19
1658572009.42585,344361.5100334,-36
1658572009.94796,344361.5100357,313
1658572009.94796,344361.5100382,978
1658572009.94796,344361.5100404,1418
1658572009.94796,344361.5100426,1148
1658572009.94796,344361.5100448,299
1658572009.94796,344361.5100471,-279
1658572009.94796,344361.5100493,-90
1658572009.94796,344361.5100516,109
1658572009.94796,344361.5100538,-53
1658572009.94796,344361.5100561,-75
1658572009.94796,344361.5100583,29
1658572009.94796,344361.5100606,17
1658572009.94796,344361.5100628,2
1658572009.94796,344361.5100662,43
1658572009.94796,344361.5100757,70
1658572009.94796,344361.5100834,75
1658572009.94796,344361.5100909,55
1658572009.94796,344361.5100998,31
1658572009.94796,344361.5101074,43
1658572009.94796,344361.5101118,65
1658572009.94796,344361.5101139,70
1658572009.94796,344361.5101159,72
1658572009.94796,344361.5101179,70
1658572009.94796,344361.51012,68
1658572009.94796,344361.5101221,60
1658572009.94796,344361.5101242,21
1658572009.94796,344361.5101265,-21
1658572009.94796,344361.5101286,-41
1658572009.94796,344361.5101307,-38
1658572009.94796,344361.5101328,-9
1658572009.94796,344362.0466158,0
1658572009.94796,344362.0466342,-24
1658572009.94796,344362.0466414,-12
1658572009.94796,344362.0466467,14
1658572009.94796,344362.0466505,0
1658572009.94796,344362.0466538,-24
1658572009.94796,344362.0466568,-26
1658572009.94796,344362.0466599,-9
1658572009.94796,344362.0466635,4
1658572009.94796,344362.046667,4
1658572009.94796,344362.0466704,7
1658572009.94796,344362.0466752,21
1658572009.94796,344362.0466792,26
1658572009.94796,344362.0466829,17
1658572009.94796,344362.0466858,9
1658572009.94796,344362.0466889,12
1658572009.94796,344362.0466941,14
1658572009.94796,344362.0466996,-4
1658572009.94796,344362.0467131,-19
1658572009.94796,344362.0467212,9
1658572009.95893,344362.0467283,26
1658572009.95893,344362.0467425,-12
1658572009.95893,344362.0467489,-34
1658572009.95893,344362.0467549,-7
1658572009.95893,344362.0467589,0
1658572009.95893,344362.0467641,-12
1658572009.95893,344362.0467718,-7
1658572009.95893,344362.046777,-12
1658572009.95893,344362.0467801,-48
1658572009.95893,344362.0467857,-58
1658572009.95893,344362.0467909,216
1658572009.95893,344362.0467959,927
1658572009.95893,344362.0468092,1513
1658572009.95893,344362.0468224,1279
1658572009.95893,344362.0468285,347
1658572009.95893,344362.0468353,-394
1658572009.95893,344362.0468411,-304
1658572009.95893,344362.046847,-2
1658572009.95893,344362.0468501,-82
1658572009.95893,344362.0468542,-150
1658572009.95893,344362.0468597,-46
1658572009.95893,344362.0468644,-38
1658572009.95893,344362.0468674,-75
1658572009.95893,344362.0468703,-41
1658572010.47736,344362.0468743,-24
1658572010.47736,344362.0468812,-31
1658572010.47736,344362.0468868,0
1658572010.47736,344362.0468933,34
1658572010.47736,344362.046897,31
1658572010.47736,344362.0469018,26
1658572010.47736,344362.0469053,43
1658572010.47736,344362.0469083,75
1658572010.47736,344362.0469112,87
1658572010.47736,344362.0469142,75
1658572010.47736,344362.0469172,70
1658572010.47736,344362.0469202,72
1658572010.47736,344362.0469231,75
1658572010.47736,344362.0469261,72
1658572010.47736,344362.046929,70
1658572010.47736,344362.0469319,80
1658572010.47736,344362.046935,87
1658572010.47736,344362.0469379,90
1658572010.47736,344362.0469409,99
1658572010.47736,344362.0469438,111
1658572010.47736,344362.0469468,107
1658572010.47736,344362.0469604,92
1658572010.47736,344362.0469735,90
1658572010.47736,344362.0469802,80
1658572010.47736,344362.0469867,60
1658572010.47736,344362.0469927,65
1658572010.47736,344362.0469985,87
1658572010.47736,344362.0470052,97
1658572010.47736,344362.0470108,104
1658572010.47736,344362.5827832,128
1658572010.47736,344362.582799,143
1658572010.47736,344362.5828021,138
1658572010.47736,344362.5828044,148
1658572010.47736,344362.5828066,145
1658572010.47736,344362.5828089,124
1658572010.47736,344362.582818,141
1658572010.47736,344362.5828309,170
1658572010.47736,344362.5828425,163
1658572010.47736,344362.5828553,133
1658572010.47736,344362.5828633,109
1658572010.47736,344362.5828688,102
1658572010.47736,344362.5828783,107
1658572010.47736,344362.5828876,102
1658572010.47736,344362.582899,85
1658572010.47736,344362.5829043,92
1658572010.47736,344362.5829152,99
1658572010.47736,344362.5829262,51
1658572010.47736,344362.5829337,-7
1658572010.47736,344362.5829476,143
1658572010.47736,344362.5829612,695
1658572010.48734,344362.582975,1394
1658572010.48734,344362.5829917,1593
1658572010.48734,344362.5830058,922
1658572010.48734,344362.5830186,-87
1658572010.48734,344362.5830273,-377
1658572010.48734,344362.5830345,-19
1658572010.48734,344362.583049,46
1658572010.48734,344362.5830608,-111
1658572010.48734,344362.5830741,-55
1658572010.48734,344362.5830836,2
1658572010.48734,344362.5830878,-41
1658572010.48734,344362.5830931,-21
1658572010.48734,344362.5830968,17
1658572010.48734,344362.583101,0
1658572010.48734,344362.5831066,7
1658572010.48734,344362.5831127,43
1658572010.48734,344362.5831166,55
1658572010.48734,344362.5831209,48
1658572010.48734,344362.5831247,55
1658572010.48734,344362.58313,72
1658572010.48734,344362.5831339,97
1658572010.48734,344362.5831392,104
1658572010.48734,344362.583143,97
1658572010.48734,344362.5831472,114
1658572011.06924,344362.5831514,126
1658572011.06924,344362.5831554,94
1658572011.06924,344362.58316,58
1658572011.06924,344362.5831666,68
1658572011.06924,344362.5831708,107
1658572011.06924,344362.5831759,131
1658572011.06924,344362.5831807,126
1658572011.06924,344362.5831848,124
1658572011.06924,344362.5831913,124
1658572011.06924,344362.5831951,94
1658572011.06924,344362.5831991,70
1658572011.06924,344362.583203,87
1658572011.06924,344362.5832082,97
1658572011.06924,344362.583213,75
1658572011.06924,344362.5832185,68
1658572011.06924,344362.5832225,85
1658572011.06924,344362.5832264,104
1658572011.06924,344362.5832304,116
1658572011.06924,344362.5832361,131
1658572011.06924,344362.5832402,148
1658572011.06924,344362.583247,155
1658572011.06924,344362.5832521,160
1658572011.06924,344362.5832582,155
1658572011.06924,344362.5832641,143
1658572011.06924,344362.5832683,143
1658572011.06924,344362.5832738,148
1658572011.06924,344362.5832777,138
1658572011.06924,344362.5832818,128
1658572011.06924,344363.167735,133
1658572011.06924,344363.1677569,143
1658572011.06924,344363.1677711,141
1658572011.06924,344363.1677832,126
1658572011.06924,344363.1677922,119
1658572011.06924,344363.1677974,116
1658572011.06924,344363.1678067,109
1658572011.06924,344363.1678155,102
1658572011.06924,344363.1678243,104
1658572011.06924,344363.1678367,111
1658572011.06924,344363.1678478,114
1658572011.06924,344363.1678616,99
1658572011.06924,344363.167874,90
1658572011.06924,344363.1678878,104
1658572011.06924,344363.1679024,119
1658572011.06924,344363.1679159,126
1658572011.06924,344363.1679292,121
1658572011.06924,344363.1679427,102
1658572011.06924,344363.1679565,109
1658572011.06924,344363.167969,124
1658572011.06924,344363.1679783,124
1658572011.06924,344363.1679837,126
1658572011.08077,344363.1679892,126
1658572011.08077,344363.1679931,121
1658572011.08077,344363.1679996,111
1658572011.08077,344363.1680028,109
1658572011.08077,344363.168009,128
1658572011.08077,344363.168015,148
1658572011.08077,344363.1680205,150
1658572011.08077,344363.1680237,138
1658572011.08077,344363.1680293,119
1658572011.08077,344363.168035,119
1658572011.08077,344363.1680382,128
1658572011.08077,344363.1680411,124
1658572011.08077,344363.1680442,124
1658572011.08077,344363.1680472,133
1658572011.08077,344363.1680504,97
1658572011.08077,344363.1680558,60
1658572011.08077,344363.1680617,245
1658572011.08077,344363.1680649,805
1658572011.08077,344363.1680706,1491
1658572011.08077,344363.1680736,1695
1658572011.08077,344363.1680765,1009
1658572011.08077,344363.1680794,-17
1658572011.08077,344363.1680823,-311
1658572011.08077,344363.1680853,9
1658572011.70178,344363.1680894,43
1658572011.70178,344363.1680965,-92
1658572011.70178,344363.1681019,-21
1658572011.70178,344363.1681085,21
1658572011.70178,344363.1681122,-17
1658572011.70178,344363.1681175,9
1658572011.70178,344363.1681245,34
1658572011.70178,344363.1681295,17
1658572011.70178,344363.1681327,36
1658572011.70178,344363.1681385,70
1658572011.70178,344363.1681426,70
1658572011.70178,344363.168148,70
