Time,TimeLsl,Value
1658572603.79588,344954.3771118,-2
1658572603.79588,344954.3771323,2
1658572603.79588,344954.3771417,2
1658572603.79588,344954.3771491,7
1658572603.79588,344954.3771544,21
1658572603.79588,344954.3771594,26
1658572603.79588,344954.3771664,17
1658572603.79588,344954.3771735,7
1658572603.79588,344954.3771776,0
1658572603.79588,344954.3771818,-4
1658572603.79588,344954.3771852,-7
1658572603.79588,344954.3771888,-21
1658572603.79588,344954.3771959,-34
1658572603.79588,344954.3772013,-26
1658572603.79588,344954.377207,-12
1658572603.79588,344954.3772106,7
1658572603.79588,344954.3772139,26
1658572603.79588,344954.3772201,34
1658572603.79588,344954.3772251,34
1658572603.79588,344954.3772285,31
1658572603.79588,344954.377236,19
1658572603.79588,344954.3772496,14
1658572603.79588,344954.3772529,24
1658572603.79588,344954.3772589,31
1658572603.79588,344954.3772619,31
1658572603.79588,344954.3772648,29
1658572603.79588,344954.3772693,26
1658572603.79588,344954.3772747,31
1658572603.79588,344954.3772795,38
1658572603.79588,344954.3772825,36
1658572603.79588,344954.3772857,31
1658572603.79588,344954.3772886,29
1658572603.79588,344954.3772916,26
1658572603.79588,344954.3772946,43
1658572603.79588,344954.3772975,75
1658572603.79588,344954.3773016,72
1658572603.79588,344954.3773071,43
1658572603.79588,344954.3773117,38
1658572603.79588,344954.3773147,48
1658572603.79588,344954.3773177,41
1658572603.79588,344954.3773238,34
1658572603.79588,344954.3773269,41
1658572603.79588,344954.3773317,34
1658572603.79588,344954.3773378,-24
1658572603.79588,344954.3773417,-19
1658572603.79588,344954.3773478,277
1658572603.79588,344954.3773508,875
1658572603.79588,344954.3773547,1306
1658572603.79588,344954.3773598,1029
1658572603.79588,344954.377366,187
1658572603.91607,344954.3773707,-304
1658572603.91607,344954.3773768,-94
1658572603.91607,344954.3773809,53
1658572603.91607,344954.3773862,-102
1658572603.91607,344954.3773911,-109
1658572603.91607,344954.3773941,-34
1658572603.91607,344954.3773971,-58
1658572603.91607,344954.3774013,-72
1658572603.91607,344954.3774055,-46
1658572603.91607,344954.3774405,-48
1658572603.91607,344954.3774506,-58
1658572603.91607,344954.3774571,-51
1658572603.91607,344954.3774634,-46
1658572603.91607,344954.3774711,-38
1658572603.91607,344954.3774789,-29
1658572603.91607,344954.3775769,-29
1658572603.91607,344954.3775929,-36
1658572603.91607,344954.3776001,-41
1658572603.91607,344954.3776066,-36
1658572603.91607,344954.3776155,-34
1658572603.91607,344954.377654,-48
1658572603.91607,344954.3776621,-77
1658572603.91607,344954.3776693,-85
1658572603.91607,344954.9124875,-55
1658572603.91607,344954.912508,-19
1658572603.91607,344954.9125178,4
1658572603.91607,344954.9125242,19
1658572603.91607,344954.9125307,34
1658572603.91607,344954.9125353,31
1658572603.91607,344954.9125405,19
1658572603.91607,344954.9125448,19
1658572603.91607,344954.9125478,31
1658572603.91607,344954.912551,31
1658572603.91607,344954.9125568,19
1658572603.91607,344954.9125618,14
1658572603.91607,344954.9125656,21
1658572603.91607,344954.9125712,29
1658572603.91607,344954.912576,38
1658572603.91607,344954.9125816,51
1658572603.91607,344954.9125958,43
1658572603.91607,344954.91261,26
1658572603.91607,344954.9126228,26
1658572603.91607,344954.9126308,38
1658572603.91607,344954.9126353,48
1658572603.91607,344954.912642,70
1658572603.91607,344954.9126481,80
1658572603.91607,344954.9126539,51
1658572603.91607,344954.9126593,24
1658572603.91607,344954.9126654,21
1658572603.91607,344954.9126703,29
1658572603.95995,344954.9126783,36
1658572603.95995,344954.9126907,38
1658572603.95995,344954.9127054,36
1658572603.95995,344954.9127197,12
1658572603.95995,344954.9127327,-26
1658572603.95995,344954.9127445,80
1658572603.95995,344954.9127515,547
1658572603.95995,344954.9127559,1150
1658572603.95995,344954.9127628,1284
1658572603.95995,344954.9127675,647
1658572603.95995,344954.912773,-180
1658572603.95995,344954.9127781,-304
1658572603.95995,344954.9127837,31
1658572603.95995,344954.9127883,38
1658572603.95995,344954.9128013,-94
1658572603.95995,344954.9128093,-31
1658572603.95995,344954.912813,12
1658572603.95995,344954.9128265,-24
1658572603.95995,344954.9128394,-9
1658572603.95995,344954.9128548,17
1658572603.95995,344954.9128687,4
1658572603.95995,344954.91288,9
1658572603.95995,344954.9128879,26
1658572603.95995,344954.9128935,34
1658572603.95995,344954.9129029,43
1658572603.95995,344954.9129079,51
1658572603.95995,344954.9129201,41
1658572603.95995,344954.9129288,31
1658572603.95995,344954.9129359,31
1658572603.95995,344954.9129779,34
1658572603.95995,344954.9129853,21
1658572603.95995,344954.9129968,4
1658572603.95995,344954.9130008,0
1658572603.95995,344954.9130043,7
1658572603.95995,344954.9130076,26
1658572603.95995,344954.9130109,58
1658572603.95995,344954.9130142,75
1658572603.95995,344954.9130175,80
1658572603.95995,344954.9130208,72
1658572603.95995,344954.9130241,68
1658572603.95995,344954.9130274,63
1658572603.95995,344954.9130318,53
1658572603.95995,344954.9130374,51
1658572603.95995,344954.9130409,55
1658572603.95995,344954.9130509,63
1658572603.95995,344954.9130689,70
1658572603.95995,344955.4003018,77
1658572603.95995,344955.4003209,85
1658572603.95995,344955.4003291,90
1658572603.95995,344955.4003363,94
1658572603.98389,344955.4003434,97
1658572603.98389,344955.4003505,92
1658572603.98389,344955.4003553,87
1658572603.98389,344955.4003596,85
1658572603.98389,344955.4003647,102
1658572603.98389,344955.400376,126
1658572603.98389,344955.400385,114
1658572603.98389,344955.4003925,87
1658572603.98389,344955.400406,87
1658572603.98389,344955.4004162,85
1658572603.98389,344955.4004235,65
1658572603.98389,344955.400428,60
1658572603.98389,344955.4004321,75
1658572603.98389,344955.4004377,70
1658572603.98389,344955.4004417,14
1658572603.98389,344955.4004465,-2
1658572603.98389,344955.400462,248
1658572603.98389,344955.4004743,829
1658572603.98389,344955.4004873,1299
1658572603.98389,344955.400501,1104
1658572603.98389,344955.4005127,299
1658572603.98389,344955.4005211,-284
1658572603.98389,344955.4005353,-131
1658572603.98389,344955.4005485,87
1658572603.98389,344955.4005617,-43
1658572603.98389,344955.4005756,-90
1658572603.98389,344955.40059,0
1658572603.98389,344955.4006047,-9
1658572603.98389,344955.4006171,-36
1658572603.98389,344955.4006258,-12
1658572603.98389,344955.4006319,0
1658572603.98389,344955.4006381,-2
1658572603.98389,344955.4006418,14
1658572603.98389,344955.4006467,26
1658572603.98389,344955.400651,29
1658572603.98389,344955.4006563,31
1658572603.98389,344955.4006616,29
1658572603.98389,344955.4006651,26
1658572603.98389,344955.400673,26
1658572603.98389,344955.4006859,26
1658572603.98389,344955.4006976,19
1658572603.98389,344955.4007036,2
1658572603.98389,344955.4007101,-21
1658572603.98389,344955.4007139,-29
1658572603.98389,344955.4007262,-7
1658572603.98389,344955.4007394,24
1658572603.98389,344955.4007526,53
1658572603.98389,344955.4007653,68
1658572603.98389,344955.4007736,65
1658572603.98389,344955.4007777,68
1658572603.99585,344955.4007844,70
1658572603.99585,344955.4007884,65
1658572603.99585,344955.4007922,68
1658572603.99585,344955.400796,75
1658572603.99585,344955.4008004,80
1658572603.99585,344955.4008059,77
1658572603.99585,344955.4008121,87
1658572603.99585,344955.4008171,99
1658572603.99585,344955.4008211,107
1658572603.99585,344955.4008254,104
1658572603.99585,344955.4008309,94
1658572603.99585,344955.4008353,97
1658572603.99585,344955.4008414,97
1658572603.99585,344955.4008463,85
1658572603.99585,344955.4008518,90
1658572603.99585,344955.4008557,124
1658572603.99585,344955.4008596,145
1658572603.99585,344955.4008634,121
1658572603.99585,344955.4008685,90
1658572603.99585,344956.0347923,87
1658572603.99585,344956.0348134,94
1658572603.99585,344956.0348234,99
1658572604.46481,344956.0348277,99
1658572604.46481,344956.0348312,87
1658572604.46481,344956.0348347,53
1658572604.46481,344956.034838,-2
1658572604.46481,344956.0348412,51
1658572604.46481,344956.0348449,442
1658572604.46481,344956.0348489,1085
1658572604.46481,344956.034853,1408
1658572604.46481,344956.0348572,958
1658572604.46481,344956.0348613,99
1658572604.46481,344956.0348644,-253
1658572604.46481,344956.0348676,4
1658572604.46481,344956.0348716,82
1658572604.46481,344956.0348774,-68
1658572604.46481,344956.0348913,-46
1658572604.46481,344956.0349061,17
1658572604.46481,344956.0349182,-12
1658572604.46481,344956.0349323,-17
1658572604.46481,344956.034947,9
1658572604.46481,344956.0349579,14
1658572604.46481,344956.0349648,14
1658572604.46481,344956.0349704,26
1658572604.46481,344956.0349742,34
1658572604.46481,344956.0349795,31
1658572604.46481,344956.0349831,29
1658572604.46481,344956.0349886,34
1658572604.46481,344956.0349926,31
1658572604.46481,344956.0349984,26
1658572604.46481,344956.0350022,24
1658572604.46481,344956.0350074,12
1658572604.46481,344956.0350119,0
1658572604.46481,344956.0350173,-9
1658572604.46481,344956.0350215,-7
1658572604.46481,344956.0350356,17
1658572604.46481,344956.0350494,51
1658572604.46481,344956.0350577,72
1658572604.46481,344956.0350675,80
1658572604.46481,344956.035079,92
1658572604.46481,344956.0350892,99
1658572604.46481,344956.0351018,99
1658572604.46481,344956.0351146,102
1658572604.46481,344956.0351251,111
1658572604.46481,344956.0351317,109
1658572604.46481,344956.0351357,111
1658572604.46481,344956.035141,124
1658572604.46481,344956.035149,133
1658572604.46481,344956.0351546,138
1658572604.46481,344956.0351584,141
1658572604.46481,344956.0351649,143
1658572604.46481,344956.0351696,141
1658572604.48933,344956.0351731,141
1658572604.48933,344956.0351764,141
1658572604.48933,344956.0351817,131
1658572604.48933,344956.0351857,126
1658572604.48933,344956.0351898,150
1658572604.48933,344956.0351942,182
1658572604.48933,344956.0352259,172
1658572604.48933,344956.0352349,143
1658572604.48933,344956.0352388,138
1658572604.48933,344956.0352424,141
1658572604.48933,344956.0352461,131
1658572604.48933,344956.0352552,128
1658572604.48933,344956.0352699,138
1658572604.48933,344956.0352824,131
1658572604.48933,344956.0352944,72
1658572604.48933,344956.0353044,85
1658572604.48933,344956.035318,411
1658572604.48933,344956.0353307,1019
1658572604.48933,344956.0353383,1403
1658572604.48933,344956.0353434,1063
1658572604.48933,344956.5702098,226
1658572604.48933,344956.5702277,-209
1658572604.48933,344956.5702361,19
1658572604.48933,344956.5702422,148
1658572605.00983,344956.5702484,0
1658572605.00983,344956.5702554,4
1658572605.00983,344956.5702616,70
1658572605.00983,344956.5702659,31
1658572605.00983,344956.5702691,17
1658572605.00983,344956.5702723,53
1658572605.00983,344956.570278,58
1658572605.00983,344956.5702829,53
1658572605.00983,344956.5702872,60
1658572605.00983,344956.5702926,51
1658572605.00983,344956.5702973,31
1658572605.00983,344956.5703006,31
1658572605.00983,344956.5703067,43
1658572605.00983,344956.5703097,43
1658572605.00983,344956.5703127,41
1658572605.00983,344956.5703155,34
1658572605.00983,344956.5703185,9
1658572605.00983,344956.5703215,-12
1658572605.00983,344956.5703247,-21
1658572605.00983,344956.5703278,-21
1658572605.00983,344956.5703307,0
1658572605.00983,344956.5703337,36
1658572605.00983,344956.5703367,55
1658572605.00983,344956.5703396,60
1658572605.00983,344956.5703426,68
1658572605.00983,344956.5703455,72
1658572605.00983,344956.5703484,72
1658572605.00983,344956.5703512,63
1658572605.00983,344956.5703542,53
1658572605.00983,344956.5703571,60
1658572605.00983,344956.57036,80
1658572605.00983,344956.5703629,85
1658572605.00983,344956.5703659,82
1658572605.00983,344956.5703687,90
1658572605.00983,344956.5703717,94
1658572605.00983,344956.5703747,92
1658572605.00983,344956.5703776,92
1658572605.00983,344956.5703806,94
1658572605.00983,344956.5703836,99
1658572605.00983,344956.5703865,99
1658572605.00983,344956.5703894,87
1658572605.00983,344956.5703924,92
1658572605.00983,344956.5703953,121
1658572605.00983,344956.5703982,138
1658572605.00983,344956.5704011,116
1658572605.00983,344956.5704041,97
1658572605.00983,344956.570407,97
1658572605.00983,344956.5704098,99
1658572605.00983,344956.5704127,102
1658572605.00983,344956.5704156,104
1658572605.02081,344956.5704187,94
1658572605.02081,344956.5704216,63
1658572605.02081,344956.5704245,19
1658572605.02081,344956.5704273,124
1658572605.02081,344956.5704303,569
1658572605.02081,344956.5704333,1158
1658572605.02081,344956.5704363,1323
1658572605.02081,344956.5704393,734
1658572605.02081,344956.5704422,-65
1658572605.02081,344956.5704452,-216
1658572605.02081,344956.5704482,68
1658572605.02081,344956.5704511,48
1658572605.02081,344956.5704541,-90
1658572605.02081,344956.570457,-29
1658572605.02081,344956.5704601,12
1658572605.02081,344956.570463,-26
1658572605.02081,344956.5704659,-14
1658572605.02081,344956.5704688,7
1658572605.02081,344956.5704717,-7
1658572605.02081,344957.1070794,-9
1658572605.02081,344957.1071057,2
1658572605.02081,344957.1071139,4
1658572605.02081,344957.1071208,9
1658572605.02081,344957.1071281,17
1658572605.63423,344957.1071348,14
1658572605.63423,344957.1071574,7
1658572605.63423,344957.1071723,4
1658572605.63423,344957.1071782,7
1658572605.63423,344957.107183,-2
1658572605.63423,344957.1071885,-29
1658572605.63423,344957.1071927,-51
1658572605.63423,344957.1071988,-46
1658572605.63423,344957.1072041,-29
1658572605.63423,344957.1072103,-12
1658572605.63423,344957.1072152,12
1658572605.63423,344957.1072213,21
1658572605.63423,344957.1072261,14
1658572605.63423,344957.1072349,7
1658572605.63423,344957.1072441,2
1658572605.63423,344957.1072522,-2
1658572605.63423,344957.1072598,9
1658572605.63423,344957.1072667,21
1658572605.63423,344957.1072743,7
1658572605.63423,344957.1072824,-2
1658572605.63423,344957.107286,9
1658572605.63423,344957.107298,19
1658572605.63423,344957.1073095,21
1658572605.63423,344957.1073245,34
1658572605.63423,344957.1073339,34
1658572605.63423,344957.1073432,19
1658572605.63423,344957.1073579,24
1658572605.63423,344957.1073685,31
1658572605.63423,344957.1073764,24
1658572605.63423,344957.1073806,38
1658572605.63423,344957.1073846,77
1658572605.63423,344957.1073887,90
1658572605.63423,344957.1073971,63
1658572605.63423,344957.1074039,48
1658572605.63423,344957.1074105,55
1658572605.63423,344957.1074153,60
1658572605.63423,344957.1074234,65
1658572605.63423,344957.1074308,63
1658572605.63423,344957.1074398,48
1658572605.63423,344957.1074474,31
1658572605.63423,344957.1074565,-4
1658572605.63423,344957.1074636,82
1658572605.63423,344957.107473,518
1658572605.63423,344957.107481,1121
1658572605.63423,344957.1074888,1309
1658572605.63423,344957.107497,722
1658572605.63423,344957.1075038,-116
1658572605.63423,344957.1075122,-299
1658572605.63423,344957.1075182,17
1658572605.63423,344957.1075262,34
1658572605.66116,344957.1075339,-102
1658572605.66116,344957.1075399,-41
1658572605.66116,344957.1075477,-2
1658572605.66116,344957.1075557,-51
1658572605.66116,344957.1075618,-58
1658572605.66116,344957.1075679,-34
1658572605.66116,344957.1075756,-24
1658572605.66116,344957.1075816,-21
1658572605.66116,344957.1075893,4
1658572605.66116,344957.1075954,26
1658572605.66116,344957.1076033,24
1658572605.66116,344957.1076109,26
1658572605.66116,344957.1076169,36
1658572605.66116,344957.1076248,38
1658572605.66116,344957.1076911,38
1658572605.66116,344957.107704,38
1658572605.66116,344957.1077152,38
1658572605.66116,344957.1077282,31
1658572605.66116,344957.7402864,9
1658572605.66116,344957.7403072,2
1658572605.66116,344957.7403184,51
1658572605.66116,344957.740327,107
1658572605.66116,344957.7403312,116
1658572605.66116,344957.7403378,102
1658572606.18239,344957.7403447,92
1658572606.18239,344957.7403513,68
1658572606.18239,344957.7403588,43
1658572606.18239,344957.7404296,48
1658572606.18239,344957.7404356,51
1658572606.18239,344957.7404404,48
1658572606.18239,344957.7404466,53
1658572606.18239,344957.7404528,51
1658572606.18239,344957.7404578,43
1658572606.18239,344957.7404634,46
1658572606.18239,344957.7404704,58
1658572606.18239,344957.740474,55
1658572606.18239,344957.7404791,48
1658572606.18239,344957.7404825,53
1658572606.18239,344957.7404876,53
1658572606.18239,344957.7404934,36
1658572606.18239,344957.7404982,31
1658572606.18239,344957.7405012,53
1658572606.18239,344957.740509,85
1658572606.18239,344957.740515,77
1658572606.18239,344957.7405212,48
1658572606.18239,344957.7405273,41
1658572606.18239,344957.7405338,41
1658572606.18239,344957.7405381,34
1658572606.18239,344957.7405412,36
1658572606.18239,344957.7405443,43
1658572606.18239,344957.7405474,36
1658572606.18239,344957.7405505,0
1658572606.18239,344957.7405541,-46
1658572606.18239,344957.740561,85
1658572606.18239,344957.7405641,571
1658572606.18239,344957.7405692,1153
1658572606.18239,344957.7405743,1233
1658572606.18239,344957.7405801,579
1658572606.18239,344957.7405865,-214
1658572606.18239,344957.7405932,-309
1658572606.18239,344957.7406006,0
1658572606.18239,344957.7406071,-21
1658572606.18239,344957.7406104,-148
1658572606.18239,344957.7406173,-87
1658572606.18239,344957.7406221,-60
1658572606.18239,344957.7406287,-109
1658572606.18239,344957.7406356,-102
1658572606.18239,344957.7406387,-75
1658572606.18239,344957.7406519,-77
1658572606.18239,344957.7406622,-75
1658572606.18239,344957.7406736,-63
1658572606.18239,344957.7406884,-55
1658572606.18239,344957.7407011,-51
1658572606.18239,344957.7407111,-41
1658572606.19535,344957.7407191,-36
1658572606.19535,344957.7407235,-34
1658572606.19535,344957.7407314,-41
1658572606.19535,344957.7407386,-48
1658572606.19535,344957.7407518,-55
1658572606.19535,344957.7407649,-65
1658572606.19535,344957.740777,-68
1658572606.19535,344957.7407813,-55
1658572606.19535,344957.7407881,-34
1658572606.19535,344957.7407934,-9
1658572606.19535,344957.7407988,9
1658572606.19535,344957.7408024,14
1658572606.19535,344957.740807,12
1658572606.19535,344957.7408207,12
1658572606.19535,344957.7408946,7
1658572606.19535,344957.7409128,4
1658572606.19535,344957.7409236,7
1658572606.19535,344958.2773339,9
1658572606.19535,344958.2773501,12
1658572606.19535,344958.2773568,21
1658572606.19535,344958.2773613,34
1658572606.19535,344958.2773665,31
1658572606.19535,344958.2773728,31
1658572606.19535,344958.2773773,43
1658572606.66569,344958.2773833,53
1658572606.66569,344958.2773877,46
1658572606.66569,344958.2773921,34
1658572606.66569,344958.2773966,21
1658572606.66569,344958.277401,17
1658572606.66569,344958.2774054,41
1658572606.66569,344958.2774098,68
1658572606.66569,344958.2774143,53
1658572606.66569,344958.2774187,31
1658572606.66569,344958.2774234,26
1658572606.66569,344958.2774278,14
1658572606.66569,344958.2774323,7
1658572606.66569,344958.2774367,17
1658572606.66569,344958.2774411,21
1658572606.66569,344958.2774454,12
1658572606.66569,344958.2774499,-43
1658572606.66569,344958.2774546,-72
1658572606.66569,344958.2774591,204
1658572606.66569,344958.2774635,810
1658572606.66569,344958.277468,1211
1658572606.66569,344958.2774725,914
1658572606.66569,344958.2774769,107
1658572606.66569,344958.2774814,-362
1658572606.66569,344958.2774864,-148
1658572606.66569,344958.2774908,19
1658572606.66569,344958.2774955,-126
1658572606.66569,344958.2774999,-138
1658572606.66569,344958.2775044,-60
1658572606.66569,344958.2775087,-92
1658572606.66569,344958.2775134,-114
1658572606.66569,344958.2775176,-75
1658572606.66569,344958.2775222,-65
1658572606.66569,344958.2775269,-65
1658572606.66569,344958.2775316,-48
1658572606.66569,344958.2775368,-41
1658572606.66569,344958.2775413,-46
1658572606.66569,344958.2776328,-34
1658572606.66569,344958.2776413,-21
1658572606.66569,344958.2776459,-14
1658572606.66569,344958.2776506,-7
1658572606.66569,344958.2776551,-2
1658572606.66569,344958.2776597,-12
1658572606.66569,344958.2776759,-24
1658572606.66569,344958.2776888,-31
1658572606.66569,344958.2776966,-21
1658572606.66569,344958.277704,2
1658572606.66569,344958.2777112,26
1658572606.66569,344958.2777179,53
1658572606.66569,344958.2777237,72
1658572606.66569,344958.2777281,85
1658572606.68764,344958.2777329,87
1658572606.68764,344958.2777377,85
1658572606.68764,344958.2777422,77
1658572606.68764,344958.2777469,68
1658572606.68764,344958.2777509,72
1658572606.68764,344958.2777549,87
1658572606.68764,344958.2777589,94
1658572606.68764,344958.2777631,99
1658572606.68764,344958.2777673,109
1658572606.68764,344958.2777715,109
1658572606.68764,344958.2777767,102
1658572606.68764,344958.2777811,104
1658572606.68764,344958.2777886,111
1658572606.68764,344958.2777932,111
1658572606.68764,344958.2777977,107
1658572606.68764,344958.2778035,102
1658572606.68764,344958.7636738,116
1658572606.68764,344958.7636897,143
1658572606.68764,344958.7636923,141
1658572606.68764,344958.7636946,99
1658572606.68764,344958.7636968,77
1658572606.68764,344958.763699,90
1658572606.68764,344958.7637011,90
1658572606.68764,344958.7637032,72
1658572607.30942,344958.7637053,60
1658572607.30942,344958.7637074,63
1658572607.30942,344958.7637093,43
1658572607.30942,344958.7637114,-9
1658572607.30942,344958.7637133,99
1658572607.30942,344958.7637153,591
1658572607.30942,344958.7637178,1194
1658572607.30942,344958.7637237,1277
1658572607.30942,344958.7637307,618
1658572607.30942,344958.7637346,-155
1658572607.30942,344958.7637395,-245
1658572607.30942,344958.7637454,31
1658572607.30942,344958.7637565,-17
1658572607.30942,344958.7637659,-145
1658572607.30942,344958.7637786,-82
1658572607.30942,344958.763792,-51
1658572607.30942,344958.7638059,-87
1658572607.30942,344958.7638194,-85
1658572607.30942,344958.7638327,-60
1658572607.30942,344958.7638411,-58
1658572607.30942,344958.7638455,-60
1658572607.30942,344958.7638511,-31
1658572607.30942,344958.763863,12
1658572607.30942,344958.7638692,2
1658572607.30942,344958.7638748,-46
1658572607.30942,344958.7638784,-38
1658572607.30942,344958.7638837,0
1658572607.30942,344958.7638888,-9
1658572607.30942,344958.7638958,-24
1658572607.30942,344958.7638996,-9
1658572607.30942,344958.7639031,-19
1658572607.30942,344958.7639064,-46
1658572607.30942,344958.7639118,-31
1658572607.30942,344958.763919,19
1658572607.30942,344958.7639242,65
1658572607.30942,344958.7639301,75
1658572607.30942,344958.7639345,58
1658572607.30942,344958.7639419,60
1658572607.30942,344958.7639495,68
1658572607.30942,344958.7639557,72
1658572607.30942,344958.7639635,87
1658572607.30942,344958.7639668,82
1658572607.30942,344958.7639725,70
1658572607.30942,344958.7639761,77
1658572607.30942,344958.7639816,80
1658572607.30942,344958.7639851,77
1658572607.30942,344958.763989,94
1658572607.30942,344958.7639922,114
1658572607.30942,344958.7639955,114
1658572607.30942,344958.7639987,104
1658572607.33036,344958.764004,94
1658572607.33036,344958.7640101,87
1658572607.33036,344958.7640197,85
1658572607.33036,344958.7640259,85
1658572607.33036,344958.7640335,109
1658572607.33036,344958.7640419,126
1658572607.33036,344958.7640491,102
1658572607.33036,344958.7640597,72
1658572607.33036,344958.7640667,72
1658572607.33036,344958.7640745,75
1658572607.33036,344958.7640834,70
1658572607.33036,344958.764088,55
1658572607.33036,344958.764097,48
1658572607.33036,344958.7641091,31
1658572607.33036,344958.7641209,-17
1658572607.33036,344959.3996333,19
1658572607.33036,344959.3996471,377
1658572607.33036,344959.3996505,1007
1658572607.33036,344959.3996558,1362
1658572607.33036,344959.3996582,927
1658572607.33036,344959.3996606,4
1658572607.33036,344959.3996631,-399
1658572607.33036,344959.3996653,-104
1658572607.33036,344959.3996676,24
1658572607.88595,344959.3996698,-143
1658572607.88595,344959.3996722,-153
1658572607.88595,344959.3996744,-94
1658572607.88595,344959.3996766,-114
1658572607.88595,344959.3996789,-104
1658572607.88595,344959.3996811,-75
1658572607.88595,344959.3996834,-82
1658572607.88595,344959.3996891,-90
1658572607.88595,344959.3996989,-70
1658572607.88595,344959.3997102,-55
1658572607.88595,344959.3997175,-43
1658572607.88595,344959.399722,-31
1658572607.88595,344959.3997241,-26
1658572607.88595,344959.3997273,-17
1658572607.88595,344959.3997294,4
1658572607.88595,344959.3997315,12
1658572607.88595,344959.3997336,4
1658572607.88595,344959.3997357,-26
1658572607.88595,344959.3997379,-60
1658572607.88595,344959.39974,-55
1658572607.88595,344959.399742,-36
1658572607.88595,344959.3997441,-9
1658572607.88595,344959.3997462,26
1658572607.88595,344959.3997482,48
1658572607.88595,344959.3997503,53
1658572607.88595,344959.3997524,43
1658572607.88595,344959.3997544,29
1658572607.88595,344959.3997565,21
1658572607.88595,344959.3997587,24
1658572607.88595,344959.3997608,29
1658572607.88595,344959.3997629,29
1658572607.88595,344959.3997649,36
1658572607.88595,344959.3997671,55
1658572607.88595,344959.3997692,63
1658572607.88595,344959.3997713,60
1658572607.88595,344959.3997734,70
1658572607.88595,344959.3997754,72
1658572607.88595,344959.3997775,72
1658572607.88595,344959.3997796,72
1658572607.88595,344959.3997816,60
1658572607.88595,344959.3997838,60
1658572607.88595,344959.399786,94
1658572607.88595,344959.3997882,116
1658572607.88595,344959.3997903,102
1658572607.88595,344959.3997924,82
1658572607.88595,344959.3997945,80
1658572607.88595,344959.3997966,70
1658572607.88595,344959.3997986,65
1658572607.88595,344959.3998007,72
1658572607.88595,344959.3998028,77
1658572607.89692,344959.3998048,82
1658572607.89692,344959.399807,51
1658572607.89692,344959.3998091,2
1658572607.89692,344959.3998111,167
1658572607.89692,344959.3998133,717
1658572607.89692,344959.3998153,1287
1658572607.89692,344959.3998174,1262
1658572607.89692,344959.3998196,523
1658572607.89692,344959.3998217,-223
1658572607.89692,344959.3998238,-228
1658572607.89692,344959.399826,55
1658572607.89692,344959.3998281,-14
1658572607.89692,344959.3998303,-104
1658572607.89692,344959.3998324,-17
1658572607.89692,344959.9832556,-17
1658572607.89692,344959.9832772,-63
1658572607.89692,344959.9832886,-36
1658572607.89692,344959.9832943,-12
1658572607.89692,344959.9833003,-17
1658572607.89692,344959.9833041,-2
1658572607.89692,344959.9833078,14
1658572607.89692,344959.9833116,14
1658572607.89692,344959.983316,24
1658572607.89692,344959.9833253,51
1658572608.41926,344959.9833376,60
1658572608.41926,344959.9833446,48
1658572608.41926,344959.9833498,58
1658572608.41926,344959.9833567,55
1658572608.41926,344959.9833655,21
1658572608.41926,344959.9833684,4
1658572608.41926,344959.9833705,7
1658572608.41926,344959.9833766,14
1658572608.41926,344959.9833853,43
1658572608.41926,344959.9833997,75
1658572608.41926,344959.983415,80
1658572608.41926,344959.9834281,77
1658572608.41926,344959.9834342,80
1658572608.41926,344959.9834404,80
1658572608.41926,344959.9834549,80
1658572608.41926,344959.9834693,75
1658572608.41926,344959.9834769,55
1658572608.41926,344959.9834857,43
1658572608.41926,344959.9834983,55
1658572608.41926,344959.9835079,70
1658572608.41926,344959.9835126,77
1658572608.41926,344959.9835188,87
1658572608.41926,344959.9835232,90
1658572608.41926,344959.983529,85
1658572608.41926,344959.9835335,87
1658572608.41926,344959.9835396,90
1658572608.41926,344959.9835441,85
1658572608.41926,344959.9835507,80
1658572608.41926,344959.9835604,92
1658572608.41926,344959.9835692,116
1658572608.41926,344959.9835822,121
1658572608.41926,344959.9835957,104
1658572608.41926,344959.9836667,85
1658572608.41926,344959.9836804,80
1658572608.41926,344959.9836941,85
1658572608.41926,344959.9837081,85
1658572608.41926,344959.9837211,82
1658572608.41926,344959.9837355,80
1658572608.41926,344959.9837487,46
1658572608.41926,344959.9837619,-19
1658572608.41926,344959.983776,65
1658572608.41926,344959.983789,532
1658572608.41926,344959.9838023,1172
1658572608.41926,344959.9838292,1377
1658572608.41926,344959.9838552,812
1658572608.41926,344959.983869,-55
1658572608.41926,344959.9838839,-318
1658572608.41926,344959.9838969,-21
1658572608.41926,344959.98391,4
1658572608.41926,344959.9839876,-150
1658572608.42823,344959.9840008,-92
1658572608.42823,344959.984014,-43
1658572608.42823,344959.9840271,-97
1658572608.42823,344959.9840405,-94
1658572608.42823,344959.9840536,-65
1658572608.42823,344959.9840827,-70
1658572608.42823,344959.9841107,-72
1658572608.42823,344959.9841235,-60
1658572608.42823,344959.9841312,-48
1658572608.42823,344959.9841372,-38
1658572608.42823,344959.9841431,-31
1658572608.42823,344959.9841471,-26
1658572608.42823,344959.9841511,-19
1658572608.42823,344960.5206068,-17
1658572608.42823,344960.5206267,-24
1658572608.42823,344960.5206348,-31
1658572608.42823,344960.5206392,-41
1658572608.42823,344960.5206472,-48
1658572608.42823,344960.5206516,-43
1658572608.42823,344960.520656,-21
1658572608.42823,344960.5206603,4
1658572608.42823,344960.5206658,34
1658572608.42823,344960.5206709,48
1658572608.42823,344960.5206775,38
1658572608.94992,344960.5206814,36
1658572608.94992,344960.5206856,46
1658572608.94992,344960.5206899,43
1658572608.94992,344960.5206939,38
1658572608.94992,344960.5206983,51
1658572608.94992,344960.5207021,58
1658572608.94992,344960.5207057,46
1658572608.94992,344960.5207095,36
1658572608.94992,344960.520713,46
1658572608.94992,344960.5207175,60
1658572608.94992,344960.5207211,63
1658572608.94992,344960.5207246,68
1658572608.94992,344960.5207308,70
1658572608.94992,344960.5207341,53
1658572608.94992,344960.5207377,46
1658572608.94992,344960.5207436,70
1658572608.94992,344960.5207472,102
1658572608.94992,344960.5207508,114
1658572608.94992,344960.5207539,102
1658572608.94992,344960.5207572,82
1658572608.94992,344960.5207608,72
1658572608.94992,344960.5207665,75
1658572608.94992,344960.5207723,85
1658572608.94992,344960.520776,87
1658572608.94992,344960.5207817,82
1658572608.94992,344960.5207857,58
1658572608.94992,344960.5207919,-12
1658572608.94992,344960.5207973,-17
1658572608.94992,344960.5208013,309
1658572608.94992,344960.5208071,951
1658572608.94992,344960.5208127,1399
1658572608.94992,344960.5208184,1136
1658572608.94992,344960.5208224,291
1658572608.94992,344960.5208284,-270
1658572608.94992,344960.5208326,-85
1658572608.94992,344960.5208385,94
1658572608.94992,344960.5208423,-77
1658572608.94992,344960.5208478,-111
1658572608.94992,344960.5208515,-21
1658572608.94992,344960.5208555,-41
1658572608.94992,344960.5208613,-60
1658572608.94992,344960.520865,-17
1658572608.94992,344960.5208687,-2
1658572608.94992,344960.5208724,-14
1658572608.94992,344960.5208761,-14
1658572608.94992,344960.5208819,-7
1658572608.94992,344960.5208851,2
1658572608.94992,344960.5208879,14
1658572608.94992,344960.5208908,26
1658572608.94992,344960.5208937,29
1658572608.96188,344960.5208966,26
1658572608.96188,344960.5208995,31
1658572608.96188,344960.5209023,36
1658572608.96188,344960.5209311,24
1658572608.96188,344960.5209399,7
1658572608.96188,344960.5209517,-2
1658572608.96188,344960.5209637,4
1658572608.96188,344960.5209713,34
1658572608.96188,344960.5209738,80
1658572608.96188,344960.520976,107
1658572608.96188,344960.5209782,116
1658572608.96188,344960.5209803,126
1658572608.96188,344961.0558178,116
1658572608.96188,344961.0558366,99
1658572608.96188,344961.0558465,94
1658572608.96188,344961.0558515,104
1658572608.96188,344961.0558537,111
1658572608.96188,344961.0558559,116
1658572608.96188,344961.0558581,121
1658572608.96188,344961.0558602,124
1658572608.96188,344961.0558623,126
1658572608.96188,344961.0558644,124
1658572608.96188,344961.0558665,116
1658572608.96188,344961.0558687,114
1658572609.48951,344961.0558708,109
1658572609.48951,344961.0558729,107
1658572609.48951,344961.0558749,109
1658572609.48951,344961.0558769,116
1658572609.48951,344961.0558789,136
1658572609.48951,344961.0558809,143
1658572609.48951,344961.055883,109
1658572609.48951,344961.0558849,75
1658572609.48951,344961.0558869,77
1658572609.48951,344961.0558889,99
1658572609.48951,344961.0558909,119
1658572609.48951,344961.0558929,121
1658572609.48951,344961.055895,116
1658572609.48951,344961.055897,85
1658572609.48951,344961.055899,2
1658572609.48951,344961.0559009,38
1658572609.48951,344961.055903,430
1658572609.48951,344961.0559049,1043
1658572609.48951,344961.0559068,1340
1658572609.48951,344961.0559142,917
1658572609.48951,344961.0559249,92
1658572609.48951,344961.0559304,-262
1658572609.48951,344961.0559344,-9
1658572609.48951,344961.0559364,72
1658572609.48951,344961.0559385,-77
1658572609.48951,344961.0559414,-43
1658572609.48951,344961.055952,14
1658572609.48951,344961.0559596,-31
1658572609.48951,344961.0559621,-26
1658572609.48951,344961.0559643,-2
1658572609.48951,344961.0559664,-26
1658572609.48951,344961.0559719,-26
1658572609.48951,344961.0559832,7
1658572609.48951,344961.0559968,14
1658572609.48951,344961.0560094,0
1658572609.48951,344961.056019,0
1658572609.48951,344961.0560321,21
1658572609.48951,344961.0560405,41
1658572609.48951,344961.0560503,31
1658572609.48951,344961.0560545,14
1658572609.48951,344961.0560605,2
1658572609.48951,344961.0560637,0
1658572609.48951,344961.0560665,0
1658572609.48951,344961.0560714,-4
1658572609.48951,344961.0560761,4
1658572609.48951,344961.0560819,36
1658572609.48951,344961.0560855,65
1658572609.48951,344961.0560916,77
1658572609.48951,344961.0560962,77
1658572609.48951,344961.0561005,82
1658572609.50008,344961.0561061,82
1658572609.50008,344961.0561126,63
1658572609.50008,344961.0561217,53
1658572609.50008,344961.0561308,75
1658572609.50008,344961.0561368,77
1658572609.50008,344961.0561433,72
1658572609.50008,344961.0561466,85
1658572609.50008,344961.0561777,94
1658572609.50008,344961.0561829,94
1658572609.50008,344961.0561866,94
1658572609.50008,344961.0561901,90
1658572609.50008,344961.5916728,87
1658572609.50008,344961.5916897,92
1658572609.50008,344961.5916929,87
1658572609.50008,344961.5916958,75
1658572609.50008,344961.5916985,72
1658572609.50008,344961.5917011,87
1658572609.50008,344961.5917038,97
1658572609.50008,344961.5917065,77
1658572609.50008,344961.5917091,43
1658572609.50008,344961.5917118,29
1658572609.50008,344961.5917145,24
1658572609.50008,344961.5917172,14
1658572609.50008,344961.5917199,4
1658572610.03278,344961.5917227,-7
1658572610.03278,344961.5917254,-4
1658572610.03278,344961.5917281,-26
1658572610.03278,344961.5917502,-82
1658572610.03278,344961.5917534,60
1658572610.03278,344961.5917561,601
1658572610.03278,344961.5917588,1175
1658572610.03278,344961.5917615,1163
1658572610.03278,344961.5917642,428
1658572610.03278,344961.5917669,-294
1658572610.03278,344961.5917703,-248
1658572610.03278,344961.591773,55
1658572610.03278,344961.5917756,-29
1658572610.03278,344961.5917783,-131
1658572610.03278,344961.591781,-41
1658572610.03278,344961.5917836,-19
1658572610.03278,344961.5917863,-60
1658572610.03278,344961.5917889,-46
1658572610.03278,344961.5917916,-14
1658572610.03278,344961.5917942,-14
1658572610.03278,344961.5917969,-26
1658572610.03278,344961.5917996,-19
1658572610.03278,344961.5918022,-2
1658572610.03278,344961.5918056,4
1658572610.03278,344961.5918083,4
1658572610.03278,344961.591811,2
1658572610.03278,344961.5918137,9
1658572610.03278,344961.5918163,24
1658572610.03278,344961.5918189,12
1658572610.03278,344961.5918217,-14
1658572610.03278,344961.5918243,-21
1658572610.03278,344961.591827,-17
1658572610.03278,344961.5918296,-14
1658572610.03278,344961.5918322,12
1658572610.03278,344961.5918365,48
1658572610.03278,344961.591841,72
1658572610.03278,344961.5918468,94
1658572610.03278,344961.5918507,102

1658572610.03278,344961.5918539,75
1658572610.03278,344961.5918571,55
1658572610.03278,344961.59186,68
1658572610.03278,344961.5918629,68
1658572610.03278,344961.5918658,51
1658572610.03278,344961.5918687,68
1658572610.03278,344961.5918716,85
1658572610.03278,344961.5918746,75
1658572610.03278,344961.5918775,80
1658572610.03278,344961.5918805,99
1658572610.03278,344961.5918852,107
1658572610.03278,344961.591889,104
1658572610.04375,344961.5918945,85
1658572610.04375,344961.5919015,82
1658572610.04375,344961.5919085,99
1658572610.04375,344961.5919116,92
1658572610.04375,344961.5919145,85
1658572610.04375,344961.5919175,109
1658572610.04375,344961.5919203,111
1658572610.04375,344961.5919233,72
1658572610.04375,344961.5919261,48
1658572610.04375,344961.591948,55
1658572610.04375,344962.1285972,65
1658572610.04375,344962.1286159,63
1658572610.04375,344962.12863,65
1658572610.04375,344962.1286433,70
1658572610.04375,344962.1286569,43
1658572610.04375,344962.1286679,-24
1658572610.04375,344962.1286723,-26
1658572610.04375,344962.128675,304
1658572610.04375,344962.1286825,980
1658572610.04375,344962.1286934,1442
1658572610.04375,344962.1286969,1109
1658572610.04375,344962.1287006,167
1658572610.04375,344962.1287028,-411
1658572610.04375,344962.1287085,-192
1658572610.66421,344962.1287225,0
1658572610.66421,344962.1287317,-163
1658572610.66421,344962.1287409,-180
1658572610.66421,344962.128744,-80
1658572610.66421,344962.1287463,-99
1658572610.66421,344962.1287484,-119
1658572610.66421,344962.1287539,-94
1658572610.66421,344962.1287627,-99
1658572610.66421,344962.1287685,-82
1658572610.66421,344962.1287727,-51
1658572610.66421,344962.1287835,-55
1658572610.66421,344962.128788,-68
1658572610.66421,344962.1287921,-51
1658572610.66421,344962.1287978,-38
1658572610.66421,344962.1288019,-53
1658572610.66421,344962.1288056,-55
1658572610.66421,344962.1288116,-31
1658572610.66421,344962.1288153,-21
1658572610.66421,344962.1288189,-31
1658572610.66421,344962.1288247,-46
1658572610.66421,344962.1288324,-48
1658572610.66421,344962.1288397,-43
1658572610.66421,344962.1288465,-38
1658572610.66421,344962.1288505,-14
1658572610.66421,344962.1288542,24
1658572610.66421,344962.1288597,31
1658572610.66421,344962.1288647,7
1658572610.66421,344962.1288712,0
1658572610.66421,344962.1288754,17
1658572610.66421,344962.1288795,26
1658572610.66421,344962.1288846,12
1658572610.66421,344962.1288912,-12
1658572610.66421,344962.1288954,-14
1658572610.66421,344962.1288996,-4
1658572610.66421,344962.1289046,-2
1658572610.66421,344962.1289093,4
1658572610.66421,344962.1289185,41
1658572610.66421,344962.128932,80
1658572610.66421,344962.1289501,63
1658572610.66421,344962.128956,43
1658572610.66421,344962.1289626,58
1658572610.66421,344962.1289681,63
1658572610.66421,344962.1289738,55
1658572610.66421,344962.1289801,51
1658572610.66421,344962.1289858,48
1658572610.66421,344962.1289902,51
1658572610.66421,344962.128994,38
1658572610.66421,344962.1289971,2
1658572610.66421,344962.1290001,-7
1658572610.66421,344962.1290031,26
1658572610.68551,344962.1290061,41
1658572610.68551,344962.129009,31
1658572610.68551,344962.1290121,9
1658572610.68551,344962.129015,-60
1658572610.68551,344962.1290181,-136
1658572610.68551,344962.129021,-38
1658572610.68551,344962.1290239,408
1658572610.68551,344962.1290268,1109
1658572610.68551,344962.1290297,1484
1658572610.68551,344962.7642896,1021
1658572610.68551,344962.7643068,53
1658572610.68551,344962.7643112,-401
1658572610.68551,344962.7643151,-172
1658572610.68551,344962.7643187,-109
1658572610.68551,344962.7643222,-270
1658572610.68551,344962.7643269,-209
1658572610.68551,344962.7643307,-114
1658572610.68551,344962.7643342,-155
1658572610.68551,344962.7643377,-175
1658572610.68551,344962.7643411,-153
1658572610.68551,344962.7643446,-150
1658572610.68551,344962.7643481,-141
1658572610.68551,344962.7643543,-109
1658572610.68551,344962.7643921,-92
1658572611.19674,344962.7644137,-82
1658572611.19674,344962.7644205,-48
1658572611.19674,344962.7644244,-29
1658572611.19674,344962.7644281,-53
1658572611.19674,344962.7644314,-65
1658572611.19674,344962.7644346,-53
1658572611.19674,344962.7644386,-46
1658572611.19674,344962.7644426,-38
1658572611.19674,344962.7644461,-38
1658572611.19674,344962.7644503,-38
1658572611.19674,344962.7644543,-9
1658572611.19674,344962.7644587,17
1658572611.19674,344962.7644617,21
1658572611.19674,344962.7644646,29
1658572611.19674,344962.7644675,43
1658572611.19674,344962.7644704,41
1658572611.19674,344962.7644732,38
1658572611.19674,344962.7644761,53
1658572611.19674,344962.764479,53
1658572611.19674,344962.7644819,21
1658572611.19674,344962.7644848,7
1658572611.19674,344962.7644876,38
1658572611.19674,344962.7644904,46
1658572611.19674,344962.7644932,24
1658572611.19674,344962.764496,51
1658572611.19674,344962.764499,82
1658572611.19674,344962.7645019,63
1658572611.19674,344962.7645058,53
1658572611.19674,344962.7645093,70
1658572611.19674,344962.7645127,75
1658572611.19674,344962.7645159,31
1658572611.19674,344962.7645192,-9
1658572611.19674,344962.7645227,14
1658572611.19674,344962.764526,55
1658572611.19674,344962.7645295,58
1658572611.19674,344962.7645328,36
1658572611.19674,344962.7645363,31
1658572611.19674,344962.7645399,29
1658572611.19674,344962.7645438,4
1658572611.19674,344962.7645477,-9
1658572611.19674,344962.7645519,14
1658572611.19674,344962.7645558,48
1658572611.19674,344962.7645597,17
1658572611.19674,344962.7645634,-102
1658572611.19674,344962.7645672,-94
1658572611.19674,344962.7645708,352
1658572611.19674,344962.7645745,1087
1658572611.19674,344962.7645778,1435
1658572611.19674,344962.7645814,966
1658572611.19674,344962.7645847,70
1658572611.21966,344962.7645882,-330
1658572611.21966,344962.7645922,-87
1658572611.21966,344962.7645964,0
1658572611.21966,344962.7646006,-163
1658572611.21966,344962.7646043,-141
1658572611.21966,344962.7646081,-70
1658572611.21966,344962.7646121,-131
1658572611.21966,344962.7646162,-158
1658572611.21966,344963.2984069,-102
1658572611.21966,344963.298425,-94
1658572611.21966,344963.2984323,-121
1658572611.21966,344963.2984385,-107
1658572611.21966,344963.2984449,-70
1658572611.21966,344963.2984529,-51
1658572611.21966,344963.2984581,-63
1658572611.21966,344963.298464,-90
1658572611.21966,344963.298469,-94
1658572611.21966,344963.2984732,-63
1658572611.21966,344963.2984771,-46
1658572611.21966,344963.2984822,-68
1658572611.21966,344963.2984888,-87
1658572611.21966,344963.2984937,-114
1658572611.21966,344963.2984983,-150
1658572611.21966,344963.2985048,-128
1658572611.74122,344963.2985088,-65
1658572611.74122,344963.2985129,-53
1658572611.74122,344963.298517,-80
1658572611.74122,344963.2985206,-75
1658572611.74122,344963.2985237,-53
1658572611.74122,344963.2985285,-55
1658572611.74122,344963.298535,-53
1658572611.74122,344963.2985407,-41
1658572611.74122,344963.2985448,-58
1658572611.74122,344963.2985484,-80
1658572611.74122,344963.2985519,-77
1658572611.74122,344963.2985558,-68
1658572611.74122,344963.2985616,-55
1658572611.74122,344963.298567,-31
1658572611.74122,344963.2985761,-26
1658572611.74122,344963.2985802,-53
1658572611.74122,344963.2985861,-60
1658572611.74122,344963.2985921,-38
1658572611.74122,344963.2985985,-29
1658572611.74122,344963.2986022,-38
1658572611.74122,344963.2986074,-41
1658572611.74122,344963.2986179,-7
1658572611.74122,344963.2986226,19
1658572611.74122,344963.2986321,-9
1658572611.74122,344963.2986387,-36
1658572611.74122,344963.2986466,-26
1658572611.74122,344963.2986546,-21
1658572611.74122,344963.2986641,-31
1658572611.74122,344963.2986695,-26
1658572611.74122,344963.2986832,-17
1658572611.74122,344963.2986967,-17
1658572611.74122,344963.2987092,-43
1658572611.74122,344963.298725,-128
1658572611.74122,344963.2987377,-114
1658572611.74122,344963.2987472,267
1658572611.74122,344963.2987564,985
1658572611.74122,344963.298764,1438
1658572611.74122,344963.2987726,1026
1658572611.74122,344963.2987772,80
1658572611.74122,344963.2987846,-399
1658572611.74122,344963.298798,-184
1658572611.74122,344963.2988117,-53
1658572611.74122,344963.2988255,-192
1658572611.74122,344963.2988381,-206
1658572611.74122,344963.2988479,-158
1658572611.74122,344963.2988569,-163
1658572611.74122,344963.2988787,-163
1658572611.74122,344963.2989032,-163
1658572611.74122,344963.2989121,-148
1658572611.74122,344963.2989172,-128
1658572611.76417,344963.2989222,-126
1658572611.76417,344963.298927,-111
1658572611.76417,344963.2989321,-63
1658572611.76417,344963.2989372,-51
1658572611.76417,344963.2989424,-94
1658572611.76417,344963.2989473,-97
1658572611.76417,344963.2989525,-58
1658572611.76417,344963.835967,-58
1658572611.76417,344963.8359798,-65
1658572611.76417,344963.8359829,-31
1658572611.76417,344963.8359856,-43
1658572611.76417,344963.8359879,-107
1658572611.76417,344963.8359903,-104
1658572611.76417,344963.8359927,-38
1658572611.76417,344963.8360183,-21
1658572611.76417,344963.8360206,-31
1658572611.76417,344963.8360226,-24
1658572611.76417,344963.8360245,-31
1658572611.76417,344963.8360276,-53
1658572611.76417,344963.8360307,-43
1658572611.76417,344963.8360329,-29
1658572611.76417,344963.836035,-31
1658572611.76417,344963.8360371,-24
1658572611.76417,344963.8360393,-14
1658572612.41898,344963.8360414,-34
1658572612.41898,344963.8360437,-51
1658572612.41898,344963.8360459,-34
1658572612.41898,344963.8360479,-4
1658572612.41898,344963.8360499,4
1658572612.41898,344963.8360518,4
1658572612.41898,344963.8360539,2
1658572612.41898,344963.8360558,-12
1658572612.41898,344963.8360584,-19
1658572612.41898,344963.8360625,-4
1658572612.41898,344963.8360715,4
1658572612.41898,344963.8360757,4
1658572612.41898,344963.8360795,4
1658572612.41898,344963.8360833,21
1658572612.41898,344963.8360882,43
1658572612.41898,344963.8360936,24
1658572612.41898,344963.8361015,-17
1658572612.41898,344963.8361111,-26
1658572612.41898,344963.836117,-9
1658572612.41898,344963.8361191,-4
1658572612.41898,344963.8361352,-9
1658572612.41898,344963.8361374,-14
1658572612.41898,344963.8361394,-48
1658572612.41898,344963.8361414,-116
1658572612.41898,344963.8361436,-26
1658572612.41898,344963.8361604,469
1658572612.41898,344963.8361625,1209
1658572612.41898,344963.8361646,1542
1658572612.41898,344963.8361666,1007
1658572612.41898,344963.8361818,24
1658572612.41898,344963.8361839,-406
1658572612.41898,344963.8361859,-155
1658572612.41898,344963.8361878,-63
1658572612.41898,344963.8362034,-221
1658572612.41898,344963.8362056,-194
1658572612.41898,344963.8362076,-116
1658572612.41898,344963.8362098,-136
1658572612.41898,344963.8362249,-136
1658572612.41898,344963.8362271,-114
1658572612.41898,344963.8362291,-119
1658572612.41898,344963.8362311,-114
1658572612.41898,344963.8362332,-87
1658572612.41898,344963.8362352,-58
1658572612.41898,344963.8362373,-55
1658572612.41898,344963.8362547,-80
1658572612.41898,344963.8362567,-70
1658572612.41898,344963.8362589,-29
1658572612.41898,344963.836261,-4
1658572612.41898,344963.836263,-14
1658572612.41898,344963.8362651,-60
1658572612.43086,344963.8362672,-75
1658572612.43086,344963.8362694,-31
1658572612.43086,344963.8362714,-36
1658572612.43086,344963.8362735,-104
1658572612.43086,344963.8362755,-87
1658572612.43086,344963.8362776,-34
1658572612.43086,344964.5168164,-21
1658572612.43086,344964.5168351,26
1658572612.43086,344964.5168437,26
1658572612.43086,344964.5168482,-63
1658572612.43086,344964.5168538,-55
1658572612.43086,344964.516857,4
1658572612.43086,344964.5168618,-7
1658572612.43086,344964.516867,-19
1658572612.43086,344964.516871,29
1658572612.43086,344964.5168762,53
1658572612.43086,344964.5168879,-17
1658572612.43086,344964.5168937,-65
1658572612.43086,344964.5169017,-2
1658572612.43086,344964.5169067,36
1658572612.43086,344964.5169134,4
1658572612.43086,344964.5169191,-4
1658572612.43086,344964.5169432,14
1658572612.43086,344964.5169663,17
1658572612.90912,344964.5169711,14
1658572612.90912,344964.5169917,-4
1658572612.90912,344964.5169985,-38
1658572612.90912,344964.517005,-41
1658572612.90912,344964.5170115,-7
1658572612.90912,344964.5170188,26
1658572612.90912,344964.5170253,24
1658572612.90912,344964.5170297,-7
1658572612.90912,344964.5170339,-2
1658572612.90912,344964.5170379,31
1658572612.90912,344964.5170422,4
1658572612.90912,344964.5170487,-58
1658572612.90912,344964.5170545,-53
1658572612.90912,344964.5170604,-24
1658572612.90912,344964.5170656,-43
1658572612.90912,344964.5170713,-94
1658572612.90912,344964.5170757,-70
1658572612.90912,344964.5170815,279
1658572612.90912,344964.5170863,1000
1658572612.90912,344964.5170922,1564
1658572612.90912,344964.5170968,1335
1658572612.90912,344964.5171024,350
1658572612.90912,344964.5171067,-386
1658572612.90912,344964.5171126,-248
1658572612.90912,344964.5171168,-17
1658572612.90912,344964.5171269,-153
1658572612.90912,344964.5171371,-170
1658572612.90912,344964.5171419,-60
1658572612.90912,344964.517146,-90
1658572612.90912,344964.5171502,-141
1658572612.90912,344964.5171561,-104
1658572612.90912,344964.5171618,-75
1658572612.90912,344964.5171674,-87
1658572612.90912,344964.5171735,-70
1658572612.90912,344964.5171775,-38
1658572612.90912,344964.5171835,-26
1658572612.90912,344964.5171881,-12
1658572612.90912,344964.5171926,4
1658572612.90912,344964.5171985,-14
1658572612.90912,344964.5172034,-24
1658572612.90912,344964.5172097,4
1658572612.90912,344964.5172146,-12
1658572612.90912,344964.5172209,-48
1658572612.90912,344964.5172256,-19
1658572612.90912,344964.517232,-4
1658572612.90912,344964.5172367,-36
1658572612.90912,344964.5172429,-36
1658572612.90912,344964.5172476,-2
1658572612.90912,344964.5172537,21
1658572612.90912,344964.5172599,29
1658572612.92109,344964.5172648,29
1658572612.92109,344964.517271,24
1658572612.92109,344964.5172755,14
1658572612.92109,344964.5172821,0
1658572612.92109,344964.5172889,-9
1658572612.92109,344965.00607,2
1658572612.92109,344965.0060881,24
1658572612.92109,344965.0060972,26
1658572612.92109,344965.0061024,21
1658572612.92109,344965.0061087,26
1658572612.92109,344965.0061131,36
1658572612.92109,344965.0061191,36
1658572612.92109,344965.0061233,41
1658572612.92109,344965.0061289,63
1658572612.92109,344965.006134,70
1658572612.92109,344965.0061395,29
1658572612.92109,344965.0061437,-4
1658572612.92109,344965.0061497,14
1658572612.92109,344965.0061565,24
1658572612.92109,344965.0061624,-2
1658572612.92109,344965.0061677,0
1658572612.92109,344965.0061717,19
1658572612.92109,344965.0061774,21
1658572612.92109,344965.0061817,46
1658572613.38674,344965.0061873,51
1658572613.38674,344965.0061913,-4
1658572613.38674,344965.0061952,-41
1658572613.38674,344965.006199,-21
1658572613.38674,344965.0062029,14
1658572613.38674,344965.0062067,29
1658572613.38674,344965.0062106,9
1658572613.38674,344965.0062144,0
1658572613.38674,344965.0062182,-17
1658572613.38674,344965.0062221,-43
1658572613.38674,344965.0062262,116
1658572613.38674,344965.0062316,681
1658572613.38674,344965.0062373,1389
1658572613.38674,344965.0062422,1552
1658572613.38674,344965.0062463,800
1658572613.38674,344965.0062518,-167
1658572613.38674,344965.0062567,-350
1658572613.38674,344965.0062624,-53
1658572613.38674,344965.0062664,-92
1658572613.38674,344965.0062755,-218
1658572613.38674,344965.0063026,-133
1658572613.38674,344965.0063101,-92
1658572613.38674,344965.0063157,-126
1658572613.38674,344965.00632,-116
1658572613.38674,344965.0063235,-87
1658572613.38674,344965.0063268,-80
1658572613.38674,344965.0063301,-77
1658572613.38674,344965.0063342,-70
1658572613.38674,344965.0063374,-65
1658572613.38674,344965.0063407,-65
1658572613.38674,344965.0063445,-53
1658572613.38674,344965.0063478,-38
1658572613.38674,344965.0063511,-21
1658572613.38674,344965.0063543,-12
1658572613.38674,344965.0063576,-26
1658572613.38674,344965.0063608,-53
1658572613.38674,344965.0063639,-87
1658572613.38674,344965.0063673,-102
1658572613.38674,344965.0063705,-51
1658572613.38674,344965.0063738,-14
1658572613.38674,344965.0063789,-75
1658572613.38674,344965.0063863,-87
1658572613.38674,344965.0063918,9
1658572613.38674,344965.0064029,24
1658572613.38674,344965.006409,-26
1658572613.38674,344965.0064138,-4
1658572613.38674,344965.0064203,-9
1658572613.38674,344965.0064261,-53
1658572613.38674,344965.0064301,-38
1658572613.38674,344965.0064337,-29
1658572613.39829,344965.0064399,-12
1658572613.39829,344965.0064457,14
1658572613.39829,344965.0064525,-36
1658572613.39829,344965.0064556,-31
1658572613.39829,344965.4919305,9
1658572613.39829,344965.4919473,-19
1658572613.39829,344965.4919515,0
1658572613.39829,344965.4919551,94
1658572613.39829,344965.4919613,80
1658572613.39829,344965.4919665,-65
1658572613.39829,344965.4919704,-99
1658572613.39829,344965.4919756,21
1658572613.39829,344965.4919815,53
1658572613.39829,344965.4919846,-21
1658572613.39829,344965.4919876,-51
1658572613.39829,344965.491993,-2
1658572613.39829,344965.4919982,26
1658572613.39829,344965.4920049,-17
1658572613.39829,344965.4920081,-48
1658572613.39829,344965.492011,46
1658572613.39829,344965.4920139,94
1658572613.39829,344965.4920167,-68
1658572613.39829,344965.4920197,-160
1658572613.39829,344965.4920225,-55
1658572614.02527,344965.4920263,-29
1658572614.02527,344965.4920332,-70
1658572614.02527,344965.4920403,-26
1658572614.02527,344965.4920474,-17
1658572614.02527,344965.4920539,-60
1658572614.02527,344965.4920583,90
1658572614.02527,344965.4920623,586
1658572614.02527,344965.4920664,1221
1658572614.02527,344965.4920712,1423
1658572614.02527,344965.4920755,810
1658572614.02527,344965.492081,-97
1658572614.02527,344965.4920852,-369
1658572614.02527,344965.4920909,-126
1658572614.02527,344965.4920959,-131
1658572614.02527,344965.4921009,-243
1658572614.02527,344965.4921041,-163
1658572614.02527,344965.492107,-102
1658572614.02527,344965.4921103,-126
1658572614.02527,344965.4921177,-145
1658572614.02527,344965.4921214,-155
1658572614.02527,344965.4921271,-138
1658572614.02527,344965.4921306,-85
1658572614.02527,344965.4921363,-104
1658572614.02527,344965.4921392,-167
1658572614.02527,344965.4921421,-128
1658572614.02527,344965.492145,-70
1658572614.02527,344965.4921478,-75
1658572614.02527,344965.4921507,-46
1658572614.02527,344965.4921536,-53
1658572614.02527,344965.4921565,-141
1658572614.02527,344965.4921593,-116
1658572614.02527,344965.4921622,9
1658572614.02527,344965.4921652,2
1658572614.02527,344965.4921681,-109
1658572614.02527,344965.492171,-109
1658572614.02527,344965.4921738,-97
1658572614.02527,344965.4921767,-131
1658572614.02527,344965.4921814,-53
1658572614.02527,344965.4921866,2
1658572614.02527,344965.4921896,-43
1658572614.02527,344965.4921927,-55
1658572614.02527,344965.4921956,-58
1658572614.02527,344965.4921985,-82
1658572614.02527,344965.4922014,-34
1658572614.02527,344965.4922043,46
1658572614.02527,344965.4922072,0
1658572614.02527,344965.4922101,-104
1658572614.02527,344965.492213,-72
1658572614.02527,344965.4922159,0
1658572614.02527,344965.4922188,-24
1658572614.03724,344965.4922217,-36
1658572614.03724,344965.4922245,-9
1658572614.03724,344965.4922274,-31
1658572614.03724,344966.1258192,-55
1658572614.03724,344966.1258425,-7
1658572614.03724,344966.1258538,26
1658572614.03724,344966.1258591,-9
1658572614.03724,344966.1258637,-60
1658572614.03724,344966.1258658,-58
1658572614.03724,344966.125868,-7
1658572614.03724,344966.1258702,-31
1658572614.03724,344966.1258724,-102
1658572614.03724,344966.1258746,-51
1658572614.03724,344966.1258767,9
1658572614.03724,344966.1258789,-38
1658572614.03724,344966.1258809,-63
1658572614.03724,344966.125883,-31
1658572614.03724,344966.1258852,-24
1658572614.03724,344966.1258905,-26
1658572614.03724,344966.1259004,-31
1658572614.03724,344966.1259064,-80
1658572614.03724,344966.1259157,-90
1658572614.03724,344966.1259223,-58
1658572614.03724,344966.1259374,-77
1658572614.55869,344966.1259499,77
1658572614.55869,344966.125958,639
1658572614.55869,344966.1259667,1316
1658572614.55869,344966.1259734,1416
1658572614.55869,344966.1259843,676
1658572614.55869,344966.1259954,-170
1658572614.55869,344966.1260035,-326
1658572614.55869,344966.1260113,-85
1658572614.55869,344966.1260183,-92
1658572614.55869,344966.126029,-221
1658572614.55869,344966.1260359,-182
1658572614.55869,344966.1260382,-124
1658572614.55869,344966.1260404,-141
1658572614.55869,344966.1260426,-141
1658572614.55869,344966.1260447,-104
1658572614.55869,344966.1260524,-65
1658572614.55869,344966.1260631,-51
1658572614.55869,344966.1260666,-60
1658572614.55869,344966.1260695,-60
1658572614.55869,344966.1260731,-46
1658572614.55869,344966.1260835,-48
1658572614.55869,344966.1260914,-72
1658572614.55869,344966.1260939,-51
1658572614.55869,344966.1260961,-14
1658572614.55869,344966.1260982,-26
1658572614.55869,344966.1261003,-31
1658572614.55869,344966.1261052,-21
1658572614.55869,344966.1261165,-31
1658572614.55869,344966.1261218,-7
1658572614.55869,344966.1261242,53
1658572614.55869,344966.1261264,29
1658572614.55869,344966.1261293,-58
1658572614.55869,344966.1261422,-38
1658572614.55869,344966.1261481,17
1658572614.55869,344966.1261504,2
1658572614.55869,344966.1261525,-21
1658572614.55869,344966.1261546,-7
1658572614.55869,344966.1261567,9
1658572614.55869,344966.1261588,24
1658572614.55869,344966.126161,53
1658572614.55869,344966.1261631,26
1658572614.55869,344966.1261652,-51
1658572614.55869,344966.1261672,-43
1658572614.55869,344966.1261694,-2
1658572614.55869,344966.1261715,-9
1658572614.55869,344966.1261735,21
1658572614.55869,344966.1261757,94
1658572614.55869,344966.1261777,138
1658572614.55869,344966.1261798,60
1658572614.55869,344966.1261818,-109
1658572614.56966,344966.126184,-124
1658572614.56966,344966.126186,43
1658572614.56966,344966.6617285,109
1658572614.56966,344966.6617561,41
1658572614.56966,344966.6617706,55
1658572614.56966,344966.6617814,82
1658572614.56966,344966.6617912,75
1658572614.56966,344966.6617984,99
1658572614.56966,344966.6618053,41
1658572614.56966,344966.6618113,-7
1658572614.56966,344966.6618229,70
1658572614.56966,344966.6618291,75
1658572614.56966,344966.6618344,24
1658572614.56966,344966.661838,65
1658572614.56966,344966.6618413,119
1658572614.56966,344966.6618705,77
1658572614.56966,344966.6618796,-2
1658572614.56966,344966.6618833,-36
1658572614.56966,344966.6618865,-29
1658572614.56966,344966.66189,165
1658572614.56966,344966.6618934,693
1658572614.56966,344966.6618967,1277
1658572614.56966,344966.661901,1467
1658572614.56966,344966.6619077,880
1658572615.14816,344966.6619126,-90
1658572615.14816,344966.6619181,-350
1658572615.14816,344966.661925,-19
1658572615.14816,344966.661932,-12
1658572615.14816,344966.6619389,-163
1658572615.14816,344966.6619452,-104
1658572615.14816,344966.6619491,-51
1658572615.14816,344966.6619534,-70
1658572615.14816,344966.6619575,-65
1658572615.14816,344966.6619609,-53
1658572615.14816,344966.6619645,-34
1658572615.14816,344966.6619679,-9
1658572615.14816,344966.6619714,-19
1658572615.14816,344966.6619751,-26
1658572615.14816,344966.661979,19
1658572615.14816,344966.6619826,55
1658572615.14816,344966.6619889,48
1658572615.14816,344966.6619947,34
1658572615.14816,344966.6619995,31
1658572615.14816,344966.6620051,48
1658572615.14816,344966.6620094,90
1658572615.14816,344966.6620129,92
1658572615.14816,344966.6620165,2
1658572615.14816,344966.66202,-34
1658572615.14816,344966.6620236,31
1658572615.14816,344966.6620277,72
1658572615.14816,344966.6620316,75
1658572615.14816,344966.6620369,82
1658572615.14816,344966.6620408,85
1658572615.14816,344966.6620453,60
1658572615.14816,344966.6620491,38
1658572615.14816,344966.6620536,53
1658572615.14816,344966.6620574,55
1658572615.14816,344966.6620618,4
1658572615.14816,344966.6620662,-4
1658572615.14816,344966.6620701,38
1658572615.14816,344966.6620747,58
1658572615.14816,344966.6620788,65
1658572615.14816,344966.6620832,63
1658572615.14816,344966.6620881,63
1658572615.14816,344966.6620926,82
1658572615.14816,344966.6620964,75
1658572615.14816,344966.6621009,63
1658572615.14816,344966.6621061,109
1658572615.14816,344966.6621139,138
1658572615.14816,344966.6621181,90
1658572615.14816,344966.662122,58
1658572615.14816,344966.6621264,92
1658572615.14816,344966.6621304,109
1658572615.14816,344966.6621348,94
1658572615.15913,344966.6621411,107
1658572615.15913,344967.2467779,131
1658572615.15913,344967.2467899,138
1658572615.15913,344967.2467928,124
1658572615.15913,344967.2467953,102
1658572615.15913,344967.2467977,111
1658572615.15913,344967.2468001,121
1658572615.15913,344967.2468024,99
1658572615.15913,344967.2468047,97
1658572615.15913,344967.246807,121
1658572615.15913,344967.2468093,124
1658572615.15913,344967.2468115,90
1658572615.15913,344967.2468138,48
1658572615.15913,344967.246816,87
1658572615.15913,344967.2468183,408
1658572615.15913,344967.2468205,1058
1658572615.15913,344967.2468226,1567
1658572615.15913,344967.2468248,1311
1658572615.15913,344967.2468271,369
1658572615.15913,344967.2468295,-277
1658572615.15913,344967.2468316,-119
1658572615.15913,344967.2468338,77
1658572615.15913,344967.246836,-55
1658572615.15913,344967.246838,-77
1658572615.68133,344967.2468401,-4
1658572615.68133,344967.2468423,-31
1658572615.68133,344967.2468445,-48
1658572615.68133,344967.2468465,-17
1658572615.68133,344967.2468486,-19
1658572615.68133,344967.2468507,-29
1658572615.68133,344967.2468529,0
1658572615.68133,344967.246855,24
1658572615.68133,344967.2468571,14
1658572615.68133,344967.2468592,24
1658572615.68133,344967.2468612,55
1658572615.68133,344967.2468635,55
1658572615.68133,344967.2468657,43
1658572615.68133,344967.2468678,48
1658572615.68133,344967.2468699,58
1658572615.68133,344967.246872,63
1658572615.68133,344967.2468741,63
1658572615.68133,344967.2468762,48
1658572615.68133,344967.2468787,26
1658572615.68133,344967.2468824,46
1658572615.68133,344967.2468846,72
1658572615.68133,344967.2468869,58
1658572615.68133,344967.2468891,53
1658572615.68133,344967.2468912,68
1658572615.68133,344967.2468936,58
1658572615.68133,344967.2468958,68
1658572615.68133,344967.246898,90
1658572615.68133,344967.2469004,63
1658572615.68133,344967.2469026,36
1658572615.68133,344967.2469049,63
1658572615.68133,344967.2469072,80
1658572615.68133,344967.2469094,65
1658572615.68133,344967.2469117,72
1658572615.68133,344967.2469139,99
1658572615.68133,344967.2469161,111
1658572615.68133,344967.2469183,107
1658572615.68133,344967.2469206,111
1658572615.68133,344967.246923,126
1658572615.68133,344967.2469253,131
1658572615.68133,344967.2469275,131
1658572615.68133,344967.2469298,145
1658572615.68133,344967.246932,155
1658572615.68133,344967.2469343,141
1658572615.68133,344967.2469366,116
1658572615.68133,344967.2469388,126
1658572615.68133,344967.2469411,158
1658572615.68133,344967.2469435,163
1658572615.68133,344967.2469457,158
1658572615.68133,344967.246948,163
1658572615.68133,344967.2469503,153
1658572615.69228,344967.7830123,136
1658572615.69228,344967.7830291,138
1658572615.69228,344967.7830341,153
1658572615.69228,344967.7830402,145
1658572615.69228,344967.7830446,138
1658572615.69228,344967.7830489,136
1658572615.69228,344967.7830547,102
1658572615.69228,344967.7830588,109
1658572615.69228,344967.7830629,382
1658572615.69228,344967.783067,985
1658572615.69228,344967.7830711,1520
1658572615.69228,344967.7830751,1403
1658572615.69228,344967.7830792,547
1658572615.69228,344967.7830832,-199
1658572615.69228,344967.7830871,-128
1658572615.69228,344967.7830923,126
1658572615.69228,344967.7830963,9
1658572615.69228,344967.7831017,-60
1658572615.69228,344967.7831078,24
1658572615.69228,344967.7831133,4
1658572615.69228,344967.7831172,-36
1658572615.69228,344967.7831227,7
1658572615.69228,344967.7831265,21
1658572615.69228,344967.7831303,2
1658572616.22515,344967.7831362,19
1658572616.22515,344967.7831402,38
1658572616.22515,344967.7831438,34
1658572616.22515,344967.7831475,43
1658572616.22515,344967.7831513,58
1658572616.22515,344967.7831551,60
1658572616.22515,344967.7831588,80
1658572616.22515,344967.7831624,109
1658572616.22515,344967.7831661,111
1658572616.22515,344967.7831698,94
1658572616.22515,344967.7831736,82
1658572616.22515,344967.7831773,55
1658572616.22515,344967.783181,14
1658572616.22515,344967.7831847,24
1658572616.22515,344967.7831884,68
1658572616.22515,344967.7831921,87
1658572616.22515,344967.7831958,85
1658572616.22515,344967.7831994,75
1658572616.22515,344967.783203,80
1658572616.22515,344967.7832068,102
1658572616.22515,344967.783212,94
1658572616.22515,344967.7832175,90
1658572616.22515,344967.7832212,111
1658572616.22515,344967.783225,99
1658572616.22515,344967.7832302,75
1658572616.22515,344967.7832338,97
1658572616.22515,344967.7832376,126
1658572616.22515,344967.7832432,136
1658572616.22515,344967.7832471,131
1658572616.22515,344967.7832524,136
1658572616.22515,344967.7832562,158
1658572616.22515,344967.7832615,172
1658572616.22515,344967.7832651,158
1658572616.22515,344967.783269,143
1658572616.22515,344967.7832743,145
1658572616.22515,344967.7832782,167
1658572616.22515,344967.7832836,184
1658572616.22515,344967.7832888,175
1658572616.22515,344967.7832949,182
1658572616.22515,344967.7832981,206
1658572616.22515,344967.7833012,209
1658572616.22515,344967.7833042,182
1658572616.22515,344967.7833072,165
1658572616.22515,344967.7833103,180
1658572616.22515,344967.7833133,180
1658572616.22515,344967.7833164,158
1658572616.22515,344967.7833193,160
1658572616.22515,344967.7833224,163
1658572616.22515,344967.7833253,150
1658572616.22515,344968.320929,143
1658572616.23612,344968.3209512,104
1658572616.23612,344968.3209618,194
1658572616.23612,344968.3209717,676
1658572616.23612,344968.3209777,1369
1658572616.23612,344968.320982,1642
1658572616.23612,344968.3209867,1070
1658572616.23612,344968.3209903,111
1658572616.23612,344968.3209941,-226
1658572616.23612,344968.320998,53
1658572616.23612,344968.3210023,92
1658572616.23612,344968.3210057,-82
1658572616.23612,344968.3210092,-48
1658572616.23612,344968.321013,14
1658572616.23612,344968.3210167,-21
1658572616.23612,344968.3210201,-24
1658572616.23612,344968.3210237,-14
1658572616.23612,344968.321027,-38
1658572616.23612,344968.3210305,-46
1658572616.23612,344968.3210372,-24
1658572616.23612,344968.3210424,-2
1658572616.23612,344968.3210459,7
1658572616.23612,344968.3210492,-7
1658572616.23612,344968.3210526,-21
1658572616.23612,344968.3210563,-4
1658572616.80702,344968.3210617,26
1658572616.80702,344968.3210688,21
1658572616.80702,344968.3210724,-38
1658572616.80702,344968.3210759,-80
1658572616.80702,344968.3210812,-68
1658572616.80702,344968.3210858,-53
1658572616.80702,344968.3210892,-51
1658572616.80702,344968.3210928,-41
1658572616.80702,344968.321096,-19
1658572616.80702,344968.3210991,-7
1658572616.80702,344968.3211024,-14
1658572616.80702,344968.3211055,-24
1658572616.80702,344968.3211086,-31
1658572616.80702,344968.3211119,-43
1658572616.80702,344968.3211149,-38
1658572616.80702,344968.3211181,-24
1658572616.80702,344968.3211211,-24
1658572616.80702,344968.3211241,-24
1658572616.80702,344968.3211271,-12
1658572616.80702,344968.3211301,2
1658572616.80702,344968.3211332,21
1658572616.80702,344968.3211362,36
1658572616.80702,344968.3211392,31
1658572616.80702,344968.3211425,29
1658572616.80702,344968.3211463,46
1658572616.80702,344968.3211499,53
1658572616.80702,344968.3211531,43
1658572616.80702,344968.3211565,34
1658572616.80702,344968.3211598,29
1658572616.80702,344968.321163,17
1658572616.80702,344968.3211663,19
1658572616.80702,344968.3211694,34
1658572616.80702,344968.321175,51
1658572616.80702,344968.3211784,60
1658572616.80702,344968.3211832,51
1658572616.80702,344968.3211869,31
1658572616.80702,344968.3211902,29
1658572616.80702,344968.3211934,36
1658572616.80702,344968.3211968,46
1658572616.80702,344968.3212,63
1658572616.80702,344968.3212033,72
1658572616.80702,344968.3212086,68
1658572616.80702,344968.3212117,41
1658572616.80702,344968.3212151,17
1658572616.80702,344968.3212201,189
1658572616.80702,344968.3212235,751
1658572616.80702,344968.3212267,1445
1658572616.80702,344968.3212298,1591
1658572616.80702,344968.9048096,849
1658572616.80702,344968.9048307,-141
1658572616.81898,344968.9048412,-347
1658572616.81898,344968.9048496,2
1658572616.81898,344968.9048539,12
1658572616.81898,344968.9050028,-145
1658572616.81898,344968.905011,-87
1658572616.81898,344968.9050157,-46
1658572616.81898,344968.9050192,-94
1658572616.81898,344968.9050224,-72
1658572616.81898,344968.9050256,-38
1658572616.81898,344968.9050288,-48
1658572616.81898,344968.9050321,-46
1658572616.81898,344968.9050355,-38
1658572616.81898,344968.9050386,-43
1658572616.81898,344968.9050416,-31
1658572616.81898,344968.9050449,-7
1658572616.81898,344968.9050503,12
1658572616.81898,344968.905054,14
1658572616.81898,344968.9050575,-2
1658572616.81898,344968.9050607,-4
1658572616.81898,344968.9051017,24
1658572616.81898,344968.9051102,26
1658572616.81898,344968.9051143,2
1658572616.81898,344968.9051194,-2
1658572616.81898,344968.9051229,4
1658572617.38487,344968.9051266,19
1658572617.38487,344968.9051303,38
1658572617.38487,344968.9051336,38
1658572617.38487,344968.9051369,17
1658572617.38487,344968.9051401,14
1658572617.38487,344968.9052074,17
1658572617.38487,344968.9052233,2
1658572617.38487,344968.9052274,-9
1658572617.38487,344968.9052413,-4
1658572617.38487,344968.9052509,2
1658572617.38487,344968.9052577,9
1658572617.38487,344968.9052665,17
1658572617.38487,344968.9052736,19
1658572617.38487,344968.90528,21
1658572617.38487,344968.9052867,31
1658572617.38487,344968.9052937,36
1658572617.38487,344968.9053031,43
1658572617.38487,344968.9053097,48
1658572617.38487,344968.9053189,53
1658572617.38487,344968.9053276,48
1658572617.38487,344968.9053341,41
1658572617.38487,344968.9053425,38
1658572617.38487,344968.905345,41
1658572617.38487,344968.9053472,53
1658572617.38487,344968.9053494,72
1658572617.38487,344968.9053516,75
1658572617.38487,344968.9053536,60
1658572617.38487,344968.9053557,41
1658572617.38487,344968.9053578,38
1658572617.38487,344968.9053637,41
1658572617.38487,344968.9053749,48
1658572617.38487,344968.9053803,53
1658572617.38487,344968.9053825,51
1658572617.38487,344968.9053846,51
1658572617.38487,344968.9053869,31
1658572617.38487,344968.905389,-7
1658572617.38487,344968.9053969,94
1658572617.38487,344968.9054096,569
1658572617.38487,344968.9054151,1245
1658572617.38487,344968.90542,1528
1658572617.38487,344968.9054247,980
1658572617.38487,344968.9054294,17
1658572617.38487,344968.905434,-345
1658572617.38487,344968.9054386,-38
1658572617.38487,344968.9054595,46
1658572617.38487,344968.9054847,-124
1658572617.38487,344968.905492,-82
1658572617.38487,344969.4896237,-12
1658572617.38487,344969.4896497,-53
1658572617.38487,344969.4896633,-43
1658572617.39783,344969.4896702,-21
1658572617.39783,344969.4896812,-43
1658572617.39783,344969.4896893,-38
1658572617.39783,344969.4896952,-9
1658572617.39783,344969.4897005,0
1658572617.39783,344969.4897047,7
1658572617.39783,344969.4897111,21
1658572617.39783,344969.4897198,31
1658572617.39783,344969.4897285,41
1658572617.39783,344969.4897354,55
1658572617.39783,344969.4897439,65
1658572617.39783,344969.4897493,70
1658572617.39783,344969.4897555,60
1658572617.39783,344969.4897589,36
1658572617.39783,344969.4897624,17
1658572617.39783,344969.4897659,24
1658572617.39783,344969.4897698,46
1658572617.39783,344969.4897754,60
1658572617.39783,344969.4897792,58
1658572617.39783,344969.4897826,43
1658572617.39783,344969.4897861,36
1658572617.39783,344969.48979,36
1658572617.39783,344969.4897938,31
1658572617.39783,344969.4898001,26
1658572617.92994,344969.4898077,21
1658572617.92994,344969.4898148,21

1658572617.92994,344969.4898216,26
1658572617.92994,344969.4898277,34
1658572617.92994,344969.4898384,43
1658572617.92994,344969.4898487,60
1658572617.92994,344969.4898623,65
1658572617.92994,344969.4898756,63
1658572617.92994,344969.4898842,70
1658572617.92994,344969.4898867,75
1658572617.92994,344969.4898888,72
1658572617.92994,344969.489891,75
1658572617.92994,344969.4898931,72
1658572617.92994,344969.4898952,65
1658572617.92994,344969.4898974,65
1658572617.92994,344969.4898995,80
1658572617.92994,344969.4899015,102
1658572617.92994,344969.4899036,102
1658572617.92994,344969.4899057,82
1658572617.92994,344969.4899077,68
1658572617.92994,344969.4899098,70
1658572617.92994,344969.4899119,72
1658572617.92994,344969.4899139,77
1658572617.92994,344969.4899169,82
1658572617.92994,344969.4899189,87
1658572617.92994,344969.4899214,80
1658572617.92994,344969.4899234,38
1658572617.92994,344969.4899255,63
1658572617.92994,344969.4899276,396
1658572617.92994,344969.4899296,1048
1658572617.92994,344969.4899317,1532
1658572617.92994,344969.4899337,1282
1658572617.92994,344969.4899358,377
1658572617.92994,344969.489938,-262
1658572617.92994,344969.4899401,-114
1658572617.92994,344969.4899425,82
1658572617.92994,344969.48995,-68
1658572617.92994,344969.489962,-99
1658572617.92994,344969.489968,-9
1658572617.92994,344969.4899705,-29
1658572617.92994,344969.4899791,-51
1658572617.92994,344969.4899906,-9
1658572617.92994,344969.4899956,0
1658572617.92994,344969.4899977,-7
1658572617.92994,344969.4899997,12
1658572617.92994,344969.4900036,34
1658572617.92994,344970.0258059,38
1658572617.92994,344970.0258332,38
1658572617.92994,344970.0258488,46
1658572617.92994,344970.0258564,60
1658572617.93992,344970.0258598,72
1658572617.93992,344970.0258629,80
1658572617.93992,344970.0258666,82
1658572617.93992,344970.0258698,82
1658572617.93992,344970.0258729,77
1658572617.93992,344970.025876,68
1658572617.93992,344970.0258791,65
1658572617.93992,344970.0258824,80
1658572617.93992,344970.0258882,92
1658572617.93992,344970.0258919,85
1658572617.93992,344970.025897,75
1658572617.93992,344970.0259022,77
1658572617.93992,344970.0259057,80
1658572617.93992,344970.0259106,70
1658572617.93992,344970.0259142,63
1658572617.93992,344970.0259177,53
1658572617.93992,344970.0259212,36
1658572617.93992,344970.0259247,38
1658572617.93992,344970.0259281,51
1658572617.93992,344970.0259317,53
1658572617.93992,344970.025937,55
1658572617.93992,344970.0259404,63
1658572617.93992,344970.0259439,63
1658572617.93992,344970.0259511,63
1658572618.45813,344970.0259579,70
1658572618.45813,344970.025964,75
1658572618.45813,344970.025973,77
1658572618.45813,344970.0259758,82
1658572618.45813,344970.0259779,68
1658572618.45813,344970.02598,58
1658572618.45813,344970.0259831,77
1658572618.45813,344970.0259914,107
1658572618.45813,344970.0259962,111
1658572618.45813,344970.026,87
1658572618.45813,344970.0260036,65
1658572618.45813,344970.0260071,68
1658572618.45813,344970.0260105,80
1658572618.45813,344970.0260142,82
1658572618.45813,344970.0260182,85
1658572618.45813,344970.026022,90
1658572618.45813,344970.0260255,80
1658572618.45813,344970.026029,31
1658572618.45813,344970.0260325,26
1658572618.45813,344970.026038,294
1658572618.45813,344970.0260413,907
1658572618.45813,344970.0260447,1474
1658572618.45813,344970.0260484,1386
1658572618.45813,344970.0260522,545
1658572618.45813,344970.0260575,-218
1658572618.45813,344970.0260616,-170
1658572618.45813,344970.0260667,90
1658572618.45813,344970.0260714,-31
1658572618.45813,344970.0260751,-114
1658572618.45813,344970.0260803,-19
1658572618.45813,344970.0260838,-14
1658572618.45813,344970.0260871,-46
1658572618.45813,344970.0260906,-12
1658572618.45813,344970.0260941,7
1658572618.45813,344970.0261023,4
1658572618.45813,344970.0261133,14
1658572618.45813,344970.0261211,24
1658572618.45813,344970.0261248,24
1658572618.45813,344970.0261285,34
1658572618.45813,344970.0261352,51
1658572618.45813,344970.0261422,60
1658572618.45813,344970.0261469,68
1658572618.45813,344970.0261517,80
1658572618.45813,344970.0261564,87
1658572618.45813,344970.0261611,85
1658572618.45813,344970.5622787,80
1658572618.45813,344970.5623007,75
1658572618.45813,344970.5623092,70
1658572618.45813,344970.5623164,82
1658572618.45813,344970.5623226,107
1658572618.4691,344970.5623295,124
1658572618.4691,344970.5623357,126
1658572618.4691,344970.5623395,116
1658572618.4691,344970.5623432,107
1658572618.4691,344970.5623498,99
1658572618.4691,344970.562356,85
1658572618.4691,344970.5623598,77
1658572618.4691,344970.5623636,77
1658572618.4691,344970.5623672,77
1658572618.4691,344970.5623723,80
1658572618.4691,344970.5623779,80
1658572618.4691,344970.5623822,63
1658572618.4691,344970.5623886,58
1658572618.4691,344970.562393,72
1658572618.4691,344970.5624031,77
1658572618.4691,344970.562413,70
1658572618.4691,344970.5624241,63
1658572618.4691,344970.5624339,60
1658572618.4691,344970.5624411,60
1658572618.4691,344970.5624483,51
1658572618.4691,344970.5624535,41
1658572618.4691,344970.5624598,53
1658572618.4691,344970.5624731,87
1658572618.4691,344970.5624849,94
1658572619.0507,344970.5624907,68
1658572619.0507,344970.5625018,51
1658572619.0507,344970.5625106,55
1658572619.0507,344970.5625175,60
1658572619.0507,344970.5625222,60
1658572619.0507,344970.5625261,68
1658572619.0507,344970.5625296,68
1658572619.0507,344970.5625334,63
1658572619.0507,344970.5625373,31
1658572619.0507,344970.5625415,-4
1658572619.0507,344970.5625475,172
1658572619.0507,344970.5625516,737
1658572619.0507,344970.562557,1382
1658572619.0507,344970.5625622,1459
1658572619.0507,344970.5625676,720
1658572619.0507,344970.5625728,-136
1658572619.0507,344970.5625783,-236
1658572619.0507,344970.5625824,55
1658572619.0507,344970.5625879,7
1658572619.0507,344970.5625928,-119
1658572619.0507,344970.5625983,-38
1658572619.0507,344970.562603,0
1658572619.0507,344970.5626083,-38
1658572619.0507,344970.562612,-29
1658572619.0507,344970.562616,-4
1658572619.0507,344970.5626231,-4
1658572619.0507,344970.5626283,-4
1658572619.0507,344970.5626397,9
1658572619.0507,344970.562651,21
1658572619.0507,344970.5626638,31
1658572619.0507,344970.5626769,43
1658572619.0507,344970.5626898,53
1658572619.0507,344970.5626985,58
1658572619.0507,344970.5627116,63
1658572619.0507,344970.5627252,68
1658572619.0507,344970.5627327,70
1658572619.0507,344970.562737,70
1658572619.0507,344970.5627425,55
1658572619.0507,344970.5627484,46
1658572619.0507,344970.5627539,58
1658572619.0507,344970.5627597,80
1658572619.0507,344970.5627655,102
1658572619.0507,344970.5627702,119
1658572619.0507,344970.5627756,119
1658572619.0507,344971.1475491,109
1658572619.0507,344971.1475632,104
1658572619.0507,344971.1475662,99
1658572619.0507,344971.1475688,97
1658572619.0507,344971.1475711,107
1658572619.0507,344971.1475734,111
1658572619.06167,344971.1475756,97
1658572619.06167,344971.1475778,77
1658572619.06167,344971.1475798,70
1658572619.06167,344971.1475818,72
1658572619.06167,344971.1475837,80
1658572619.06167,344971.1475857,80
1658572619.06167,344971.1475876,77
1658572619.06167,344971.1475896,65
1658572619.06167,344971.1475916,53
1658572619.06167,344971.1475936,48
1658572619.06167,344971.1475956,43
1658572619.06167,344971.1475976,36
1658572619.06167,344971.1475997,43
1658572619.06167,344971.1476016,72
1658572619.06167,344971.1476037,82
1658572619.06167,344971.1476069,60
1658572619.06167,344971.1476151,46
1658572619.06167,344971.1476261,53
1658572619.06167,344971.147631,58
1658572619.06167,344971.1476352,58
1658572619.06167,344971.1476372,58
1658572619.06167,344971.1476409,63
1658572619.06167,344971.147643,60
1658572619.06167,344971.147645,29
1658572619.58459,344971.1476471,7
1658572619.58459,344971.1476492,204
1658572619.58459,344971.1476512,768
1658572619.58459,344971.1476532,1382
1658572619.58459,344971.1476553,1418
1658572619.58459,344971.1476573,666
1658572619.58459,344971.1476594,-175
1658572619.58459,344971.1476614,-238
1658572619.58459,344971.1476764,72
1658572619.58459,344971.1476786,21
1658572619.58459,344971.1476805,-90
1658572619.58459,344971.1476825,-12
1658572619.58459,344971.1476845,2
1658572619.58459,344971.1477,-31
1658572619.58459,344971.1477023,2
1658572619.58459,344971.1477042,26
1658572619.58459,344971.1477062,17
1658572619.58459,344971.1477082,24
1658572619.58459,344971.1477101,36
1658572619.58459,344971.147712,41
1658572619.58459,344971.1477141,48
1658572619.58459,344971.1477161,70
1658572619.58459,344971.1477181,87
1658572619.58459,344971.1477204,92
1658572619.58459,344971.1477224,94
1658572619.58459,344971.1477245,99
1658572619.58459,344971.1477266,102
1658572619.58459,344971.1477287,99
1658572619.58459,344971.1477309,85
1658572619.58459,344971.147733,75
1658572619.58459,344971.1477353,85
1658572619.58459,344971.1477374,114
1658572619.58459,344971.1477395,141
1658572619.58459,344971.1477416,148
1658572619.58459,344971.1477437,143
1658572619.58459,344971.1477458,133
1658572619.58459,344971.1477491,126
1658572619.58459,344971.1477513,126
1658572619.58459,344971.1477535,136
1658572619.58459,344971.1477556,136
1658572619.58459,344971.1477577,131
1658572619.58459,344971.1477728,133
1658572619.58459,344971.1477751,138
1658572619.58459,344971.6834277,143
1658572619.58459,344971.6834417,150
1658572619.58459,344971.683445,145
1658572619.58459,344971.6834479,141
1658572619.58459,344971.6834506,138
1658572619.58459,344971.6834532,131
1658572619.58459,344971.6834557,124
1658572619.59456,344971.6834582,116
1658572619.59456,344971.6834608,97
1658572619.59456,344971.6834633,87
1658572619.59456,344971.6834659,102
1658572619.59456,344971.6834684,111
1658572619.59456,344971.6834709,104
1658572619.59456,344971.6834734,90
1658572619.59456,344971.6834759,85
1658572619.59456,344971.6834784,80
1658572619.59456,344971.6834808,65
1658572619.59456,344971.6834832,63
1658572619.59456,344971.6834858,72
1658572619.59456,344971.6834883,75
1658572619.59456,344971.6834907,55
1658572619.59456,344971.6834931,7
1658572619.59456,344971.6834955,53
1658572619.59456,344971.683498,442
1658572619.59456,344971.6835003,1104
1658572619.59456,344971.6835028,1476
1658572619.59456,344971.6835053,1092
1658572619.59456,344971.6835075,204
1658572619.59456,344971.6835099,-262
1658572619.59456,344971.6835128,-26
1658572619.59456,344971.6835151,104
1658572620.11749,344971.6835173,-51
1658572620.11749,344971.6835195,-38
1658572620.11749,344971.6835216,36
1658572620.11749,344971.6835243,-4
1658572620.11749,344971.6835312,-17
1658572620.11749,344971.6835409,19
1658572620.11749,344971.6835456,21
1658572620.11749,344971.6835502,17
1658572620.11749,344971.6835525,31
1658572620.11749,344971.6835559,41
1658572620.11749,344971.68356,46
1658572620.11749,344971.6835622,58
1658572620.11749,344971.6835643,70
1658572620.11749,344971.6835665,77
1658572620.11749,344971.6835686,85
1658572620.11749,344971.6835706,90
1658572620.11749,344971.6835727,85
1658572620.11749,344971.6835748,80
1658572620.11749,344971.6835769,72
1658572620.11749,344971.6835791,68
1658572620.11749,344971.6835812,68
1658572620.11749,344971.6835833,87
1658572620.11749,344971.6835854,116
1658572620.11749,344971.6835875,133
1658572620.11749,344971.6835896,138
1658572620.11749,344971.6835918,143
1658572620.11749,344971.6835939,143
1658572620.11749,344971.683596,141
1658572620.11749,344971.6835982,143
1658572620.11749,344971.6836004,145
1658572620.11749,344971.6836025,148
1658572620.11749,344971.6836047,153
1658572620.11749,344971.6836069,155
1658572620.11749,344971.683609,150
1658572620.11749,344971.683611,150
1658572620.11749,344971.6836132,155
1658572620.11749,344971.6836153,155
1658572620.11749,344971.6836174,153
1658572620.11749,344971.6836195,143
1658572620.11749,344971.6836218,133
1658572620.11749,344971.6836239,124
1658572620.11749,344971.683626,111
1658572620.11749,344972.2200921,99
1658572620.11749,344972.2201109,116
1658572620.11749,344972.2201185,145
1658572620.11749,344972.2201239,145
1658572620.11749,344972.2201297,121
1658572620.11749,344972.220137,104
1658572620.11749,344972.2201401,90
1658572620.11749,344972.2201478,75
1658572620.12746,344972.2201532,75
1658572620.12746,344972.2201575,92
1658572620.12746,344972.2201604,92
1658572620.12746,344972.2201634,70
1658572620.12746,344972.2201665,9
1658572620.12746,344972.2201715,9
1658572620.12746,344972.2201765,328
1658572620.12746,344972.2201814,970
1658572620.12746,344972.2201845,1418
1658572620.12746,344972.2201907,1150
1658572620.12746,344972.2201956,306
1658572620.12746,344972.2202018,-253
1658572620.12746,344972.2202065,-82
1658572620.12746,344972.2202097,92
1658572620.12746,344972.2202129,-55
1658572620.12746,344972.2202191,-75
1658572620.12746,344972.2202262,17
1658572620.12746,344972.2202318,-2
1658572620.12746,344972.2202353,-29
1658572620.12746,344972.2202386,-2
1658572620.12746,344972.2202421,4
1658572620.12746,344972.2202456,-2
1658572620.12746,344972.2202513,7
1658572620.12746,344972.2202582,21
1658572620.75619,344972.2202629,26
1658572620.75619,344972.2202674,31
1658572620.75619,344972.220272,46
1658572620.75619,344972.220276,51
1658572620.75619,344972.2202797,51
1658572620.75619,344972.2202833,55
1658572620.75619,344972.2202869,55
1658572620.75619,344972.2202905,43
1658572620.75619,344972.2202947,36
1658572620.75619,344972.2202984,34
1658572620.75619,344972.2203019,38
1658572620.75619,344972.2203054,60
1658572620.75619,344972.220309,85
1658572620.75619,344972.2203125,104
1658572620.75619,344972.2203161,116
1658572620.75619,344972.2203196,119
1658572620.75619,344972.2203231,121
1658572620.75619,344972.2203266,131
1658572620.75619,344972.2203303,131
1658572620.75619,344972.2203339,124
1658572620.75619,344972.2203374,124
1658572620.75619,344972.2203409,136
1658572620.75619,344972.2203445,141
1658572620.75619,344972.2203482,138
1658572620.75619,344972.2203519,141
1658572620.75619,344972.2203555,138
1658572620.75619,344972.220359,133
1658572620.75619,344972.2203626,138
1658572620.75619,344972.2203662,133
1658572620.75619,344972.2203699,124
1658572620.75619,344972.2203735,114
1658572620.75619,344972.2203771,99
1658572620.75619,344972.220381,87
1658572620.75619,344972.2203845,99
1658572620.75619,344972.2203882,131
1658572620.75619,344972.2203919,136
1658572620.75619,344972.2203955,107
1658572620.75619,344972.2203992,85
1658572620.75619,344972.2204027,87
1658572620.75619,344972.2204066,90
1658572620.75619,344972.2204102,90
1658572620.75619,344972.853562,94
1658572620.75619,344972.8535756,97
1658572620.75619,344972.8535796,80
1658572620.75619,344972.8535859,14
1658572620.75619,344972.8535894,-9
1658572620.75619,344972.8535927,253
1658572620.75619,344972.853597,851
1658572620.75619,344972.8536018,1343
1658572620.75619,344972.8536049,1172
1658572620.76711,344972.8536081,355
1658572620.76711,344972.8536124,-267
1658572620.76711,344972.8536156,-138
1658572620.76711,344972.8536189,75
1658572620.76711,344972.853623,-58
1658572620.76711,344972.853626,-94
1658572620.76711,344972.8536298,-7
1658572620.76711,344972.8536342,-24
1658572620.76711,344972.8536382,-46
1658572620.76711,344972.8536413,-14
1658572620.76711,344972.8536459,-9
1658572620.76711,344972.8536483,-17
1658572620.76711,344972.8536508,-12
1658572620.76711,344972.853654,-4
1658572620.76711,344972.8536583,2
1658572620.76711,344972.8536629,14
1658572620.76711,344972.8536671,29
1658572620.76711,344972.8536695,36
1658572620.76711,344972.853672,41
1658572620.76711,344972.8536744,41
1658572620.76711,344972.8536768,38
1658572620.76711,344972.8536791,36
1658572620.76711,344972.8536813,31
1658572620.76711,344972.8536836,21
1658572621.29432,344972.8536859,29
1658572621.29432,344972.8536882,53
1658572621.29432,344972.8536903,82
1658572621.29432,344972.8536926,102
1658572621.29432,344972.8536947,114
1658572621.29432,344972.8536968,119
1658572621.29432,344972.8536991,114
1658572621.29432,344972.8537013,119
1658572621.29432,344972.8537035,121
1658572621.29432,344972.8537056,119
1658572621.29432,344972.8537077,126
1658572621.29432,344972.8537101,131
1658572621.29432,344972.8537125,133
1658572621.29432,344972.8537146,143
1658572621.29432,344972.8537168,145
1658572621.29432,344972.8537189,141
1658572621.29432,344972.853721,136
1658572621.29432,344972.8537232,136
1658572621.29432,344972.8537254,128
1658572621.29432,344972.8537336,119
1658572621.29432,344972.8537358,114
1658572621.29432,344972.8537381,99
1658572621.29432,344972.8537404,82
1658572621.29432,344972.8537427,97
1658572621.29432,344972.8537449,128
1658572621.29432,344972.8537472,121
1658572621.29432,344972.8537495,85
1658572621.29432,344972.8537518,70
1658572621.29432,344972.8537541,75
1658572621.29432,344972.8537563,70
1658572621.29432,344972.8537586,65
1658572621.29432,344972.8537608,68
1658572621.29432,344972.8537631,70
1658572621.29432,344972.8537653,63
1658572621.29432,344972.8537681,9
1658572621.29432,344972.8537707,7
1658572621.29432,344972.8537729,309
1658572621.29432,344972.853775,914
1658572621.29432,344972.8537773,1333
1658572621.29432,344972.8537796,1065
1658572621.29432,344973.389824,243
1658572621.29432,344973.3898458,-270
1658572621.29432,344973.3898554,-77
1658572621.29432,344973.389861,90
1658572621.29432,344973.3898682,-63
1658572621.29432,344973.3898734,-82
1658572621.29432,344973.3898807,4
1658572621.29432,344973.3898863,-21
1658572621.29432,344973.3898932,-46
1658572621.29432,344973.3898982,-4
1658572621.30629,344973.3899049,7
1658572621.30629,344973.3899102,-4
1658572621.30629,344973.3899167,-9
1658572621.30629,344973.3899224,-14
1658572621.30629,344973.3899298,-14
1658572621.30629,344973.3899364,-4
1658572621.30629,344973.389943,4
1658572621.30629,344973.3899475,17
1658572621.30629,344973.389954,24
1658572621.30629,344973.3899588,4
1658572621.30629,344973.3899651,-12
1658572621.30629,344973.3899694,-7
1658572621.30629,344973.3899751,-14
1658572621.30629,344973.3899791,-29
1658572621.30629,344973.3899852,-12
1658572621.30629,344973.3899907,19
1658572621.30629,344973.3899971,43
1658572621.30629,344973.3900015,72
1658572621.30629,344973.3900082,85
1658572621.30629,344973.3900134,85
1658572621.30629,344973.3900207,90
1658572621.30629,344973.390025,94
1658572621.30629,344973.3900291,92
1658572621.30629,344973.3900335,94
1658572621.92501,344973.3900411,104
1658572621.92501,344973.3900455,109
1658572621.92501,344973.3900503,114
1658572621.92501,344973.3900568,121
1658572621.92501,344973.3900627,119
1658572621.92501,344973.3900683,116
1658572621.92501,344973.3900723,126
1658572621.92501,344973.3900774,121
1658572621.92501,344973.3900838,111
1658572621.92501,344973.3900904,111
1658572621.92501,344973.3900959,104
1658572621.92501,344973.3900998,87
1658572621.92501,344973.3901037,90
1658572621.92501,344973.3901078,111
1658572621.92501,344973.3901122,124
1658572621.92501,344973.3901179,97
1658572621.92501,344973.3901245,75
1658572621.92501,344973.390131,77
1658572621.92501,344973.3901375,75
1658572621.92501,344973.3901416,65
1658572621.92501,344973.3901457,75
1658572621.92501,344973.3901499,82
1658572621.92501,344973.390154,72
1658572621.92501,344973.3901776,43
1658572621.92501,344973.3901892,12
1658572621.92501,344973.3901961,160
1658572621.92501,344973.3902028,659
1658572621.92501,344973.3902093,1226
1658572621.92501,344973.3902166,1272
1658572621.92501,344973.3902231,581
1658572621.92501,344973.3902282,-194
1658572621.92501,344973.3902552,-216
1658572621.92501,344973.3902645,104
1658572621.92501,344973.3902733,46
1658572621.92501,344973.3902818,-70
1658572621.92501,344973.390287,9
1658572621.92501,344973.3902927,26
1658572621.92501,344973.3902998,-4
1658572621.92501,344973.3903049,29
1658572621.92501,344974.0238068,48
1658572621.92501,344974.0238272,36
1658572621.92501,344974.023847,43
1658572621.92501,344974.0238564,41
1658572621.92501,344974.0238659,34
1658572621.92501,344974.0238707,46
1658572621.92501,344974.0238797,63
1658572621.92501,344974.0238935,72
1658572621.92501,344974.0239063,75
1658572621.92501,344974.0239199,68
1658572621.92501,344974.0239335,58
1658572621.93698,344974.0239432,51
1658572621.93698,344974.0239487,38
1658572621.93698,344974.0239553,24
1658572621.93698,344974.0239608,34
1658572621.93698,344974.0239648,53
1658572621.93698,344974.0239738,63
1658572621.93698,344974.0239875,75
1658572621.93698,344974.0239962,94
1658572621.93698,344974.0240049,90
1658572621.93698,344974.0240161,77
1658572621.93698,344974.0240251,77
1658572621.93698,344974.0240345,75
1658572621.93698,344974.0240445,70
1658572621.93698,344974.0240544,77
1658572621.93698,344974.0240629,87
1658572621.93698,344974.0240716,94
1658572621.93698,344974.0240805,104
1658572621.93698,344974.0240888,114
1658572621.93698,344974.0240975,119
1658572621.93698,344974.0241045,119
1658572621.93698,344974.024113,114
1658572621.93698,344974.0241202,107
1658572621.93698,344974.0241289,102
1658572621.93698,344974.0241358,97
1658572622.46007,344974.0241441,99
1658572622.46007,344974.0241524,116
1658572622.46007,344974.0241611,138
1658572622.46007,344974.0241669,138
1658572622.46007,344974.0241721,111
1658572622.46007,344974.024178,90
1658572622.46007,344974.0241866,92
1658572622.46007,344974.0241932,90
1658572622.46007,344974.0242002,77
1658572622.46007,344974.0242035,72
1658572622.46007,344974.0242066,82
1658572622.46007,344974.0242098,77
1658572622.46007,344974.024213,21
1658572622.46007,344974.024216,-4
1658572622.46007,344974.0242205,240
1658572622.46007,344974.0242244,824
1658572622.46007,344974.0242278,1309
1658572622.46007,344974.0242315,1153
1658572622.46007,344974.0242352,382
1658572622.46007,344974.0242387,-231
1658572622.46007,344974.0242433,-126
1658572622.46007,344974.0242486,109
1658572622.46007,344974.0242551,7
1658572622.46007,344974.0242613,-51
1658572622.46007,344974.0242677,29
1658572622.46007,344974.0242749,24
1658572622.46007,344974.0242819,-7
1658572622.46007,344974.0242881,36
1658572622.46007,344974.0242948,63
1658572622.46007,344974.0243017,53
1658572622.46007,344974.0243084,53
1658572622.46007,344974.0243163,48
1658572622.46007,344974.0243253,41
1658572622.46007,344974.024332,70
1658572622.46007,344974.0243386,85
1658572622.46007,344974.0243453,53
1658572622.46007,344974.0243521,53
1658572622.46007,344974.0243588,80
1658572622.46007,344974.5594945,65
1658572622.46007,344974.5595163,38
1658572622.46007,344974.5595326,41
1658572622.46007,344974.5595471,43
1658572622.46007,344974.5595605,46
1658572622.46007,344974.5595738,72
1658572622.46007,344974.5595871,109
1658572622.46007,344974.5595958,131
1658572622.46007,344974.5595984,141
1658572622.46007,344974.5596006,133
1658572622.46007,344974.5596028,126
1658572622.46007,344974.559605,126
1658572622.47104,344974.5596075,114
1658572622.47104,344974.559616,90
1658572622.47104,344974.5596265,97
1658572622.47104,344974.5596305,116
1658572622.47104,344974.5596327,114
1658572622.47104,344974.5596351,119
1658572622.47104,344974.5596432,131
1658572622.47104,344974.5596549,126
1658572622.47104,344974.5596584,107
1658572622.47104,344974.5596621,102
1658572622.47104,344974.5596642,111
1658572622.47104,344974.5596764,102
1658572622.47104,344974.559684,80
1658572622.47104,344974.5596865,87
1658572622.47104,344974.5596892,114
1658572622.47104,344974.5596951,121
1658572622.47104,344974.5597063,116
1658572622.47104,344974.5597097,104
1658572622.47104,344974.5597136,80
1658572622.47104,344974.5597161,70
1658572622.47104,344974.5597263,75
1658572622.47104,344974.5597343,77
1658572622.47104,344974.559737,80
1658572622.47104,344974.5597393,77
1658572622.94951,344974.5597415,38
1658572622.94951,344974.5597436,7
1658572622.94951,344974.5597458,199
1658572622.94951,344974.5597551,722
1658572622.94951,344974.5597628,1214
1658572622.94951,344974.5597654,1146
1658572622.94951,344974.5597674,437
1658572622.94951,344974.5597725,-214
1658572622.94951,344974.5597829,-165
1658572622.94951,344974.5597882,82
1658572622.94951,344974.5597924,0
1658572622.94951,344974.5597947,-75
1658572622.94951,344974.5598046,2
1658572622.94951,344974.5598134,17
1658572622.94951,344974.5598161,-9
1658572622.94951,344974.5598183,14
1658572622.94951,344974.5598206,34
1658572622.94951,344974.5598227,24
1658572622.94951,344974.5598251,24
1658572622.94951,344974.5598354,38
1658572622.94951,344974.5598438,55
1658572622.94951,344974.5598462,72
1658572622.94951,344974.5598485,72
1658572622.94951,344974.5598506,65
1658572622.94951,344974.5598529,72
1658572622.94951,344974.5598605,82
1658572622.94951,344974.5598712,68
1658572622.94951,344974.5598747,51
1658572622.94951,344974.5598785,58
1658572622.94951,344974.5598812,72
1658572622.94951,344974.5598918,60
1658572622.94951,344974.5598993,55
1658572622.94951,344974.5599017,92
1658572622.94951,344974.5599039,116
1658572622.94951,344974.559907,104
1658572622.94951,344974.55992,104
1658572622.94951,344974.5599259,124
1658572622.94951,344975.0471983,119
1658572622.94951,344975.0472112,102
1658572622.94951,344975.047215,104
1658572622.94951,344975.0472178,104
1658572622.94951,344975.0472201,97
1658572622.94951,344975.0472225,114
1658572622.94951,344975.0472249,131
1658572622.94951,344975.0472271,114
1658572622.94951,344975.0472294,102
1658572622.94951,344975.0472317,114
1658572622.94951,344975.0472339,114
1658572622.94951,344975.0472362,97
1658572622.94951,344975.0472384,99
1658572622.96048,344975.0472407,131
1658572622.96048,344975.0472439,165
1658572622.96048,344975.0472525,172
1658572622.96048,344975.0472635,128
1658572622.96048,344975.0472671,94
1658572622.96048,344975.0472712,104
1658572622.96048,344975.0472734,116
1658572622.96048,344975.0472781,116
1658572622.96048,344975.0472911,116
1658572622.96048,344975.0472975,102
1658572622.96048,344975.047301,72
1658572622.96048,344975.0473031,38
1658572622.96048,344975.0473051,2
1658572622.96048,344975.0473072,82
1658572622.96048,344975.0473105,501
1658572622.96048,344975.0473234,1141
1658572622.96048,344975.0473295,1403
1658572622.96048,344975.0473317,890
1658572622.96048,344975.0473369,31
1658572622.96048,344975.0473472,-294
1658572622.96048,344975.0473513,-58
1658572622.96048,344975.0473565,-2
1658572622.96048,344975.0473612,-141
1658572622.96048,344975.047366,-116
1658572623.47829,344975.0473693,-72
1658572623.47829,344975.0473725,-94
1658572623.47829,344975.0473756,-75
1658572623.47829,344975.0473788,-55
1658572623.47829,344975.0473818,-65
1658572623.47829,344975.0473848,-55
1658572623.47829,344975.0473879,-36
1658572623.47829,344975.047391,-34
1658572623.47829,344975.047394,-43
1658572623.47829,344975.047397,-43
1658572623.47829,344975.0474,-19
1658572623.47829,344975.0474032,-12
1658572623.47829,344975.0474062,-36
1658572623.47829,344975.0474095,-43
1658572623.47829,344975.0474131,-34
1658572623.47829,344975.0474167,-53
1658572623.47829,344975.0474202,-70
1658572623.47829,344975.0474239,-58
1658572623.47829,344975.0474301,-43
1658572623.47829,344975.0474345,-36
1658572623.47829,344975.0474398,-29
1658572623.47829,344975.047443,-19
1658572623.47829,344975.0474466,-12
1658572623.47829,344975.0474521,-14
1658572623.47829,344975.0474556,-2
1658572623.47829,344975.0474595,7
1658572623.47829,344975.0474651,0
1658572623.47829,344975.0474692,0
1658572623.47829,344975.0474729,24
1658572623.47829,344975.0474788,36
1658572623.47829,344975.0474843,31
1658572623.47829,344975.0474879,31
1658572623.47829,344975.0474916,26
1658572623.47829,344975.0474952,26
1658572623.47829,344975.0475005,31
1658572623.47829,344975.0475039,41
1658572623.47829,344975.5835832,53
1658572623.47829,344975.5836051,53
1658572623.47829,344975.5836139,51
1658572623.47829,344975.5836215,63
1658572623.47829,344975.5836307,75
1658572623.47829,344975.5836354,77
1658572623.47829,344975.5836407,63
1658572623.47829,344975.5836458,31
1658572623.47829,344975.5836529,14
1658572623.47829,344975.5836658,29
1658572623.47829,344975.5836791,41
1658572623.47829,344975.5836895,43
1658572623.47829,344975.583699,24
1658572623.47829,344975.5837045,-55
1658572623.48926,344975.5837177,-82
1658572623.48926,344975.583732,231
1658572623.48926,344975.5837442,893
1658572623.48926,344975.5837571,1357
1658572623.48926,344975.5837726,1024
1658572623.48926,344975.5837841,99
1658572623.48926,344975.5837952,-394
1658572623.48926,344975.5838082,-136
1658572623.48926,344975.5838168,38
1658572623.48926,344975.5838296,-116
1658572623.48926,344975.5838432,-158
1658572623.48926,344975.5838568,-90
1658572623.48926,344975.5838703,-99
1658572623.48926,344975.5838838,-104
1658572623.48926,344975.5838973,-46
1658572623.48926,344975.5839105,-14
1658572623.48926,344975.583924,-38
1658572623.48926,344975.5839388,-58
1658572623.48926,344975.5839522,-34
1658572623.48926,344975.5839658,-4
1658572623.48926,344975.5839806,17
1658572623.48926,344975.5839942,43
1658572623.48926,344975.5840077,65
1658572623.48926,344975.5840224,60
1658572624.26046,344975.5840352,31
1658572624.26046,344975.5840432,24
1658572624.26046,344975.5840507,26
1658572624.26046,344975.584056,12
1658572624.26046,344975.5840616,14
1658572624.26046,344975.5840655,43
1658572624.26046,344975.5840789,63
1658572624.26046,344975.584092,72
1658572624.26046,344975.584101,87
1658572624.26046,344975.5841132,87
1658572624.26046,344975.5841263,72
1658572624.26046,344975.5841351,68
1658572624.26046,344975.584148,58
1658572624.26046,344975.5841571,53
1658572624.26046,344975.58417,55
1658572624.26046,344975.584185,58
1658572624.26046,344975.5841971,72
1658572624.26046,344975.5842104,94
1658572624.26046,344975.5842239,107
1658572624.26046,344975.5842376,107
1658572624.26046,344975.5842509,99
1658572624.26046,344975.5842561,104
1658572624.26046,344975.584259,121
1658572624.26046,344975.5842618,124
1658572624.26046,344975.5842646,126
1658572624.26046,344975.5842674,145
1658572624.26046,344975.5842702,160
1658572624.26046,344975.5842731,153
1658572624.26046,344975.5842759,128
1658572624.26046,344975.5842787,109
1658572624.26046,344975.5842815,114
1658572624.26046,344975.5842844,124
1658572624.26046,344975.5842873,116
1658572624.26046,344975.5842901,114
1658572624.26046,344975.5842931,121
1658572624.26046,344976.3653184,87
1658572624.26046,344976.3653407,-2
1658572624.26046,344976.3653504,65
1658572624.26046,344976.3653544,542
1658572624.26046,344976.3653568,1194
1658572624.26046,344976.365359,1401
1658572624.26046,344976.3653611,824
1658572624.26046,344976.3653633,-68
1658572624.26046,344976.3653655,-347
1658572624.26046,344976.3653676,-48
1658572624.26046,344976.3653698,-2
1658572624.26046,344976.3653719,-145
1658572624.26046,344976.3653741,-90
1658572624.26046,344976.3653762,-58
1658572624.26046,344976.3653783,-116
1658572624.27142,344976.3653804,-72
1658572624.27142,344976.3653825,14
1658572624.27142,344976.3653852,24
1658572624.27142,344976.365393,7
1658572624.27142,344976.3654043,-4
1658572624.27142,344976.3654093,-19
1658572624.27142,344976.3654115,-14
1658572624.27142,344976.365414,14
1658572624.27142,344976.3654162,38
1658572624.27142,344976.3654183,43
1658572624.27142,344976.3654204,48
1658572624.27142,344976.3654225,51
1658572624.27142,344976.3654246,41
1658572624.27142,344976.3654267,29
1658572624.27142,344976.3654287,31
1658572624.27142,344976.3654308,41
1658572624.27142,344976.3654337,36
1658572624.27142,344976.3654357,38
1658572624.27142,344976.3654378,68
1658572624.27142,344976.3654399,72
1658572624.27142,344976.365442,48
1658572624.27142,344976.3654442,48
1658572624.27142,344976.3654463,75
1658572624.27142,344976.3654483,70
1658572624.64868,344976.3654505,41
1658572624.64868,344976.3654525,48
1658572624.64868,344976.3654545,72
1658572624.64868,344976.3654564,80
1658572624.64868,344976.3654584,80
1658572624.64868,344976.3654603,87
1658572624.64868,344976.3654622,92
1658572624.64868,344976.3654642,94
1658572624.64868,344976.3654661,102
1658572624.64868,344976.365468,109
1658572624.64868,344976.3654701,111
1658572624.64868,344976.3654722,104
1658572624.64868,344976.3654741,121
1658572624.64868,344976.3654761,163
1658572624.64868,344976.3654781,165
1658572624.64868,344976.3654843,136
1658572624.64868,344976.365497,136
1658572624.64868,344976.365507,131
1658572624.64868,344976.365554,111
1658572624.64868,344976.3655656,114
1658572624.64868,344976.3655691,121
1658572624.64868,344976.365573,114
1658572624.64868,344976.3655752,94
1658572624.64868,344976.3655773,26
1658572624.64868,344976.3655794,63
1658572624.64868,344976.3655815,513
1658572624.64868,344976.3655838,1250
1658572624.64868,344976.3655859,1596
1658572624.64868,344976.3655892,1085
1658572624.64868,344976.3655953,128
1658572624.64868,344976.3656004,-287
1658572624.64868,344976.365607,-17
1658572624.64868,344976.3656121,75
1658572624.64868,344976.3656187,-107
1658572624.64868,344976.7535406,-90
1658572624.64868,344976.7535629,-9
1658572624.64868,344976.7535723,-43
1658572624.64868,344976.753575,-53
1658572624.64868,344976.7535773,-19
1658572624.64868,344976.7535794,-17
1658572624.64868,344976.7535816,-24
1658572624.64868,344976.7535837,-21
1658572624.64868,344976.7535858,-7
1658572624.64868,344976.753588,12
1658572624.64868,344976.7535903,17
1658572624.64868,344976.7535925,7
1658572624.64868,344976.7535946,4
1658572624.64868,344976.7535967,12
1658572624.64868,344976.7535988,21
1658572624.64868,344976.753601,24
1658572624.65966,344976.7536031,7
1658572624.65966,344976.7536052,2
1658572624.65966,344976.7536074,31
1658572624.65966,344976.7536096,34
1658572624.65966,344976.7536163,9
1658572624.65966,344976.7536277,38
1658572624.65966,344976.7536377,82
1658572624.65966,344976.7536456,87
1658572624.65966,344976.753654,92
1658572624.65966,344976.7536565,109
1658572624.65966,344976.7536587,99
1658572624.65966,344976.7536609,90
1658572624.65966,344976.753663,109
1658572624.65966,344976.7536651,121
1658572624.65966,344976.7536672,119
1658572624.65966,344976.7536694,121
1658572624.65966,344976.7536715,128
1658572624.65966,344976.7536736,143
1658572624.65966,344976.7536758,145
1658572624.65966,344976.7536832,121
1658572624.65966,344976.7536945,99
1658572624.65966,344976.7537032,102
1658572624.65966,344976.7537141,97
1658572624.65966,344976.753725,109
1658572625.2362,344976.7537345,141
1658572625.2362,344976.7537413,141
1658572625.2362,344976.7537436,116
1658572625.2362,344976.7537458,104
1658572625.2362,344976.7537479,87
1658572625.2362,344976.75375,68
1658572625.2362,344976.753752,77
1658572625.2362,344976.753754,87
1658572625.2362,344976.753756,80
1658572625.2362,344976.7537616,48
1658572625.2362,344976.7537753,-19
1658572625.2362,344976.7537859,60
1658572625.2362,344976.7537957,530
1658572625.2362,344976.7538064,1197
1658572625.2362,344976.7538119,1462
1658572625.2362,344976.7538398,934
1658572625.2362,344976.7538535,7
1658572625.2362,344976.7538591,-330
1658572625.2362,344976.7538637,-19
1658572625.2362,344976.7538683,63
1658572625.2362,344976.7538732,-102
1658572625.2362,344976.7538777,-60
1658572625.2362,344976.753882,7
1658572625.2362,344976.7538865,-38
1658572625.2362,344976.7538909,-43
1658572625.2362,344976.7538972,-2
1658572625.2362,344976.7539062,2
1658572625.2362,344976.7539204,-2
1658572625.2362,344976.7539345,4
1658572625.2362,344976.7539479,0
1658572625.2362,344976.7539613,4
1658572625.2362,344976.7539748,36
1658572625.2362,344976.7539882,41
1658572625.2362,344977.3397591,31
1658572625.2362,344977.339776,46
1658572625.2362,344977.3397807,60
1658572625.2362,344977.3397864,60
1658572625.2362,344977.3397904,48
1658572625.2362,344977.3397957,26
1658572625.2362,344977.3398005,19

1658572625.2362,344977.3398061,43
1658572625.2362,344977.3398113,80
1658572625.2362,344977.3398151,85
1658572625.2362,344977.3398189,60
1658572625.2362,344977.3398226,55
1658572625.2362,344977.3398266,60
1658572625.2362,344977.339832,58
1658572625.2362,344977.3398358,51
1658572625.2362,344977.3398396,26
1658572625.2362,344977.3398438,-4
1658572625.24617,344977.3398492,-2
1658572625.24617,344977.3398531,19
1658572625.24617,344977.339857,14
1658572625.24617,344977.3398607,12
1658572625.24617,344977.3398645,29
1658572625.24617,344977.3398682,36
1658572625.24617,344977.3398721,34
1658572625.24617,344977.3398759,41
1658572625.24617,344977.3398798,34
1658572625.24617,344977.3398837,12
1658572625.24617,344977.3398875,26
1658572625.24617,344977.3398914,65
1658572625.24617,344977.3398967,70
1658572625.24617,344977.3399006,48
1658572625.24617,344977.3399054,43
1658572625.24617,344977.3399092,48
1658572625.24617,344977.3399129,51
1658572625.24617,344977.3399166,48
1658572625.24617,344977.3399203,38
1658572625.24617,344977.339924,29
1658572625.24617,344977.3399277,7
1658572625.24617,344977.3399315,-58
1658572625.24617,344977.3399353,-34
1658572625.24617,344977.3399391,362
1658572625.81846,344977.3399428,1060
1658572625.81846,344977.3399465,1498
1658572625.81846,344977.3399502,1107
1658572625.81846,344977.3399538,121
1658572625.81846,344977.3399576,-396
1658572625.81846,344977.3399613,-143
1658572625.81846,344977.339965,-31
1658572625.81846,344977.3399693,-231
1658572625.81846,344977.3399731,-218
1658572625.81846,344977.3399769,-131
1658572625.81846,344977.3399807,-180
1658572625.81846,344977.3399846,-180
1658572625.81846,344977.339989,-128
1658572625.81846,344977.3399927,-150
1658572625.81846,344977.3399963,-165
1658572625.81846,344977.3399999,-109
1658572625.81846,344977.3400036,-70
1658572625.81846,344977.3400072,-82
1658572625.81846,344977.3400107,-85
1658572625.81846,344977.3400144,-63
1658572625.81846,344977.3400181,-48
1658572625.81846,344977.3400219,-43
1658572625.81846,344977.3400258,-43
1658572625.81846,344977.3400312,-51
1658572625.81846,344977.3400359,-48
1658572625.81846,344977.3400411,-21
1658572625.81846,344977.3400448,-17
1658572625.81846,344977.3400486,-36
1658572625.81846,344977.3400523,-9
1658572625.81846,344977.340056,26
1658572625.81846,344977.3400601,21
1658572625.81846,344977.3400654,29
1658572625.81846,344977.9241533,36
1658572625.81846,344977.9241673,29
1658572625.81846,344977.9241723,21
1658572625.81846,344977.9241838,17
1658572625.81846,344977.924187,19
1658572625.81846,344977.9241982,24
1658572625.81846,344977.9242075,0
1658572625.81846,344977.9242103,-19
1658572625.81846,344977.9242127,-7
1658572625.81846,344977.924215,26
1658572625.81846,344977.9242172,51
1658572625.81846,344977.9242194,51
1658572625.81846,344977.9242218,34
1658572625.81846,344977.9242247,34
1658572625.81846,344977.9242338,43
1658572625.81846,344977.924244,48
1658572625.81846,344977.9242531,68
1658572625.81846,344977.9242599,90
1658572625.82843,344977.9242697,82
1658572625.82843,344977.924277,51
1658572625.82843,344977.9242859,12
1658572625.82843,344977.9242905,14
1658572625.82843,344977.9242927,60
1658572625.82843,344977.9242949,87
1658572625.82843,344977.9242971,72
1658572625.82843,344977.9242992,7
1658572625.82843,344977.9243014,-87
1658572625.82843,344977.9243035,-41
1658572625.82843,344977.9243057,382
1658572625.82843,344977.9243078,1119
1658572625.82843,344977.9243099,1586
1658572625.82843,344977.924312,1214
1658572625.82843,344977.9243141,238
1658572625.82843,344977.9243162,-321
1658572625.82843,344977.9243184,-116
1658572625.82843,344977.9243204,4
1658572625.82843,344977.9243225,-158
1658572625.82843,344977.9243245,-124
1658572625.82843,344977.9243274,-31
1658572625.82843,344977.9243295,-82
1658572625.82843,344977.9243315,-72
1658572625.82843,344977.9243336,-7
1658572626.35713,344977.9243357,-34
1658572626.35713,344977.9243387,-82
1658572626.35713,344977.9243488,-53
1658572626.35713,344977.9243578,-4
1658572626.35713,344977.9243667,0
1658572626.35713,344977.9243762,-4
1658572626.35713,344977.924385,17
1658572626.35713,344977.9243979,31
1658572626.35713,344977.9244099,26
1658572626.35713,344977.9244188,43
1658572626.35713,344977.9244276,65
1658572626.35713,344977.9244328,53
1658572626.35713,344977.9244362,34
1658572626.35713,344977.9244384,26
1658572626.35713,344977.9244405,29
1658572626.35713,344977.9244426,53
1658572626.35713,344977.9244447,90
1658572626.35713,344977.9244468,104
1658572626.35713,344977.9244543,102
1658572626.35713,344977.924466,94
1658572626.35713,344977.9244758,85
1658572626.35713,344977.9244832,82
1658572626.35713,344977.9244874,90
1658572626.35713,344977.9244895,92
1658572626.35713,344977.9244916,94
1658572626.35713,344977.9244938,104
1658572626.35713,344977.9244959,116
1658572626.35713,344977.9244979,119
1658572626.35713,344977.9245,119
1658572626.35713,344977.9245021,128
1658572626.35713,344977.9245095,133
1658572626.35713,344978.4596266,141
1658572626.35713,344978.4596424,160
1658572626.35713,344978.4596457,167
1658572626.35713,344978.4596485,155
1658572626.35713,344978.4596513,160
1658572626.35713,344978.459654,192
1658572626.35713,344978.4596566,201
1658572626.35713,344978.4596597,175
1658572626.35713,344978.4596631,155
1658572626.35713,344978.4596658,150
1658572626.35713,344978.4596685,150
1658572626.35713,344978.4596714,150
1658572626.35713,344978.459674,126
1658572626.35713,344978.4596767,109
1658572626.35713,344978.4596796,97
1658572626.35713,344978.4596833,21
1658572626.35713,344978.4596861,24
1658572626.35713,344978.4596889,391
1658572626.35713,344978.4596918,1114
1658572626.37909,344978.4596947,1664
1658572626.37909,344978.4596975,1423
1658572626.37909,344978.4597043,440
1658572626.37909,344978.4597096,-289
1658572626.37909,344978.4597159,-128
1658572626.37909,344978.4597192,121
1658572626.37909,344978.4597223,-48
1658572626.37909,344978.4597275,-133
1658572626.37909,344978.4597329,-55
1658572626.37909,344978.4597364,-65
1658572626.37909,344978.4597402,-70
1658572626.37909,344978.4597459,-17
1658572626.37909,344978.4597506,-14
1658572626.37909,344978.4597561,-26
1658572626.37909,344978.4597597,-19
1658572626.37909,344978.4597636,-34
1658572626.37909,344978.4597689,-12
1658572626.37909,344978.4597723,53
1658572626.37909,344978.4597759,80
1658572626.37909,344978.4597811,58
1658572626.37909,344978.4597846,31
1658572626.37909,344978.4597881,19
1658572626.37909,344978.4597919,34
1658572626.37909,344978.4597975,58
1658572626.89193,344978.4598011,70
1658572626.89193,344978.4598047,65
1658572626.89193,344978.4598083,70
1658572626.89193,344978.4598116,94
1658572626.89193,344978.459815,111
1658572626.89193,344978.4598198,99
1658572626.89193,344978.4598241,77
1658572626.89193,344978.4598277,80
1658572626.89193,344978.4598311,109
1658572626.89193,344978.4598348,121
1658572626.89193,344978.4598384,107
1658572626.89193,344978.459842,90
1658572626.89193,344978.4598456,87
1658572626.89193,344978.4598494,99
1658572626.89193,344978.4598532,104
1658572626.89193,344978.4598588,124
1658572626.89193,344978.4598636,150
1658572626.89193,344978.4598674,155
1658572626.89193,344978.4598707,158
1658572626.89193,344978.4598748,160
1658572626.89193,344978.4598808,160
1658572626.89193,344978.459885,153
1658572626.89193,344978.4598914,153
1658572626.89193,344978.459899,158
1658572626.89193,344978.4599054,158
1658572626.89193,344978.4599107,150
1658572626.89193,344978.4599175,155
1658572626.89193,344978.4599241,187
1658572626.89193,344978.4599285,206
1658572626.89193,344978.4599354,182
1658572626.89193,344978.9981783,165
1658572626.89193,344978.9982003,172
1658572626.89193,344978.9982113,170
1658572626.89193,344978.9982191,163
1658572626.89193,344978.9982285,160
1658572626.89193,344978.9982352,136
1658572626.89193,344978.9982485,102
1658572626.89193,344978.9982591,58
1658572626.89193,344978.9982653,138
1658572626.89193,344978.9982802,591
1658572626.89193,344978.9982912,1311
1658572626.89193,344978.9983008,1703
1658572626.89193,344978.9983115,1284
1658572626.89193,344978.9983214,287
1658572626.89193,344978.9983434,-301
1658572626.89193,344978.9983656,-87
1658572626.89193,344978.9983731,60
1658572626.89193,344978.9983847,-121
1658572626.89193,344978.9983939,-109
1658572626.89193,344978.9984022,-19
1658572626.9019,344978.9984139,-72
1658572626.9019,344978.9984247,-90
1658572626.9019,344978.9984441,-31
1658572626.9019,344978.9984649,-31
1658572626.9019,344978.9984755,-46
1658572626.9019,344978.9984857,-34
1658572626.9019,344978.9984925,-29
1658572626.9019,344978.9985004,-21
1658572626.9019,344978.9985037,-2
1658572626.9019,344978.9985059,12
1658572626.9019,344978.9985081,34
1658572626.9019,344978.9985102,48
1658572626.9019,344978.9985124,46
1658572626.9019,344978.9985144,51
1658572626.9019,344978.9985166,58
1658572626.9019,344978.9985187,46
1658572626.9019,344978.9985207,36
1658572626.9019,344978.9985227,46
1658572626.9019,344978.9985249,63
1658572626.9019,344978.9985269,82
1658572626.9019,344978.998529,99
1658572626.9019,344978.998531,102
1658572626.9019,344978.9985331,92
1658572626.9019,344978.9985351,90
1658572627.48081,344978.9985372,92
1658572627.48081,344978.9985392,92
1658572627.48081,344978.9985411,90
1658572627.48081,344978.9985431,90
1658572627.48081,344978.998545,94
1658572627.48081,344978.9985469,97
1658572627.48081,344978.9985489,92
1658572627.48081,344978.9985507,90
1658572627.48081,344978.9985528,94
1658572627.48081,344978.9985546,109
1658572627.48081,344978.9985566,126
1658572627.48081,344978.9985586,126
1658572627.48081,344978.9985605,119
1658572627.48081,344978.9985624,119
1658572627.48081,344978.9985643,119
1658572627.48081,344978.9985679,128
1658572627.48081,344978.9985775,133
1658572627.48081,344978.9985878,114
1658572627.48081,344978.9985947,107
1658572627.48081,344978.9985978,141
1658572627.48081,344978.9986,170
1658572627.48081,344978.9986021,158
1658572627.48081,344978.9986043,138
1658572627.48081,344978.9986065,163
1658572627.48081,344978.9986087,189
1658572627.48081,344978.9986108,150
1658572627.48081,344978.9986129,99
1658572627.48081,344978.9986151,111
1658572627.48081,344978.9986172,124
1658572627.48081,344979.5817968,75
1658572627.48081,344979.5818185,128
1658572627.48081,344979.5818298,535
1658572627.48081,344979.5818382,1236
1658572627.48081,344979.5818463,1683
1658572627.48081,344979.5818532,1287
1658572627.48081,344979.5818601,267
1658572627.48081,344979.581867,-309
1658572627.48081,344979.5818707,-97
1658572627.48081,344979.5818772,48
1658572627.48081,344979.5818838,-107
1658572627.48081,344979.5818917,-119
1658572627.48081,344979.5819005,-51
1658572627.48081,344979.5819068,-72
1658572627.48081,344979.581913,-85
1658572627.48081,344979.5819193,-53
1658572627.48081,344979.5819258,-41
1658572627.48081,344979.5819324,-60
1658572627.48081,344979.5819403,-65
1658572627.48081,344979.5819467,-36
1658572627.48081,344979.5819562,-19
1658572627.49178,344979.581961,-36
1658572627.49178,344979.5819676,-41
1658572627.49178,344979.5819728,-17
1658572627.49178,344979.581979,2
1658572627.49178,344979.581985,2
1658572627.49178,344979.5819896,7
1658572627.49178,344979.5819927,14
1658572627.49178,344979.5819962,0
1658572627.49178,344979.5819997,-14
1658572627.49178,344979.5820034,0
1658572627.49178,344979.5820071,19
1658572627.49178,344979.5820105,26
1658572627.49178,344979.5820141,38
1658572627.49178,344979.5820186,48
1658572627.49178,344979.5820222,51
1658572627.49178,344979.5820256,48
1658572627.49178,344979.5820292,17
1658572627.49178,344979.5820329,-7
1658572627.49178,344979.5820364,14
1658572627.49178,344979.5820408,38
1658572627.49178,344979.5820444,46
1658572627.49178,344979.5820502,43
1658572627.49178,344979.5820545,34
1658572627.49178,344979.5820598,41
1658572628.06872,344979.5820657,63
1658572628.06872,344979.5820695,60
1658572628.06872,344979.582073,43
1658572628.06872,344979.5820765,55
1658572628.06872,344979.5820797,77
1658572628.06872,344979.5820832,75
1658572628.06872,344979.5820864,53
1658572628.06872,344979.5820898,63
1658572628.06872,344979.5820934,92
1658572628.06872,344979.5820972,90
1658572628.06872,344979.582101,80
1658572628.06872,344979.5821043,75
1658572628.06872,344979.5821075,48
1658572628.06872,344979.5821108,36
1658572628.06872,344979.5821141,82
1658572628.06872,344979.5821199,114
1658572628.06872,344979.5821233,97
1658572628.06872,344979.5821266,82
1658572628.06872,344979.5821301,85
1658572628.06872,344979.5821336,90
1658572628.06872,344979.5821368,72
1658572628.06872,344979.582141,21
1658572628.06872,344979.5821446,4
1658572628.06872,344979.5821483,29
1658572628.06872,344979.5821515,4
1658572628.06872,344979.5821549,12
1658572628.06872,344979.5821584,357
1658572628.06872,344979.5821619,1090
1658572628.06872,344980.1664789,1661
1658572628.06872,344980.1664916,1428
1658572628.06872,344980.1664959,430
1658572628.06872,344980.1664987,-350
1658572628.06872,344980.1665009,-240
1658572628.06872,344980.1665032,26
1658572628.06872,344980.1665054,-104
1658572628.06872,344980.1665074,-170
1658572628.06872,344980.1665095,-65
1658572628.06872,344980.1665116,-65
1658572628.06872,344980.1665137,-107
1658572628.06872,344980.1665157,-77
1658572628.06872,344980.1665179,-58
1658572628.06872,344980.1665199,-85
1658572628.06872,344980.1665219,-104
1658572628.06872,344980.166524,-85
1658572628.06872,344980.166526,-48
1658572628.06872,344980.1665281,-29
1658572628.06872,344980.1665302,-24
1658572628.06872,344980.1665323,-14
1658572628.06872,344980.1665343,-7
1658572628.06872,344980.1665366,0
1658572628.07969,344980.1665389,4
1658572628.07969,344980.1665412,21
1658572628.07969,344980.1665436,29
1658572628.07969,344980.1665459,7
1658572628.07969,344980.1665482,0
1658572628.07969,344980.1665504,21
1658572628.07969,344980.1665527,48
1658572628.07969,344980.166555,75
1658572628.07969,344980.1665573,70
1658572628.07969,344980.1665596,43
1658572628.07969,344980.1665618,41
1658572628.07969,344980.1665641,46
