Time,TimeLsl,Value
1658576751.54794,349102.057728,89
1658576751.54794,349102.0577497,54
1658576751.54794,349102.0577667,49
1658576751.54794,349102.0577811,73
1658576751.54794,349102.0577945,51
1658576751.54794,349102.0578076,35
1658576751.54794,349102.0578208,56
1658576751.54794,349102.0578341,70
1658576751.54794,349102.0578465,77
1658576751.54794,349102.0578572,89
1658576751.54794,349102.0578613,89
1658576751.54794,349102.0578674,84
1658576751.54794,349102.0578729,101
1658576751.54794,349102.0578788,122
1658576751.54794,349102.0578833,134
1658576751.54794,349102.0578893,146
1658576751.54794,349102.0578935,164
1658576751.54794,349102.0578997,179
1658576751.54794,349102.0579046,190
1658576751.54794,349102.0579112,209
1658576751.54794,349102.0579159,223
1658576751.54794,349102.0579208,230
1658576751.54794,349102.0579281,233
1658576751.54794,349102.0579328,226
1658576751.54794,349102.0579377,212
1658576751.54794,349102.0579444,195
1658576751.54794,349102.0579492,157
1658576751.54794,349102.0579538,106
1658576751.54794,349102.05796,63
1658576751.54794,349102.0579656,30
1658576751.54794,349102.0579721,-4
1658576751.54794,349102.0579776,-25
1658576751.54794,349102.057982,-37
1658576751.54794,349102.0579858,-44
1658576751.54794,349102.0579879,-44
1658576751.54794,349102.0579901,-40
1658576751.54794,349102.0579924,-40
1658576751.54794,349102.058,-32
1658576751.54794,349102.0580105,-23
1658576751.54794,349102.0580138,-16
1658576751.54794,349102.0580167,-11
1658576751.54794,349102.0580198,-4
1658576751.54794,349102.0580271,2
1658576751.54794,349102.0580566,11
1658576751.54794,349102.0580676,16
1658576751.54794,349102.0580761,18
1658576751.54794,349102.0580821,23
1658576751.54794,349102.0580866,28
1658576751.54794,349102.0580932,25
1658576751.54794,349102.0580975,18
1658576751.68309,349102.0581036,18
1658576751.68309,349102.0581108,23
1658576751.68309,349102.0581166,28
1658576751.68309,349102.0581213,23
1658576751.68309,349102.058128,18
1658576751.68309,349102.0581347,21
1658576751.68309,349102.0581392,16
1658576751.68309,349102.0581449,7
1658576751.68309,349102.058149,4
1658576751.68309,349102.0581546,9
1658576751.68309,349102.0581586,11
1658576751.68309,349102.0581634,9
1658576751.68309,349102.0581686,11
1658576751.68309,349102.0581725,7
1658576751.68309,349102.0581794,2
1658576751.68309,349102.058187,14
1658576751.68309,349102.0581937,42
1658576751.68309,349102.0581986,58
1658576751.68309,349102.0582018,44
1658576751.68309,349102.0582068,21
1658576751.68309,349102.05821,4
1658576751.68309,349102.058215,-4
1658576751.68309,349102.0582183,-2
1658576751.68309,349102.5931128,7
1658576751.68309,349102.5931339,11
1658576751.68309,349102.59314,11
1658576751.68309,349102.5931435,21
1658576751.68309,349102.5931469,25
1658576751.68309,349102.5931502,25
1658576751.68309,349102.5931535,28
1658576751.68309,349102.5931568,37
1658576751.68309,349102.5931601,89
1658576751.68309,349102.5931634,256
1658576751.68309,349102.5931808,537
1658576751.68309,349102.5931899,727
1658576751.68309,349102.593194,459
1658576751.68309,349102.5931978,-129
1658576751.68309,349102.5932014,-245
1658576751.68309,349102.5932056,73
1658576751.68309,349102.593209,101
1658576751.68309,349102.5932125,-25
1658576751.68309,349102.593216,25
1658576751.68309,349102.5932194,63
1658576751.68309,349102.5932229,11
1658576751.68309,349102.5932263,9
1658576751.68309,349102.5932297,40
1658576751.68309,349102.5932332,42
1658576751.68309,349102.5932367,44
1658576751.68309,349102.5932401,56
1658576751.68309,349102.5932439,51
1658576751.72797,349102.5932475,47
1658576751.72797,349102.5932508,65
1658576751.72797,349102.5932544,84
1658576751.72797,349102.5932579,91
1658576751.72797,349102.5932614,103
1658576751.72797,349102.5932672,115
1658576751.72797,349102.5932709,124
1658576751.72797,349102.5932772,146
1658576751.72797,349102.5932815,169
1658576751.72797,349102.593285,183
1658576751.72797,349102.5932906,197
1658576751.72797,349102.5932962,212
1658576751.72797,349102.5933012,216
1658576751.72797,349102.5933048,223
1658576751.72797,349102.5933083,233
1658576751.72797,349102.5933119,233
1658576751.72797,349102.5933169,223
1658576751.72797,349102.5933205,202
1658576751.72797,349102.5933242,157
1658576751.72797,349102.59333,103
1658576751.72797,349102.5933341,65
1658576751.72797,349102.5933391,32
1658576751.72797,349102.5933427,-2
1658576751.72797,349102.5933477,-23
1658576751.72797,349102.5933512,-30
1658576751.72797,349102.5933562,-37
1658576751.72797,349102.5933611,-37
1658576751.72797,349102.5933645,-40
1658576751.72797,349102.593368,-42
1658576751.72797,349102.5933715,-35
1658576751.72797,349102.5933749,-25
1658576751.72797,349102.5933784,-21
1658576751.72797,349102.5933831,-11
1658576751.72797,349102.5933867,2
1658576751.72797,349102.5933902,9
1658576751.72797,349102.5933936,7
1658576751.72797,349102.5933971,2
1658576751.72797,349102.5934006,2
1658576751.72797,349102.5934053,9
1658576751.72797,349102.5934093,21
1658576751.72797,349102.593414,23
1658576751.72797,349102.5934178,23
1658576751.72797,349102.5934212,25
1658576751.72797,349102.5934268,21
1658576751.72797,349102.5934304,11
1658576751.72797,349102.5934353,14
1658576751.72797,349103.2257726,18
1658576751.72797,349103.2257909,18
1658576751.72797,349103.2257994,18
1658576751.72797,349103.2258056,18
1658576751.74643,349103.2258111,16
1658576751.74643,349103.2258159,14
1658576751.74643,349103.2258208,16
1658576751.74643,349103.2258268,14
1658576751.74643,349103.2258338,4
1658576751.74643,349103.2258403,0
1658576751.74643,349103.2258444,0
1658576751.74643,349103.2258483,-7
1658576751.74643,349103.225853,-4
1658576751.74643,349103.2258601,23
1658576751.74643,349103.2258687,47
1658576751.74643,349103.2258823,42
1658576751.74643,349103.225896,14
1658576751.74643,349103.2259089,-14
1658576751.74643,349103.2259192,-18
1658576751.74643,349103.2259273,-9
1658576751.74643,349103.2259329,0
1658576751.74643,349103.2259434,7
1658576751.74643,349103.2259518,14
1658576751.74643,349103.2259608,9
1658576751.74643,349103.2259715,4
1658576751.74643,349103.2259749,9
1658576751.74643,349103.225982,14
1658576751.74643,349103.225997,30
1658576751.74643,349103.2260068,103
1658576751.74643,349103.2260137,280
1658576751.74643,349103.2260196,541
1658576751.74643,349103.2260267,697
1658576751.74643,349103.2260308,398
1658576751.74643,349103.2260366,-155
1658576751.74643,349103.2260433,-200
1658576751.74643,349103.2260487,106
1658576751.74643,349103.2260544,94
1658576751.74643,349103.2260679,-21
1658576751.74643,349103.2260807,44
1658576751.74643,349103.2260881,82
1658576751.74643,349103.2260922,47
1658576751.74643,349103.2261542,61
1658576751.74643,349103.2261661,84
1658576751.74643,349103.2261753,77
1658576751.74643,349103.2261801,80
1658576751.74643,349103.2261861,91
1658576751.74643,349103.2261921,101
1658576751.74643,349103.2262054,110
1658576751.74643,349103.226219,120
1658576751.74643,349103.2262266,122
1658576751.74643,349103.2262318,131
1658576751.74643,349103.2262376,150
1658576751.74643,349103.2262438,169
1658576751.74643,349103.2262501,183
1658576751.76162,349103.2262539,193
1658576751.76162,349103.2262577,202
1658576751.76162,349103.2262641,219
1658576751.76162,349103.2262692,235
1658576751.76162,349103.2262752,249
1658576751.76162,349103.22628,254
1658576751.76162,349103.226286,254
1658576751.76162,349103.2262913,256
1658576751.76162,349103.2262969,256
1658576751.76162,349103.226301,247
1658576751.76162,349103.2263078,226
1658576751.76162,349103.2263134,188
1658576751.76162,349103.2263171,139
1658576751.76162,349103.2263211,89
1658576751.76162,349103.2263281,44
1658576751.76162,349103.2263325,18
1658576751.76162,349103.2263584,7
1658576751.76162,349103.2263684,-2
1658576751.76162,349103.226374,-4
1658576751.76162,349103.713761,-2
1658576751.76162,349103.7137855,-9
1658576751.76162,349103.7137948,-9
1658576752.15345,349103.7138027,-2
1658576752.15345,349103.7138066,4
1658576752.15345,349103.7138103,9
1658576752.15345,349103.713814,9
1658576752.15345,349103.713818,14
1658576752.15345,349103.7138219,28
1658576752.15345,349103.7138259,42
1658576752.15345,349103.7138299,47
1658576752.15345,349103.7138351,49
1658576752.15345,349103.7138393,56
1658576752.15345,349103.7138424,51
1658576752.15345,349103.7138457,40
1658576752.15345,349103.7138498,40
1658576752.15345,349103.7138552,47
1658576752.15345,349103.7138605,42
1658576752.15345,349103.7138644,37
1658576752.15345,349103.7138681,37
1658576752.15345,349103.7138719,21
1658576752.15345,349103.7138757,11
1658576752.15345,349103.7139317,28
1658576752.15345,349103.7139392,32
1658576752.15345,349103.7139434,23
1658576752.15345,349103.7139489,23
1658576752.15345,349103.713953,18
1658576752.15345,349103.7139584,9
1658576752.15345,349103.7139625,14
1658576752.15345,349103.7139678,21
1658576752.15345,349103.7139717,14
1658576752.15345,349103.7139771,11
1658576752.15345,349103.7139817,23
1658576752.15345,349103.7139871,42
1658576752.15345,349103.7139916,58
1658576752.15345,349103.7139984,65
1658576752.15345,349103.7140044,51
1658576752.15345,349103.7140082,30
1658576752.15345,349103.714012,23
1658576752.15345,349103.7140159,30
1658576752.15345,349103.7140199,35
1658576752.15345,349103.7140241,37
1658576752.15345,349103.7140298,44
1658576752.15345,349103.7140337,49
1658576752.15345,349103.7140378,54
1658576752.15345,349103.7140417,63
1658576752.15345,349103.7140459,65
1658576752.15345,349103.7140497,70
1658576752.15345,349103.7140536,103
1658576752.15345,349103.7141154,226
1658576752.15345,349103.7141317,478
1658576752.15345,349103.7141365,727
1658576752.15345,349103.7141408,617
1658576752.16542,349103.7141468,51
1658576752.16542,349103.7141515,-268
1658576752.16542,349103.7141567,9
1658576752.16542,349103.7141626,160
1658576752.16542,349103.7141689,16
1658576752.16542,349103.7141733,25
1658576752.16542,349103.7141793,98
1658576752.16542,349103.7141882,68
1658576752.16542,349103.7141918,63
1658576752.16542,349103.7141969,96
1658576752.16542,349103.7142007,103
1658576752.16542,349103.7142046,106
1658576752.16542,349103.7142101,117
1658576752.16542,349103.7142139,117
1658576752.16542,349103.7142179,120
1658576752.16542,349103.7142252,131
1658576752.16542,349103.7142289,141
1658576752.16542,349103.714234,148
1658576752.16542,349103.7142376,157
1658576752.16542,349103.7142413,167
1658576752.16542,349104.249359,183
1658576752.16542,349104.2493759,207
1658576752.16542,349104.2493809,226
1658576752.16542,349104.2493849,237
1658576752.69121,349104.2493886,252
1658576752.69121,349104.2493923,263
1658576752.69121,349104.2493961,275
1658576752.69121,349104.2493997,287
1658576752.69121,349104.2494048,292
1658576752.69121,349104.2494089,287
1658576752.69121,349104.2494122,268
1658576752.69121,349104.2494156,230
1658576752.69121,349104.2494193,193
1658576752.69121,349104.2494228,150
1658576752.69121,349104.249429,101
1658576752.69121,349104.2494331,61
1658576752.69121,349104.2494397,23
1658576752.69121,349104.2494458,-11
1658576752.69121,349104.2494523,-28
1658576752.69121,349104.2494571,-25
1658576752.69121,349104.249462,-25
1658576752.69121,349104.2494713,-30
1658576752.69121,349104.2494805,-28
1658576752.69121,349104.2494921,-23
1658576752.69121,349104.2495029,-16
1658576752.69121,349104.2495104,-11
1658576752.69121,349104.2495159,-7
1658576752.69121,349104.2495249,-2
1658576752.69121,349104.2495308,4
1658576752.69121,349104.2495394,11
1658576752.69121,349104.2495454,16
1658576752.69121,349104.2495587,23
1658576752.69121,349104.2495722,32
1658576752.69121,349104.2495849,42
1658576752.69121,349104.2495982,44
1658576752.69121,349104.2496115,49
1658576752.69121,349104.2496242,49
1658576752.69121,349104.2496331,47
1658576752.69121,349104.2496402,42
1658576752.69121,349104.2496473,42
1658576752.69121,349104.2496548,40
1658576752.69121,349104.2496619,25
1658576752.69121,349104.2496692,23
1658576752.69121,349104.2496759,32
1658576752.69121,349104.249683,32
1658576752.69121,349104.24969,25
1658576752.69121,349104.249697,28
1658576752.69121,349104.2497044,21
1658576752.69121,349104.2497111,14
1658576752.69121,349104.2497168,21
1658576752.69121,349104.2497255,47
1658576752.69121,349104.2497322,65
1658576752.69121,349104.249739,61
1658576752.69121,349104.2497462,40
1658576752.71367,349104.2497534,30
1658576752.71367,349104.2497607,25
1658576752.71367,349104.2497691,28
1658576752.71367,349104.2497786,40
1658576752.71367,349104.2497846,40
1658576752.71367,349104.2497916,32
1658576752.71367,349104.249796,37
1658576752.71367,349104.249802,44
1658576752.71367,349104.2498051,44
1658576752.71367,349104.2498081,54
1658576752.71367,349104.2498111,89
1658576752.71367,349104.2498141,176
1658576752.71367,349104.2498172,339
1658576752.71367,349104.24982,544
1658576752.71367,349104.2498231,633
1658576752.71367,349104.249826,306
1658576752.71367,349104.2498292,-186
1658576752.71367,349104.2498342,-150
1658576752.71367,349104.2498404,143
1658576752.71367,349104.7859568,103
1658576752.71367,349104.785976,9
1658576752.71367,349104.7859912,80
1658576752.71367,349104.7860003,98
1658576752.71367,349104.7860071,65
1658576753.31625,349104.7860134,87
1658576753.31625,349104.7860204,101
1658576753.31625,349104.7860275,77
1658576753.31625,349104.7860344,73
1658576753.31625,349104.7860415,96
1658576753.31625,349104.7860485,103
1658576753.31625,349104.7860527,106
1658576753.31625,349104.7860576,115
1658576753.31625,349104.7860608,117
1658576753.31625,349104.7860644,110
1658576753.31625,349104.7860679,120
1658576753.31625,349104.7860733,141
1658576753.31625,349104.78608,153
1658576753.31625,349104.7860872,162
1658576753.31625,349104.7860942,179
1658576753.31625,349104.7860973,193
1658576753.31625,349104.7861003,207
1658576753.31625,349104.7861032,219
1658576753.31625,349104.7861062,223
1658576753.31625,349104.7861114,230
1658576753.31625,349104.7861235,233
1658576753.31625,349104.7861329,226
1658576753.31625,349104.7861405,214
1658576753.31625,349104.786145,186
1658576753.31625,349104.7861492,141
1658576753.31625,349104.7861556,96
1658576753.31625,349104.7861601,58
1658576753.31625,349104.7861646,21
1658576753.31625,349104.7861694,-7
1658576753.31625,349104.7861764,-25
1658576753.31625,349104.7861852,-40
1658576753.31625,349104.7861918,-42
1658576753.31625,349104.7862024,-37
1658576753.31625,349104.7862118,-32
1658576753.31625,349104.7862192,-30
1658576753.31625,349104.7862247,-28
1658576753.31625,349104.7862288,-16
1658576753.31625,349104.7862358,-9
1658576753.31625,349104.786239,-2
1658576753.31625,349104.7862464,14
1658576753.31625,349104.7862496,28
1658576753.31625,349104.7862579,23
1658576753.31625,349104.786262,4
1658576753.31625,349104.7862649,11
1658576753.31625,349104.7862682,30
1658576753.31625,349104.7862712,25
1658576753.31625,349104.7862741,16
1658576753.31625,349104.7862772,25
1658576753.31625,349104.7862802,35
1658576753.31625,349104.7862865,32
1658576753.32921,349104.7862896,28
1658576753.32921,349104.7862926,32
1658576753.32921,349104.7862955,32
1658576753.32921,349104.7862984,30
1658576753.32921,349104.7863013,30
1658576753.32921,349104.7863043,35
1658576753.32921,349104.7863073,32
1658576753.32921,349104.7863102,23
1658576753.32921,349104.7863132,16
1658576753.32921,349104.7863161,11
1658576753.32921,349104.786319,9
1658576753.32921,349104.7863222,11
1658576753.32921,349104.7863251,28
1658576753.32921,349104.7863281,54
1658576753.32921,349104.7863311,65
1658576753.32921,349104.7863341,47
1658576753.32921,349104.7863378,21
1658576753.32921,349104.7863444,14
1658576753.32921,349105.4199592,18
1658576753.32921,349105.4199792,25
1658576753.32921,349105.4199879,28
1658576753.32921,349105.4199948,23
1658576753.32921,349105.4200009,14
1658576753.32921,349105.4200059,11
1658576753.90642,349105.4200109,21
1658576753.90642,349105.420016,28
1658576753.90642,349105.4200224,35
1658576753.90642,349105.4200275,68
1658576753.90642,349105.4200325,169
1658576753.90642,349105.4200375,379
1658576753.90642,349105.4200427,607
1658576753.90642,349105.4200475,508
1658576753.90642,349105.4200526,-32
1658576753.90642,349105.4200575,-322
1658576753.90642,349105.4200625,-32
1658576753.90642,349105.4200674,108
1658576753.90642,349105.4200724,-37
1658576753.90642,349105.4200773,-18
1658576753.90642,349105.420082,54
1658576753.90642,349105.4200862,21
1658576753.90642,349105.4200903,16
1658576753.90642,349105.4200944,51
1658576753.90642,349105.4200984,49
1658576753.90642,349105.4201027,54
1658576753.90642,349105.4201067,75
1658576753.90642,349105.4201109,73
1658576753.90642,349105.4201152,65
1658576753.90642,349105.4201195,75
1658576753.90642,349105.4201237,82
1658576753.90642,349105.4201286,89
1658576753.90642,349105.4201332,108
1658576753.90642,349105.4201377,120
1658576753.90642,349105.4201431,131
1658576753.90642,349105.4201481,155
1658576753.90642,349105.4201525,174
1658576753.90642,349105.420157,183
1658576753.90642,349105.4201614,200
1658576753.90642,349105.4201657,219
1658576753.90642,349105.4201696,228
1658576753.90642,349105.4201737,230
1658576753.90642,349105.4201777,235
1658576753.90642,349105.420182,237
1658576753.90642,349105.4201864,228
1658576753.90642,349105.4201905,204
1658576753.90642,349105.4201946,171
1658576753.90642,349105.4201984,129
1658576753.90642,349105.4202023,77
1658576753.90642,349105.4202066,37
1658576753.90642,349105.4202109,9
1658576753.90642,349105.4202155,-14
1658576753.90642,349105.4202203,-25
1658576753.90642,349105.4202253,-30
1658576753.90642,349105.4202301,-32
1658576753.90642,349105.4202348,-32
1658576753.91939,349105.42024,-28
1658576753.91939,349105.4202446,-25
1658576753.91939,349105.4202485,-23
1658576753.91939,349105.4202526,-14
1658576753.91939,349105.4202569,-4
1658576753.91939,349105.4202614,-4
1658576753.91939,349105.4202653,-4
1658576753.91939,349105.4202693,0
1658576753.91939,349105.4202743,9
1658576753.91939,349105.4202806,18
1658576753.91939,349105.4202863,23
1658576753.91939,349105.4202913,23
1658576753.91939,349105.4202977,23
1658576753.91939,349105.4203044,21
1658576753.91939,349105.4203116,25
1658576753.91939,349105.4203351,28
1658576753.91939,349105.4203422,25
1658576753.91939,349106.006693,21
1658576753.91939,349106.0067141,14
1658576753.91939,349106.0067203,9
1658576753.91939,349106.0067244,14
1658576753.91939,349106.0067283,16
1658576753.91939,349106.0067325,16
1658576753.91939,349106.0067371,18
1658576754.44705,349106.0067416,11
1658576754.44705,349106.006746,2
1658576754.44705,349106.0067506,-2
1658576754.44705,349106.0067706,-4
1658576754.44705,349106.006781,-7
1658576754.44705,349106.0067861,2
1658576754.44705,349106.0067906,11
1658576754.44705,349106.006795,16
1658576754.44705,349106.0067991,11
1658576754.44705,349106.0068037,-2
1658576754.44705,349106.0068086,-14
1658576754.44705,349106.0068133,-18
1658576754.44705,349106.0068177,-35
1658576754.44705,349106.0068219,-54
1658576754.44705,349106.0068262,-49
1658576754.44705,349106.0068305,-32
1658576754.44705,349106.006835,-28
1658576754.44705,349106.0068395,-28
1658576754.44705,349106.0068443,-23
1658576754.44705,349106.0068492,-18
1658576754.44705,349106.0068541,2
1658576754.44705,349106.0068587,77
1658576754.44705,349106.006863,237
1658576754.44705,349106.0068683,471
1658576754.44705,349106.0068746,607
1658576754.44705,349106.0068805,296
1658576754.44705,349106.0068864,-252
1658576754.44705,349106.0068924,-254
1658576754.44705,349106.0068989,73
1658576754.44705,349106.0069049,49
1658576754.44705,349106.0069108,-61
1658576754.44705,349106.0069167,9
1658576754.44705,349106.0069226,28
1658576754.44705,349106.0069286,-9
1658576754.44705,349106.0069346,14
1658576754.44705,349106.0069407,35
1658576754.44705,349106.0069466,30
1658576754.44705,349106.0069524,40
1658576754.44705,349106.0069582,51
1658576754.44705,349106.006964,56
1658576754.44705,349106.0069698,65
1658576754.44705,349106.0069756,77
1658576754.44705,349106.0069814,87
1658576754.44705,349106.0069873,96
1658576754.44705,349106.0069934,103
1658576754.44705,349106.0069993,117
1658576754.44705,349106.0070052,136
1658576754.44705,349106.007011,155
1658576754.44705,349106.0070168,164
1658576754.44705,349106.0070226,179
1658576754.47996,349106.0070285,193
1658576754.47996,349106.0070345,200
1658576754.47996,349106.0070414,204
1658576754.47996,349106.0070466,209
1658576754.47996,349106.0070522,212
1658576754.47996,349106.0070575,207
1658576754.47996,349106.007061,195
1658576754.47996,349106.0070646,171
1658576754.47996,349106.0070678,127
1658576754.47996,349106.0070712,82
1658576754.47996,349106.0070756,44
1658576754.47996,349106.0070794,11
1658576754.47996,349106.0070849,-11
1658576754.47996,349106.0070907,-25
1658576754.47996,349106.0071446,-35
1658576754.47996,349106.0071513,-35
1658576754.47996,349106.5408855,-35
1658576754.47996,349106.5409058,-32
1658576754.47996,349106.5409198,-23
1658576754.47996,349106.5409329,-21
1658576754.47996,349106.5409461,-18
1658576754.47996,349106.5409595,-9
1658576754.47996,349106.5409727,-2
1658576754.47996,349106.540986,-2
1658576754.97771,349106.5409986,7
1658576754.97771,349106.5410068,14
1658576754.97771,349106.541014,2
1658576754.97771,349106.5410202,-14
1658576754.97771,349106.5410289,-16
1658576754.97771,349106.5410381,-7
1658576754.97771,349106.5410511,-2
1658576754.97771,349106.5410642,0
1658576754.97771,349106.5410774,-4
1658576754.97771,349106.5410907,-16
1658576754.97771,349106.541104,-18
1658576754.97771,349106.5411183,-11
1658576754.97771,349106.5411323,-9
1658576754.97771,349106.5411456,-14
1658576754.97771,349106.5411598,-9
1658576754.97771,349106.5411729,-4
1658576754.97771,349106.5411861,-11
1658576754.97771,349106.5412004,-14
1658576754.97771,349106.5412136,-9
1658576754.97771,349106.5412267,-4
1658576754.97771,349106.5412406,-7
1658576754.97771,349106.5412537,-9
1658576754.97771,349106.541267,-11
1658576754.97771,349106.541281,-14
1658576754.97771,349106.5412943,-16
1658576754.97771,349106.5413072,-7
1658576754.97771,349106.5413213,21
1658576754.97771,349106.5413345,44
1658576754.97771,349106.5413481,35
1658576754.97771,349106.5413624,11
1658576754.97771,349106.5413756,4
1658576754.97771,349106.5413889,9
1658576754.97771,349106.5414027,11
1658576754.97771,349106.5414158,14
1658576754.97771,349106.5414289,14
1658576754.97771,349106.541443,16
1658576754.97771,349106.5414562,28
1658576754.97771,349106.5414692,35
1658576754.97771,349106.5414834,37
1658576754.97771,349106.5415251,44
1658576754.97771,349106.5415398,68
1658576754.97771,349106.5415441,141
1658576754.97771,349106.5415475,315
1658576754.97771,349106.5415512,570
1658576754.97771,349106.5415545,657
1658576754.97771,349106.5415581,240
1658576754.97771,349106.5415617,-266
1658576754.97771,349106.5415651,-139
1658576754.97771,349106.5415693,153
1658576754.97771,349106.5415735,61
1658576755.00164,349106.5415784,-11
1658576755.00164,349106.5415836,70
1658576755.00164,349106.5415907,65
1658576755.00164,349106.5415946,32
1658576755.00164,349106.5415999,61
1658576755.00164,349106.5416042,77
1658576755.00164,349106.5416097,77
1658576755.00164,349106.5416134,91
1658576755.00164,349106.5416171,103
1658576755.00164,349106.5416219,101
1658576755.00164,349106.5416258,108
1658576755.00164,349106.5416311,122
1658576755.00164,349106.5416349,131
1658576755.00164,349106.54164,139
1658576755.00164,349106.5416438,148
1658576755.00164,349107.0771777,160
1658576755.00164,349107.0771957,171
1658576755.00164,349107.0772004,186
1658576755.00164,349107.0772046,193
1658576755.00164,349107.0772085,195
1658576755.00164,349107.0772121,202
1658576755.00164,349107.0772157,212
1658576755.00164,349107.0772192,204
1658576755.00164,349107.0772229,193
1658576755.51305,349107.0772264,190
1658576755.51305,349107.0772299,193
1658576755.51305,349107.0772336,181
1658576755.51305,349107.0772373,157
1658576755.51305,349107.0772411,120
1658576755.51305,349107.0772446,75
1658576755.51305,349107.0772481,32
1658576755.51305,349107.0772527,0
1658576755.51305,349107.0772574,-21
1658576755.51305,349107.0772673,-35
1658576755.51305,349107.0772753,-56
1658576755.51305,349107.0772805,-75
1658576755.51305,349107.0772854,-80
1658576755.51305,349107.0772891,-70
1658576755.51305,349107.0772937,-65
1658576755.51305,349107.0772983,-56
1658576755.51305,349107.0773039,-42
1658576755.51305,349107.0773088,-37
1658576755.51305,349107.0773172,-35
1658576755.51305,349107.0773309,-23
1658576755.51305,349107.0773426,-16
1658576755.51305,349107.0773571,-14
1658576755.51305,349107.0773696,-9
1658576755.51305,349107.0773791,-4
1658576755.51305,349107.0773922,2
1658576755.51305,349107.0774056,9
1658576755.51305,349107.0774198,7
1658576755.51305,349107.0774275,7
1658576755.51305,349107.0774326,11
1658576755.51305,349107.0774456,18
1658576755.51305,349107.0774605,16
1658576755.51305,349107.0774696,14
1658576755.51305,349107.0774726,14
1658576755.51305,349107.0774806,14
1658576755.51305,349107.0774931,11
1658576755.51305,349107.0775072,14
1658576755.51305,349107.0775199,14
1658576755.51305,349107.0775299,9
1658576755.51305,349107.0775356,4
1658576755.51305,349107.0775457,2
1658576755.51305,349107.0775573,2
1658576755.51305,349107.0775654,2
1658576755.51305,349107.0775735,-7
1658576755.51305,349107.0775819,-7
1658576755.51305,349107.0775887,-2
1658576755.51305,349107.0775929,14
1658576755.51305,349107.0775999,42
1658576755.51305,349107.0776056,51
1658576755.51305,349107.0776138,35
1658576755.51305,349107.0776213,14
1658576755.53499,349107.0776249,9
1658576755.53499,349107.0776296,21
1658576755.53499,349107.0776349,30
1658576755.53499,349107.0776384,32
1658576755.53499,349107.077642,28
1658576755.53499,349107.0776473,32
1658576755.53499,349107.0776517,42
1658576755.53499,349107.0776552,40
1658576755.53499,349107.0776605,40
1658576755.53499,349107.0776641,58
1658576755.53499,349107.0776677,106
1658576755.53499,349107.0776713,245
1658576755.53499,349107.0776751,506
1658576755.53499,349107.0776806,709
1658576755.53499,349107.613888,447
1658576755.53499,349107.6138995,-153
1658576755.53499,349107.6139031,-256
1658576755.53499,349107.6139056,89
1658576755.53499,349107.6139078,115
1658576755.53499,349107.61391,-28
1658576755.53499,349107.6139121,28
1658576755.53499,349107.6139142,75
1658576755.53499,349107.6139163,40
1658576755.53499,349107.6139184,51
1658576756.04989,349107.6139205,68
1658576756.04989,349107.6139225,47
1658576756.04989,349107.6139245,54
1658576756.04989,349107.6139265,82
1658576756.04989,349107.6139285,91
1658576756.04989,349107.6139305,94
1658576756.04989,349107.6139324,98
1658576756.04989,349107.6139346,96
1658576756.04989,349107.6139382,108
1658576756.04989,349107.6139462,129
1658576756.04989,349107.6139511,139
1658576756.04989,349107.6139549,153
1658576756.04989,349107.6139609,174
1658576756.04989,349107.6139703,183
1658576756.04989,349107.6139742,190
1658576756.04989,349107.6139771,207
1658576756.04989,349107.6139849,226
1658576756.04989,349107.6139959,237
1658576756.04989,349107.6140044,240
1658576756.04989,349107.6140139,240
1658576756.04989,349107.614024,237
1658576756.04989,349107.6140342,228
1658576756.04989,349107.6140526,207
1658576756.04989,349107.6140747,169
1658576756.04989,349107.6140806,127
1658576756.04989,349107.6140831,84
1658576756.04989,349107.6140894,44
1658576756.04989,349107.614103,7
1658576756.04989,349107.6141116,-18
1658576756.04989,349107.6141181,-25
1658576756.04989,349107.6141279,-32
1658576756.04989,349107.6141349,-40
1658576756.04989,349107.6141438,-32
1658576756.04989,349107.6141528,-25
1658576756.04989,349107.6141617,-23
1658576756.04989,349107.6141674,-14
1658576756.04989,349107.6141766,-2
1658576756.04989,349107.6141859,2
1658576756.04989,349107.6141979,9
1658576756.04989,349107.6142104,21
1658576756.04989,349107.6142206,25
1658576756.04989,349107.6142292,32
1658576756.04989,349107.6142335,35
1658576756.04989,349107.6142396,35
1658576756.04989,349107.614244,40
1658576756.04989,349107.6142488,47
1658576756.04989,349107.6142559,44
1658576756.04989,349107.6142644,40
1658576756.04989,349107.6142708,40
1658576756.04989,349107.6142859,32
1658576756.07182,349107.6142994,28
1658576756.07182,349107.6143051,30
1658576756.07182,349107.6143083,23
1658576756.07182,349107.6143114,9
1658576756.07182,349107.6143144,11
1658576756.07182,349107.6143173,11
1658576756.07182,349107.6143203,2
1658576756.07182,349107.6143233,2
1658576756.07182,349107.6143261,4
1658576756.07182,349107.6143291,-4
1658576756.07182,349107.6143326,-16
1658576756.07182,349107.6143416,-14
1658576756.07182,349107.6143493,9
1658576756.07182,349108.1496676,30
1658576756.07182,349108.1496857,28
1658576756.07182,349108.1496898,16
1658576756.07182,349108.1496933,2
1658576756.07182,349108.1496971,-4
1658576756.07182,349108.1497006,2
1658576756.07182,349108.1497045,4
1658576756.07182,349108.1497086,-14
1658576756.07182,349108.1497135,-14
1658576756.07182,349108.1497183,0
1658576756.07182,349108.1497293,-2
1658576756.68795,349108.1497346,0
1658576756.68795,349108.1497405,14
1658576756.68795,349108.1497482,18
1658576756.68795,349108.1497569,68
1658576756.68795,349108.1497654,245
1658576756.68795,349108.1497742,530
1658576756.68795,349108.149778,678
1658576756.68795,349108.1497839,315
1658576756.68795,349108.1497906,-280
1658576756.68795,349108.1497962,-266
1658576756.68795,349108.1498056,87
1658576756.68795,349108.1498131,54
1658576756.68795,349108.1498218,-58
1658576756.68795,349108.1498325,21
1658576756.68795,349108.149843,42
1658576756.68795,349108.1498516,0
1658576756.68795,349108.1498615,23
1658576756.68795,349108.1498723,47
1658576756.68795,349108.1498796,32
1658576756.68795,349108.1498903,37
1658576756.68795,349108.1499015,58
1658576756.68795,349108.1499121,70
1658576756.68795,349108.1499185,77
1658576756.68795,349108.149926,87
1658576756.68795,349108.1499334,98
1658576756.68795,349108.1499411,110
1658576756.68795,349108.1499481,124
1658576756.68795,349108.1499608,139
1658576756.68795,349108.1499701,150
1658576756.68795,349108.1499795,164
1658576756.68795,349108.1499855,183
1658576756.68795,349108.1499916,197
1658576756.68795,349108.1500044,209
1658576756.68795,349108.1500915,221
1658576756.68795,349108.150104,233
1658576756.68795,349108.1501086,235
1658576756.68795,349108.150113,228
1658576756.68795,349108.1501191,228
1658576756.68795,349108.1501255,221
1658576756.68795,349108.1501302,195
1658576756.68795,349108.1501377,153
1658576756.68795,349108.1501462,101
1658576756.68795,349108.1501534,54
1658576756.68795,349108.1501629,21
1658576756.68795,349108.1501712,-16
1658576756.68795,349108.1501793,-44
1658576756.68795,349108.1501857,-56
1658576756.68795,349108.150194,-63
1658576756.68795,349108.150209,-61
1658576756.68795,349108.150215,-58
1658576756.69892,349108.1502192,-63
1658576756.69892,349108.1502259,-58
1658576756.69892,349108.1502313,-42
1658576756.69892,349108.1502344,-37
1658576756.69892,349108.1502375,-32
1658576756.69892,349108.150241,-21
1658576756.69892,349108.1502446,-9
1658576756.69892,349108.1502482,0
1658576756.69892,349108.1502536,7
1658576756.69892,349108.1502569,14
1658576756.69892,349108.1502614,18
1658576756.69892,349108.1502686,23
1658576756.69892,349108.7840175,28
1658576756.69892,349108.7840388,28
1658576756.69892,349108.7840449,25
1658576756.69892,349108.7840497,11
1658576756.69892,349108.7840534,-2
1658576756.69892,349108.784059,-7
1658576756.69892,349108.7840644,-4
1658576756.69892,349108.7840679,-4
1658576756.69892,349108.7840726,-4
1658576756.69892,349108.7840789,-7
1658576756.69892,349108.7840826,-23
1658576756.69892,349108.7840862,-42
1658576757.23385,349108.7840918,-42
1658576757.23385,349108.7840961,-37
1658576757.23385,349108.7840995,-37
1658576757.23385,349108.7841025,-23
1658576757.23385,349108.7841056,2
1658576757.23385,349108.7841088,16
1658576757.23385,349108.784112,2
1658576757.23385,349108.7841155,-16
1658576757.23385,349108.7841189,-23
1658576757.23385,349108.7841223,-25
1658576757.23385,349108.7841258,-21
1658576757.23385,349108.7841294,-14
1658576757.23385,349108.7841336,-7
1658576757.23385,349108.784137,0
1658576757.23385,349108.7841403,7
1658576757.23385,349108.7841437,11
1658576757.23385,349108.7841473,11
1658576757.23385,349108.7841509,21
1658576757.23385,349108.7841542,80
1658576757.23385,349108.7841575,228
1658576757.23385,349108.7841607,466
1658576757.23385,349108.7841639,673
1658576757.23385,349108.7841673,497
1658576757.23385,349108.7841705,-77
1658576757.23385,349108.7841739,-282
1658576757.23385,349108.7841768,42
1658576757.23385,349108.7841802,124
1658576757.23385,349108.7841838,-23
1658576757.23385,349108.7841874,18
1658576757.23385,349108.784191,75
1658576757.23385,349108.7841946,32
1658576757.23385,349108.7841984,35
1658576757.23385,349108.7842037,70
1658576757.23385,349108.7842098,68
1658576757.23385,349108.7842137,65
1658576757.23385,349108.7842193,80
1658576757.23385,349108.7842231,80
1658576757.23385,349108.7842283,84
1658576757.23385,349108.7842317,96
1658576757.23385,349108.7842365,98
1658576757.23385,349108.7842399,101
1658576757.23385,349108.7842448,115
1658576757.23385,349108.7842481,131
1658576757.23385,349108.7842517,146
1658576757.23385,349108.7842548,160
1658576757.23385,349108.784258,176
1658576757.23385,349108.7842616,193
1658576757.23385,349108.7842649,212
1658576757.23385,349108.7842689,226
1658576757.23385,349108.7842864,235
1658576757.25679,349108.7842942,237
1658576757.25679,349108.7842987,240
1658576757.25679,349108.7843051,237
1658576757.25679,349108.7843104,228
1658576757.25679,349108.7843185,207
1658576757.25679,349108.7843264,167
1658576757.25679,349108.7843302,117
1658576757.25679,349108.7843369,70
1658576757.25679,349108.7843439,32
1658576757.25679,349108.7843508,9
1658576757.25679,349108.7843577,-4
1658576757.25679,349109.3197392,-18
1658576757.25679,349109.3197578,-28
1658576757.25679,349109.3197731,-25
1658576757.25679,349109.3197832,-18
1658576757.25679,349109.3197908,-14
1658576757.25679,349109.3198228,-9
1658576757.25679,349109.3198335,-7
1658576757.25679,349109.3198411,-4
1658576757.25679,349109.3198487,2
1658576757.25679,349109.3198759,9
1658576757.25679,349109.3198851,14
1658576757.25679,349109.3198898,11
1658576757.25679,349109.319893,16
1658576757.76593,349109.3199065,16
1658576757.76593,349109.3199148,4
1658576757.76593,349109.3199212,4
1658576757.76593,349109.3199255,18
1658576757.76593,349109.3199301,21
1658576757.76593,349109.3199346,23
1658576757.76593,349109.3199403,21
1658576757.76593,349109.3199461,4
1658576757.76593,349109.3199542,-7
1658576757.76593,349109.3199604,0
1658576757.76593,349109.3199846,7
1658576757.76593,349109.3199917,7
1658576757.76593,349109.3199961,9
1658576757.76593,349109.320005,2
1658576757.76593,349109.3200162,-7
1658576757.76593,349109.320025,-4
1658576757.76593,349109.3200306,-2
1658576757.76593,349109.320035,-7
1658576757.76593,349109.3200385,2
1658576757.76593,349109.3200517,23
1658576757.76593,349109.3200638,40
1658576757.76593,349109.3200767,37
1658576757.76593,349109.3200898,18
1658576757.76593,349109.3201036,9
1658576757.76593,349109.3201154,11
1658576757.76593,349109.3201203,16
1658576757.76593,349109.3201242,14
1658576757.76593,349109.3201293,14
1658576757.76593,349109.3201373,11
1658576757.76593,349109.3201433,11
1658576757.76593,349109.3201482,14
1658576757.76593,349109.3201534,11
1658576757.76593,349109.3201923,16
1658576757.76593,349109.3202365,47
1658576757.76593,349109.3202524,134
1658576757.76593,349109.3202602,322
1658576757.76593,349109.3202667,586
1658576757.76593,349109.3202733,697

1658576757.76593,349109.3202796,296
1658576757.76593,349109.3202858,-245
1658576757.76593,349109.3202925,-160
1658576757.76593,349109.3202988,139
1658576757.76593,349109.3203049,56
1658576757.76593,349109.3203108,-28
1658576757.76593,349109.320317,54
1658576757.76593,349109.3203234,63
1658576757.76593,349109.3203297,32
1658576757.76593,349109.320336,61
1658576757.76593,349109.3203448,77
1658576757.76593,349109.3203509,70
1658576757.78886,349109.3203572,77
1658576757.78886,349109.3203632,94
1658576757.78886,349109.320369,101
1658576757.78886,349109.3203753,108
1658576757.78886,349109.3203817,120
1658576757.78886,349109.3203893,129
1658576757.78886,349109.3203977,139
1658576757.78886,349109.3204058,155
1658576757.78886,349109.3204122,164
1658576757.78886,349109.3204282,179
1658576757.78886,349109.8554799,197
1658576757.78886,349109.8554933,214
1658576757.78886,349109.8554984,223
1658576757.78886,349109.8555016,235
1658576757.78886,349109.8555046,252
1658576757.78886,349109.8555076,259
1658576757.78886,349109.8555106,259
1658576757.78886,349109.8555135,259
1658576757.78886,349109.8555164,256
1658576757.78886,349109.8555194,245
1658576757.78886,349109.8555223,200
1658576757.78886,349109.8555251,141
1658576757.78886,349109.8555278,94
1658576757.78886,349109.8555305,54
1658576758.38732,349109.8555333,18
1658576758.38732,349109.8555362,-4
1658576758.38732,349109.8555389,-28
1658576758.38732,349109.8555416,-51
1658576758.38732,349109.8555445,-49
1658576758.38732,349109.8555472,-42
1658576758.38732,349109.8555499,-42
1658576758.38732,349109.8555525,-35
1658576758.38732,349109.8555553,-32
1658576758.38732,349109.8555585,-30
1658576758.38732,349109.8555649,-23
1658576758.38732,349109.8555727,-14
1658576758.38732,349109.8555772,-7
1658576758.38732,349109.8555825,2
1658576758.38732,349109.8555922,11
1658576758.38732,349109.8556002,11
1658576758.38732,349109.8556092,16
1658576758.38732,349109.8556155,23
1658576758.38732,349109.8556188,28
1658576758.38732,349109.855621,30
1658576758.38732,349109.8556231,25
1658576758.38732,349109.8556253,18
1658576758.38732,349109.8556275,21
1658576758.38732,349109.8556296,25
1658576758.38732,349109.8556318,28
1658576758.38732,349109.855634,30
1658576758.38732,349109.8556362,32
1658576758.38732,349109.8556383,32
1658576758.38732,349109.8556404,25
1658576758.38732,349109.8556425,23
1658576758.38732,349109.8556447,28
1658576758.38732,349109.8556468,32
1658576758.38732,349109.8556487,30
1658576758.38732,349109.8556508,28
1658576758.38732,349109.8556527,21
1658576758.38732,349109.8556547,14
1658576758.38732,349109.8556568,7
1658576758.38732,349109.8556588,14
1658576758.38732,349109.8556607,40
1658576758.38732,349109.8556627,63
1658576758.38732,349109.8556647,58
1658576758.38732,349109.8556666,37
1658576758.38732,349109.8556686,25
1658576758.38732,349109.8556706,23
1658576758.38732,349109.8556726,23
1658576758.38732,349109.8556746,30
1658576758.38732,349109.8556766,32
1658576758.38732,349109.8556785,28
1658576758.38732,349109.8556805,32
1658576758.38732,349109.8556826,40
1658576758.39629,349109.8556846,42
1658576758.39629,349109.8556867,44
1658576758.39629,349109.8556888,58
1658576758.39629,349109.8556908,124
1658576758.39629,349109.8556928,303
1658576758.39629,349109.8556947,577
1658576758.39629,349109.8556967,725
1658576758.39629,349109.8556986,384
1658576758.39629,349109.8557007,-188
1658576758.39629,349110.4900215,-202
1658576758.39629,349110.4900418,110
1658576758.39629,349110.4900478,82
1658576758.39629,349110.4900561,-21
1658576758.39629,349110.4900606,51
1658576758.39629,349110.4900648,73
1658576758.39629,349110.4900694,30
1658576758.39629,349110.4900743,32
1658576758.39629,349110.4900782,42
1658576758.39629,349110.4900842,40
1658576758.39629,349110.4900909,58
1658576758.39629,349110.4901494,75
1658576758.39629,349110.4901569,73
1658576758.39629,349110.4901607,65
1658576758.39629,349110.4901644,68
1658576758.9231,349110.4901684,77
1658576758.9231,349110.490172,89
1658576758.9231,349110.4901754,106
1658576758.9231,349110.490179,120
1658576758.9231,349110.4901825,131
1658576758.9231,349110.490186,148
1658576758.9231,349110.4901899,169
1658576758.9231,349110.4901934,188
1658576758.9231,349110.4901969,202
1658576758.9231,349110.4902004,214
1658576758.9231,349110.4902038,216
1658576758.9231,349110.4902074,212
1658576758.9231,349110.4902108,212
1658576758.9231,349110.4902142,219
1658576758.9231,349110.4902177,204
1658576758.9231,349110.4902211,174
1658576758.9231,349110.4902246,139
1658576758.9231,349110.490228,91
1658576758.9231,349110.4902315,40
1658576758.9231,349110.4902349,2
1658576758.9231,349110.4902383,-18
1658576758.9231,349110.4902419,-37
1658576758.9231,349110.4902454,-51
1658576758.9231,349110.4902489,-56
1658576758.9231,349110.4902523,-51
1658576758.9231,349110.4902571,-47
1658576758.9231,349110.4902607,-42
1658576758.9231,349110.4902641,-32
1658576758.9231,349110.4902676,-25
1658576758.9231,349110.4902731,-18
1658576758.9231,349110.4902765,-11
1658576758.9231,349110.4902801,-9
1658576758.9231,349110.4902835,-4
1658576758.9231,349110.490287,2
1658576758.9231,349110.4902905,11
1658576758.9231,349110.490294,23
1658576758.9231,349110.4902973,28
1658576758.9231,349110.4903008,28
1658576758.9231,349110.4903063,32
1658576758.9231,349110.4903099,37
1658576758.9231,349110.4903139,44
1658576758.9231,349110.4903173,51
1658576758.9231,349110.4903208,44
1658576758.9231,349110.4903243,32
1658576758.9231,349110.4903277,37
1658576758.9231,349110.4903314,47
1658576758.9231,349110.4903348,40
1658576758.9231,349110.4903382,37
1658576758.9231,349110.4903417,40
1658576758.9231,349110.4903451,37
1658576758.93208,349110.4903486,37
1658576758.93208,349110.4903521,49
1658576758.93208,349110.4903557,47
1658576758.93208,349110.4903609,32
1658576758.93208,349110.4903643,25
1658576758.93208,349110.4903676,28
1658576758.93208,349110.4903709,37
1658576758.93208,349110.4903742,61
1658576758.93208,349111.0266848,73
1658576758.93208,349111.026706,58
1658576758.93208,349111.0267181,42
1658576758.93208,349111.0267258,32
1658576758.93208,349111.0267313,32
1658576758.93208,349111.0267372,40
1658576758.93208,349111.0267422,49
1658576758.93208,349111.0267475,47
1658576758.93208,349111.0267537,49
1658576758.93208,349111.0267607,54
1658576758.93208,349111.0267682,42
1658576758.93208,349111.0267754,30
1658576758.93208,349111.0267795,47
1658576758.93208,349111.0267852,103
1658576758.93208,349111.0267893,242
1658576758.93208,349111.0267938,501
1658576759.50572,349111.0267979,739
1658576759.50572,349111.0268019,553
1658576759.50572,349111.026806,-73
1658576759.50572,349111.0268097,-318
1658576759.50572,349111.0268131,32
1658576759.50572,349111.0268166,143
1658576759.50572,349111.026821,-23
1658576759.50572,349111.0268253,-4
1658576759.50572,349111.0268286,56
1658576759.50572,349111.0268321,21
1658576759.50572,349111.0268356,23
1658576759.50572,349111.0268406,63
1658576759.50572,349111.0268457,61
1658576759.50572,349111.0268512,58
1658576759.50572,349111.0268573,75
1658576759.50572,349111.0268626,87
1658576759.50572,349111.026866,98
1658576759.50572,349111.0268695,113
1658576759.50572,349111.026873,124
1658576759.50572,349111.0268766,131
1658576759.50572,349111.026882,146
1658576759.50572,349111.0268853,160
1658576759.50572,349111.0268888,176
1658576759.50572,349111.0268925,200
1658576759.50572,349111.0268961,221
1658576759.50572,349111.0268995,228
1658576759.50572,349111.0269045,240
1658576759.50572,349111.0269082,266
1658576759.50572,349111.0269117,275
1658576759.50572,349111.0269164,280
1658576759.50572,349111.0269193,294
1658576759.50572,349111.0269221,292
1658576759.50572,349111.0269249,273
1658576759.50572,349111.0269276,247
1658576759.50572,349111.0269305,212
1658576759.50572,349111.0269333,162
1658576759.50572,349111.0269362,108
1658576759.50572,349111.026939,63
1658576759.50572,349111.0269418,28
1658576759.50572,349111.0269447,4
1658576759.50572,349111.0269476,-9
1658576759.50572,349111.0269504,-9
1658576759.50572,349111.0269531,-7
1658576759.50572,349111.0269559,-11
1658576759.50572,349111.0269588,-16
1658576759.50572,349111.0269616,-11
1658576759.50572,349111.0269645,-4
1658576759.50572,349111.0269674,2
1658576759.50572,349111.0269702,14
1658576759.50572,349111.026973,23
1658576759.52167,349111.0269759,32
1658576759.52167,349111.0269789,37
1658576759.52167,349111.0269818,42
1658576759.52167,349111.0269846,49
1658576759.52167,349111.0269875,54
1658576759.52167,349111.0269904,56
1658576759.52167,349111.0269956,58
1658576759.52167,349111.5646311,63
1658576759.52167,349111.5646426,63
1658576759.52167,349111.5646469,61
1658576759.52167,349111.5646489,58
1658576759.52167,349111.5646509,61
1658576759.52167,349111.5646529,61
1658576759.52167,349111.5646548,61
1658576759.52167,349111.5646568,54
1658576759.52167,349111.5646589,44
1658576759.52167,349111.5646608,42
1658576759.52167,349111.564663,40
1658576759.52167,349111.5646649,30
1658576759.52167,349111.564667,25
1658576759.52167,349111.5646696,14
1658576759.52167,349111.5646753,0
1658576759.52167,349111.5646861,-7
1658576759.52167,349111.5646921,-9
1658576760.05414,349111.5646947,2
1658576760.05414,349111.564697,30
1658576760.05414,349111.5646991,35
1658576760.05414,349111.5647014,7
1658576760.05414,349111.5647089,-7
1658576760.05414,349111.5647185,-4
1658576760.05414,349111.5647241,-4
1658576760.05414,349111.5647263,2
1658576760.05414,349111.5647292,4
1658576760.05414,349111.5647314,0
1658576760.05414,349111.5647378,7
1658576760.05414,349111.5647493,14
1658576760.05414,349111.5647545,11
1658576760.05414,349111.5647566,9
1658576760.05414,349111.5647586,23
1658576760.05414,349111.5647735,84
1658576760.05414,349111.5647755,202
1658576760.05414,349111.5647775,374
1658576760.05414,349111.5647794,570
1658576760.05414,349111.5647814,548
1658576760.05414,349111.5647991,58
1658576760.05414,349111.5648089,-334
1658576760.05414,349111.564818,-96
1658576760.05414,349111.5648216,117
1658576760.05414,349111.5648432,-16
1658576760.05414,349111.5648531,-32
1658576760.05414,349111.5648601,54
1658576760.05414,349111.5648693,30
1658576760.05414,349111.5648789,11
1658576760.05414,349111.564891,42
1658576760.05414,349111.5648987,51
1658576760.05414,349111.5649029,47
1658576760.05414,349111.5649092,61
1658576760.05414,349111.5649183,73
1658576760.05414,349111.5649277,73
1658576760.05414,349111.5649407,82
1658576760.05414,349111.5649511,94
1658576760.05414,349111.5649596,103
1658576760.05414,349111.5649672,117
1658576760.05414,349111.5649714,134
1658576760.05414,349111.5649754,143
1658576760.05414,349111.5649838,155
1658576760.05414,349111.5649983,181
1658576760.05414,349111.5650122,204
1658576760.05414,349111.565026,214
1658576760.05414,349111.5650396,228
1658576760.05414,349111.5650538,252
1658576760.05414,349111.5650672,263
1658576760.05414,349111.5650806,261
1658576760.05414,349111.5650944,261
1658576760.07708,349111.565117,256
1658576760.07708,349111.5651199,242
1658576760.07708,349111.5651429,209
1658576760.07708,349111.565152,153
1658576760.07708,349111.565155,89
1658576760.07708,349111.5651573,40
1658576760.07708,349112.1468348,14
1658576760.07708,349112.1468562,2
1658576760.07708,349112.1468712,-9
1658576760.07708,349112.1468852,-25
1658576760.07708,349112.1468957,-37
1658576760.07708,349112.1469046,-40
1658576760.07708,349112.1469137,-28
1658576760.07708,349112.1469236,-21
1658576760.07708,349112.1469344,-32
1658576760.07708,349112.1469543,-49
1658576760.07708,349112.1469758,-40
1658576760.07708,349112.1469857,-37
1658576760.07708,349112.1469963,-51
1658576760.07708,349112.1470053,-44
1658576760.07708,349112.1470139,-40
1658576760.07708,349112.1470164,-37
1658576760.07708,349112.1470187,-30
1658576760.07708,349112.1470208,-30
1658576760.58971,349112.1470229,-25
1658576760.58971,349112.147025,-16
1658576760.58971,349112.1470271,-11
1658576760.58971,349112.147029,-9
1658576760.58971,349112.147031,-14
1658576760.58971,349112.147033,-30
1658576760.58971,349112.147035,-37
1658576760.58971,349112.147037,-25
1658576760.58971,349112.1470389,-16
1658576760.58971,349112.147041,-14
1658576760.58971,349112.1470428,-9
1658576760.58971,349112.1470448,-7
1658576760.58971,349112.1470467,-11
1658576760.58971,349112.1470487,-25
1658576760.58971,349112.1470513,-28
1658576760.58971,349112.1470535,-28
1658576760.58971,349112.1470556,-28
1658576760.58971,349112.147061,-23
1658576760.58971,349112.1470718,-14
1658576760.58971,349112.147081,4
1658576760.58971,349112.14709,37
1658576760.58971,349112.1471012,47
1658576760.58971,349112.1471093,32
1658576760.58971,349112.1471204,14
1658576760.58971,349112.147131,0
1658576760.58971,349112.14714,0
1658576760.58971,349112.1471502,14
1658576760.58971,349112.1471608,16
1658576760.58971,349112.1471698,18
1658576760.58971,349112.1471801,28
1658576760.58971,349112.1472041,37
1658576760.58971,349112.1472124,42
1658576760.58971,349112.1472375,42
1658576760.58971,349112.1472484,44
1658576760.58971,349112.1472576,77
1658576760.58971,349112.1472644,223
1658576760.58971,349112.1472687,506
1658576760.58971,349112.1472708,770
1658576760.58971,349112.1472737,650
1658576760.58971,349112.1472758,75
1658576760.58971,349112.1472779,-240
1658576760.58971,349112.1472799,25
1658576760.58971,349112.147282,157
1658576760.58971,349112.147284,7
1658576760.58971,349112.1472861,11
1658576760.58971,349112.1472881,77
1658576760.58971,349112.1472936,51
1658576760.58971,349112.1473043,51
1658576760.58971,349112.1473259,89
1658576760.58971,349112.1473528,82
1658576760.60068,349112.1473634,68
1658576760.60068,349112.147373,82
1658576760.60068,349112.1473784,94
1658576760.60068,349112.1473825,101
1658576760.60068,349112.1473854,113
1658576760.60068,349112.6854431,120
1658576760.60068,349112.6854694,127
1658576760.60068,349112.6854872,146
1658576760.60068,349112.6854894,155
1658576760.60068,349112.6854915,164
1658576760.60068,349112.6854935,186
1658576760.60068,349112.6854955,202
1658576760.60068,349112.6854987,216
1658576760.60068,349112.6855024,230
1658576760.60068,349112.6855047,247
1658576760.60068,349112.685507,259
1658576760.60068,349112.6855091,266
1658576760.60068,349112.6855245,268
1658576760.60068,349112.6855267,256
1658576760.60068,349112.6855289,240
1658576760.60068,349112.6855311,228
1658576760.60068,349112.6855332,195
1658576760.60068,349112.6855353,146
1658576760.60068,349112.6855375,98
1658576761.20602,349112.6855396,56
1658576761.20602,349112.6855417,9
1658576761.20602,349112.6855437,-18
1658576761.20602,349112.6855456,-21
1658576761.20602,349112.6855476,-23
1658576761.20602,349112.6855496,-30
1658576761.20602,349112.6855515,-32
1658576761.20602,349112.6855534,-28
1658576761.20602,349112.6855553,-18
1658576761.20602,349112.6855573,-11
1658576761.20602,349112.6855592,-4
1658576761.20602,349112.6855611,7
1658576761.20602,349112.6855782,14
1658576761.20602,349112.6855812,18
1658576761.20602,349112.6855856,28
1658576761.20602,349112.6855898,37
1658576761.20602,349112.685594,40
1658576761.20602,349112.6855982,44
1658576761.20602,349112.685603,51
1658576761.20602,349112.6856097,49
1658576761.20602,349112.6856199,40
1658576761.20602,349112.6856265,40
1658576761.20602,349112.6856309,44
1658576761.20602,349112.6856368,44
1658576761.20602,349112.685655,42
1658576761.20602,349112.68566,35
1658576761.20602,349112.6856783,28
1658576761.20602,349112.6856834,25
1658576761.20602,349112.6856879,28
1658576761.20602,349112.6856932,28
1658576761.20602,349112.6856968,18
1658576761.20602,349112.6857021,7
1658576761.20602,349112.6857054,2
1658576761.20602,349112.6857105,7
1658576761.20602,349112.685715,14
1658576761.20602,349112.6857202,32
1658576761.20602,349112.6857241,49
1658576761.20602,349112.6857429,47
1658576761.20602,349112.6857462,23
1658576761.20602,349112.6857661,2
1658576761.20602,349112.6857696,-4
1658576761.20602,349112.6857748,7
1658576761.20602,349112.6857792,2
1658576761.20602,349112.6857846,-9
1658576761.20602,349112.6857883,-4
1658576761.20602,349112.6857935,-4
1658576761.20602,349112.6857967,-7
1658576761.20602,349112.6858003,2
1658576761.20602,349112.6858037,11
1658576761.20602,349112.6858072,23
1658576761.22896,349112.6858124,82
1658576761.22896,349112.6858171,275
1658576761.22896,349112.6858226,588
1658576761.22896,349112.685826,758
1658576761.22896,349113.2197622,407
1658576761.22896,349113.2197833,-179
1658576761.22896,349113.2197918,-214
1658576761.22896,349113.2197998,77
1658576761.22896,349113.2198077,44
1658576761.22896,349113.2198143,-58
1658576761.22896,349113.2198198,9
1658576761.22896,349113.2198249,28
1658576761.22896,349113.2198338,-7
1658576761.22896,349113.219841,9
1658576761.22896,349113.2198467,14
1658576761.22896,349113.2198509,2
1658576761.22896,349113.2198646,18
1658576761.22896,349113.219878,30
1658576761.22896,349113.2198861,25
1658576761.22896,349113.219893,40
1658576761.22896,349113.219904,56
1658576761.22896,349113.2199101,58
1658576761.22896,349113.2199153,63
1658576761.22896,349113.2199209,80
1658576761.71005,349113.2199274,98
1658576761.71005,349113.2199327,110
1658576761.71005,349113.2199394,115
1658576761.71005,349113.2199471,120
1658576761.71005,349113.2199521,139
1658576761.71005,349113.2199557,155
1658576761.71005,349113.2199595,164
1658576761.71005,349113.2199635,174
1658576761.71005,349113.219968,183
1658576761.71005,349113.219974,181
1658576761.71005,349113.2199789,174
1658576761.71005,349113.2199906,167
1658576761.71005,349113.2200025,148
1658576761.71005,349113.2200159,115
1658576761.71005,349113.2200304,73
1658576761.71005,349113.2200433,28
1658576761.71005,349113.2200541,-9
1658576761.71005,349113.2200653,-32
1658576761.71005,349113.2200765,-49
1658576761.71005,349113.2200849,-58
1658576761.71005,349113.2200959,-63
1658576761.71005,349113.2201076,-63
1658576761.71005,349113.2201158,-63
1658576761.71005,349113.2201273,-58
1658576761.71005,349113.2201381,-54
1658576761.71005,349113.2201473,-49
1658576761.71005,349113.2201601,-44
1658576761.71005,349113.22017,-32
1658576761.71005,349113.2201784,-23
1658576761.71005,349113.2201913,-21
1658576761.71005,349113.2202008,-11
1658576761.71005,349113.2202086,-4
1658576761.71005,349113.2202214,0
1658576761.71005,349113.2202315,-4
1658576761.71005,349113.2202403,-14
1658576761.71005,349113.2202515,-14
1658576761.71005,349113.2202607,-4
1658576761.71005,349113.2202716,-2
1658576761.71005,349113.2202838,-4
1658576761.71005,349113.2202925,-2
1658576761.71005,349113.220303,-2
1658576761.71005,349113.2203141,-7
1658576761.71005,349113.2203232,-7
1658576761.71005,349113.220336,-2
1658576761.71005,349113.2203454,-4
1658576761.71005,349113.2203539,-7
1658576761.71005,349113.2203669,-9
1658576761.71005,349113.2203761,-16
1658576761.71005,349113.2203847,-16
1658576761.71005,349113.2203976,4
1658576761.731,349113.2204068,35
1658576761.731,349113.2204137,44
1658576761.731,349113.2204255,30
1658576761.731,349113.8068044,7
1658576761.731,349113.8068172,-2
1658576761.731,349113.8068212,7
1658576761.731,349113.8068261,9
1658576761.731,349113.806829,9
1658576761.731,349113.8068317,16
1658576761.731,349113.8068344,11
1658576761.731,349113.8068371,-2
1658576761.731,349113.8068397,4
1658576761.731,349113.8068424,16
1658576761.731,349113.806845,23
1658576761.731,349113.8068476,84
1658576761.731,349113.8068501,261
1658576761.731,349113.8068525,539
1658576761.731,349113.8068549,718
1658576761.731,349113.8068575,402
1658576761.731,349113.8068599,-209
1658576761.731,349113.8068622,-263
1658576761.731,349113.8068649,82
1658576761.731,349113.8068675,80
1658576761.731,349113.80687,-44
1658576762.2553,349113.8068723,23
1658576762.2553,349113.8068747,58
1658576762.2553,349113.8068772,25
1658576762.2553,349113.8068796,40
1658576762.2553,349113.8068819,63
1658576762.2553,349113.8068844,63
1658576762.2553,349113.8068868,75
1658576762.2553,349113.8068892,91
1658576762.2553,349113.8068916,101
1658576762.2553,349113.8068948,113
1658576762.2553,349113.8069054,122
1658576762.2553,349113.8069119,131
1658576762.2553,349113.8069143,150
1658576762.2553,349113.8069163,162
1658576762.2553,349113.8069184,169
1658576762.2553,349113.8069204,181
1658576762.2553,349113.8069235,202
1658576762.2553,349113.8069345,221
1658576762.2553,349113.8069398,235
1658576762.2553,349113.8069421,252
1658576762.2553,349113.8069443,270
1658576762.2553,349113.8069464,280
1658576762.2553,349113.8069484,282
1658576762.2553,349113.8069505,287
1658576762.2553,349113.8069526,289
1658576762.2553,349113.8069548,270
1658576762.2553,349113.8069569,233
1658576762.2553,349113.806959,186
1658576762.2553,349113.806961,129
1658576762.2553,349113.806963,75
1658576762.2553,349113.806965,37
1658576762.2553,349113.8069671,11
1658576762.2553,349113.8069697,-11
1658576762.2553,349113.8069799,-25
1658576762.2553,349113.8069859,-28
1658576762.2553,349113.8069884,-23
1658576762.2553,349113.8069907,-21
1658576762.2553,349113.8069928,-23
1658576762.2553,349113.8069948,-21
1658576762.2553,349113.8069969,-11
1658576762.2553,349113.8070047,-2
1658576762.2553,349113.8070155,9
1658576762.2553,349113.8070189,16
1658576762.2553,349113.8070227,25
1658576762.2553,349113.8070257,32
1658576762.2553,349113.8070377,37
1658576762.2553,349113.8070443,42
1658576762.2553,349113.8070466,44
1658576762.2553,349113.8070488,42
1658576762.2553,349113.8070508,47
1658576762.26726,349113.8070557,49
1658576762.26726,349113.807067,47
1658576762.26726,349114.340705,42
1658576762.26726,349114.3407251,47
1658576762.26726,349114.3407339,47
1658576762.26726,349114.3407407,37
1658576762.26726,349114.3407454,35
1658576762.26726,349114.3407495,32
1658576762.26726,349114.3407549,28
1658576762.26726,349114.3407587,37
1658576762.26726,349114.3407645,63
1658576762.26726,349114.3407681,73
1658576762.26726,349114.3407736,49
1658576762.26726,349114.3407772,23
1658576762.26726,349114.3407826,9
1658576762.26726,349114.3407866,-2
1658576762.26726,349114.3407929,2
1658576762.26726,349114.3407967,7
1658576762.26726,349114.3408006,0
1658576762.26726,349114.340806,0
1658576762.26726,349114.3408094,4
1658576762.26726,349114.340813,11
1658576762.26726,349114.3408182,18
1658576762.26726,349114.3408214,23
1658576762.81504,349114.340825,40
1658576762.81504,349114.3408287,115
1658576762.81504,349114.3408323,322
1658576762.81504,349114.3408358,600
1658576762.81504,349114.3408393,657
1658576762.81504,349114.3408428,188
1658576762.81504,349114.3408471,-310
1658576762.81504,349114.3408509,-150
1658576762.81504,349114.3408545,115
1658576762.81504,349114.3408581,2
1658576762.81504,349114.3408619,-49
1658576762.81504,349114.3408651,42
1658576762.81504,349114.3408682,30
1658576762.81504,349114.3408723,0
1658576762.81504,349114.3408769,32
1658576762.81504,349114.3408825,49
1658576762.81504,349114.3408861,44
1658576762.81504,349114.3408897,47
1658576762.81504,349114.340893,49
1658576762.81504,349114.3408966,56
1658576762.81504,349114.3409016,75
1658576762.81504,349114.3409051,84
1658576762.81504,349114.3409088,91
1658576762.81504,349114.3409126,106
1658576762.81504,349114.3409164,124
1658576762.81504,349114.3409218,141
1658576762.81504,349114.3409264,157
1658576762.81504,349114.3409299,176
1658576762.81504,349114.3409334,197
1658576762.81504,349114.340937,216
1658576762.81504,349114.3409405,233
1658576762.81504,349114.3409441,249
1658576762.81504,349114.3409476,259
1658576762.81504,349114.3409531,263
1658576762.81504,349114.3409578,266
1658576762.81504,349114.3409624,259
1658576762.81504,349114.3409678,235
1658576762.81504,349114.3409715,190
1658576762.81504,349114.3409751,134
1658576762.81504,349114.3409806,82
1658576762.81504,349114.340985,42
1658576762.81504,349114.3409905,9
1658576762.81504,349114.3409943,-14
1658576762.81504,349114.3409985,-23
1658576762.81504,349114.341004,-23
1658576762.81504,349114.3410078,-25
1658576762.81504,349114.3410113,-28
1658576762.81504,349114.3410147,-18
1658576762.81504,349114.3410199,-14
1658576762.81504,349114.3410232,-11
1658576762.82801,349114.3410287,-2
1658576762.82801,349114.915524,4
1658576762.82801,349114.9155535,11
1658576762.82801,349114.9155636,23
1658576762.82801,349114.9155701,32
1658576762.82801,349114.9155754,35
1658576762.82801,349114.9155824,35
1658576762.82801,349114.9155895,35
1658576762.82801,349114.9155966,28
1658576762.82801,349114.9156037,30
1658576762.82801,349114.915611,37
1658576762.82801,349114.9156192,40
1658576762.82801,349114.9156265,42
1658576762.82801,349114.9156354,44
1658576762.82801,349114.9156439,32
1658576762.82801,349114.9156526,18
1658576762.82801,349114.9156602,23
1658576762.82801,349114.9156694,30
1658576762.82801,349114.9156767,23
1658576762.82801,349114.9156856,25
1658576762.82801,349114.9156936,42
1658576762.82801,349114.9156989,70
1658576762.82801,349114.9157063,84
1658576762.82801,349114.9157131,65
1658576763.4089,349114.9157178,44
1658576763.4089,349114.9157221,44
1658576763.4089,349114.9157274,42
1658576763.4089,349114.9157342,42
1658576763.4089,349114.9157413,49
1658576763.4089,349114.9157483,51
1658576763.4089,349114.9157566,54
1658576763.4089,349114.9157635,58
1658576763.4089,349114.9157686,58
1658576763.4089,349114.9157755,51
1658576763.4089,349114.9157826,47
1658576763.4089,349114.9157897,63
1658576763.4089,349114.9157968,148
1658576763.4089,349114.9158035,367
1658576763.4089,349114.9158094,666
1658576763.4089,349114.9158162,737
1658576763.4089,349114.9158233,256
1658576763.4089,349114.9158306,-266
1658576763.4089,349114.9158377,-115
1658576763.4089,349114.9158435,160
1658576763.4089,349114.9158503,54
1658576763.4089,349114.9158727,-7
1658576763.4089,349114.9158852,75
1658576763.4089,349114.9158929,65
1658576763.4089,349114.9159001,42
1658576763.4089,349114.9159068,73
1658576763.4089,349114.9159124,82
1658576763.4089,349114.9159211,70
1658576763.4089,349114.9159281,80
1658576763.4089,349114.9159353,91
1658576763.4089,349114.9159424,98
1658576763.4089,349114.9159487,108
1658576763.4089,349114.9159555,120
1658576763.4089,349114.9159626,134
1658576763.4089,349114.9159696,146
1658576763.4089,349114.9159769,157
1658576763.4089,349114.9159841,171
1658576763.4089,349114.9159897,188
1658576763.4089,349114.9159968,207
1658576763.4089,349114.9160032,226
1658576763.4089,349114.9160093,245
1658576763.4089,349114.9160163,256
1658576763.4089,349114.9160229,268
1658576763.4089,349114.9160285,280
1658576763.4089,349114.9160354,292
1658576763.4089,349114.9160424,289
1658576763.4089,349114.9160489,280
1658576763.4089,349114.916057,256
1658576763.4089,349114.9160655,221
1658576763.4089,349114.9160822,174
1658576763.43085,349115.5107601,124
1658576763.43085,349115.5107805,80
1658576763.43085,349115.5107929,44
1658576763.43085,349115.5108028,9
1658576763.43085,349115.5108107,-18
1658576763.43085,349115.5108172,-16
1658576763.43085,349115.5108229,-7
1658576763.43085,349115.5108291,-11
1658576763.43085,349115.510838,-14
1658576763.43085,349115.5108455,-21
1658576763.43085,349115.5108526,-32
1658576763.43085,349115.5108576,-25
1658576763.43085,349115.5108652,-9
1658576763.43085,349115.5108694,-7
1658576763.43085,349115.5108774,-2
1658576763.43085,349115.5108844,4
1658576763.43085,349115.5108914,4
1658576763.43085,349115.5108997,11
1658576763.43085,349115.5109082,25
1658576763.43085,349115.5109154,25
1658576763.43085,349115.5109223,28
1658576763.43085,349115.5109292,37
1658576763.43085,349115.5109377,37
1658576763.43085,349115.5109418,35
1658576764.04166,349115.5109496,37
1658576764.04166,349115.5109555,30
1658576764.04166,349115.5109608,28
1658576764.04166,349115.5109663,32
1658576764.04166,349115.5109701,30
1658576764.04166,349115.5109758,25
1658576764.04166,349115.5109822,30
1658576764.04166,349115.510989,35
1658576764.04166,349115.510996,32
1658576764.04166,349115.5110027,30
1658576764.04166,349115.5110099,40
1658576764.04166,349115.5110169,58
1658576764.04166,349115.5110238,84
1658576764.04166,349115.5110304,96
1658576764.04166,349115.5110371,84
1658576764.04166,349115.5110444,70
1658576764.04166,349115.5110536,58
1658576764.04166,349115.5110633,54
1658576764.04166,349115.5110701,61
1658576764.04166,349115.5110769,70
1658576764.04166,349115.5110841,70
1658576764.04166,349115.5110932,61
1658576764.04166,349115.5111006,65
1658576764.04166,349115.5111072,77
1658576764.04166,349115.5111123,73
1658576764.04166,349115.5111203,77
1658576764.04166,349115.5111267,113
1658576764.04166,349115.5111373,230
1658576764.04166,349115.5111416,487
1658576764.04166,349115.5111496,765
1658576764.04166,349115.5111562,704
1658576764.04166,349115.5111631,136
1658576764.04166,349115.5111703,-270
1658576764.04166,349115.5111789,-32
1658576764.04166,349115.5111859,162
1658576764.04166,349115.5111925,23
1658576764.04166,349115.5111992,2
1658576764.04166,349115.5112073,77
1658576764.04166,349115.5112172,61
1658576764.04166,349115.5112533,44
1658576764.04166,349115.511286,75
1658576764.04166,349115.5112949,87
1658576764.04166,349115.5112988,87
1658576764.04166,349115.5113023,98
1658576764.04166,349115.5113057,113
1658576764.04166,349115.5113089,117
1658576764.04166,349115.5113124,117
1658576764.04166,349115.511316,122
1658576764.04166,349115.5113199,139
1658576764.04166,349116.1456726,153
1658576764.05263,349116.1456923,160
1658576764.05263,349116.1456983,176
1658576764.05263,349116.145702,197
1658576764.05263,349116.1457057,219
1658576764.05263,349116.1457093,237
1658576764.05263,349116.1457383,254
1658576764.05263,349116.1457578,263
1658576764.05263,349116.1457646,278
1658576764.05263,349116.1457685,289
1658576764.05263,349116.1457721,294
1658576764.05263,349116.1457756,306
1658576764.05263,349116.1457791,303
1658576764.05263,349116.1457827,259
1658576764.05263,349116.1457863,207
1658576764.05263,349116.14579,164
1658576764.05263,349116.1457935,103
1658576764.05263,349116.145797,49
1658576764.05263,349116.1458007,14
1658576764.05263,349116.1458043,-25
1658576764.05263,349116.1458078,-51
1658576764.05263,349116.1458113,-54
1658576764.05263,349116.1458148,-51
1658576764.05263,349116.1458185,-42
1658576764.05263,349116.145822,-37
1658576764.48749,349116.1458256,-37
1658576764.48749,349116.1458291,-35
1658576764.48749,349116.1458508,-30
1658576764.48749,349116.1458583,-23
1658576764.48749,349116.1458628,-11
1658576764.48749,349116.1458664,-4
1658576764.48749,349116.1458703,4
1658576764.48749,349116.1458737,4
1658576764.48749,349116.1458794,2
1658576764.48749,349116.145884,11
1658576764.48749,349116.1458903,25
1658576764.48749,349116.1458992,30
1658576764.48749,349116.1459042,25
1658576764.48749,349116.145942,28
1658576764.48749,349116.1459493,30
1658576764.48749,349116.1459528,37
1658576764.48749,349116.145956,44
1658576764.48749,349116.1459594,44
1658576764.48749,349116.1459657,44
1658576764.48749,349116.145974,42
1658576764.48749,349116.1459914,40
1658576764.48749,349116.1459999,42
1658576764.48749,349116.1460044,42
1658576764.48749,349116.1460085,40
1658576764.48749,349116.1460123,54
1658576764.48749,349116.1460161,77
1658576764.48749,349116.1460197,87
1658576764.48749,349116.1460229,84
1658576764.48749,349116.1460264,70
1658576764.48749,349116.1460303,54
1658576764.48749,349116.1460347,49
1658576764.48749,349116.1460382,51
1658576764.48749,349116.1460419,51
1658576764.48749,349116.1460466,54
1658576764.48749,349116.14605,58
1658576764.48749,349116.1460534,65
1658576764.48749,349116.1460565,65
1658576764.48749,349116.1460596,61
1658576764.48749,349116.1460641,63
1658576764.48749,349116.1460673,87
1658576764.48749,349116.1460704,174
1658576764.48749,349116.1460748,381
1658576764.48749,349116.1460787,659
1658576764.48749,349116.1460836,737
1658576764.48749,349116.146088,285
1658576764.48749,349116.1460932,-254
1658576764.48749,349116.1460969,-150
1658576764.48749,349116.1461001,131
1658576764.48749,349116.5840131,40
1658576764.48749,349116.5840276,-37
1658576764.49846,349116.5840318,37
1658576764.49846,349116.5840342,35
1658576764.49846,349116.5840363,4
1658576764.49846,349116.5840384,32
1658576764.49846,349116.5840406,44
1658576764.49846,349116.5840428,37
1658576764.49846,349116.5840449,49
1658576764.49846,349116.584047,58
1658576764.49846,349116.5840498,49
1658576764.49846,349116.5840556,54
1658576764.49846,349116.584066,68
1658576764.49846,349116.5840746,73
1658576764.49846,349116.5840851,84
1658576764.49846,349116.5840925,98
1658576764.49846,349116.5841676,101
1658576764.49846,349116.5841754,108
1658576764.49846,349116.5841803,129
1658576764.49846,349116.5841863,148
1658576764.49846,349116.5841913,164
1658576764.49846,349116.5841974,190
1658576764.49846,349116.5842018,207
1658576764.49846,349116.5842079,212
1658576764.49846,349116.584213,214
1658576764.49846,349116.5842211,219
1658576765.07173,349116.5842302,216
1658576765.07173,349116.5842339,200
1658576765.07173,349116.5842367,157
1658576765.07173,349116.5842397,89
1658576765.07173,349116.5842425,32
1658576765.07173,349116.5842454,-7
1658576765.07173,349116.5842483,-37
1658576765.07173,349116.5842519,-61
1658576765.07173,349116.5842549,-73
1658576765.07173,349116.5842577,-82
1658576765.07173,349116.5842606,-87
1658576765.07173,349116.5842646,-80
1658576765.07173,349116.5842676,-73
1658576765.07173,349116.5842706,-68
1658576765.07173,349116.5842735,-61
1658576765.07173,349116.5842765,-56
1658576765.07173,349116.5842794,-54
1658576765.07173,349116.5842824,-47
1658576765.07173,349116.5842854,-40
1658576765.07173,349116.5842883,-30
1658576765.07173,349116.5842913,-21
1658576765.07173,349116.5842942,-18
1658576765.07173,349116.5842971,-14
1658576765.07173,349116.5843001,-7
1658576765.07173,349116.584303,-2
1658576765.07173,349116.5843062,0
1658576765.07173,349116.5843092,9
1658576765.07173,349116.5843121,16
1658576765.07173,349116.5843151,11
1658576765.07173,349116.584318,2
1658576765.07173,349116.5843209,2
1658576765.07173,349116.5843238,9
1658576765.07173,349116.5843268,14
1658576765.07173,349116.5843297,9
1658576765.07173,349116.5843327,4
1658576765.07173,349116.5843356,2
1658576765.07173,349116.5843386,16
1658576765.07173,349116.5843415,44
1658576765.07173,349116.5843445,68
1658576765.07173,349116.5843475,61
1658576765.07173,349116.5843504,35
1658576765.07173,349116.5843533,18
1658576765.07173,349116.5843563,23
1658576765.07173,349116.5843592,32
1658576765.07173,349116.5843621,37
1658576765.07173,349116.584365,37
1658576765.07173,349116.584368,40
1658576765.07173,349117.1705284,44
1658576765.07173,349117.170552,44
1658576765.07173,349117.1705612,40
1658576765.0827,349117.1705642,35
1658576765.0827,349117.1705664,42
1658576765.0827,349117.1705685,91
1658576765.0827,349117.1705705,235
1658576765.0827,349117.1705726,482
1658576765.0827,349117.1705746,704
1658576765.0827,349117.1705768,523
1658576765.0827,349117.1705789,-75
1658576765.0827,349117.1705811,-301
1658576765.0827,349117.1705833,0
1658576765.0827,349117.1705854,58
1658576765.0827,349117.1705875,-103
1658576765.0827,349117.1705897,-61
1658576765.0827,349117.1705918,2
1658576765.0827,349117.1705972,-40
1658576765.0827,349117.1706078,-40
1658576765.0827,349117.1706134,-7
1658576765.0827,349117.17062,-9
1658576765.0827,349117.1706244,-2
1658576765.0827,349117.1706298,18
1658576765.0827,349117.1706335,23
1658576765.0827,349117.1706385,30
1658576765.0827,349117.1706431,44
1658576765.0827,349117.1706531,56
1658576765.6056,349117.1706588,68
1658576765.6056,349117.170661,87

1658576765.6056,349117.1706632,98
1658576765.6056,349117.1706652,113
1658576765.6056,349117.1706672,134
1658576765.6056,349117.1706693,155
1658576765.6056,349117.1706712,169
1658576765.6056,349117.1706732,193
1658576765.6056,349117.1706752,216
1658576765.6056,349117.1706772,226
1658576765.6056,349117.1706791,233
1658576765.6056,349117.1706857,237
1658576765.6056,349117.1706964,235
1658576765.6056,349117.1707015,226
1658576765.6056,349117.1707064,197
1658576765.6056,349117.1707171,150
1658576765.6056,349117.1707243,94
1658576765.6056,349117.1707268,44
1658576765.6056,349117.1707291,4
1658576765.6056,349117.1707312,-25
1658576765.6056,349117.1707333,-47
1658576765.6056,349117.1707355,-56
1658576765.6056,349117.1707376,-54
1658576765.6056,349117.1707398,-54
1658576765.6056,349117.1707418,-54
1658576765.6056,349117.170744,-51
1658576765.6056,349117.1707461,-47
1658576765.6056,349117.1707482,-44
1658576765.6056,349117.1707503,-35
1658576765.6056,349117.1707524,-25
1658576765.6056,349117.1707545,-21
1658576765.6056,349117.1707568,-16
1658576765.6056,349117.1707589,-7
1658576765.6056,349117.1707612,4
1658576765.6056,349117.1707633,9
1658576765.6056,349117.1707654,14
1658576765.6056,349117.1707676,18
1658576765.6056,349117.1707697,23
1658576765.6056,349117.1707719,23
1658576765.6056,349117.170774,25
1658576765.6056,349117.1707761,28
1658576765.6056,349117.1707783,23
1658576765.6056,349117.1707804,16
1658576765.6056,349117.1707826,18
1658576765.6056,349117.1707847,23
1658576765.6056,349117.1707868,25
1658576765.6056,349117.7044519,28
1658576765.6056,349117.704471,32
1658576765.6056,349117.7044754,35
1658576765.6056,349117.70448,35
1658576765.63053,349117.704482,30
1658576765.63053,349117.7044842,25
1658576765.63053,349117.7044863,21
1658576765.63053,349117.7044884,23
1658576765.63053,349117.7044904,30
1658576765.63053,349117.7044925,40
1658576765.63053,349117.7044946,49
1658576765.63053,349117.7044968,58
1658576765.63053,349117.7044989,51
1658576765.63053,349117.704501,40
1658576765.63053,349117.7045031,28
1658576765.63053,349117.7045053,23
1658576765.63053,349117.7045075,21
1658576765.63053,349117.7045095,25
1658576765.63053,349117.7045116,32
1658576765.63053,349117.7045138,37
1658576765.63053,349117.7045159,37
1658576765.63053,349117.704518,37
1658576765.63053,349117.7045201,28
1658576765.63053,349117.7045222,16
1658576765.63053,349117.7045243,54
1658576765.63053,349117.7045266,183
1658576765.63053,349117.7045288,428
1658576765.63053,349117.704531,687
1658576766.1404,349117.7045331,633
1658576766.1404,349117.7045351,87
1658576766.1404,349117.7045372,-299
1658576766.1404,349117.7045392,-58
1658576766.1404,349117.7045411,120
1658576766.1404,349117.704543,-21
1658576766.1404,349117.704545,-30
1658576766.1404,349117.7045469,47
1658576766.1404,349117.7045491,21
1658576766.1404,349117.704551,9
1658576766.1404,349117.704553,37
1658576766.1404,349117.704555,47
1658576766.1404,349117.7045569,47
1658576766.1404,349117.7045588,56
1658576766.1404,349117.7045608,68
1658576766.1404,349117.7045627,77
1658576766.1404,349117.7045647,98
1658576766.1404,349117.7045668,110
1658576766.1404,349117.70457,122
1658576766.1404,349117.7045774,136
1658576766.1404,349117.7045887,143
1658576766.1404,349117.7045933,157
1658576766.1404,349117.7045978,181
1658576766.1404,349117.7046,200
1658576766.1404,349117.7046021,214
1658576766.1404,349117.7046041,235
1658576766.1404,349117.7046062,254
1658576766.1404,349117.7046083,263
1658576766.1404,349117.7046105,273
1658576766.1404,349117.7046129,280
1658576766.1404,349117.7046151,280
1658576766.1404,349117.7046171,273
1658576766.1404,349117.7046192,249
1658576766.1404,349117.7046213,200
1658576766.1404,349117.7046234,146
1658576766.1404,349117.7046255,101
1658576766.1404,349117.7046277,61
1658576766.1404,349117.7046298,23
1658576766.1404,349117.704632,0
1658576766.1404,349117.7046343,-14
1658576766.1404,349117.7046365,-21
1658576766.1404,349117.7046387,-21
1658576766.1404,349117.7046407,-21
1658576766.1404,349117.7046429,-18
1658576766.1404,349117.7046449,-11
1658576766.1404,349118.2410886,-11
1658576766.1404,349118.241108,-11
1658576766.1404,349118.241112,0
1658576766.1404,349118.2411165,7
1658576766.1404,349118.2411186,7
1658576766.16334,349118.2411207,9
1658576766.16334,349118.2411228,11
1658576766.16334,349118.241125,7
1658576766.16334,349118.2411287,14
1658576766.16334,349118.2411398,21
1658576766.16334,349118.2411476,28
1658576766.16334,349118.2411538,37
1658576766.16334,349118.2411646,32
1658576766.16334,349118.2411737,16
1658576766.16334,349118.2411857,16
1658576766.16334,349118.2411925,23
1658576766.16334,349118.2411948,23
1658576766.16334,349118.2411969,25
1658576766.16334,349118.2411992,30
1658576766.16334,349118.2412014,28
1658576766.16334,349118.2412036,28
1658576766.16334,349118.2412057,35
1658576766.16334,349118.2412134,40
1658576766.16334,349118.2412242,40
1658576766.16334,349118.2412276,37
1658576766.16334,349118.2412314,40
1658576766.16334,349118.2412335,37
1658576766.16334,349118.2412376,32
1658576766.16334,349118.2412482,35
1658576766.77558,349118.2412559,54
1658576766.77558,349118.2412583,73
1658576766.77558,349118.2412604,75
1658576766.77558,349118.2412625,63
1658576766.77558,349118.2412697,37
1658576766.77558,349118.2412789,25
1658576766.77558,349118.2412821,37
1658576766.77558,349118.2412894,44
1658576766.77558,349118.2412996,37
1658576766.77558,349118.2413101,37
1658576766.77558,349118.2413196,44
1658576766.77558,349118.2413302,47
1658576766.77558,349118.2413336,44
1658576766.77558,349118.2413375,49
1658576766.77558,349118.2413396,68
1658576766.77558,349118.2413444,141
1658576766.77558,349118.241356,332
1658576766.77558,349118.2413674,617
1658576766.77558,349118.2413822,770
1658576766.77558,349118.2413948,402
1658576766.77558,349118.2414089,-200
1658576766.77558,349118.241422,-200
1658576766.77558,349118.2414357,131
1658576766.77558,349118.2414487,94
1658576766.77558,349118.2414626,-21
1658576766.77558,349118.2414753,47
1658576766.77558,349118.2414884,63
1658576766.77558,349118.2415018,28
1658576766.77558,349118.2415149,51
1658576766.77558,349118.2415281,68
1658576766.77558,349118.2415415,56
1658576766.77558,349118.2415545,68
1658576766.77558,349118.2415677,89
1658576766.77558,349118.2415808,89
1658576766.77558,349118.2415939,96
1658576766.77558,349118.2416071,108
1658576766.77558,349118.2416201,115
1658576766.77558,349118.2416334,124
1658576766.77558,349118.2416465,143
1658576766.77558,349118.24166,162
1658576766.77558,349118.2416734,171
1658576766.77558,349118.2416865,179
1658576766.77558,349118.2416997,202
1658576766.77558,349118.2417138,235
1658576766.77558,349118.8752614,254
1658576766.77558,349118.8752799,263
1658576766.77558,349118.875305,275
1658576766.77558,349118.8753091,278
1658576766.77558,349118.8753246,263
1658576766.77558,349118.8753269,256
1658576766.78655,349118.875329,252
1658576766.78655,349118.8753311,214
1658576766.78655,349118.8753332,160
1658576766.78655,349118.8753353,94
1658576766.78655,349118.8753375,25
1658576766.78655,349118.8753397,-21
1658576766.78655,349118.8753418,-37
1658576766.78655,349118.8753439,-49
1658576766.78655,349118.8753461,-58
1658576766.78655,349118.8753483,-65
1658576766.78655,349118.8753505,-73
1658576766.78655,349118.8753526,-70
1658576766.78655,349118.8753548,-65
1658576766.78655,349118.875357,-61
1658576766.78655,349118.8753591,-63
1658576766.78655,349118.8753612,-58
1658576766.78655,349118.8753633,-49
1658576766.78655,349118.8753654,-40
1658576766.78655,349118.8753675,-30
1658576766.78655,349118.8753701,-18
1658576766.78655,349118.8753723,-11
1658576766.78655,349118.8753744,-4
1658576766.78655,349118.8753766,2
1658576766.78655,349118.8753787,11
1658576767.30678,349118.8753808,18
1658576767.30678,349118.8753828,23
1658576767.30678,349118.8753848,21
1658576767.30678,349118.8753867,23
1658576767.30678,349118.8753887,28
1658576767.30678,349118.8753907,25
1658576767.30678,349118.8753926,28
1658576767.30678,349118.8753949,35
1658576767.30678,349118.8754006,32
1658576767.30678,349118.8754081,30
1658576767.30678,349118.8754124,35
1658576767.30678,349118.875416,40
1658576767.30678,349118.8754216,37
1658576767.30678,349118.8754265,35
1658576767.30678,349118.8754324,32
1658576767.30678,349118.8754434,30
1658576767.30678,349118.8754479,25
1658576767.30678,349118.875451,14
1658576767.30678,349118.8754532,11
1658576767.30678,349118.8754554,28
1658576767.30678,349118.8754576,47
1658576767.30678,349118.8754601,47
1658576767.30678,349118.8754623,28
1658576767.30678,349118.8754644,9
1658576767.30678,349118.8754666,0
1658576767.30678,349118.8754687,0
1658576767.30678,349118.8754709,9
1658576767.30678,349118.8754732,11
1658576767.30678,349118.8754754,14
1658576767.30678,349118.8754775,18
1658576767.30678,349118.8754796,21
1658576767.30678,349118.8754817,21
1658576767.30678,349118.8754839,25
1658576767.30678,349118.875486,40
1658576767.30678,349118.8754882,96
1658576767.30678,349118.8754904,259
1658576767.30678,349118.8754926,534
1658576767.30678,349118.8754948,749
1658576767.30678,349118.875497,537
1658576767.30678,349118.8754992,-63
1658576767.30678,349118.8755014,-263
1658576767.30678,349118.8755035,47
1658576767.30678,349118.8755057,113
1658576767.30678,349119.4115442,-30
1658576767.30678,349119.4115693,9
1658576767.30678,349119.4115718,63
1658576767.30678,349119.4115738,30
1658576767.30678,349119.4115758,37
1658576767.30678,349119.4115777,65
1658576767.30678,349119.4115796,58
1658576767.32972,349119.4115815,58
1658576767.32972,349119.4115835,77
1658576767.32972,349119.4115854,84
1658576767.32972,349119.4115873,84
1658576767.32972,349119.4116118,91
1658576767.32972,349119.4116138,94
1658576767.32972,349119.4116169,91
1658576767.32972,349119.4116192,96
1658576767.32972,349119.4116214,115
1658576767.32972,349119.4116235,136
1658576767.32972,349119.4116257,153
1658576767.32972,349119.4116279,169
1658576767.32972,349119.41163,181
1658576767.32972,349119.4116323,188
1658576767.32972,349119.4116343,209
1658576767.32972,349119.4116366,230
1658576767.32972,349119.4116392,240
1658576767.32972,349119.4116413,247
1658576767.32972,349119.4116434,249
1658576767.32972,349119.4116459,237
1658576767.32972,349119.4116532,209
1658576767.32972,349119.4116671,162
1658576767.32972,349119.4116782,103
1658576767.32972,349119.411686,51
1658576767.94962,349119.4116946,9
1658576767.94962,349119.4117011,-25
1658576767.94962,349119.4117035,-47
1658576767.94962,349119.4117055,-51
1658576767.94962,349119.4117077,-54
1658576767.94962,349119.4117096,-56
1658576767.94962,349119.411713,-54
1658576767.94962,349119.4117208,-54
1658576767.94962,349119.4117263,-58
1658576767.94962,349119.4117304,-61
1658576767.94962,349119.411734,-51
1658576767.94962,349119.41174,-42
1658576767.94962,349119.4117457,-47
1658576767.94962,349119.4117576,-47
1658576767.94962,349119.4117674,-35
1658576767.94962,349119.4117752,-21
1658576767.94962,349119.4117795,-14
1658576767.94962,349119.4117834,-4
1658576767.94962,349119.4118024,4
1658576767.94962,349119.4118068,4
1658576767.94962,349119.4118288,7
1658576767.94962,349119.411836,16
1658576767.94962,349119.4118413,21
1658576767.94962,349119.411849,21
1658576767.94962,349119.4118542,23
1658576767.94962,349119.4118597,28
1658576767.94962,349119.4118639,25
1658576767.94962,349119.4118698,23
1658576767.94962,349119.4118895,25
1658576767.94962,349119.4118926,28
1658576767.94962,349119.4118969,28
1658576767.94962,349119.411925,28
1658576767.94962,349119.4119374,23
1658576767.94962,349119.4119493,21
1658576767.94962,349119.4119627,25
1658576767.94962,349119.4119698,23
1658576767.94962,349119.4119735,16
1658576767.94962,349119.4119793,16
1658576767.94962,349119.4119831,14
1658576767.94962,349119.4119882,9
1658576767.94962,349119.4119919,14
1658576767.94962,349119.4119972,30
1658576767.94962,349120.0449885,49
1658576767.94962,349120.0450414,63
1658576767.94962,349120.0450468,56
1658576767.94962,349120.0450508,32
1658576767.94962,349120.0450545,21
1658576767.94962,349120.0450581,21
1658576767.94962,349120.0450617,23
1658576767.94962,349120.0450653,25
1658576767.96059,349120.0450688,32
1658576767.96059,349120.0450725,28
1658576767.96059,349120.0450802,18
1658576767.96059,349120.0450872,23
1658576767.96059,349120.0450927,30
1658576767.96059,349120.0450966,30
1658576767.96059,349120.0451022,49
1658576767.96059,349120.0451059,122
1658576767.96059,349120.0451236,292
1658576767.96059,349120.0451323,567
1658576767.96059,349120.0451395,751
1658576767.96059,349120.0451499,433
1658576767.96059,349120.04516,-171
1658576767.96059,349120.045167,-228
1658576767.96059,349120.0451728,82
1658576767.96059,349120.0451819,58
1658576767.96059,349120.0451907,-56
1658576767.96059,349120.0451954,18
1658576767.96059,349120.0451989,49
1658576767.96059,349120.0452021,9
1658576767.96059,349120.0452076,28
1658576767.96059,349120.0452203,51
1658576767.96059,349120.0452255,47
1658576767.96059,349120.0452313,51
1658576768.48549,349120.0452361,54
1658576768.48549,349120.0452397,51
1658576768.48549,349120.0452434,58
1658576768.48549,349120.0452469,68
1658576768.48549,349120.0452529,75
1658576768.48549,349120.0452623,87
1658576768.48549,349120.0452673,98
1658576768.48549,349120.0452712,117
1658576768.48549,349120.045275,139
1658576768.48549,349120.0452787,155
1658576768.48549,349120.0452821,171
1658576768.48549,349120.0452857,193
1658576768.48549,349120.0452892,219
1658576768.48549,349120.0452927,237
1658576768.48549,349120.0452964,252
1658576768.48549,349120.045301,263
1658576768.48549,349120.045307,270
1658576768.48549,349120.045311,268
1658576768.48549,349120.045316,259
1658576768.48549,349120.045322,233
1658576768.48549,349120.0453257,181
1658576768.48549,349120.045329,120
1658576768.48549,349120.0453336,63
1658576768.48549,349120.0453369,18
1658576768.48549,349120.04534,-9
1658576768.48549,349120.045343,-25
1658576768.48549,349120.0453463,-35
1658576768.48549,349120.0453493,-42
1658576768.48549,349120.0453527,-44
1658576768.48549,349120.0453576,-44
1658576768.48549,349120.045363,-40
1658576768.48549,349120.0453664,-40
1658576768.48549,349120.0453696,-37
1658576768.48549,349120.0453759,-32
1658576768.48549,349120.0453848,-28
1658576768.48549,349120.0453924,-28
1658576768.48549,349120.0453998,-18
1658576768.48549,349120.0454061,-9
1658576768.48549,349120.0454148,-4
1658576768.48549,349120.0454194,2
1658576768.48549,349120.0454256,2
1658576768.48549,349120.581615,2
1658576768.48549,349120.5816356,7
1658576768.48549,349120.5816421,9
1658576768.48549,349120.5816492,11
1658576768.48549,349120.5816541,11
1658576768.48549,349120.5816607,7
1658576768.48549,349120.5816662,-4
1658576768.48549,349120.5816725,-18
1658576768.48549,349120.5816773,-16
1658576768.49746,349120.5816811,-9
1658576768.49746,349120.5816869,-9
1658576768.49746,349120.5816915,-11
1658576768.49746,349120.5816976,-16
1658576768.49746,349120.5817026,-25
1658576768.49746,349120.5817077,-30
1658576768.49746,349120.5817115,-21
1658576768.49746,349120.5817182,-14
1658576768.49746,349120.5817222,-14
1658576768.49746,349120.5817262,-14
1658576768.49746,349120.5817316,-9
1658576768.49746,349120.5817359,-4
1658576768.49746,349120.5817411,-2
1658576768.49746,349120.5817445,4
1658576768.49746,349120.5817481,2
1658576768.49746,349120.5817535,-2
1658576768.49746,349120.5817575,-11
1658576768.49746,349120.5817641,-14
1658576768.49746,349120.5817692,2
1658576768.49746,349120.5817742,32
1658576768.49746,349120.5817779,49
1658576768.49746,349120.5817877,42
1658576768.49746,349120.5817908,25
1658576768.49746,349120.5817932,14
1658576769.01926,349120.5817961,9
1658576769.01926,349120.5818044,18
1658576769.01926,349120.5818116,28
1658576769.01926,349120.5818275,30
1658576769.01926,349120.5818354,32
1658576769.01926,349120.5818448,35
1658576769.01926,349120.5818528,42
1658576769.01926,349120.5818585,47
1658576769.01926,349120.5818638,51
1658576769.01926,349120.5818701,63
1658576769.01926,349120.5818734,131
1658576769.01926,349120.5818788,308
1658576769.01926,349120.5818841,581
1658576769.01926,349120.5818871,763
1658576769.01926,349120.5818903,485
1658576769.01926,349120.5818934,-108
1658576769.01926,349120.5818985,-207
1658576769.01926,349120.5819114,103
1658576769.01926,349120.5819241,103
1658576769.01926,349120.5819366,-21
1658576769.01926,349120.5819475,49
1658576769.01926,349120.5819606,89
1658576769.01926,349120.5819703,44
1658576769.01926,349120.5819778,54
1658576769.01926,349120.5819859,68
1658576769.01926,349120.5819915,51
1658576769.01926,349120.5820006,80
1658576769.01926,349120.5820063,115
1658576769.01926,349120.5820158,108
1658576769.01926,349120.5820207,101
1658576769.01926,349120.5820284,117
1658576769.01926,349120.5820329,122
1658576769.01926,349120.5820407,129
1658576769.01926,349120.5820483,143
1658576769.01926,349120.5820542,160
1658576769.01926,349120.5820572,171
1658576769.01926,349120.5820611,186
1658576769.01926,349120.5820687,202
1658576769.01926,349120.5820753,221
1658576769.01926,349120.5820814,240
1658576769.01926,349121.1172758,256
1658576769.01926,349121.117289,273
1658576769.01926,349121.1172934,282
1658576769.01926,349121.1172959,289
1658576769.01926,349121.1172981,289
1658576769.01926,349121.1173003,282
1658576769.01926,349121.1173025,261
1658576769.01926,349121.1173048,219
1658576769.01926,349121.1173069,160
1658576769.01926,349121.1173097,94
1658576769.03023,349121.1173183,32
1658576769.03023,349121.1173249,-9
1658576769.03023,349121.1173295,-28
1658576769.03023,349121.1173335,-40
1658576769.03023,349121.1173372,-42
1658576769.03023,349121.1173409,-40
1658576769.03023,349121.1173446,-47
1658576769.03023,349121.1173482,-56
1658576769.03023,349121.117353,-61
1658576769.03023,349121.117361,-61
1658576769.03023,349121.1173734,-56
1658576769.03023,349121.1173798,-54
1658576769.03023,349121.1173834,-63
1658576769.03023,349121.1173869,-73
1658576769.03023,349121.1173917,-63
1658576769.03023,349121.1173971,-51
1658576769.03023,349121.1174074,-54
1658576769.03023,349121.1174109,-49
1658576769.03023,349121.1174138,-35
1658576769.03023,349121.1174168,-32
1658576769.03023,349121.1174197,-32
1658576769.03023,349121.1174228,-25
1658576769.03023,349121.1174257,-21
1658576769.03023,349121.1174287,-14
1658576769.55788,349121.1174316,-9
1658576769.55788,349121.1174345,-14
1658576769.55788,349121.1174373,-16
1658576769.55788,349121.1174401,-7
1658576769.55788,349121.117444,2
1658576769.55788,349121.1174534,4
1658576769.55788,349121.1174599,4
1658576769.55788,349121.117469,0
1658576769.55788,349121.1174758,2
1658576769.55788,349121.1174782,14
1658576769.55788,349121.1174804,18
1658576769.55788,349121.1174826,21
1658576769.55788,349121.1174847,30
1658576769.55788,349121.1174868,32
1658576769.55788,349121.1174928,28
1658576769.55788,349121.1175027,30
1658576769.55788,349121.1175072,35
1658576769.55788,349121.1175129,32
1658576769.55788,349121.1175184,30
1658576769.55788,349121.117526,37
1658576769.55788,349121.1175326,42
1658576769.55788,349121.1175425,44
1658576769.55788,349121.1175503,68
1658576769.55788,349121.1175632,96
1658576769.55788,349121.1175764,98
1658576769.55788,349121.1175912,84
1658576769.55788,349121.117598,70
1658576769.55788,349121.1176017,61
1658576769.55788,349121.1176052,61
1658576769.55788,349121.1176086,73
1658576769.55788,349121.1176123,75
1658576769.55788,349121.1176177,73
1658576769.55788,349121.117621,80
1658576769.55788,349121.1176244,82
1658576769.55788,349121.1176289,87
1658576769.55788,349121.1176347,96
1658576769.55788,349121.1176378,110
1658576769.55788,349121.1176407,167
1658576769.55788,349121.1176436,322
1658576769.55788,349121.6542059,591
1658576769.55788,349121.6542277,803
1658576769.55788,349121.6542411,570
1658576769.55788,349121.6542446,-35
1658576769.55788,349121.6542479,-200
1658576769.55788,349121.654251,120
1658576769.55788,349121.654254,164
1658576769.55788,349121.654257,21
1658576769.55788,349121.6542602,70
1658576769.55788,349121.6542633,117
1658576769.55788,349121.6542663,73
1658576769.5703,349121.6542697,65
1658576769.5703,349121.654273,77
1658576769.5703,349121.6542776,68
1658576769.5703,349121.6542831,68
1658576769.5703,349121.6542867,84
1658576769.5703,349121.6542927,96
1658576769.5703,349121.654297,103
1658576769.5703,349121.6543098,108
1658576769.5703,349121.6543182,106
1658576769.5703,349121.6543254,103
1658576769.5703,349121.6543326,122
1658576769.5703,349121.6543421,139
1658576769.5703,349121.6543489,150
1658576769.5703,349121.6543601,171
1658576769.5703,349121.6543694,193
1658576769.5703,349121.6543823,204
1658576769.5703,349121.6543894,221
1658576769.5703,349121.6543935,247
1658576769.5703,349121.6543975,270
1658576769.5703,349121.6544035,280
1658576769.5703,349121.6544107,292
1658576769.5703,349121.6544239,301
1658576769.5703,349121.6544326,289
1658576769.5703,349121.654444,259
1658576770.14116,349121.6544516,226
1658576770.14116,349121.6544569,164
1658576770.14116,349121.6544639,91
1658576770.14116,349121.6544704,44
1658576770.14116,349121.6544796,11
1658576770.14116,349121.654491,-23
1658576770.14116,349121.6544989,-44
1658576770.14116,349121.6545119,-47
1658576770.14116,349121.6545252,-54
1658576770.14116,349121.6545341,-65
1658576770.14116,349121.6545419,-70
1658576770.14116,349121.6545491,-65
1658576770.14116,349121.6545579,-61
1658576770.14116,349121.6545692,-58
1658576770.14116,349121.6545823,-51
1658576770.14116,349121.6545967,-47
1658576770.14116,349121.6546102,-47
1658576770.14116,349121.6546257,-40
1658576770.14116,349121.654639,-25
1658576770.14116,349121.6546533,-18
1658576770.14116,349121.6546626,-11
1658576770.14116,349121.6546721,-4
1658576770.14116,349121.6546845,2
1658576770.14116,349121.6546932,2
1658576770.14116,349121.6547021,2
1658576770.14116,349121.6547132,11
1658576770.14116,349121.6547211,16
1658576770.14116,349121.6547258,14
1658576770.14116,349121.6547293,9
1658576770.14116,349121.6547426,14
1658576770.14116,349121.6547507,18
1658576770.14116,349121.6547562,21
1658576770.14116,349121.6547693,21
1658576770.14116,349121.6547827,28
1658576770.14116,349121.6547953,30
1658576770.14116,349121.6548029,25
1658576770.14116,349121.6548156,23
1658576770.14116,349121.6548289,23
1658576770.14116,349122.2387301,25
1658576770.14116,349122.2387497,30
1658576770.14116,349122.2387565,35
1658576770.14116,349122.238764,25
1658576770.14116,349122.2387714,9
1658576770.14116,349122.2387761,9
1658576770.14116,349122.23878,18
1658576770.14116,349122.2387848,21
1658576770.14116,349122.2387893,30
1658576770.14116,349122.2387945,44
1658576770.14116,349122.2387984,49
1658576770.14116,349122.2388015,44
1658576770.15169,349122.2388047,35
1658576770.15169,349122.2388093,25
1658576770.15169,349122.2388147,18
1658576770.15169,349122.2388201,14
1658576770.15169,349122.2388239,7
1658576770.15169,349122.2388287,4
1658576770.15169,349122.2388326,11
1658576770.15169,349122.2388386,14
1658576770.15169,349122.2388434,14
1658576770.15169,349122.2388516,23
1658576770.15169,349122.2388589,35
1658576770.15169,349122.2388652,58
1658576770.15169,349122.23887,136
1658576770.15169,349122.2388765,320
1658576770.15169,349122.238883,579
1658576770.15169,349122.2388889,702
1658576770.15169,349122.2388925,334
1658576770.15169,349122.2388983,-230
1658576770.15169,349122.2389027,-200
1658576770.15169,349122.2389081,117
1658576770.15169,349122.2389143,63
1658576770.15169,349122.2389226,-40
1658576770.15169,349122.2389282,42
1658576770.15169,349122.2389367,56
1658576770.67356,349122.238944,16
1658576770.67356,349122.2389514,47
1658576770.67356,349122.2389579,73
1658576770.67356,349122.2389641,56
1658576770.67356,349122.2389732,63
1658576770.67356,349122.2389761,82
1658576770.67356,349122.2389782,82
1658576770.67356,349122.2389802,89
1658576770.67356,349122.2389823,103
1658576770.67356,349122.2389844,115
1658576770.67356,349122.2389865,122
1658576770.67356,349122.2389887,131
1658576770.67356,349122.2389908,146
1658576770.67356,349122.2389929,164
1658576770.67356,349122.2389951,179
1658576770.67356,349122.2389973,193
1658576770.67356,349122.2389994,216
1658576770.67356,349122.2390015,233
1658576770.67356,349122.2390036,245
1658576770.67356,349122.2390058,261
1658576770.67356,349122.2390079,275
1658576770.67356,349122.23901,278
1658576770.67356,349122.2390122,273
1658576770.67356,349122.2390144,261
1658576770.67356,349122.2390166,233
1658576770.67356,349122.2390188,188
1658576770.67356,349122.2390209,124
1658576770.67356,349122.239023,58
1658576770.67356,349122.2390251,11
1658576770.67356,349122.2390273,-23
1658576770.67356,349122.2390295,-56
1658576770.67356,349122.2390316,-75
1658576770.67356,349122.2390338,-84
1658576770.67356,349122.2390359,-94
1658576770.67356,349122.239038,-98
1658576770.67356,349122.2390401,-91
1658576770.67356,349122.2390423,-87
1658576770.67356,349122.7752795,-89
1658576770.67356,349122.7752998,-87
1658576770.67356,349122.7753109,-77
1658576770.67356,349122.7753242,-70
1658576770.67356,349122.7753375,-63
1658576770.67356,349122.7753508,-51
1658576770.67356,349122.7753587,-44
1658576770.67356,349122.7753621,-40
1658576770.67356,349122.7753681,-32
1658576770.67356,349122.7753815,-25
1658576770.67356,349122.7753937,-18
1658576770.67356,349122.7754017,-11
1658576770.67356,349122.775405,-11
1658576770.68453,349122.7754181,-30
1658576770.68453,349122.7754301,-28
1658576770.68453,349122.7754391,-9
1658576770.68453,349122.7754482,-11
1658576770.68453,349122.7754558,-11
1658576770.68453,349122.7754608,-9
1658576770.68453,349122.7754646,-23
1658576770.68453,349122.7754701,-35
1658576770.68453,349122.7754826,-25
1658576770.68453,349122.7754901,-23
1658576770.68453,349122.7754942,-25
1658576770.68453,349122.7754981,-18
1658576770.68453,349122.7755019,-11
1658576770.68453,349122.7755055,-11
1658576770.68453,349122.77551,-7
1658576770.68453,349122.7755161,2
1658576770.68453,349122.7755201,4
1658576770.68453,349122.7755238,2
1658576770.68453,349122.7755284,0
1658576770.68453,349122.7755325,2
1658576770.68453,349122.7755363,11
1658576770.68453,349122.7755401,21
1658576770.68453,349122.7755438,40
1658576770.68453,349122.7755491,61
1658576771.20868,349122.7755532,61
1658576771.20868,349122.7755603,49
1658576771.20868,349122.7755671,37
1658576771.20868,349122.7755743,25
1658576771.20868,349122.7755812,21
1658576771.20868,349122.7755855,30
1658576771.20868,349122.775589,35
1658576771.20868,349122.7755926,30
1658576771.20868,349122.775596,40
1658576771.20868,349122.7756004,51
1658576771.20868,349122.7756055,49
1658576771.20868,349122.7756099,51
1658576771.20868,349122.7756171,65
1658576771.20868,349122.7756262,101
1658576771.20868,349122.7756328,197
1658576771.20868,349122.7756387,395
1658576771.20868,349122.7756418,659
1658576771.20868,349122.7756448,739
1658576771.20868,349122.7756479,306
1658576771.20868,349122.7756601,-216
1658576771.20868,349122.7756675,-120
1658576771.20868,349122.7756717,141
1658576771.20868,349122.7756755,51
1658576771.20868,349122.7756794,-9
1658576771.20868,349122.775685,63
1658576771.20868,349122.7756907,56
1658576771.20868,349122.7756946,40
1658576771.20868,349122.7756993,70
1658576771.20868,349122.7757033,77
1658576771.20868,349122.7757071,80
1658576771.20868,349122.7757112,94
1658576771.20868,349122.7757173,89
1658576771.20868,349122.775721,91
1658576771.20868,349122.775727,117
1658576771.20868,349122.7757315,136
1658576771.20868,349122.7757352,131
1658576771.20868,349123.3116366,127
1658576771.20868,349123.3116584,150
1658576771.20868,349123.311666,188
1658576771.20868,349123.3116712,190
1658576771.20868,349123.311676,193
1658576771.20868,349123.3116808,233
1658576771.20868,349123.3116855,256
1658576771.20868,349123.311691,259
1658576771.20868,349123.3116944,273
1658576771.20868,349123.3116974,289
1658576771.20868,349123.3117003,289
1658576771.20868,349123.3117033,299
1658576771.20868,349123.3117064,308
1658576771.20868,349123.3117095,280
1658576771.21865,349123.3117126,228
1658576771.21865,349123.3117158,179
1658576771.21865,349123.3117204,115
1658576771.21865,349123.3117248,54
1658576771.21865,349123.3117278,11
1658576771.21865,349123.3117309,-21
1658576771.21865,349123.3117337,-42
1658576771.21865,349123.3117366,-58
1658576771.21865,349123.3117394,-75
1658576771.21865,349123.3117422,-75
1658576771.21865,349123.3117451,-70
1658576771.21865,349123.3117479,-73
1658576771.21865,349123.3117508,-73
1658576771.21865,349123.3117537,-75
1658576771.21865,349123.3117564,-77
1658576771.21865,349123.3117592,-68
1658576771.21865,349123.311762,-63
1658576771.21865,349123.3117649,-68
1658576771.21865,349123.3117741,-56
1658576771.21865,349123.3117852,-47
1658576771.21865,349123.3117933,-44
1658576771.21865,349123.3118078,-42
1658576771.21865,349123.311822,-40
1658576771.21865,349123.3118357,-35
1658576771.79568,349123.3118486,-21
1658576771.79568,349123.3118566,-9
1658576771.79568,349123.3118616,-14
1658576771.79568,349123.3118723,-14
1658576771.79568,349123.3118782,-9
1658576771.79568,349123.3118842,-14
1658576771.79568,349123.311889,-16
1658576771.79568,349123.3118948,-11
1658576771.79568,349123.3118981,-11
1658576771.79568,349123.3119033,-16
1658576771.79568,349123.3119071,-14
1658576771.79568,349123.3119113,-11
1658576771.79568,349123.3119155,-9
1658576771.79568,349123.3119223,-7
1658576771.79568,349123.3119264,-4
1658576771.79568,349123.311932,2
1658576771.79568,349123.3119357,0
1658576771.79568,349123.311941,-18
1658576771.79568,349123.3119445,-25
1658576771.79568,349123.3119482,-14
1658576771.79568,349123.3119535,2
1658576771.79568,349123.3119574,21
1658576771.79568,349123.3119628,35
1658576771.79568,349123.3119673,32
1658576771.79568,349123.3119711,23
1658576771.79568,349123.3119751,18
1658576771.79568,349123.3119807,18
1658576771.79568,349123.3119874,23
1658576771.79568,349123.3119915,23
1658576771.79568,349123.3119951,23
1658576771.79568,349123.3119991,28
1658576771.79568,349123.3120025,40
1658576771.79568,349123.3120061,51
1658576771.79568,349123.3120099,51
1658576771.79568,349123.3120137,47
1658576771.79568,349123.8966162,63
1658576771.79568,349123.8966339,129
1658576771.79568,349123.8966396,275
1658576771.79568,349123.8966464,497
1658576771.79568,349123.8966531,659
1658576771.79568,349123.8966581,417
1658576771.79568,349123.896664,-136
1658576771.79568,349123.8966702,-247
1658576771.79568,349123.8966761,73
1658576771.79568,349123.8966801,108
1658576771.79568,349123.8966844,-23
1658576771.79568,349123.8966906,40
1658576771.79568,349123.8966955,73
1658576771.79568,349123.8967012,11
1658576771.79568,349123.8967054,18
1658576771.80764,349123.8967096,54
1658576771.80764,349123.8967137,42
1658576771.80764,349123.8967192,44
1658576771.80764,349123.8967236,65
1658576771.80764,349123.8967275,65
1658576771.80764,349123.8967332,68
1658576771.80764,349123.8967364,89
1658576771.80764,349123.8967402,101
1658576771.80764,349123.8967465,106
1658576771.80764,349123.8967503,113
1658576771.80764,349123.896755,124
1658576771.80764,349123.8967603,139
1658576771.80764,349123.8967637,153
1658576771.80764,349123.8967671,174
1658576771.80764,349123.8967731,197
1658576771.80764,349123.8967784,212
1658576771.80764,349123.8967817,221
1658576771.80764,349123.8967852,233
1658576771.80764,349123.8967903,245
1658576771.80764,349123.8967939,256
1658576771.80764,349123.8967975,259
1658576771.80764,349123.8968009,245
1658576771.80764,349123.8968044,216
1658576771.80764,349123.8968088,181
1658576772.33734,349123.8968125,139
1658576772.33734,349123.8968167,84
1658576772.33734,349123.8968207,32
1658576772.33734,349123.8968242,-2
1658576772.33734,349123.8968277,-23
1658576772.33734,349123.8968314,-44
1658576772.33734,349123.896835,-56
1658576772.33734,349123.8968384,-56
1658576772.33734,349123.8968419,-63
1658576772.33734,349123.8968465,-73
1658576772.33734,349123.89685,-65
1658576772.33734,349123.8968538,-56
1658576772.33734,349123.8968586,-56
1658576772.33734,349123.8968625,-54
1658576772.33734,349123.8968663,-40
1658576772.33734,349123.8968704,-32
1658576772.33734,349123.8968748,-28
1658576772.33734,349123.8968787,-21
1658576772.33734,349123.8968825,-18
1658576772.33734,349123.8968862,-16
1658576772.33734,349123.8968899,-4
1658576772.33734,349123.8968944,4
1658576772.33734,349123.8968981,4
1658576772.33734,349123.8969026,4
1658576772.33734,349123.8969064,9
1658576772.33734,349123.8969102,11
1658576772.33734,349123.8969139,14
1658576772.33734,349123.8969178,16
1658576772.33734,349123.8969217,11
1658576772.33734,349123.8969253,11
1658576772.33734,349123.8969295,11
1658576772.33734,349123.8969335,11
1658576772.33734,349123.8969372,11
1658576772.33734,349123.8969411,16
1658576772.33734,349124.4346017,23
1658576772.33734,349124.4346249,25
1658576772.33734,349124.4346392,28
1658576772.33734,349124.4346493,25
1658576772.33734,349124.4346587,25
1658576772.33734,349124.4347481,23
1658576772.33734,349124.4347639,23
1658576772.33734,349124.4347701,28
1658576772.33734,349124.4347751,37
1658576772.33734,349124.4347795,47
1658576772.33734,349124.4347829,54
1658576772.33734,349124.4347865,54
1658576772.33734,349124.4347915,47
1658576772.33734,349124.4347986,35
1658576772.33734,349124.434807,23
1658576772.33734,349124.4348143,14
1658576772.34829,349124.4348224,9
1658576772.34829,349124.4348298,16
1658576772.34829,349124.434835,18
1658576772.34829,349124.434839,18
1658576772.34829,349124.4348446,28
1658576772.34829,349124.4348481,37
1658576772.34829,349124.4348535,32
1658576772.34829,349124.434857,37
1658576772.34829,349124.4348629,84
1658576772.34829,349124.4348693,200
1658576772.34829,349124.4348749,398
1658576772.34829,349124.4348787,596
1658576772.34829,349124.4348839,511
1658576772.34829,349124.4348875,14
1658576772.34829,349124.4348942,-292
1658576772.34829,349124.4348998,-23
1658576772.34829,349124.4349036,143
1658576772.34829,349124.4349095,-2
1658576772.34829,349124.4349147,0
1658576772.34829,349124.4349279,77
1658576772.34829,349124.4349378,42
1658576772.34829,349124.4349463,28
1658576772.34829,349124.4349532,61
1658576772.34829,349124.4349619,56
1658576772.96135,349124.4349719,42
1658576772.96135,349124.4349783,56
1658576772.96135,349124.4349844,65
1658576772.96135,349124.4349907,65
1658576772.96135,349124.4349973,80
1658576772.96135,349124.4350048,89
1658576772.96135,349124.4350107,91
1658576772.96135,349124.4350172,98
1658576772.96135,349124.435023,113
1658576772.96135,349124.4350293,127
1658576772.96135,349124.4350355,139
1658576772.96135,349124.4350418,153
1658576772.96135,349124.4350461,167
1658576772.96135,349124.4350504,174
1658576772.96135,349124.4350557,188
1658576772.96135,349124.4350623,204
1658576772.96135,349124.4350679,214
1658576772.96135,349124.4350759,221
1658576772.96135,349124.4350847,226
1658576772.96135,349124.4350915,209
1658576772.96135,349124.4351,181
1658576772.96135,349124.4351063,157
1658576772.96135,349124.4351144,127
1658576772.96135,349124.4351212,82
1658576772.96135,349124.4351297,35
1658576772.96135,349124.4351361,2
1658576772.96135,349124.4351439,-28
1658576772.96135,349124.4351506,-51
1658576772.96135,349124.4351596,-61
1658576772.96135,349124.4351644,-65
1658576772.96135,349124.4351701,-70
1658576772.96135,349124.4351733,-70
1658576772.96135,349124.4351781,-70
1658576772.96135,349125.0663299,-70
1658576772.96135,349125.0663451,-65
1658576772.96135,349125.066348,-56
1658576772.96135,349125.0663501,-54
1658576772.96135,349125.0663522,-54
1658576772.96135,349125.0663542,-49
1658576772.96135,349125.0663563,-58

1658576772.96135,349125.0663584,-70
1658576772.96135,349125.0663604,-58
1658576772.96135,349125.0663624,-47
1658576772.96135,349125.0663644,-47
1658576772.96135,349125.0663664,-42
1658576772.96135,349125.0663684,-40
1658576772.96135,349125.0663704,-42
1658576772.96135,349125.0663724,-40
1658576772.96135,349125.0663746,-35
1658576772.96135,349125.0663806,-37
1658576772.97132,349125.066392,-32
1658576772.97132,349125.0663988,-42
1658576772.97132,349125.0664032,-61
1658576772.97132,349125.0664069,-58
1658576772.97132,349125.0664175,-49
1658576772.97132,349125.0664292,-47
1658576772.97132,349125.0664345,-42
1658576772.97132,349125.0664375,-35
1658576772.97132,349125.0664398,-35
1658576772.97132,349125.0664419,-35
1658576772.97132,349125.0664441,-32
1658576772.97132,349125.0664463,-30
1658576772.97132,349125.0664484,-28
1658576772.97132,349125.0664506,-21
1658576772.97132,349125.0664529,0
1658576772.97132,349125.066455,18
1658576772.97132,349125.0664572,18
1658576772.97132,349125.0664596,2
1658576772.97132,349125.0664618,-7
1658576772.97132,349125.0664647,-11
1658576772.97132,349125.0664674,-16
1658576772.97132,349125.0664696,-7
1658576772.97132,349125.0664717,4
1658576772.97132,349125.0664739,4
1658576773.50517,349125.066476,7
1658576773.50517,349125.0664782,16
1658576773.50517,349125.0664802,21
1658576773.50517,349125.0664831,21
1658576773.50517,349125.0664851,28
1658576773.50517,349125.066487,65
1658576773.50517,349125.066489,167
1658576773.50517,349125.0664918,372
1658576773.50517,349125.0664939,600
1658576773.50517,349125.066496,534
1658576773.50517,349125.066498,14
1658576773.50517,349125.0665,-310
1658576773.50517,349125.066502,-28
1658576773.50517,349125.0665083,148
1658576773.50517,349125.0665177,2
1658576773.50517,349125.0665286,2
1658576773.50517,349125.0665314,75
1658576773.50517,349125.0665336,42
1658576773.50517,349125.0665357,32
1658576773.50517,349125.066538,70
1658576773.50517,349125.0665401,77
1658576773.50517,349125.0665423,70
1658576773.50517,349125.0665445,80
1658576773.50517,349125.0665466,87
1658576773.50517,349125.0665488,94
1658576773.50517,349125.066551,108
1658576773.50517,349125.0665531,120
1658576773.50517,349125.0665553,129
1658576773.50517,349125.0665574,139
1658576773.50517,349125.0665596,146
1658576773.50517,349125.0665618,155
1658576773.50517,349125.0665639,169
1658576773.50517,349125.6032486,186
1658576773.50517,349125.6032618,197
1658576773.50517,349125.6032656,207
1658576773.50517,349125.603268,219
1658576773.50517,349125.6032702,230
1658576773.50517,349125.6032724,242
1658576773.50517,349125.6032745,249
1658576773.50517,349125.6032767,249
1658576773.50517,349125.6032788,249
1658576773.50517,349125.6032809,235
1658576773.50517,349125.6032831,197
1658576773.50517,349125.6032852,164
1658576773.50517,349125.6032875,131
1658576773.50517,349125.6032896,87
1658576773.50517,349125.6032918,44
1658576773.50517,349125.6032939,9
1658576773.50517,349125.6032962,-28
1658576773.50517,349125.6032984,-47
1658576773.51713,349125.603302,-44
1658576773.51713,349125.6033065,-44
1658576773.51713,349125.6033114,-47
1658576773.51713,349125.6033162,-44
1658576773.51713,349125.6033209,-54
1658576773.51713,349125.6033257,-61
1658576773.51713,349125.6033305,-49
1658576773.51713,349125.6033353,-47
1658576773.51713,349125.6033402,-61
1658576773.51713,349125.6033446,-54
1658576773.51713,349125.6033495,-49
1658576773.51713,349125.603354,-51
1658576773.51713,349125.6033586,-42
1658576773.51713,349125.6033629,-30
1658576773.51713,349125.6033671,-28
1658576773.51713,349125.6033713,-30
1658576773.51713,349125.6033755,-25
1658576773.51713,349125.6033798,-23
1658576773.51713,349125.6033842,-21
1658576773.51713,349125.6033885,-11
1658576773.51713,349125.603393,-11
1658576773.51713,349125.6033977,-14
1658576773.51713,349125.6034019,-11
1658576773.51713,349125.6034065,-7
1658576774.0838,349125.6034158,-9
1658576774.0838,349125.6034254,-4
1658576774.0838,349125.6034322,2
1658576774.0838,349125.6034347,2
1658576774.0838,349125.6034389,4
1658576774.0838,349125.6034478,7
1658576774.0838,349125.6034524,4
1658576774.0838,349125.6034578,4
1658576774.0838,349125.6034625,9
1658576774.0838,349125.6034683,25
1658576774.0838,349125.6034761,56
1658576774.0838,349125.6034879,73
1658576774.0838,349125.6034931,61
1658576774.0838,349125.6034953,44
1658576774.0838,349125.6034997,35
1658576774.0838,349125.6035067,30
1658576774.0838,349125.6035115,40
1658576774.0838,349125.6035298,49
1658576774.0838,349125.6035453,49
1658576774.0838,349125.6035498,51
1658576774.0838,349125.6035533,58
1658576774.0838,349125.6035567,58
1658576774.0838,349125.6035619,61
1658576774.0838,349125.6035653,70
1658576774.0838,349125.6035686,101
1658576774.0838,349125.603572,204
1658576774.0838,349125.6035755,431
1658576774.0838,349125.6035804,666
1658576774.0838,349125.6035838,577
1658576774.0838,349125.6035895,37
1658576774.0838,349125.6035942,-278
1658576774.0838,349126.1893499,9
1658576774.0838,349126.1893639,179
1658576774.0838,349126.1893687,28
1658576774.0838,349126.1893732,32
1658576774.0838,349126.1893759,115
1658576774.0838,349126.1893786,82
1658576774.0838,349126.1893813,65
1658576774.0838,349126.1893839,94
1658576774.0838,349126.1893866,91
1658576774.0838,349126.1893893,89
1658576774.0838,349126.1893919,110
1658576774.0838,349126.1893945,120
1658576774.0838,349126.1893971,110
1658576774.0838,349126.1893997,106
1658576774.0838,349126.1894023,115
1658576774.0838,349126.1894051,131
1658576774.0838,349126.1894078,143
1658576774.0838,349126.1894104,143
1658576774.0838,349126.1894131,141
1658576774.09477,349126.1894156,139
1658576774.09477,349126.1894182,146
1658576774.09477,349126.1894208,167
1658576774.09477,349126.1894235,183
1658576774.09477,349126.189426,188
1658576774.09477,349126.1894287,193
1658576774.09477,349126.1894313,207
1658576774.09477,349126.1894339,212
1658576774.09477,349126.1894365,209
1658576774.09477,349126.1894391,207
1658576774.09477,349126.1894415,202
1658576774.09477,349126.189444,183
1658576774.09477,349126.1894464,148
1658576774.09477,349126.1894488,101
1658576774.09477,349126.1894511,51
1658576774.09477,349126.1894535,18
1658576774.09477,349126.1894558,-4
1658576774.09477,349126.189458,-23
1658576774.09477,349126.1894601,-40
1658576774.09477,349126.1894621,-49
1658576774.09477,349126.1894642,-47
1658576774.09477,349126.1894664,-35
1658576774.09477,349126.1894685,-25
1658576774.09477,349126.1894706,-21
1658576774.57693,349126.1894726,-14
1658576774.57693,349126.1894749,-11
1658576774.57693,349126.1894772,-9
1658576774.57693,349126.1894794,0
1658576774.57693,349126.1894816,7
1658576774.57693,349126.1894837,14
1658576774.57693,349126.1894859,16
1658576774.57693,349126.1894882,9
1658576774.57693,349126.1894904,4
1658576774.57693,349126.1894926,11
1658576774.57693,349126.1894949,16
1658576774.57693,349126.1894971,14
1658576774.57693,349126.1894993,16
1658576774.57693,349126.1895015,11
1658576774.57693,349126.1895038,7
1658576774.57693,349126.1895059,9
1658576774.57693,349126.1895081,16
1658576774.57693,349126.1895102,18
1658576774.57693,349126.1895139,16
1658576774.57693,349126.1895161,18
1658576774.57693,349126.1895186,21
1658576774.57693,349126.1895209,16
1658576774.57693,349126.1895232,11
1658576774.57693,349126.1895254,18
1658576774.57693,349126.1895278,25
1658576774.57693,349126.1895301,21
1658576774.57693,349126.1895323,37
1658576774.57693,349126.1895346,68
1658576774.57693,349126.1895368,80
1658576774.57693,349126.1895391,68
1658576774.57693,349126.675322,51
1658576774.57693,349126.6753437,42
1658576774.57693,349126.6753491,42
1658576774.57693,349126.675353,51
1658576774.57693,349126.675357,58
1658576774.57693,349126.6753603,58
1658576774.57693,349126.6753645,61
1658576774.57693,349126.6753679,63
1658576774.57693,349126.6753712,63
1658576774.57693,349126.6753749,65
1658576774.57693,349126.6753801,68
1658576774.57693,349126.6753862,98
1658576774.57693,349126.6753921,202
1658576774.57693,349126.6753953,412
1658576774.57693,349126.675403,643
1658576774.57693,349126.6754108,596
1658576774.57693,349126.6754141,82
1658576774.57693,349126.6754185,-278
1658576774.57693,349126.6754225,-16
1658576774.57693,349126.6754276,183
1658576774.5899,349126.6754308,47
1658576774.5899,349126.6754338,32
1658576774.5899,349126.6754371,96
1658576774.5899,349126.6754435,51
1658576774.5899,349126.6754474,32
1658576774.5899,349126.6754539,73
1658576774.5899,349126.6754584,82
1658576774.5899,349126.6754637,75
1658576774.5899,349126.6754675,80
1658576774.5899,349126.6754712,82
1658576774.5899,349126.6754766,87
1658576774.5899,349126.6754801,101
1658576774.5899,349126.6754847,113
1658576774.5899,349126.6754905,124
1658576774.5899,349126.6754943,136
1658576774.5899,349126.6755005,146
1658576774.5899,349126.6755045,153
1658576774.5899,349126.6755114,171
1658576774.5899,349126.6755168,197
1658576774.5899,349126.6755226,212
1658576774.5899,349126.6755273,221
1658576774.5899,349126.6755335,235
1658576774.5899,349126.67554,245
1658576774.5899,349126.6755457,247
1658576775.20492,349126.6755505,249
1658576775.20492,349126.6755552,254
1658576775.20492,349126.6755598,256
1658576775.20492,349126.6755636,247
1658576775.20492,349126.6755681,226
1658576775.20492,349126.6755726,193
1658576775.20492,349126.6755771,148
1658576775.20492,349126.6755808,103
1658576775.20492,349126.6755853,65
1658576775.20492,349126.6755902,40
1658576775.20492,349126.6755951,18
1658576775.20492,349126.6755995,2
1658576775.20492,349126.6756035,0
1658576775.20492,349126.6756086,2
1658576775.20492,349126.6756176,4
1658576775.20492,349126.6756246,11
1658576775.20492,349126.6756311,18
1658576775.20492,349126.6756377,23
1658576775.20492,349126.6756443,30
1658576775.20492,349126.6756514,44
1658576775.20492,349126.675657,58
1658576775.20492,349126.6756606,63
1658576775.20492,349126.6756648,63
1658576775.20492,349126.6756703,65
1658576775.20492,349126.675674,68
1658576775.20492,349126.675678,70
1658576775.20492,349126.675687,75
1658576775.20492,349126.6756931,75
1658576775.20492,349126.6757005,68
1658576775.20492,349127.3099243,61
1658576775.20492,349127.3099383,63
1658576775.20492,349127.3099416,65
1658576775.20492,349127.309947,49
1658576775.20492,349127.3099496,40
1658576775.20492,349127.309952,42
1658576775.20492,349127.3099543,25
1658576775.20492,349127.3099565,18
1658576775.20492,349127.3099587,28
1658576775.20492,349127.3099609,25
1658576775.20492,349127.309963,23
1658576775.20492,349127.3099659,25
1658576775.20492,349127.3099752,14
1658576775.20492,349127.3099846,9
1658576775.20492,349127.3099904,40
1658576775.20492,349127.3099943,68
1658576775.20492,349127.3099985,58
1658576775.20492,349127.3100061,32
1658576775.20492,349127.3100203,21
1658576775.20492,349127.3100305,21
1658576775.20492,349127.3100398,25
1658576775.21589,349127.3100473,30
1658576775.21589,349127.3100556,32
1658576775.21589,349127.3100636,37
1658576775.21589,349127.3100681,44
1658576775.21589,349127.3100702,49
1658576775.21589,349127.3100726,49
1658576775.21589,349127.3100747,54
1658576775.21589,349127.3100768,80
1658576775.21589,349127.3100789,148
1658576775.21589,349127.310081,299
1658576775.21589,349127.3100831,546
1658576775.21589,349127.3100852,709
1658576775.21589,349127.3100872,405
1658576775.21589,349127.3100894,-162
1658576775.21589,349127.3100916,-195
1658576775.21589,349127.310096,143
1658576775.21589,349127.3100981,136
1658576775.21589,349127.3101,11
1658576775.21589,349127.3101021,73
1658576775.21589,349127.3101041,103
1658576775.21589,349127.3101062,70
1658576775.21589,349127.3101083,87
1658576775.21589,349127.3101104,110
1658576775.21589,349127.3101126,103
1658576775.70059,349127.3101147,110
1658576775.70059,349127.3101167,127
1658576775.70059,349127.3101186,127
1658576775.70059,349127.3101205,127
1658576775.70059,349127.310123,141
1658576775.70059,349127.3101251,153
1658576775.70059,349127.3101303,160
1658576775.70059,349127.3101387,164
1658576775.70059,349127.3101432,179
1658576775.70059,349127.3101541,195
1658576775.70059,349127.3101599,209
1658576775.70059,349127.3101621,223
1658576775.70059,349127.3101642,235
1658576775.70059,349127.3101664,249
1658576775.70059,349127.3101685,261
1658576775.70059,349127.3101707,266
1658576775.70059,349127.3101728,268
1658576775.70059,349127.3101749,275
1658576775.70059,349127.310177,273
1658576775.70059,349127.3101791,261
1658576775.70059,349127.3101812,245
1658576775.70059,349127.3101861,214
1658576775.70059,349127.3101882,174
1658576775.70059,349127.3101903,129
1658576775.70059,349127.3101924,70
1658576775.70059,349127.3101946,25
1658576775.70059,349127.3101966,11
1658576775.70059,349127.3101987,2
1658576775.70059,349127.7964459,-9
1658576775.70059,349127.7964682,-11
1658576775.70059,349127.7964842,-14
1658576775.70059,349127.7964983,-11
1658576775.70059,349127.7965124,-7
1658576775.70059,349127.7965261,-2
1658576775.70059,349127.79654,0
1658576775.70059,349127.7965539,9
1658576775.70059,349127.796567,16
1658576775.70059,349127.7965752,25
1658576775.70059,349127.7965822,32
1658576775.70059,349127.7965918,35
1658576775.70059,349127.7965973,37
1658576775.70059,349127.7966036,44
1658576775.70059,349127.7966095,51
1658576775.70059,349127.7966225,51
1658576775.70059,349127.7966348,44
1658576775.70059,349127.7966468,40
1658576775.70059,349127.79666,40
1658576775.70059,349127.7966669,42
1658576775.70059,349127.7966697,44
1658576775.70059,349127.7966718,37
1658576775.71156,349127.796674,23
1658576775.71156,349127.7966762,16
1658576775.71156,349127.7966783,16
1658576775.71156,349127.7966803,11
1658576775.71156,349127.7966825,7
1658576775.71156,349127.7966846,7
1658576775.71156,349127.7966875,-2
1658576775.71156,349127.7966897,-4
1658576775.71156,349127.7966918,18
1658576775.71156,349127.7966939,47
1658576775.71156,349127.796696,47
1658576775.71156,349127.7966981,28
1658576775.71156,349127.7967003,7
1658576775.71156,349127.7967024,-7
1658576775.71156,349127.7967045,-2
1658576775.71156,349127.7967066,9
1658576775.71156,349127.7967088,7
1658576775.71156,349127.7967108,4
1658576775.71156,349127.7967129,14
1658576775.71156,349127.796715,9
1658576775.71156,349127.7967171,9
1658576775.71156,349127.7967193,23
1658576775.71156,349127.7967213,37
1658576775.71156,349127.7967234,77
1658576776.28241,349127.7967254,200
1658576776.28241,349127.7967275,433
1658576776.28241,349127.7967295,673
1658576776.28241,349127.7967314,570
1658576776.28241,349127.7967333,4
1658576776.28241,349127.7967353,-296
1658576776.28241,349127.7967372,4
1658576776.28241,349127.7967392,148
