Time,TimeLsl,Value
1658577719.46899,350070.0219896,157
1658577719.46899,350070.0220115,106
1658577719.46899,350070.022017,56
1658577719.46899,350070.0220215,25
1658577719.46899,350070.0220259,4
1658577719.46899,350070.0220303,-14
1658577719.46899,350070.0220348,-18
1658577719.46899,350070.0220392,-18
1658577719.46899,350070.0220463,-21
1658577719.46899,350070.0220541,-28
1658577719.46899,350070.0220604,-28
1658577719.46899,350070.0220661,-21
1658577719.46899,350070.022072,-16
1658577719.46899,350070.0220788,-9
1658577719.46899,350070.0220865,-4
1658577719.46899,350070.0220925,-11
1658577719.46899,350070.0220969,-16
1658577719.46899,350070.0221012,-9
1658577719.46899,350070.0221085,0
1658577719.46899,350070.0221118,2
1658577719.46899,350070.0221177,11
1658577719.46899,350070.0221212,14
1658577719.46899,350070.0221271,0
1658577719.46899,350070.0221303,-4
1658577719.46899,350070.0221358,2
1658577719.46899,350070.022139,7
1658577719.46899,350070.0221444,7
1658577719.46899,350070.0221475,11
1658577719.46899,350070.0221507,11
1658577719.46899,350070.0221577,4
1658577719.46899,350070.0221613,7
1658577719.46899,350070.0221645,16
1658577719.46899,350070.0221755,16
1658577719.46899,350070.0221811,16
1658577719.46899,350070.0221897,16
1658577719.46899,350070.0221949,11
1658577719.46899,350070.0221995,9
1658577719.46899,350070.0222052,14
1658577719.46899,350070.0222105,11
1658577719.46899,350070.0222149,0
1658577719.46899,350070.0222224,-11
1658577719.46899,350070.0222268,-14
1658577719.46899,350070.0222849,-9
1658577719.46899,350070.0222947,11
1658577719.46899,350070.0222993,35
1658577719.46899,350070.022307,40
1658577719.46899,350070.0223132,28
1658577719.46899,350070.0223186,21
1658577719.46899,350070.0223251,9
1658577719.46899,350070.0223283,2
1658577719.57538,350070.0223342,11
1658577719.57538,350070.0223374,23
1658577719.57538,350070.0223432,23
1658577719.57538,350070.0223463,18
1658577719.57538,350070.0223519,21
1658577719.57538,350070.022355,28
1658577719.57538,350070.0223579,35
1658577719.57538,350070.0223609,37
1658577719.57538,350070.0223639,47
1658577719.57538,350070.0223667,98
1658577719.57538,350070.0223701,235
1658577719.57538,350070.022373,461
1658577719.57538,350070.0223759,664
1658577719.57538,350070.0223788,556
1658577719.57538,350070.0223816,49
1658577719.57538,350070.0223845,-259
1658577719.57538,350070.0223875,-11
1658577719.57538,350070.0223904,139
1658577719.57538,350070.0223933,4
1658577719.57538,350070.0223962,9
1658577719.57538,350070.0223992,84
1658577719.57538,350070.0224021,56
1658577719.57538,350070.0224051,42
1658577719.57538,350070.6015137,75
1658577719.57538,350070.6015342,77
1658577719.57538,350070.6015396,73
1658577719.57538,350070.6015438,89
1658577719.57538,350070.6015503,96
1658577719.57538,350070.6015547,91
1658577719.57538,350070.6015587,89
1658577719.57538,350070.6015626,91
1658577719.57538,350070.6015664,101
1658577719.57538,350070.6015703,113
1658577719.57538,350070.6015742,124
1658577719.57538,350070.6015781,139
1658577719.57538,350070.6015821,146
1658577719.57538,350070.6015863,150
1658577719.57538,350070.6015925,169
1658577719.57538,350070.6015965,193
1658577719.57538,350070.6016021,209
1658577719.57538,350070.6016058,221
1658577719.57538,350070.6016117,233
1658577719.57538,350070.6016174,235
1658577719.57538,350070.6016215,235
1658577719.57538,350070.6016267,237
1658577719.57538,350070.6016314,226
1658577719.57538,350070.6016368,197
1658577719.57538,350070.6016405,153
1658577719.57538,350070.6016455,103
1658577719.57538,350070.60165,58
1658577719.60889,350070.6016537,28
1658577719.60889,350070.6016596,4
1658577719.60889,350070.6016645,-9
1658577719.60889,350070.60167,-16
1658577719.60889,350070.6016737,-16
1658577719.60889,350070.6016788,-25
1658577719.60889,350070.6016824,-28
1658577719.60889,350070.6016859,-18
1658577719.60889,350070.6016894,-16
1658577719.60889,350070.6016928,-16
1658577719.60889,350070.6016962,-7
1658577719.60889,350070.6016999,2
1658577719.60889,350070.6017037,7
1658577719.60889,350070.601709,9
1658577719.60889,350070.6017144,16
1658577719.60889,350070.6017195,25
1658577719.60889,350070.6017242,32
1658577719.60889,350070.6017298,32
1658577719.60889,350070.6017335,35
1658577719.60889,350070.6017387,42
1658577719.60889,350070.6017452,42
1658577719.60889,350070.6017511,42
1658577719.60889,350070.6017559,40
1658577719.60889,350070.6017592,35
1658577719.60889,350070.6017627,37
1658577719.60889,350070.6017658,35
1658577719.60889,350070.6017691,35
1658577719.60889,350070.6017724,40
1658577719.60889,350070.601776,37
1658577719.60889,350070.6017794,32
1658577719.60889,350070.6017844,30
1658577719.60889,350070.6017877,28
1658577719.60889,350070.601791,28
1658577719.60889,350070.6017947,30
1658577719.60889,350070.6017993,35
1658577719.60889,350070.6018053,40
1658577719.60889,350070.6018093,40
1658577719.60889,350070.6018128,35
1658577719.60889,350070.6018173,30
1658577719.60889,350070.6018212,35
1658577719.60889,350070.6018252,40
1658577719.60889,350070.601829,40
1658577719.60889,350070.6018329,40
1658577719.60889,350070.6018383,44
1658577719.60889,350070.6018426,68
1658577719.60889,350070.6018488,89
1658577719.60889,350071.1866983,84
1658577719.60889,350071.1867148,73
1658577719.63183,350071.1867233,68
1658577719.63183,350071.1867287,51
1658577719.63183,350071.186733,44
1658577719.63183,350071.1867372,56
1658577719.63183,350071.186743,61
1658577719.63183,350071.1867474,58
1658577719.63183,350071.1867512,54
1658577719.63183,350071.1867545,44
1658577719.63183,350071.1867592,42
1658577719.63183,350071.1867669,49
1658577719.63183,350071.1867736,61
1658577719.63183,350071.1867794,75
1658577719.63183,350071.1867865,127
1658577719.63183,350071.1867928,263
1658577719.63183,350071.186796,501
1658577719.63183,350071.1868029,683
1658577719.63183,350071.1868071,475
1658577719.63183,350071.1868111,-61
1658577719.63183,350071.1868169,-228
1658577719.63183,350071.1868226,54
1658577719.63183,350071.1868284,113
1658577719.63183,350071.1868339,-18
1658577719.63183,350071.1868394,21
1658577719.63183,350071.1868447,68
1658577719.63183,350071.1868513,30
1658577719.63183,350071.1868552,35
1658577719.63183,350071.1868622,58
1658577719.63183,350071.1868662,58
1658577719.63183,350071.1868729,70
1658577719.63183,350071.1868773,87
1658577719.63183,350071.1868861,89
1658577719.63183,350071.1868937,89
1658577719.63183,350071.1869005,106
1658577719.63183,350071.1869037,120
1658577719.63183,350071.1869157,127
1658577719.63183,350071.1869272,139
1658577719.63183,350071.1869365,150
1658577719.63183,350071.186944,162
1658577719.63183,350071.1869843,183
1658577719.63183,350071.1869962,200
1658577719.63183,350071.1870025,214
1658577719.63183,350071.1870097,237
1658577719.63183,350071.1870168,259
1658577719.63183,350071.1870297,266
1658577719.63183,350071.1870389,270
1658577719.63183,350071.187045,275
1658577719.63183,350071.1870491,275
1658577719.63183,350071.1870546,268
1658577719.63183,350071.1870592,254
1658577719.63183,350071.1870657,228
1658577719.64181,350071.187069,183
1658577719.64181,350071.1870739,131
1658577719.64181,350071.1870795,89
1658577719.64181,350071.1870825,49
1658577719.64181,350071.1870855,16
1658577719.64181,350071.1870884,4
1658577719.64181,350071.1870912,2
1658577719.64181,350071.1870941,0
1658577719.64181,350071.187097,0
1658577719.64181,350071.1871001,0
1658577719.64181,350071.1871029,2
1658577719.64181,350071.1871057,14
1658577719.64181,350071.1871086,16
1658577719.64181,350071.1871115,21
1658577719.64181,350071.1871148,30
1658577719.64181,350071.18712,37
1658577719.64181,350071.1871239,42
1658577719.64181,350071.1871295,49
1658577719.64181,350071.1871335,51
1658577719.64181,350071.1871401,49
1658577719.64181,350071.1871446,49
1658577719.64181,350071.7226867,54
1658577719.64181,350071.722706,56
1658577719.64181,350071.7227155,49
1658577720.25362,350071.7227208,49
1658577720.25362,350071.7227253,54
1658577720.25362,350071.7227294,49
1658577720.25362,350071.7227334,40
1658577720.25362,350071.7227383,40
1658577720.25362,350071.7227432,35
1658577720.25362,350071.7227468,32
1658577720.25362,350071.72275,40
1658577720.25362,350071.7227562,35
1658577720.25362,350071.7227612,18
1658577720.25362,350071.7227679,9
1658577720.25362,350071.7227712,11
1658577720.25362,350071.7227783,16
1658577720.25362,350071.7227858,16
1658577720.25362,350071.7227954,9
1658577720.25362,350071.7228033,-4
1658577720.25362,350071.7228081,-14
1658577720.25362,350071.7228201,-7
1658577720.25362,350071.7228295,-2
1658577720.25362,350071.7228347,-4
1658577720.25362,350071.7228416,-2
1658577720.25362,350071.722845,4
1658577720.25362,350071.7228765,14
1658577720.25362,350071.7229023,32
1658577720.25362,350071.7229124,51
1658577720.25362,350071.722918,49
1658577720.25362,350071.7229223,47
1658577720.25362,350071.7229273,42
1658577720.25362,350071.7229402,21
1658577720.25362,350071.722968,16
1658577720.25362,350071.7229758,35
1658577720.25362,350071.7230062,44
1658577720.25362,350071.7230145,47
1658577720.25362,350071.723018,56
1658577720.25362,350071.7230314,56
1658577720.25362,350071.7230464,54
1658577720.25362,350071.7230538,65
1658577720.25362,350071.7231389,77
1658577720.25362,350071.7231471,103
1658577720.25362,350071.7231508,200
1658577720.25362,350071.723155,412
1658577720.25362,350071.7231675,673
1658577720.25362,350071.7231756,685
1658577720.25362,350071.7231793,183
1658577720.25362,350071.7231829,-282
1658577720.25362,350071.7231938,-75
1658577720.25362,350071.7231984,183
1658577720.25362,350071.7232024,51
1658577720.25362,350071.7232062,11
1658577720.25362,350071.7232102,106
1658577720.27556,350071.7232138,89
1658577720.27556,350071.7232175,63
1658577720.27556,350071.7232214,98
1658577720.27556,350071.7232251,108
1658577720.27556,350071.723229,96
1658577720.27556,350071.723233,117
1658577720.27556,350071.7232369,131
1658577720.27556,350071.723241,129
1658577720.27556,350071.7232444,139
1658577720.27556,350071.723248,153
1658577720.27556,350071.7232515,155
1658577720.27556,350071.7232612,167
1658577720.27556,350071.7232654,186
1658577720.27556,350071.7232691,200
1658577720.27556,350071.7232729,209
1658577720.27556,350071.7232766,223
1658577720.27556,350071.72328,235
1658577720.27556,350071.7232844,249
1658577720.27556,350071.7232881,270
1658577720.27556,350071.723292,292
1658577720.27556,350072.358905,301
1658577720.27556,350072.3589234,299
1658577720.27556,350072.3589331,301
1658577720.27556,350072.3589375,306
1658577720.74087,350072.3589451,289
1658577720.74087,350072.3589496,259
1658577720.74087,350072.3589536,212
1658577720.74087,350072.358958,155
1658577720.74087,350072.3589625,98
1658577720.74087,350072.3589667,47
1658577720.74087,350072.3589706,4
1658577720.74087,350072.3589738,-21
1658577720.74087,350072.3589769,-37
1658577720.74087,350072.3589833,-44
1658577720.74087,350072.358988,-47
1658577720.74087,350072.3589914,-61
1658577720.74087,350072.3589961,-65
1658577720.74087,350072.3590005,-56
1658577720.74087,350072.359007,-47
1658577720.74087,350072.3590135,-40
1658577720.74087,350072.3590199,-28
1658577720.74087,350072.3590263,-28
1658577720.74087,350072.3590306,-35
1658577720.74087,350072.3590343,-25
1658577720.74087,350072.3590377,-11
1658577720.74087,350072.3590413,-11
1658577720.74087,350072.3590447,-11
1658577720.74087,350072.3590483,-4
1658577720.74087,350072.3590521,-4
1658577720.74087,350072.3590573,-4
1658577720.74087,350072.3590609,2
1658577720.74087,350072.3590665,2
1658577720.74087,350072.3590738,0
1658577720.74087,350072.3590809,4
1658577720.74087,350072.3590873,4
1658577720.74087,350072.3590934,7
1658577720.74087,350072.3591002,14
1658577720.74087,350072.3591087,11
1658577720.74087,350072.3591171,4
1658577720.74087,350072.3591226,11
1658577720.74087,350072.3591286,18
1658577720.74087,350072.359133,16
1658577720.74087,350072.3591413,18
1658577720.74087,350072.3591482,25
1658577720.74087,350072.3591522,30
1658577720.74087,350072.3591586,32
1658577720.74087,350072.359163,28
1658577720.74087,350072.3591694,28
1658577720.74087,350072.3591747,35
1658577720.74087,350072.3591807,40
1658577720.74087,350072.3591858,49
1658577720.74087,350072.359193,77
1658577720.74087,350072.3591979,94
1658577720.74087,350072.3592041,84
1658577720.75279,350072.3592089,70
1658577720.75279,350072.3592147,58
1658577720.75279,350072.3592193,47
1658577720.75279,350072.3592274,56
1658577720.75279,350072.3592356,68
1658577720.75279,350072.3592412,63
1658577720.75279,350072.3592473,61
1658577720.75279,350072.3592516,68
1658577720.75279,350072.3592574,73
1658577720.75279,350072.3592616,75
1658577720.75279,350072.3592673,80
1658577720.75279,350072.3592714,89
1658577720.75279,350072.3592773,136
1658577720.75279,350072.3592819,263
1658577720.75279,350072.3592907,485
1658577720.75279,350072.3592966,692
1658577720.75279,350072.359301,586
1658577720.75279,350072.3593072,68
1658577720.75279,350072.3593117,-237
1658577720.75279,350072.8448641,16
1658577720.75279,350072.8448858,164
1658577720.75279,350072.8448941,30
1658577720.75279,350072.8449008,32
1658577720.75279,350072.8449056,96
1658577721.28625,350072.844926,63
1658577721.28625,350072.8449318,49
1658577721.28625,350072.8449353,82
1658577721.28625,350072.8449405,87
1658577721.28625,350072.8449456,80
1658577721.28625,350072.8449508,94
1658577721.28625,350072.8449578,101
1658577721.28625,350072.8449645,94
1658577721.28625,350072.8449716,91
1658577721.28625,350072.8449775,108
1658577721.28625,350072.8449818,117
1658577721.28625,350072.844987,122
1658577721.28625,350072.8449918,139
1658577721.28625,350072.8449964,150
1658577721.28625,350072.8450004,160
1658577721.28625,350072.8450035,179
1658577721.28625,350072.8450064,200
1658577721.28625,350072.8450093,216
1658577721.28625,350072.8450255,237
1658577721.28625,350072.8450351,247
1658577721.28625,350072.8450391,245
1658577721.28625,350072.8450423,247
1658577721.28625,350072.8451255,256
1658577721.28625,350072.8451457,247
1658577721.28625,350072.8451529,219
1658577721.28625,350072.8451566,188
1658577721.28625,350072.8451599,134
1658577721.28625,350072.8451633,63
1658577721.28625,350072.8451725,18
1658577721.28625,350072.8451899,-9
1658577721.28625,350072.8454056,-37
1658577721.28625,350072.8454111,-54
1658577721.28625,350072.8454146,-58
1658577721.28625,350072.8454181,-65
1658577721.28625,350072.8454217,-68
1658577721.28625,350072.8454254,-63
1658577721.28625,350072.8454291,-68
1658577721.28625,350072.8454328,-68
1658577721.28625,350072.8454363,-58
1658577721.28625,350072.84544,-51
1658577721.28625,350072.8454447,-51
1658577721.28625,350072.8454488,-44
1658577721.28625,350072.845456,-32
1658577721.28625,350072.8454615,-25
1658577721.28625,350072.845467,-18
1658577721.28625,350072.8454724,-11
1658577721.28625,350072.8454761,-4
1658577721.28625,350072.8454813,2
1658577721.28625,350072.845485,4
1658577721.28625,350072.8454901,4
1658577721.30818,350072.8454939,4
1658577721.30818,350072.8454992,9
1658577721.30818,350072.8455029,14
1658577721.30818,350072.8455097,16
1658577721.30818,350072.8455165,14
1658577721.30818,350072.8455321,11
1658577721.30818,350072.8455445,11
1658577721.30818,350072.8455506,9
1658577721.30818,350072.8455542,7
1658577721.30818,350072.8455594,14
1658577721.30818,350072.8455629,18
1658577721.30818,350072.8455664,16
1658577721.30818,350072.8455698,21
1658577721.30818,350072.845575,25
1658577721.30818,350072.8455784,18
1658577721.30818,350072.8455819,16
1658577721.30818,350072.8455869,21
1658577721.30818,350072.8455949,18
1658577721.30818,350073.3799296,21
1658577721.30818,350073.3799474,32
1658577721.30818,350073.3799554,35
1658577721.30818,350073.3799593,49
1658577721.30818,350073.3799652,73
1658577721.30818,350073.3799702,73
1658577721.86764,350073.3799755,56
1658577721.86764,350073.3799793,56
1658577721.86764,350073.3799828,42
1658577721.86764,350073.3799866,14
1658577721.86764,350073.3799902,14
1658577721.86764,350073.3799937,32
1658577721.86764,350073.3799975,35
1658577721.86764,350073.3800028,32
1658577721.86764,350073.380006,37
1658577721.86764,350073.3800102,35
1658577721.86764,350073.3800134,25
1658577721.86764,350073.3800172,32
1658577721.86764,350073.3800217,56
1658577721.86764,350073.3800278,127
1658577721.86764,350073.3800342,278
1658577721.86764,350073.3800403,508
1658577721.86764,350073.3800469,673
1658577721.86764,350073.38005,442
1658577721.86764,350073.3800531,-101
1658577721.86764,350073.3800559,-233
1658577721.86764,350073.3800588,68
1658577721.86764,350073.3800617,117
1658577721.86764,350073.3800645,-7
1658577721.86764,350073.3800673,40
1658577721.86764,350073.3800703,87
1658577721.86764,350073.3800732,51
1658577721.86764,350073.380076,61
1658577721.86764,350073.3800789,91
1658577721.86764,350073.3800819,87
1658577721.86764,350073.3800848,87
1658577721.86764,350073.3800877,103
1658577721.86764,350073.3800907,115
1658577721.86764,350073.3800935,122
1658577721.86764,350073.3800965,129
1658577721.86764,350073.3800995,136
1658577721.86764,350073.3801024,141
1658577721.86764,350073.3801053,153
1658577721.86764,350073.3801082,169
1658577721.86764,350073.3801111,186
1658577721.86764,350073.380114,197
1658577721.86764,350073.3801169,216
1658577721.86764,350073.3801199,230
1658577721.86764,350073.3801227,240
1658577721.86764,350073.3801255,256
1658577721.86764,350073.3801284,275
1658577721.86764,350073.3801313,282
1658577721.86764,350073.3801343,280
1658577721.86764,350073.3801373,273
1658577721.86764,350073.3801402,268
1658577721.86764,350073.3801431,247
1658577721.87861,350073.380146,212
1658577721.87861,350073.380149,167
1658577721.87861,350073.3801518,113
1658577721.87861,350073.3801547,63
1658577721.87861,350073.3801576,28
1658577721.87861,350073.3801604,2
1658577721.87861,350073.3801633,-23
1658577721.87861,350073.3801663,-40
1658577721.87861,350073.3801692,-42
1658577721.87861,350073.3801725,-42
1658577721.87861,350073.3801815,-47
1658577721.87861,350073.3801906,-42
1658577721.87861,350073.3801982,-32
1658577721.87861,350073.3802073,-30
1658577721.87861,350073.3802146,-28
1658577721.87861,350073.3802235,-18
1658577721.87861,350073.3802302,-11
1658577721.87861,350073.965089,-11
1658577721.87861,350073.9651069,-4
1658577721.87861,350073.9651126,4
1658577721.87861,350073.9651195,9
1658577721.87861,350073.9651244,14
1658577721.87861,350073.9651305,11
1658577721.87861,350073.9651355,0
1658577722.49983,350073.9651421,2
1658577722.49983,350073.9651467,14
1658577722.49983,350073.9651554,14
1658577722.49983,350073.96516,9
1658577722.49983,350073.9651644,7
1658577722.49983,350073.9651689,-4
1658577722.49983,350073.9651735,-9
1658577722.49983,350073.9651778,0
1658577722.49983,350073.9651816,4
1658577722.49983,350073.9651855,4
1658577722.49983,350073.9651892,9
1658577722.49983,350073.9651933,18
1658577722.49983,350073.9651971,23
1658577722.49983,350073.9652009,23
1658577722.49983,350073.9652048,23
1658577722.49983,350073.9652087,28
1658577722.49983,350073.9652128,35
1658577722.49983,350073.9652174,37
1658577722.49983,350073.9652232,40
1658577722.49983,350073.9652355,47
1658577722.49983,350073.965243,49
1658577722.49983,350073.9652477,51
1658577722.49983,350073.9652534,58
1658577722.49983,350073.9652578,65
1658577722.49983,350073.9652641,77
1658577722.49983,350073.9652688,103
1658577722.49983,350073.9652789,110
1658577722.49983,350073.9652898,94
1658577722.49983,350073.9652989,89
1658577722.49983,350073.9653045,84
1658577722.49983,350073.9653128,73
1658577722.49983,350073.9653256,73
1658577722.49983,350073.9653327,82
1658577722.49983,350073.9653385,82
1658577722.49983,350073.9653516,82
1658577722.49983,350073.9653593,87
1658577722.49983,350073.9653631,89
1658577722.49983,350073.9653704,89
1658577722.49983,350073.965383,94
1658577722.49983,350073.96539,101
1658577722.49983,350073.965393,146
1658577722.49983,350073.9654048,275
1658577722.49983,350073.9654158,497
1658577722.49983,350073.9654249,702
1658577722.49983,350073.9654376,598
1658577722.49983,350073.9654448,84
1658577722.49983,350073.9654473,-216
1658577722.49983,350073.9654547,35
1658577722.49983,350073.9654674,176
1658577722.49983,350073.9654743,40
1658577722.5108,350073.9654772,47
1658577722.5108,350073.965489,115
1658577722.5108,350073.9654999,87
1658577722.5108,350073.965511,82
1658577722.5108,350073.9655229,115
1658577722.5108,350073.9655343,113
1658577722.5108,350073.9655464,103
1658577722.5108,350073.9655567,122
1658577722.5108,350073.9655695,134
1658577722.5108,350073.9655758,131
1658577722.5108,350073.9655826,146
1658577722.5108,350073.9655954,167
1658577722.5108,350073.9656033,164
1658577722.5108,350073.9656141,162
1658577722.5108,350073.9656259,176
1658577722.5108,350073.9656372,197
1658577722.5108,350074.5992489,209
1658577722.5108,350074.5992679,221
1658577722.5108,350074.5992749,233
1658577722.5108,350074.5992808,249
1658577722.5108,350074.5992862,263
1658577722.5108,350074.5992928,273
1658577722.5108,350074.5993001,282
1658577722.5108,350074.5993074,294
1658577723.03064,350074.5993144,289
1658577723.03064,350074.5993188,266
1658577723.03064,350074.5993229,242
1658577723.03064,350074.5993266,219
1658577723.03064,350074.5993302,179
1658577723.03064,350074.5993338,129
1658577723.03064,350074.5993388,77
1658577723.03064,350074.599343,23
1658577723.03064,350074.599349,-18
1658577723.03064,350074.5993541,-30
1658577723.03064,350074.5993581,-40
1658577723.03064,350074.599361,-56
1658577723.03064,350074.5993642,-58
1658577723.03064,350074.5993677,-61
1658577723.03064,350074.5993707,-54
1658577723.03064,350074.5993757,-35
1658577723.03064,350074.5993803,-28
1658577723.03064,350074.5993856,-23
1658577723.03064,350074.5993963,-18
1658577723.03064,350074.5994031,-14
1658577723.03064,350074.5994125,-18
1658577723.03064,350074.5994162,-25
1658577723.03064,350074.599423,-21
1658577723.03064,350074.5994316,7
1658577723.03064,350074.5994409,37
1658577723.03064,350074.5994454,32
1658577723.03064,350074.5994549,7
1658577723.03064,350074.5994624,21
1658577723.03064,350074.599472,44
1658577723.03064,350074.5994785,32
1658577723.03064,350074.599484,23
1658577723.03064,350074.5994872,28
1658577723.03064,350074.5994922,32
1658577723.03064,350074.5994955,30
1658577723.03064,350074.599499,18
1658577723.03064,350074.5995026,28
1658577723.03064,350074.5995085,49
1658577723.03064,350074.599512,42
1658577723.03064,350074.5995152,42
1658577723.03064,350074.5995184,49
1658577723.03064,350074.5995214,40
1658577723.03064,350074.5995247,35
1658577723.03064,350074.599572,44
1658577723.03064,350074.5995813,42
1658577723.03064,350074.5995876,40
1658577723.03064,350074.5995933,35
1658577723.03064,350074.5995972,40
1658577723.03064,350074.5996067,63
1658577723.03064,350074.5996124,65
1658577723.03064,350074.5996163,51
1658577723.04062,350074.5996202,73
1658577723.04062,350074.5996259,103
1658577723.04062,350074.5996298,98
1658577723.04062,350074.599635,84
1658577723.04062,350074.599639,82
1658577723.04062,350074.5996443,68
1658577723.04062,350074.5996479,61
1658577723.04062,350074.5996533,70
1658577723.04062,350074.5996575,70
1658577723.04062,350074.5996631,63
1658577723.04062,350074.5996671,75
1658577723.04062,350074.5996725,87
1658577723.04062,350074.5996765,87
1658577723.04062,350074.599682,89
1658577723.04062,350074.5996859,96
1658577723.04062,350075.1354163,124
1658577723.04062,350075.135491,216
1658577723.04062,350075.1355038,409
1658577723.04062,350075.1355134,645
1658577723.04062,350075.1355225,659
1658577723.04062,350075.1355299,195
1658577723.04062,350075.1355353,-247
1658577723.04062,350075.1355398,-47
1658577723.04062,350075.1355448,212
1658577723.57264,350075.1355487,96
1658577723.57264,350075.1355541,54
1658577723.57264,350075.1355589,134
1658577723.57264,350075.1355646,106
1658577723.57264,350075.1355696,75
1658577723.57264,350075.1355753,110
1658577723.57264,350075.1355799,124
1658577723.57264,350075.1355872,117
1658577723.57264,350075.1355959,124
1658577723.57264,350075.1356012,122
1658577723.57264,350075.1356062,120
1658577723.57264,350075.1356141,131
1658577723.57264,350075.1356217,139
1658577723.57264,350075.1356277,143
1658577723.57264,350075.1356345,160
1658577723.57264,350075.1356399,176
1658577723.57264,350075.1356534,181
1658577723.57264,350075.1356701,183
1658577723.57264,350075.1356794,197
1658577723.57264,350075.1356905,219
1658577723.57264,350075.1357012,242
1658577723.57264,350075.1357106,252
1658577723.57264,350075.1357199,254
1658577723.57264,350075.1357288,263
1658577723.57264,350075.1357372,273
1658577723.57264,350075.1357418,270
1658577723.57264,350075.1357479,268
1658577723.57264,350075.135755,261
1658577723.57264,350075.1357638,228
1658577723.57264,350075.135771,174
1658577723.57264,350075.1357816,115
1658577723.57264,350075.1357918,56
1658577723.57264,350075.1357991,9
1658577723.57264,350075.1358079,-16
1658577723.57264,350075.1358239,-42
1658577723.57264,350075.135836,-68
1658577723.57264,350075.1358431,-73
1658577723.57264,350075.1358487,-75
1658577723.57264,350075.1358908,-80
1658577723.57264,350075.1359008,-75
1658577723.57264,350075.1359084,-70
1658577723.57264,350075.1359128,-80
1658577723.57264,350075.1359187,-77
1658577723.57264,350075.1359231,-61
1658577723.57264,350075.135928,-56
1658577723.57264,350075.1359335,-54
1658577723.57264,350075.1359393,-47
1658577723.57264,350075.1359484,-44
1658577723.57264,350075.1359553,-42
1658577723.57264,350075.1359651,-35
1658577723.58261,350075.1359727,-28
1658577723.58261,350075.1359796,-23
1658577723.58261,350075.1359863,-21
1658577723.58261,350075.1359925,-21
1658577723.58261,350075.1360026,-23
1658577723.58261,350075.1360104,-18
1658577723.58261,350075.1360156,-9
1658577723.58261,350075.1360221,-2
1658577723.58261,350075.1360285,0
1658577723.58261,350075.1360399,-4
1658577723.58261,350075.1360488,-4
1658577723.58261,350075.1360547,2
1658577723.58261,350075.1360584,4
1658577723.58261,350075.1360623,4
1658577723.58261,350075.6719103,14
1658577723.58261,350075.6719357,18
1658577723.58261,350075.6719476,11
1658577723.58261,350075.6719585,11
1658577723.58261,350075.6719689,16
1658577723.58261,350075.6719763,14
1658577723.58261,350075.6719813,7
1658577723.58261,350075.6719849,11
1658577723.58261,350075.6719878,11
1658577723.58261,350075.6719907,2
1658577724.15206,350075.6719938,16
1658577724.15206,350075.6720006,37
1658577724.15206,350075.6720071,28
1658577724.15206,350075.6720108,16
1658577724.15206,350075.6720153,11
1658577724.15206,350075.6720197,2
1658577724.15206,350075.6720228,-4
1658577724.15206,350075.6720305,7
1658577724.15206,350075.6720366,11
1658577724.15206,350075.6720427,7
1658577724.15206,350075.672051,7
1658577724.15206,350075.6720575,7
1658577724.15206,350075.6720661,0
1658577724.15206,350075.6720722,0
1658577724.15206,350075.6720786,11
1658577724.15206,350075.6720869,40
1658577724.15206,350075.6720933,129
1658577724.15206,350075.672102,313
1658577724.15206,350075.6721082,548
1658577724.15206,350075.6721163,600
1658577724.15206,350075.6721225,169
1658577724.15206,350075.6721311,-308
1658577724.15206,350075.6721373,-157
1658577724.15206,350075.6721456,122
1658577724.15206,350075.672153,11
1658577724.15206,350075.6721612,-47
1658577724.15206,350075.672168,58
1658577724.15206,350075.6721756,58
1658577724.15206,350075.6721829,14
1658577724.15206,350075.6721914,37
1658577724.15206,350075.6721982,65
1658577724.15206,350075.6722109,70
1658577724.15206,350075.6722216,77
1658577724.15206,350075.6722301,87
1658577724.15206,350075.6722423,96
1658577724.15206,350075.6722501,108
1658577724.15206,350075.6722563,115
1658577724.15206,350075.6722658,124
1658577724.15206,350075.6722744,139
1658577724.15206,350075.6722815,141
1658577724.15206,350075.6722899,146
1658577724.15206,350075.672301,176
1658577724.15206,350075.6723096,193
1658577724.15206,350075.6723192,190
1658577724.15206,350075.67233,216
1658577724.15206,350075.6723387,254
1658577724.15206,350075.6723512,263
1658577724.15206,350075.6723619,266
1658577724.15206,350075.6723709,285
1658577724.15206,350075.67238,289
1658577724.16303,350075.6723827,282
1658577724.16303,350075.6723849,270
1658577724.16303,350075.6723872,237
1658577724.16303,350075.6723895,190
1658577724.16303,350075.6723916,143
1658577724.16303,350075.6723936,98
1658577724.16303,350075.6723958,51
1658577724.16303,350075.6723979,18
1658577724.16303,350075.6724,4
1658577724.16303,350075.6724021,-11
1658577724.16303,350075.6724043,-28
1658577724.16303,350075.6724064,-35
1658577724.16303,350075.6724085,-40
1658577724.16303,350076.2573494,-42
1658577724.16303,350076.2573655,-37
1658577724.16303,350076.2573737,-23
1658577724.16303,350076.2573802,-9
1658577724.16303,350076.2573871,0
1658577724.16303,350076.257391,7
1658577724.16303,350076.2573949,11
1658577724.16303,350076.2573986,16
1658577724.16303,350076.2574023,21
1658577724.16303,350076.2574061,30
1658577724.16303,350076.2574238,40
1658577724.64291,350076.2574392,35
1658577724.64291,350076.257443,18
1658577724.64291,350076.2574467,16
1658577724.64291,350076.2574567,30
1658577724.64291,350076.2574647,37
1658577724.64291,350076.2574723,37
1658577724.64291,350076.2574759,37
1658577724.64291,350076.2574825,32
1658577724.64291,350076.2574863,25
1658577724.64291,350076.2574917,32
1658577724.64291,350076.2574978,37
1658577724.64291,350076.2575106,42
1658577724.64291,350076.2575213,47
1658577724.64291,350076.2575291,40
1658577724.64291,350076.2575399,35
1658577724.64291,350076.2575492,40
1658577724.64291,350076.2575518,44
1658577724.64291,350076.2575539,47
1658577724.64291,350076.2575614,54
1658577724.64291,350076.2575761,58
1658577724.64291,350076.2575872,58
1658577724.64291,350076.2575968,63
1658577724.64291,350076.2576018,65
1658577724.64291,350076.2576122,61
1658577724.64291,350076.2576182,65
1658577724.64291,350076.2576215,73
1658577724.64291,350076.2576308,80
1658577724.64291,350076.2576408,101
1658577724.64291,350076.257649,120
1658577724.64291,350076.2576577,117
1658577724.64291,350076.2576602,106
1658577724.64291,350076.2576624,91
1658577724.64291,350076.2576645,77
1658577724.64291,350076.2576666,75
1658577724.64291,350076.2576686,87
1658577724.64291,350076.2576707,96
1658577724.64291,350076.2576727,103
1658577724.64291,350076.2576793,110
1658577724.64291,350076.2576875,115
1658577724.64291,350076.257691,115
1658577724.64291,350076.2576954,122
1658577724.64291,350076.2576984,134
1658577724.64291,350076.2577016,153
1658577724.64291,350076.2577061,230
1658577724.64291,350076.257709,421
1658577724.64291,350076.2577119,676
1658577724.64291,350076.2577148,763
1658577724.64291,350076.2577177,395
1658577724.64291,350076.2577209,-120
1658577724.64291,350076.2577244,-75
1658577724.65288,350076.257729,223
1658577724.65288,350076.257732,171
1658577724.65288,350076.2577349,77
1658577724.65288,350076.2577377,157
1658577724.65288,350076.2577404,176
1658577724.65288,350076.2577433,139
1658577724.65288,350076.257746,157
1658577724.65288,350076.2577489,174
1658577724.65288,350076.2577517,167
1658577724.65288,350076.2577545,176
1658577724.65288,350076.2577581,188
1658577724.65288,350076.2577612,190
1658577724.65288,350076.7440314,190
1658577724.65288,350076.7440492,200
1658577724.65288,350076.7440579,212
1658577724.65288,350076.7440639,221
1658577724.65288,350076.7440679,221
1658577724.65288,350076.7440744,230
1658577724.65288,350076.7440783,249
1658577724.65288,350076.7440841,263
1658577724.65288,350076.744088,268
1658577724.65288,350076.7440946,275
1658577724.65288,350076.744099,292
1658577724.65288,350076.7441032,310
1658577725.23102,350076.744107,320
1658577725.23102,350076.7441104,334
1658577725.23102,350076.7441141,339
1658577725.23102,350076.7441176,320
1658577725.23102,350076.7441221,299
1658577725.23102,350076.7441258,273
1658577725.23102,350076.7441297,228
1658577725.23102,350076.7441336,176
1658577725.23102,350076.7441375,124
1658577725.23102,350076.7441413,68
1658577725.23102,350076.7441452,21
1658577725.23102,350076.7441491,-14
1658577725.23102,350076.744153,-28
1658577725.23102,350076.7441572,-32
1658577725.23102,350076.7441617,-40
1658577725.23102,350076.7441662,-44
1658577725.23102,350076.74417,-44
1658577725.23102,350076.7441738,-42
1658577725.23102,350076.7441775,-37
1658577725.23102,350076.7441817,-21
1658577725.23102,350076.7441868,-11
1658577725.23102,350076.744191,-21
1658577725.23102,350076.7441947,-25
1658577725.23102,350076.7442007,-16
1658577725.23102,350076.7442047,-4
1658577725.23102,350076.7442084,4
1658577725.23102,350076.7442122,7
1658577725.23102,350076.7442162,11
1658577725.23102,350076.7442207,18
1658577725.23102,350076.7442246,18
1658577725.23102,350076.7442285,21
1658577725.23102,350076.7442325,30
1658577725.23102,350076.7442364,32
1658577725.23102,350076.7442403,28
1658577725.23102,350076.7442451,28
1658577725.23102,350076.7442496,30
1658577725.23102,350076.7442534,30
1658577725.23102,350076.7442571,32
1658577725.23102,350076.7442606,37
1658577725.23102,350076.7442644,37
1658577725.23102,350076.7442685,37
1658577725.23102,350076.7442728,44
1658577725.23102,350076.7442779,47
1658577725.23102,350076.7442823,42
1658577725.23102,350076.7442861,42
1658577725.23102,350076.7442906,54
1658577725.23102,350076.7442942,51
1658577725.23102,350076.7442977,37
1658577725.23102,350076.7443026,42
1658577725.23102,350076.7443066,54
1658577725.24299,350076.7443101,51
1658577725.24299,350076.7443144,56
1658577725.24299,350076.7443179,82
1658577725.24299,350076.7443216,82
1658577725.24299,350076.7443252,68
1658577725.24299,350076.7443293,73
1658577725.24299,350076.7443336,63
1658577725.24299,350076.7443375,40
1658577725.24299,350076.744342,42
1658577725.24299,350076.7443459,54
1658577725.24299,350076.7443503,54
1658577725.24299,350077.3301161,63
1658577725.24299,350077.3301336,73
1658577725.24299,350077.3301397,68
1658577725.24299,350077.3301448,65
1658577725.24299,350077.3301498,63
1658577725.24299,350077.330155,58
1658577725.24299,350077.3301606,75
1658577725.24299,350077.3301658,164
1658577725.24299,350077.3301716,367
1658577725.24299,350077.3301774,633
1658577725.24299,350077.330183,664
1658577725.24299,350077.3301884,164
1658577725.24299,350077.3301942,-346
1658577725.81591,350077.3301998,-174
1658577725.81591,350077.3302394,117
1658577725.81591,350077.3302516,11
1658577725.81591,350077.3302574,-54
1658577725.81591,350077.3302621,35
1658577725.81591,350077.3302724,32
1658577725.81591,350077.3302776,11
1658577725.81591,350077.3302822,56
1658577725.81591,350077.3302864,63
1658577725.81591,350077.3302911,25
1658577725.81591,350077.3302977,21
1658577725.81591,350077.3303025,58
1658577725.81591,350077.3303072,80
1658577725.81591,350077.3303125,84
1658577725.81591,350077.3303186,98
1658577725.81591,350077.3303233,120
1658577725.81591,350077.3303282,143
1658577725.81591,350077.3303345,160
1658577725.81591,350077.3303421,160
1658577725.81591,350077.3303517,169
1658577725.81591,350077.330362,193
1658577725.81591,350077.3303759,212
1658577725.81591,350077.3303886,230
1658577725.81591,350077.3303962,261
1658577725.81591,350077.3304043,287
1658577725.81591,350077.3304148,289
1658577725.81591,350077.3304255,289
1658577725.81591,350077.3304339,296
1658577725.81591,350077.3304422,308
1658577725.81591,350077.3304491,296
1658577725.81591,350077.3304536,254
1658577725.81591,350077.3304631,207
1658577725.81591,350077.3304683,164
1658577725.81591,350077.3304745,103
1658577725.81591,350077.3304868,47
1658577725.81591,350077.3304996,23
1658577725.81591,350077.3305049,2
1658577725.81591,350077.3305108,-30

1658577725.81591,350077.3305147,-37
1658577725.81591,350077.3305196,-40
1658577725.81591,350077.3305255,-58
1658577725.81591,350077.3305327,-70
1658577725.81591,350077.3305423,-63
1658577725.81591,350077.3305477,-51
1658577725.81591,350077.3305535,-44
1658577725.81591,350077.3305612,-40
1658577725.81591,350077.3305684,-37
1658577725.81591,350077.3305766,-25
1658577725.81591,350077.3305859,-14
1658577725.81591,350077.330593,-7
1658577725.83856,350077.3305965,-9
1658577725.83856,350077.3305996,-18
1658577725.83856,350077.3306026,-2
1658577725.83856,350077.330606,21
1658577725.83856,350077.3306099,28
1658577725.83856,350077.3306136,28
1658577725.83856,350077.3306198,18
1658577725.83856,350077.3306239,4
1658577725.83856,350077.3306274,11
1658577725.83856,350077.3306311,18
1658577725.83856,350077.9145681,14
1658577725.83856,350077.9145823,14
1658577725.83856,350077.9145866,21
1658577725.83856,350077.9145922,18
1658577725.83856,350077.9145949,14
1658577725.83856,350077.9145977,18
1658577725.83856,350077.9146005,23
1658577725.83856,350077.9146032,21
1658577725.83856,350077.9146058,18
1658577725.83856,350077.9146085,23
1658577725.83856,350077.914611,30
1658577725.83856,350077.9146136,35
1658577725.83856,350077.9146162,28
1658577725.83856,350077.9146187,18
1658577726.35117,350077.9146212,23
1658577726.35117,350077.9146237,18
1658577726.35117,350077.9146262,9
1658577726.35117,350077.9146286,25
1658577726.35117,350077.9146311,56
1658577726.35117,350077.9146335,65
1658577726.35117,350077.9146359,58
1658577726.35117,350077.9146383,47
1658577726.35117,350077.9146407,28
1658577726.35117,350077.9146433,11
1658577726.35117,350077.9146457,14
1658577726.35117,350077.9146482,30
1658577726.35117,350077.9146506,37
1658577726.35117,350077.9146532,32
1658577726.35117,350077.9146555,42
1658577726.35117,350077.9146581,58
1658577726.35117,350077.9146604,63
1658577726.35117,350077.9146625,63
1658577726.35117,350077.9146648,68
1658577726.35117,350077.914667,91
1658577726.35117,350077.9146693,183
1658577726.35117,350077.9146715,386
1658577726.35117,350077.9146738,650
1658577726.35117,350077.9146762,711
1658577726.35117,350077.9146792,273
1658577726.35117,350077.9146816,-233
1658577726.35117,350077.914684,-117
1658577726.35117,350077.9146864,164
1658577726.35117,350077.9146887,75
1658577726.35117,350077.914691,7
1658577726.35117,350077.9146934,91
1658577726.35117,350077.9146957,87
1658577726.35117,350077.9146981,54
1658577726.35117,350077.9147003,87
1658577726.35117,350077.9147026,103
1658577726.35117,350077.9147051,96
1658577726.35117,350077.9147075,115
1658577726.35117,350077.9147098,127
1658577726.35117,350077.9147121,115
1658577726.35117,350077.9147145,110
1658577726.35117,350077.9147168,129
1658577726.35117,350077.9147191,148
1658577726.35117,350077.9147215,153
1658577726.35117,350077.9147238,155
1658577726.35117,350077.9147261,169
1658577726.35117,350077.9147284,193
1658577726.35117,350077.9147307,216
1658577726.35117,350077.914733,230
1658577726.35117,350077.9147355,237
1658577726.35117,350077.9147378,254
1658577726.37311,350077.91474,278
1658577726.37311,350077.9147423,294
1658577726.37311,350077.9147444,301
1658577726.37311,350077.9147467,306
1658577726.37311,350077.914749,306
1658577726.37311,350077.9147512,285
1658577726.37311,350077.9147535,254
1658577726.37311,350077.9147558,214
1658577726.37311,350077.9147579,160
1658577726.37311,350078.4510264,98
1658577726.37311,350078.4510432,37
1658577726.37311,350078.4510485,-4
1658577726.37311,350078.4510526,-30
1658577726.37311,350078.4510566,-49
1658577726.37311,350078.4510606,-63
1658577726.37311,350078.4510645,-63
1658577726.37311,350078.4510695,-56
1658577726.37311,350078.4510736,-51
1658577726.37311,350078.4510774,-56
1658577726.37311,350078.4510815,-61
1658577726.37311,350078.4510854,-68
1658577726.37311,350078.4510892,-77
1658577726.37311,350078.4510931,-75
1658577726.37311,350078.451097,-54
1658577726.98463,350078.4511009,-35
1658577726.98463,350078.4511049,-40
1658577726.98463,350078.4511086,-58
1658577726.98463,350078.4511124,-70
1658577726.98463,350078.4511161,-73
1658577726.98463,350078.45112,-63
1658577726.98463,350078.451124,-58
1658577726.98463,350078.451128,-58
1658577726.98463,350078.4511322,-51
1658577726.98463,350078.4511364,-49
1658577726.98463,350078.4511404,-56
1658577726.98463,350078.4511444,-65
1658577726.98463,350078.4511483,-70
1658577726.98463,350078.4511523,-51
1658577726.98463,350078.4511561,-35
1658577726.98463,350078.4511599,-32
1658577726.98463,350078.4511638,-25
1658577726.98463,350078.4511677,-25
1658577726.98463,350078.4511714,-42
1658577726.98463,350078.4511752,-35
1658577726.98463,350078.4511836,-9
1658577726.98463,350078.4511895,-9
1658577726.98463,350078.4511937,-21
1658577726.98463,350078.4511997,-14
1658577726.98463,350078.4512038,7
1658577726.98463,350078.4512094,21
1658577726.98463,350078.4512151,18
1658577726.98463,350078.4512193,11
1658577726.98463,350078.4512231,18
1658577726.98463,350078.451227,30
1658577726.98463,350078.4512307,40
1658577726.98463,350078.4512347,68
1658577726.98463,350078.4512403,96
1658577726.98463,350078.4512448,94
1658577726.98463,350078.4512501,82
1658577726.98463,350078.4512536,82
1658577726.98463,350078.4512571,75
1658577726.98463,350078.4512605,68
1658577726.98463,350078.451264,68
1658577726.98463,350078.4512762,75
1658577726.98463,350078.4512918,77
1658577726.98463,350078.4512987,65
1658577726.98463,350078.4513132,65
1658577726.98463,350078.4513267,82
1658577726.98463,350078.4513424,80
1658577726.98463,350078.451347,70
1658577726.98463,350078.451355,77
1658577726.98463,350078.4513591,129
1658577726.98463,350078.4513626,292
1658577726.98463,350078.451373,567
1658577727.00557,350078.4513766,742
1658577727.00557,350078.4513796,457
1658577727.00557,350078.4513829,-115
1658577727.00557,350078.4513863,-216
1658577727.00557,350078.4513897,94
1658577727.00557,350078.451393,129
1658577727.00557,350078.4513962,18
1658577727.00557,350078.4513997,80
1658577727.00557,350079.0852007,115
1658577727.00557,350079.0852257,63
1658577727.00557,350079.0852367,61
1658577727.00557,350079.0852425,89
1658577727.00557,350079.08527,96
1658577727.00557,350079.0852759,101
1658577727.00557,350079.0852804,106
1658577727.00557,350079.085288,110
1658577727.00557,350079.085292,115
1658577727.00557,350079.0852958,106
1658577727.00557,350079.0853013,103
1658577727.00557,350079.0853049,129
1658577727.00557,350079.0853086,150
1658577727.00557,350079.0853124,155
1658577727.00557,350079.0853163,164
1658577727.00557,350079.0853216,162
1658577727.5839,350079.0853252,167
1658577727.5839,350079.0853299,200
1658577727.5839,350079.0853343,233
1658577727.5839,350079.0853378,242
1658577727.5839,350079.0853414,249
1658577727.5839,350079.0853464,263
1658577727.5839,350079.085351,273
1658577727.5839,350079.0853546,278
1658577727.5839,350079.0853584,280
1658577727.5839,350079.0853631,270
1658577727.5839,350079.0853666,230
1658577727.5839,350079.08537,157
1658577727.5839,350079.0853734,80
1658577727.5839,350079.0853789,32
1658577727.5839,350079.0853824,-14
1658577727.5839,350079.0853872,-58
1658577727.5839,350079.0853907,-65
1658577727.5839,350079.0853957,-61
1658577727.5839,350079.0853993,-73
1658577727.5839,350079.0854041,-75
1658577727.5839,350079.0854075,-63
1658577727.5839,350079.0854109,-63
1658577727.5839,350079.0854143,-65
1658577727.5839,350079.0854194,-61
1658577727.5839,350079.0854229,-51
1658577727.5839,350079.0854263,-32
1658577727.5839,350079.0854297,-11
1658577727.5839,350079.085433,-4
1658577727.5839,350079.0854364,-9
1658577727.5839,350079.0854414,2
1658577727.5839,350079.0854463,18
1658577727.5839,350079.0854496,21
1658577727.5839,350079.0854531,25
1658577727.5839,350079.085458,40
1658577727.5839,350079.0854613,51
1658577727.5839,350079.0854647,54
1658577727.5839,350079.0854681,51
1658577727.5839,350079.0854715,47
1658577727.5839,350079.0854748,47
1658577727.5839,350079.0854781,51
1658577727.5839,350079.0854815,49
1658577727.5839,350079.0854864,54
1658577727.5839,350079.0854897,63
1658577727.5839,350079.0854931,56
1658577727.5839,350079.0854965,49
1658577727.5839,350079.0854999,54
1658577727.5839,350079.0855033,56
1658577727.5839,350079.0855066,56
1658577727.5839,350079.0855099,65
1658577727.5839,350079.0855132,73
1658577727.60584,350079.0855166,68
1658577727.60584,350079.08552,68
1658577727.60584,350079.085525,80
1658577727.60584,350079.0855284,87
1658577727.60584,350079.0855334,77
1658577727.60584,350079.0855374,75
1658577727.60584,350079.0855428,82
1658577727.60584,350079.6698551,91
1658577727.60584,350079.669868,101
1658577727.60584,350079.6698707,106
1658577727.60584,350079.6698729,103
1658577727.60584,350079.669875,94
1658577727.60584,350079.6698779,73
1658577727.60584,350079.6698801,56
1658577727.60584,350079.6698822,70
1658577727.60584,350079.6698843,84
1658577727.60584,350079.6698863,80
1658577727.60584,350079.6698884,80
1658577727.60584,350079.6698905,84
1658577727.60584,350079.6698926,63
1658577727.60584,350079.6698947,42
1658577727.60584,350079.6698967,56
1658577727.60584,350079.6698998,82
1658577727.60584,350079.6699084,141
1658577728.01939,350079.6699169,313
1658577728.01939,350079.6699213,591
1658577728.01939,350079.6699249,765
1658577728.01939,350079.6699285,466
1658577728.01939,350079.6699321,-148
1658577728.01939,350079.6699356,-261
1658577728.01939,350079.6699391,84
1658577728.01939,350079.6699461,113
1658577728.01939,350079.6699521,-47
1658577728.01939,350079.6699611,9
1658577728.01939,350079.6699658,65
1658577728.01939,350079.6699702,21
1658577728.01939,350079.669974,30
1658577728.01939,350079.6699776,63
1658577728.01939,350079.6699811,49
1658577728.01939,350079.6699846,51
1658577728.01939,350079.669988,75
1658577728.01939,350079.6699916,80
1658577728.01939,350079.669997,84
1658577728.01939,350079.6700069,96
1658577728.01939,350079.6700145,103
1658577728.01939,350079.6700186,115
1658577728.01939,350079.6700241,127
1658577728.01939,350079.6700277,141
1658577728.01939,350079.6700331,155
1658577728.01939,350079.6700369,171
1658577728.01939,350079.6700419,190
1658577728.01939,350079.6700475,212
1658577728.01939,350079.6700524,233
1658577728.01939,350079.6700578,245
1658577728.01939,350079.6700625,242
1658577728.01939,350079.6700673,249
1658577728.01939,350079.6700723,263
1658577728.01939,350079.670078,261
1658577728.01939,350079.6700884,249
1658577728.01939,350079.6700909,230
1658577728.01939,350079.6700931,190
1658577728.01939,350079.6700952,127
1658577728.01939,350079.6700973,63
1658577728.01939,350079.6700994,16
1658577728.01939,350079.6701015,-18
1658577728.01939,350079.6701036,-63
1658577728.01939,350079.6701057,-106
1658577728.01939,350079.6701081,-115
1658577728.01939,350079.6701101,-110
1658577728.01939,350079.6701122,-117
1658577728.01939,350079.6701143,-115
1658577728.01939,350079.6701164,-103
1658577728.01939,350079.6701204,-94
1658577728.01939,350079.6701226,-91
1658577728.04132,350079.6701247,-89
1658577728.04132,350079.6701268,-75
1658577728.04132,350079.6701288,-63
1658577728.04132,350079.6701309,-65
1658577728.04132,350079.670133,-61
1658577728.04132,350079.6701982,-40
1658577728.04132,350080.1078703,-30
1658577728.04132,350080.1078914,-28
1658577728.04132,350080.1079078,-21
1658577728.04132,350080.1079221,-14
1658577728.04132,350080.1079349,-11
1658577728.04132,350080.1079455,-7
1658577728.04132,350080.1079617,-4
1658577728.04132,350080.1079696,-2
1658577728.04132,350080.1079833,2
1658577728.04132,350080.1079947,2
1658577728.04132,350080.1080067,-2
1658577728.04132,350080.1080171,-4
1658577728.04132,350080.1080242,0
1658577728.04132,350080.1080324,9
1658577728.04132,350080.1080384,11
1658577728.04132,350080.1080464,11
1658577728.04132,350080.108053,14
1658577728.04132,350080.1080631,18
1658577728.59862,350080.1080699,21
1658577728.59862,350080.1080753,25
1658577728.59862,350080.1080817,28
1658577728.59862,350080.1080881,16
1658577728.59862,350080.1080912,2
1658577728.59862,350080.1080946,9
1658577728.59862,350080.1081016,25
1658577728.59862,350080.1081088,25
1658577728.59862,350080.1081157,32
1658577728.59862,350080.1081186,49
1658577728.59862,350080.1081215,40
1658577728.59862,350080.1081245,25
1658577728.59862,350080.1081274,21
1658577728.59862,350080.1081304,11
1658577728.59862,350080.1081332,4
1658577728.59862,350080.1081361,9
1658577728.59862,350080.1081389,14
1658577728.59862,350080.1081418,16
1658577728.59862,350080.1081446,21
1658577728.59862,350080.1081475,32
1658577728.59862,350080.1081505,35
1658577728.59862,350080.1081533,30
1658577728.59862,350080.1081562,23
1658577728.59862,350080.1081591,30
1658577728.59862,350080.108162,96
1658577728.59862,350080.1081649,256
1658577728.59862,350080.1081678,490
1658577728.59862,350080.1081707,692
1658577728.59862,350080.1081735,570
1658577728.59862,350080.1081765,18
1658577728.59862,350080.1081794,-301
1658577728.59862,350080.1081823,-25
1658577728.59862,350080.1081851,127
1658577728.59862,350080.108188,-18
1658577728.59862,350080.1081909,-2
1658577728.59862,350080.1081937,80
1658577728.59862,350080.1081965,47
1658577728.59862,350080.1081994,32
1658577728.59862,350080.1082023,63
1658577728.59862,350080.1082052,70
1658577728.59862,350080.1082081,75
1658577728.59862,350080.108211,89
1658577728.59862,350080.108214,94
1658577728.59862,350080.1082168,98
1658577728.59862,350080.1082196,108
1658577728.59862,350080.1082225,117
1658577728.59862,350080.1082254,127
1658577728.59862,350080.1082284,139
1658577728.59862,350080.1082313,146
1658577728.59862,350080.1082341,164
1658577728.62026,350080.108237,193
1658577728.62026,350080.1082398,207
1658577728.62026,350080.1082431,216
1658577728.62026,350080.1082478,237
1658577728.62026,350080.1082614,263
1658577728.62026,350080.6942427,282
1658577728.62026,350080.6942894,289
1658577728.62026,350080.6943011,289
1658577728.62026,350080.6943122,292
1658577728.62026,350080.6943199,289
1658577728.62026,350080.6943271,266
1658577728.62026,350080.6943354,214
1658577728.62026,350080.6943391,164
1658577728.62026,350080.6943413,117
1658577728.62026,350080.6943435,58
1658577728.62026,350080.6943459,0
1658577728.62026,350080.694348,-51
1658577728.62026,350080.6943502,-91
1658577728.62026,350080.6943524,-103
1658577728.62026,350080.6943545,-101
1658577728.62026,350080.6943566,-103
1658577728.62026,350080.6943587,-103
1658577728.62026,350080.6943609,-94
1658577728.62026,350080.6943631,-89
1658577729.18562,350080.6943652,-87
1658577729.18562,350080.6943673,-77
1658577729.18562,350080.6943693,-68
1658577729.18562,350080.6943845,-58
1658577729.18562,350080.6943865,-49
1658577729.18562,350080.6943885,-56
1658577729.18562,350080.6943904,-58
1658577729.18562,350080.694407,-42
1658577729.18562,350080.6944093,-30
1658577729.18562,350080.6944112,-37
1658577729.18562,350080.6944132,-32
1658577729.18562,350080.6944152,-21
1658577729.18562,350080.6944172,-23
1658577729.18562,350080.6944192,-25
1658577729.18562,350080.6944211,-14
1658577729.18562,350080.6944231,-18
1658577729.18562,350080.6944251,-28
1658577729.18562,350080.6944271,-14
1658577729.18562,350080.6944292,-11
1658577729.18562,350080.6944313,-21
1658577729.18562,350080.6944335,-11
1658577729.18562,350080.6944356,4
1658577729.18562,350080.6944377,9
1658577729.18562,350080.6944398,11
1658577729.18562,350080.6944419,16
1658577729.18562,350080.694444,21
1658577729.18562,350080.6944461,23
1658577729.18562,350080.6944483,30
1658577729.18562,350080.6944504,35
1658577729.18562,350080.6944526,37
1658577729.18562,350080.6944546,37
1658577729.18562,350080.6944567,40
1658577729.18562,350080.6944588,42
1658577729.18562,350080.694461,44
1658577729.18562,350080.694463,47
1658577729.18562,350080.6944652,54
1658577729.18562,350080.6944673,63
1658577729.18562,350080.6944695,80
1658577729.18562,350080.6944716,91
1658577729.18562,350080.6944737,84
1658577729.18562,350080.6944758,80
1658577729.18562,350080.6944779,70
1658577729.18562,350080.6944802,51
1658577729.18562,350080.6944823,44
1658577729.18562,350080.6944843,49
1658577729.18562,350080.6944864,51
1658577729.18562,350080.6944884,51
1658577729.18562,350080.6945036,54
1658577729.18562,350080.6945057,56
1658577729.18562,350080.6945079,65
1658577729.1936,350080.69451,70
1658577729.1936,350080.6945275,68
1658577729.1936,350080.6945297,101
1658577729.1936,350080.6945319,212
1658577729.1936,350081.2785559,414
1658577729.1936,350081.278572,652
1658577729.1936,350081.2785767,709
1658577729.1936,350081.278582,303
1658577729.1936,350081.278591,-204
1658577729.1936,350081.2785964,-127
1658577729.1936,350081.2785988,157
1658577729.1936,350081.2786008,89
1658577729.1936,350081.278603,0
1658577729.1936,350081.2786052,63
1658577729.1936,350081.2786073,70
1658577729.1936,350081.2786093,49
1658577729.1936,350081.2786114,75
1658577729.1936,350081.2786135,91
1658577729.1936,350081.2786156,84
1658577729.1936,350081.2786176,84
1658577729.1936,350081.2786197,91
1658577729.1936,350081.2786218,94
1658577729.1936,350081.278624,106
1658577729.1936,350081.2786261,122
1658577729.7185,350081.2786282,134
1658577729.7185,350081.2786303,139
1658577729.7185,350081.2786323,146
1658577729.7185,350081.2786343,148
1658577729.7185,350081.2786363,148
1658577729.7185,350081.2786382,162
1658577729.7185,350081.2786402,186
1658577729.7185,350081.2786422,200
1658577729.7185,350081.2786441,216
1658577729.7185,350081.278646,245
1658577729.7185,350081.278648,259
1658577729.7185,350081.2786499,263
1658577729.7185,350081.2786518,275
1658577729.7185,350081.2786545,287
1658577729.7185,350081.2786635,280
1658577729.7185,350081.2786713,256
1658577729.7185,350081.2786776,219
1658577729.7185,350081.2786829,164
1658577729.7185,350081.2786896,101
1658577729.7185,350081.2787011,40
1658577729.7185,350081.2787129,-2
1658577729.7185,350081.2787183,-25
1658577729.7185,350081.2787214,-44
1658577729.7185,350081.2787235,-51
1658577729.7185,350081.2787257,-47
1658577729.7185,350081.2787335,-44
1658577729.7185,350081.2787442,-42
1658577729.7185,350081.2787476,-42
1658577729.7185,350081.2787515,-40
1658577729.7185,350081.2787544,-28
1658577729.7185,350081.278765,-21
1658577729.7185,350081.2787726,-23
1658577729.7185,350081.2787751,-18
1658577729.7185,350081.2787773,-7
1658577729.7185,350081.2787794,-2
1658577729.7185,350081.2787853,0
1658577729.7185,350081.2787963,4
1658577729.7185,350081.2788015,9
1658577729.7185,350081.2788044,11
1658577729.7185,350081.2788066,14
1658577729.7185,350081.2788121,28
1658577729.7185,350081.2788234,40
1658577729.7185,350081.2788285,40
1658577729.7185,350081.2788326,44
1658577729.7185,350081.2788347,49
1658577729.7185,350081.2788375,44
1658577729.7185,350081.2788809,47
1658577729.7185,350081.2788928,56
1658577729.7185,350081.2788973,58
1658577729.7185,350081.2788995,63
1658577729.72947,350081.2789017,73
1658577729.72947,350081.2789044,75
1658577729.72947,350081.2789147,75
1658577729.72947,350081.8141574,77
1658577729.72947,350081.8141791,80
1658577729.72947,350081.8141858,91
1658577729.72947,350081.81419,96
1658577729.72947,350081.8141938,87
1658577729.72947,350081.8141987,94
1658577729.72947,350081.8142033,106
1658577729.72947,350081.8142085,110
1658577729.72947,350081.8142128,115
1658577729.72947,350081.8142177,113
1658577729.72947,350081.814222,106
1658577729.72947,350081.8142271,98
1658577729.72947,350081.8142314,91
1658577729.72947,350081.814239,91
1658577729.72947,350081.8142426,108
1658577729.72947,350081.8142462,120
1658577729.72947,350081.8142497,115
1658577729.72947,350081.8142534,101
1658577729.72947,350081.8142571,68
1658577729.72947,350081.8142605,37
1658577729.72947,350081.8142642,32
1658577730.29648,350081.8142678,42
1658577730.29648,350081.814271,42
1658577730.29648,350081.8142741,40
1658577730.29648,350081.8142774,42
1658577730.29648,350081.8142811,37
1658577730.29648,350081.8142846,32
1658577730.29648,350081.8142881,49
1658577730.29648,350081.8142917,54
1658577730.29648,350081.8142949,56
1658577730.29648,350081.8142984,110
1658577730.29648,350081.8143018,268
1658577730.29648,350081.8143053,539
1658577730.29648,350081.814309,737
1658577730.29648,350081.8143126,515
1658577730.29648,350081.8143164,-56
1658577730.29648,350081.8143198,-256
1658577730.29648,350081.8143231,25
1658577730.29648,350081.8143264,106
1658577730.29648,350081.8143298,-16
1658577730.29648,350081.8143333,23
1658577730.29648,350081.8143525,77
1658577730.29648,350081.8143646,51
1658577730.29648,350081.8143746,51
1658577730.29648,350081.8143848,65
1658577730.29648,350081.8143939,58
1658577730.29648,350081.8144057,65
1658577730.29648,350081.8144189,80
1658577730.29648,350081.8144252,84
1658577730.29648,350081.8144275,91
1658577730.29648,350081.8144297,98
1658577730.29648,350081.8144331,103
1658577730.29648,350081.8144457,117
1658577730.29648,350081.8144584,134
1658577730.29648,350081.8144716,150
1658577730.29648,350081.8144791,169
1658577730.29648,350081.8144815,179
1658577730.29648,350081.8144837,188
1658577730.29648,350081.8144894,204
1658577730.29648,350081.8145023,219
1658577730.29648,350081.8145106,230
1658577730.29648,350081.814513,249
1658577730.29648,350081.8145151,261
1658577730.29648,350081.8145172,261
1658577730.29648,350081.8145193,263
1658577730.29648,350081.8145215,254
1658577730.29648,350081.8145291,228
1658577730.29648,350081.8145418,197
1658577730.29648,350081.8145533,148
1658577730.29648,350081.8145665,82
1658577730.29648,350081.8145766,25
1658577730.30645,350081.8145807,-14
1658577730.30645,350081.814583,-47
1658577730.30645,350082.3994532,-65
1658577730.30645,350082.3994742,-75
1658577730.30645,350082.3994831,-77
1658577730.30645,350082.3994877,-77
1658577730.30645,350082.3994935,-73
1658577730.30645,350082.3994972,-63
1658577730.30645,350082.3995012,-56
1658577730.30645,350082.3995076,-58
1658577730.30645,350082.3995127,-63
1658577730.30645,350082.3995184,-68
1658577730.30645,350082.3995224,-70
1658577730.30645,350082.3995278,-58
1658577730.30645,350082.3995312,-44
1658577730.30645,350082.3995345,-35
1658577730.30645,350082.3995401,-32
1658577730.30645,350082.3995453,-42
1658577730.30645,350082.3995505,-42
1658577730.30645,350082.399556,-25
1658577730.30645,350082.3995606,-11
1658577730.30645,350082.3995665,-7
1658577730.30645,350082.3995702,0
1658577730.30645,350082.3995739,4
1658577730.8539,350082.3995784,7
1658577730.8539,350082.3995823,7
1658577730.8539,350082.3995859,16
1658577730.8539,350082.3995892,30
1658577730.8539,350082.3995927,35
1658577730.8539,350082.3995958,30
1658577730.8539,350082.399599,32
1658577730.8539,350082.3996023,42
1658577730.8539,350082.3996054,51
1658577730.8539,350082.3996087,44
1658577730.8539,350082.3996125,44
1658577730.8539,350082.3996161,56
1658577730.8539,350082.3996192,58
1658577730.8539,350082.3996224,58
1658577730.8539,350082.3996258,63
1658577730.8539,350082.3996291,61
1658577730.8539,350082.3996324,61
1658577730.8539,350082.3996359,68
1658577730.8539,350082.3996393,75
1658577730.8539,350082.3996427,87
1658577730.8539,350082.399646,108
1658577730.8539,350082.3996493,108
1658577730.8539,350082.3996526,96
1658577730.8539,350082.3996701,87
1658577730.8539,350082.3996893,73
1658577730.8539,350082.3996973,61
1658577730.8539,350082.3997051,70
1658577730.8539,350082.3997115,80
1658577730.8539,350082.3997338,68
1658577730.8539,350082.3997413,56
1658577730.8539,350082.399746,65
1658577730.8539,350082.3997494,70
1658577730.8539,350082.399758,68
1658577730.8539,350082.3997667,70
1658577730.8539,350082.3997724,80
1658577730.8539,350082.399777,117
1658577730.8539,350082.3997802,247
1658577730.8539,350082.3997831,508
1658577730.8539,350082.3997862,732
1658577730.8539,350082.3997891,544
1658577730.8539,350082.3997921,-49
1658577730.8539,350082.3997965,-327
1658577730.8539,350082.3998007,-42
1658577730.8539,350082.3998036,84
1658577730.8539,350082.3998063,-61
1658577730.8539,350082.3998122,-42
1658577730.8539,350082.3998149,28
1658577730.8539,350082.3998177,-21
1658577730.8539,350082.3998209,-51
1658577730.8539,350082.3998237,-30
1658577730.87384,350082.3998266,-25
1658577730.87384,350082.9364413,-30
1658577730.87384,350082.936453,-16
1658577730.87384,350082.9364584,-14
1658577730.87384,350082.9364701,-21
1658577730.87384,350082.93648,-9
1658577730.87384,350082.9364887,2
1658577730.87384,350082.936496,-4
1658577730.87384,350082.9365024,-7
1658577730.87384,350082.9365115,11
1658577730.87384,350082.9365339,35
1658577730.87384,350082.9365417,49
1658577730.87384,350082.9365442,56
1658577730.87384,350082.9365464,65
1658577730.87384,350082.9365484,91
1658577730.87384,350082.9365505,117
1658577730.87384,350082.9365529,115
1658577730.87384,350082.9365708,122
1658577730.87384,350082.9365838,141
1658577730.87384,350082.9366033,129
1658577730.87384,350082.9366154,115
1658577730.87384,350082.9366181,117
1658577730.87384,350082.9366213,87
1658577730.87384,350082.9366327,28
1658577731.38109,350082.9366373,-21
1658577731.38109,350082.936641,-70
1658577731.38109,350082.9366448,-117
1658577731.38109,350082.9366485,-143
1658577731.38109,350082.9366522,-162
1658577731.38109,350082.9366703,-188
1658577731.38109,350082.9366839,-202
1658577731.38109,350082.9367051,-200
1658577731.38109,350082.9367224,-204
1658577731.38109,350082.9367298,-209
1658577731.38109,350082.9367394,-204
1658577731.38109,350082.9367487,-193
1658577731.38109,350082.9367548,-183
1658577731.38109,350082.9367629,-174
1658577731.38109,350082.9367691,-171
1658577731.38109,350082.9367776,-174
1658577731.38109,350082.9367838,-164
1658577731.38109,350082.9367922,-146
1658577731.38109,350082.9367984,-134
1658577731.38109,350082.936807,-127
1658577731.38109,350082.9368134,-120
1658577731.38109,350082.9368219,-115
1658577731.38109,350082.9368281,-106
1658577731.38109,350082.9368365,-91
1658577731.38109,350082.9368426,-89
1658577731.38109,350082.936851,-87
1658577731.38109,350082.9368583,-70
1658577731.38109,350082.9368668,-56
1658577731.38109,350082.9368729,-54
1658577731.38109,350082.9368815,-51
1658577731.38109,350082.9368891,-42
1658577731.38109,350082.9368973,-25
1658577731.38109,350082.9369037,-16
1658577731.38109,350082.9369115,-9
1658577731.38109,350082.9369183,4
1658577731.38109,350082.9369265,11
1658577731.38109,350082.9369327,7
1658577731.38109,350082.9369411,11
1658577731.38109,350082.9369494,18
1658577731.38109,350082.9369555,23
1658577731.38109,350082.9369638,32
1658577731.38109,350082.9369709,40
1658577731.38109,350082.9369792,54
1658577731.38109,350082.9369856,77
1658577731.38109,350082.9369939,89
1658577731.38109,350082.9370002,87
1658577731.38109,350082.9370084,82
1658577731.38109,350082.9370153,70
1658577731.38109,350082.9370237,54
1658577731.38109,350082.93703,56
1658577731.40403,350083.4719208,77
1658577731.40403,350083.4719339,91
1658577731.40403,350083.4719372,94
1658577731.40403,350083.4719399,91
1658577731.40403,350083.4719424,94
1658577731.40403,350083.4719449,96
1658577731.40403,350083.4719474,103
1658577731.40403,350083.4719497,113
1658577731.40403,350083.4719521,127
1658577731.40403,350083.4719543,186
1658577731.40403,350083.4719567,381
1658577731.40403,350083.471959,673
1658577731.40403,350083.4719612,768
1658577731.40403,350083.4719636,353
1658577731.40403,350083.4719659,-197
1658577731.40403,350083.4719687,-164
1658577731.40403,350083.4719755,141
1658577731.40403,350083.4719871,110
1658577731.40403,350083.4719922,21
1658577731.40403,350083.4719943,89
1658577731.40403,350083.4719972,103
1658577731.40403,350083.4719994,68
1658577731.40403,350083.4720015,80
1658577731.40403,350083.4720036,89
1658577732.14956,350083.4720058,89
1658577732.14956,350083.4720079,110
1658577732.14956,350083.472015,120
1658577732.14956,350083.4720248,115
1658577732.14956,350083.4720333,127
1658577732.14956,350083.472043,148
1658577732.14956,350083.4720563,162
1658577732.14956,350083.4720603,169
1658577732.14956,350083.4720626,176
1658577732.14956,350083.4720646,190
1658577732.14956,350083.4720667,216
1658577732.14956,350083.4720695,237
1658577732.14956,350083.4720794,245
1658577732.14956,350083.4720883,263
1658577732.14956,350083.4720907,294
1658577732.14956,350083.4720929,308
1658577732.14956,350083.472095,313
1658577732.14956,350083.4720974,329
1658577732.14956,350083.4721049,351
1658577732.14956,350083.4721155,355
1658577732.14956,350083.472119,327
1658577732.14956,350083.4721229,299
1658577732.14956,350083.4721249,273
1658577732.14956,350083.4721316,207
1658577732.14956,350083.4721427,120
1658577732.14956,350083.4721475,56
1658577732.14956,350083.4721496,28
1658577732.14956,350083.4721524,9
1658577732.14956,350083.4721545,-23
1658577732.14956,350083.472157,-49
1658577732.14956,350083.472165,-51
1658577732.14956,350083.4721754,-47
1658577732.14956,350083.4721796,-42
1658577732.14956,350083.4721817,-42
1658577732.14956,350083.4721838,-47
1658577732.14956,350083.4721889,-35
1658577732.14956,350083.4722002,-21
1658577732.14956,350083.4722057,-16
1658577732.14956,350083.4722087,-9
1658577732.14956,350083.4722108,0
1658577732.14956,350083.4722129,4
1658577732.14956,350083.4722153,23
1658577732.14956,350083.4722228,37
1658577732.14956,350083.4722345,35
1658577732.14956,350083.4722386,56
1658577732.14956,350083.4722426,77
1658577732.14956,350083.472247,65
1658577732.14956,350083.4722518,73
1658577732.14956,350083.4722541,103
1658577732.14956,350084.2533721,110
1658577732.16053,350084.2533906,96
1658577732.16053,350084.2533981,75
1658577732.16053,350084.2534026,75
1658577732.16053,350084.253409,94
1658577732.16053,350084.2534136,73
1658577732.16053,350084.2534189,32
1658577732.16053,350084.2534223,51
1658577732.16053,350084.2534256,84
1658577732.16053,350084.2534309,65
1658577732.16053,350084.2534373,44
1658577732.16053,350084.2534415,63
1658577732.16053,350084.2534468,75
1658577732.16053,350084.2534507,58
1658577732.16053,350084.253458,54
1658577732.16053,350084.2534722,75
1658577732.16053,350084.2534852,96
1658577732.16053,350084.2534957,91
1658577732.16053,350084.2535058,82
1658577732.16053,350084.2535137,87
1658577732.16053,350084.2535161,80
1658577732.16053,350084.2535193,58
1658577732.16053,350084.2535311,58
1658577732.16053,350084.2535425,68
1658577732.16053,350084.253546,70
1658577732.73993,350084.2535499,70
1658577732.73993,350084.253552,58
1658577732.73993,350084.2535542,68
1658577732.73993,350084.2535593,84
1658577732.73993,350084.2535687,80
1658577732.73993,350084.2535752,87
1658577732.73993,350084.2535826,143
1658577732.73993,350084.2535903,289
1658577732.73993,350084.2535972,530
1658577732.73993,350084.2536091,744
1658577732.73993,350084.2536162,624
1658577732.73993,350084.2536207,49
1658577732.73993,350084.2536236,-315
1658577732.73993,350084.2536326,-40
1658577732.73993,350084.2536451,171
1658577732.73993,350084.2536504,49
1658577732.73993,350084.2536595,40
1658577732.73993,350084.253672,108
1658577732.73993,350084.2536789,82
1658577732.73993,350084.2536895,65
1658577732.73993,350084.2537011,91
1658577732.73993,350084.2537132,96
1658577732.73993,350084.2537253,98
1658577732.73993,350084.2537595,110
1658577732.73993,350084.2537793,117
1658577732.73993,350084.2537871,122
1658577732.73993,350084.2537922,141
1658577732.73993,350084.2537976,146
1658577732.73993,350084.2538025,131
1658577732.73993,350084.253808,139
1658577732.73993,350084.2538119,164
1658577732.73993,350084.2538162,162
1658577732.73993,350084.2538215,157
1658577732.73993,350084.2538269,195
1658577732.73993,350084.2538306,235
1658577732.73993,350084.2538345,254
1658577732.73993,350084.25384,270
1658577732.73993,350084.253844,292
1658577732.73993,350084.2538491,310
1658577732.73993,350084.2538523,315
1658577732.73993,350084.2538573,320
1658577732.73993,350084.2538643,329
1658577732.73993,350084.2538678,313
1658577732.73993,350084.2538733,270
1658577732.73993,350084.2538785,219
1658577732.73993,350084.2538826,148
1658577732.73993,350084.2538879,75
1658577732.73993,350084.2538912,25
1658577732.73993,350084.83774,-4
1658577732.73993,350084.8377614,-37
1658577732.75191,350084.8377771,-61
1658577732.75191,350084.8377904,-63
1658577732.75191,350084.8377999,-63
1658577732.75191,350084.8378066,-68
1658577732.75191,350084.8378153,-63
1658577732.75191,350084.8378226,-58
1658577732.75191,350084.8378297,-70
1658577732.75191,350084.8378416,-70
1658577732.75191,350084.8378529,-54
1658577732.75191,350084.837862,-49
1658577732.75191,350084.8378669,-49
1658577732.75191,350084.8378701,-40
1658577732.75191,350084.8378757,-30
1658577732.75191,350084.8378859,-35
1658577732.75191,350084.8378903,-35
1658577732.75191,350084.8379026,-11
1658577732.75191,350084.8379102,-7
1658577732.75191,350084.8379135,-11
1658577732.75191,350084.837919,0
1658577732.75191,350084.8379316,-4
1658577732.75191,350084.8379401,-23
1658577732.75191,350084.8379522,-21
1658577732.75191,350084.8379624,-9
1658577732.75191,350084.8379731,-4
1658577733.12856,350084.8379841,4
1658577733.12856,350084.8379914,9
1658577733.12856,350084.8379984,-9
1658577733.12856,350084.8380086,-16
1658577733.12856,350084.8380168,7
1658577733.12856,350084.8380235,14
1658577733.12856,350084.8380322,9
1658577733.12856,350084.8380443,23
1658577733.12856,350084.8380554,51
1658577733.12856,350084.8380639,58
1658577733.12856,350084.8380755,51
1658577733.12856,350084.8380866,32
1658577733.12856,350084.8380946,14
1658577733.12856,350084.8381054,16
1658577733.12856,350084.8381177,21
1658577733.12856,350084.8381236,16
1658577733.12856,350084.8381285,30
1658577733.12856,350084.8381324,42
1658577733.12856,350084.8381362,37
1658577733.12856,350084.83814,47
1658577733.12856,350084.8381443,49
1658577733.12856,350084.8381503,37
1658577733.12856,350084.8381537,58
1658577733.12856,350084.8381571,160
1658577733.12856,350084.8381606,339
1658577733.12856,350084.8381639,567
1658577733.12856,350084.8381674,713
1658577733.12856,350084.8381802,435
1658577733.12856,350084.8381896,-139
1658577733.12856,350084.8381936,-235
1658577733.12856,350084.8381989,75
1658577733.12856,350084.8382026,96
1658577733.12856,350084.8382076,-23
1658577733.12856,350084.8382161,35
1658577733.12856,350084.8382229,73
1658577733.12856,350084.8382253,37
1658577733.12856,350084.8382275,61
1658577733.12856,350084.8382297,91
1658577733.12856,350084.8382318,68
1658577733.12856,350084.8382339,61
1658577733.12856,350084.8382361,84
1658577733.12856,350084.8382384,98
1658577733.12856,350084.8382406,89
1658577733.12856,350084.8382426,91
1658577733.12856,350084.8382447,117
1658577733.12856,350084.8382467,136
1658577733.12856,350084.8382488,143
1658577733.12856,350085.2280082,153
1658577733.12856,350085.2280219,164
1658577733.12856,350085.2280265,188
1658577733.13953,350085.2280289,226
1658577733.13953,350085.2280311,233
1658577733.13953,350085.2280332,235
1658577733.13953,350085.2280354,270
1658577733.13953,350085.2280377,306
1658577733.13953,350085.2280399,313
1658577733.13953,350085.228042,315
1658577733.13953,350085.2280441,322
1658577733.13953,350085.2280463,318
1658577733.13953,350085.2280484,289
1658577733.13953,350085.2280506,247
1658577733.13953,350085.2280527,193
1658577733.13953,350085.2280549,117
1658577733.13953,350085.228057,49
1658577733.13953,350085.228059,11
1658577733.13953,350085.2280613,-9
1658577733.13953,350085.2280634,-23
1658577733.13953,350085.2280654,-28
1658577733.13953,350085.2280675,-18
1658577733.13953,350085.2280696,2
1658577733.13953,350085.2280717,4
1658577733.13953,350085.2280745,-7
1658577733.13953,350085.2280766,-11
1658577733.13953,350085.2280787,-21
1658577733.95749,350085.2280809,-21
1658577733.95749,350085.2280849,-7

1658577733.95749,350085.2280965,-2
1658577733.95749,350085.2281023,-18
1658577733.95749,350085.2281045,-28
1658577733.95749,350085.2281067,-9
1658577733.95749,350085.2281137,7
1658577733.95749,350085.2281254,4
1658577733.95749,350085.2281347,-4
1658577733.95749,350085.228148,-4
1658577733.95749,350085.2281573,2
1658577733.95749,350085.2281599,-2
1658577733.95749,350085.2281634,-9
1658577733.95749,350085.2281764,-2
1658577733.95749,350085.2281823,16
1658577733.95749,350085.2281854,25
1658577733.95749,350085.2281876,7
1658577733.95749,350085.2281898,-21
1658577733.95749,350085.2281925,-14
1658577733.95749,350085.2282029,11
1658577733.95749,350085.2282115,21
1658577733.95749,350085.2282141,23
1658577733.95749,350085.2282163,16
1658577733.95749,350085.2282185,21
1658577733.95749,350085.2282207,37
1658577733.95749,350085.2282228,35
1658577733.95749,350085.228225,25
1658577733.95749,350085.2282277,30
1658577733.95749,350085.2282299,37
1658577733.95749,350085.228232,44
1658577733.95749,350085.2282341,70
1658577733.95749,350085.2282364,89
1658577733.95749,350085.2282385,87
1658577733.95749,350085.2282408,82
1658577733.95749,350085.2282429,84
1658577733.95749,350085.2282451,70
1658577733.95749,350085.2282472,54
1658577733.95749,350085.2282493,56
1658577733.95749,350085.2282515,63
1658577733.95749,350085.2282537,77
1658577733.95749,350085.2282558,84
1658577733.95749,350085.2282579,75
1658577733.95749,350085.2282601,82
1658577733.95749,350085.2282622,110
1658577733.95749,350085.2282644,113
1658577733.95749,350085.2282665,103
1658577733.95749,350086.0561052,139
1658577733.95749,350086.0561235,266
1658577733.95749,350086.0561413,508
1658577733.95749,350086.0561696,768
1658577733.98043,350086.0561941,735
1658577733.98043,350086.056198,214
1658577733.98043,350086.0562002,-207
1658577733.98043,350086.0562023,-7
1658577733.98043,350086.0562044,190
1658577733.98043,350086.0562064,58
1658577733.98043,350086.0562085,32
1658577733.98043,350086.0562106,110
1658577733.98043,350086.0562126,108
1658577733.98043,350086.0562147,108
1658577733.98043,350086.0562168,117
1658577733.98043,350086.0562189,98
1658577733.98043,350086.0562209,103
1658577733.98043,350086.056223,127
1658577733.98043,350086.0562251,131
1658577733.98043,350086.0562305,131
1658577733.98043,350086.0562925,150
1658577733.98043,350086.056312,162
1658577733.98043,350086.0563141,153
1658577733.98043,350086.0563161,160
1658577733.98043,350086.0563183,186
1658577733.98043,350086.0563335,202
1658577733.98043,350086.0563355,209
1658577733.98043,350086.0563376,223
1658577734.20295,350086.0563396,247
1658577734.20295,350086.0563572,266
1658577734.20295,350086.0563593,275
1658577734.20295,350086.0563613,292
1658577734.20295,350086.0563633,310
1658577734.20295,350086.0563652,325
1658577734.20295,350086.0563804,334
1658577734.20295,350086.0563824,329
1658577734.20295,350086.0563844,313
1658577734.20295,350086.0563863,294
1658577734.20295,350086.0564033,252
1658577734.20295,350086.0564053,179
1658577734.20295,350086.0564073,108
1658577734.20295,350086.0564093,65
1658577734.20295,350086.0564113,40
1658577734.20295,350086.0564133,18
1658577734.20295,350086.0564154,-9
1658577734.20295,350086.0564174,-28
1658577734.20295,350086.0564193,-18
1658577734.20295,350086.0564214,2
1658577734.20295,350086.0564235,-2
1658577734.20295,350086.0564256,-14
1658577734.20295,350086.0564292,-4
1658577734.20295,350086.0564314,0
1658577734.20295,350086.0564335,-21
1658577734.20295,350086.0564356,-23
1658577734.20295,350086.0564377,0
1658577734.20295,350086.0564398,7
1658577734.20295,350086.0564419,4
1658577734.20295,350086.056444,7
1658577734.20295,350086.0564468,4
1658577734.20295,350086.056449,0
1658577734.20295,350086.0564511,0
1658577734.20295,350086.0564532,4
1658577734.20295,350086.0564553,0
1658577734.20295,350086.0564704,-4
1658577734.20295,350086.0564725,-4
1658577734.20295,350086.0564746,-11
1658577734.20295,350086.0564766,-11
1658577734.20295,350086.0564786,-4
1658577734.20295,350086.0564807,-7
1658577734.20295,350086.0564828,-7
1658577734.20295,350086.0564848,-2
1658577734.20295,350086.0564868,-4
1658577734.20295,350086.0564888,-7
1658577734.20295,350086.2996724,-11
1658577734.20295,350086.299693,-28
1658577734.20295,350086.2997084,-25
1658577734.20295,350086.2997222,-4
1658577734.20295,350086.2997375,-4
1658577734.21489,350086.2997491,-4
1658577734.21489,350086.2997543,-2
1658577734.21489,350086.2997739,-18
1658577734.21489,350086.2997894,-30
1658577734.21489,350086.2998042,-9
1658577734.21489,350086.2998201,-7
1658577734.21489,350086.2998356,-32
1658577734.21489,350086.2998479,-32
1658577734.21489,350086.2998559,-4
1658577734.21489,350086.2998637,23
1658577734.21489,350086.2998705,42
1658577734.21489,350086.2998758,30
1658577734.21489,350086.2998811,11
1658577734.21489,350086.2998859,7
1658577734.21489,350086.2998892,-9
1658577734.21489,350086.2998925,-21
1658577734.21489,350086.2998967,-9
1658577734.21489,350086.2999001,-2
1658577734.21489,350086.2999044,-14
1658577734.21489,350086.2999105,-18
1658577734.21489,350086.2999166,-11
1658577734.21489,350086.2999201,2
1658577734.21489,350086.2999233,4
1658577734.21489,350086.2999265,-9
1658577734.73808,350086.2999308,-18
1658577734.73808,350086.2999363,35
1658577734.73808,350086.2999423,197
1658577734.73808,350086.2999493,475
1658577734.73808,350086.2999561,699
1658577734.73808,350086.2999607,527
1658577734.73808,350086.2999658,-40
1658577734.73808,350086.2999715,-315
1658577734.73808,350086.2999758,-61
1658577734.73808,350086.2999821,42
1658577734.73808,350086.2999888,-110
1658577734.73808,350086.2999939,-101
1658577734.73808,350086.3000002,-25
1658577734.73808,350086.3000068,-49
1658577734.73808,350086.3000117,-61
1658577734.73808,350086.3000169,-30
1658577734.73808,350086.3000237,-23
1658577734.73808,350086.3000305,-30
1658577734.73808,350086.3000369,-18
1658577734.73808,350086.3000405,0
1658577734.73808,350086.3000437,4
1658577734.73808,350086.3000486,4
1658577734.73808,350086.3000551,23
1658577734.73808,350086.3000601,42
1658577734.73808,350086.3000666,44
1658577734.73808,350086.3000737,58
1658577734.73808,350086.3000777,80
1658577734.73808,350086.3000836,87
1658577734.73808,350086.3000893,91
1658577734.73808,350086.3001007,115
1658577734.73808,350086.3001103,146
1658577734.73808,350086.3001201,164
1658577734.73808,350086.3001273,183
1658577734.73808,350086.3001384,204
1658577734.73808,350086.3001638,223
1658577734.73808,350086.3001693,235
1658577734.73808,350086.3001737,233
1658577734.73808,350086.300181,216
1658577734.73808,350086.3001864,212
1658577734.73808,350086.300197,176
1658577734.73808,350086.3002067,80
1658577734.73808,350086.3002141,14
1658577734.73808,350086.3002182,-4
1658577734.73808,350086.300225,-47
1658577734.73808,350086.835435,-77
1658577734.73808,350086.8354543,-70
1658577734.73808,350086.8354634,-75
1658577734.73808,350086.835467,-80
1658577734.73808,350086.8354694,-65
1658577734.73808,350086.8354716,-65
1658577734.74905,350086.8354737,-80
1658577734.74905,350086.8354756,-82
1658577734.74905,350086.8354775,-87
1658577734.74905,350086.8354795,-94
1658577734.74905,350086.8354815,-91
1658577734.74905,350086.8354834,-77
1658577734.74905,350086.8354853,-68
1658577734.74905,350086.8354872,-80
1658577734.74905,350086.8354891,-101
1658577734.74905,350086.8354911,-124
1658577734.74905,350086.8354931,-131
1658577734.74905,350086.835495,-113
1658577734.74905,350086.8354971,-94
1658577734.74905,350086.835499,-89
1658577734.74905,350086.8355009,-94
1658577734.74905,350086.8355047,-80
1658577734.74905,350086.8355136,-63
1658577734.74905,350086.835521,-84
1658577734.74905,350086.8355271,-106
1658577734.74905,350086.8355326,-80
1658577734.74905,350086.8355433,-54
1658577734.74905,350086.8355508,-47
1658577734.74905,350086.8355533,-37
1658577734.74905,350086.8355555,-25
1658577735.3244,350086.8355576,-18
1658577735.3244,350086.8355597,-16
1658577735.3244,350086.8355617,-14
1658577735.3244,350086.8355637,-2
1658577735.3244,350086.8355658,0
1658577735.3244,350086.8355685,-11
1658577735.3244,350086.835577,-2
1658577735.3244,350086.8355844,16
1658577735.3244,350086.8355953,23
1658577735.3244,350086.8355988,30
1658577735.3244,350086.8356018,30
1658577735.3244,350086.8356047,42
1658577735.3244,350086.8356077,61
1658577735.3244,350086.8356107,70
1658577735.3244,350086.8356137,96
1658577735.3244,350086.8356166,120
1658577735.3244,350086.8356196,108
1658577735.3244,350086.8356225,87
1658577735.3244,350086.8356255,91
1658577735.3244,350086.8356285,87
1658577735.3244,350086.8356314,73
1658577735.3244,350086.8356344,80
1658577735.3244,350086.8356373,87
1658577735.3244,350086.8356403,80
1658577735.3244,350086.8356432,77
1658577735.3244,350086.8356462,87
1658577735.3244,350086.835651,96
1658577735.3244,350086.8356533,103
1658577735.3244,350086.8356554,122
1658577735.3244,350086.8356619,143
1658577735.3244,350086.8356692,209
1658577735.3244,350086.8356739,433
1658577735.3244,350086.8356779,730
1658577735.3244,350086.8356818,772
1658577735.3244,350086.8356867,325
1658577735.3244,350086.8356908,-162
1658577735.3244,350086.8356944,-68
1658577735.3244,350086.835699,174
1658577735.3244,350086.8357055,89
1658577735.3244,350086.8357091,42
1658577735.3244,350086.8357126,131
1658577735.3244,350086.8357162,124
1658577735.3244,350086.8357214,89
1658577735.3244,350087.4211529,113
1658577735.3244,350087.4211715,115
1658577735.3244,350087.421179,106
1658577735.3244,350087.4211852,134
1658577735.3244,350087.4211893,143
1658577735.3244,350087.4211934,124
1658577735.3244,350087.4212079,122
1658577735.33637,350087.4212156,146
1658577735.33637,350087.4212212,155
1658577735.33637,350087.4212263,150
1658577735.33637,350087.4212313,155
1658577735.33637,350087.4212362,167
1658577735.33637,350087.421242,169
1658577735.33637,350087.4212498,176
1658577735.33637,350087.4212584,197
1658577735.33637,350087.4212684,223
1658577735.33637,350087.4212772,245
1658577735.33637,350087.4212821,256
1658577735.33637,350087.4212868,268
1658577735.33637,350087.4212929,280
1658577735.33637,350087.4212986,292
1658577735.33637,350087.4213043,294
1658577735.33637,350087.4213107,287
1658577735.33637,350087.421314,273
1658577735.33637,350087.4213169,233
1658577735.33637,350087.42132,164
1658577735.33637,350087.421323,108
1658577735.33637,350087.421326,70
1658577735.33637,350087.421329,25
1658577735.33637,350087.4213321,-11
1658577735.33637,350087.421335,-28
1658577735.95792,350087.4213386,-35
1658577735.95792,350087.4213473,-42
1658577735.95792,350087.4213526,-47
1658577735.95792,350087.4213556,-58
1658577735.95792,350087.4213585,-65
1658577735.95792,350087.4213614,-58
1658577735.95792,350087.4213649,-51
1658577735.95792,350087.4213793,-49
1658577735.95792,350087.4213927,-40
1658577735.95792,350087.4214059,-25
1658577735.95792,350087.421418,-14
1658577735.95792,350087.4214263,-4
1658577735.95792,350087.4214304,0
1658577735.95792,350087.4214341,7
1658577735.95792,350087.4214383,14
1658577735.95792,350087.4214441,21
1658577735.95792,350087.4214492,32
1658577735.95792,350087.4214547,35
1658577735.95792,350087.4214588,35
1658577735.95792,350087.4214627,42
1658577735.95792,350087.4214666,44
1658577735.95792,350087.4214721,35
1658577735.95792,350087.4214771,37
1658577735.95792,350087.4214805,47
1658577735.95792,350087.421484,49
1658577735.95792,350087.4214881,42
1658577735.95792,350087.4214948,44
1658577735.95792,350087.4215106,51
1658577735.95792,350087.421523,49
1658577735.95792,350087.4215372,49
1658577735.95792,350087.4215463,56
1658577735.95792,350087.4215522,58
1658577735.95792,350087.421556,63
1658577735.95792,350087.4215605,82
1658577735.95792,350087.4215652,84
1658577735.95792,350087.4215689,75
1658577735.95792,350087.4215822,75
1658577735.95792,350087.4215954,82
1658577735.95792,350087.4216067,84
1658577735.95792,350087.4216112,84
1658577735.95792,350087.4216156,91
1658577735.95792,350087.4216246,124
1658577735.95792,350088.0543774,146
1658577735.95792,350088.0544061,122
1658577735.95792,350088.054409,96
1658577735.95792,350088.0544126,94
1658577735.95792,350088.0544148,101
1658577735.95792,350088.0544169,106
1658577735.95792,350088.054419,117
1658577735.95792,350088.054421,124
1658577735.97986,350088.0544231,113
1658577735.97986,350088.0544252,106
1658577735.97986,350088.0544272,122
1658577735.97986,350088.0544293,148
1658577735.97986,350088.0544314,153
1658577735.97986,350088.0544336,139
1658577735.97986,350088.0544357,141
1658577735.97986,350088.0544378,212
1658577735.97986,350088.0544399,417
1658577735.97986,350088.054442,718
1658577735.97986,350088.0544442,831
1658577735.97986,350088.0544463,426
1658577735.97986,350088.0544484,-120
1658577735.97986,350088.0544505,-96
1658577735.97986,350088.0544526,176
1658577735.97986,350088.0544547,127
1658577735.97986,350088.0544567,49
1658577735.97986,350088.054459,120
1658577735.97986,350088.0544613,127
1658577735.97986,350088.0544634,94
1658577735.97986,350088.0544654,127
1658577735.97986,350088.0544675,150
1658577735.97986,350088.0544697,146
1658577735.97986,350088.0544849,153
1658577736.54688,350088.0544869,167
1658577736.54688,350088.054489,179
1658577736.54688,350088.0544909,190
1658577736.54688,350088.0545083,195
1658577736.54688,350088.0545103,204
1658577736.54688,350088.0545123,221
1658577736.54688,350088.0545142,230
1658577736.54688,350088.0545162,242
1658577736.54688,350088.0545181,256
1658577736.54688,350088.0545203,268
1658577736.54688,350088.0545224,289
1658577736.54688,350088.0545243,315
1658577736.54688,350088.0545262,325
1658577736.54688,350088.0545282,334
1658577736.54688,350088.0545302,343
1658577736.54688,350088.0545322,351
1658577736.54688,350088.0545341,355
1658577736.54688,350088.0545361,360
1658577736.54688,350088.054538,348
1658577736.54688,350088.05454,327
1658577736.54688,350088.0545421,289
1658577736.54688,350088.0545441,223
1658577736.54688,350088.0545462,155
1658577736.54688,350088.0545481,103
1658577736.54688,350088.05455,68
1658577736.54688,350088.0545527,35
1658577736.54688,350088.0545554,-2
1658577736.54688,350088.0545576,-25
1658577736.54688,350088.0545598,-25
1658577736.54688,350088.0545618,-11
1658577736.54688,350088.0545639,2
1658577736.54688,350088.054566,-4
1658577736.54688,350088.0545681,-14
1658577736.54688,350088.0545703,0
1658577736.54688,350088.0545724,11
1658577736.54688,350088.0545876,2
1658577736.54688,350088.0545898,-2
1658577736.54688,350088.0545918,9
1658577736.54688,350088.0545939,18
1658577736.54688,350088.0545959,28
1658577736.54688,350088.0545979,37
1658577736.54688,350088.6394175,30
1658577736.54688,350088.6394409,25
1658577736.54688,350088.6394483,35
1658577736.54688,350088.6394573,37
1658577736.54688,350088.6394636,35
1658577736.54688,350088.6394702,32
1658577736.54688,350088.6394792,35
1658577736.54688,350088.6394857,40
1658577736.54688,350088.6394938,37
1658577736.56883,350088.6395004,30
1658577736.56883,350088.6395087,30
1658577736.56883,350088.6395151,30
1658577736.56883,350088.6395233,25
1658577736.56883,350088.6395296,25
1658577736.56883,350088.6395338,23
1658577736.56883,350088.6395369,23
1658577736.56883,350088.6395399,32
1658577736.56883,350088.6395428,47
1658577736.56883,350088.6395458,56
1658577736.56883,350088.6395488,37
1658577736.56883,350088.6395519,9
1658577736.56883,350088.6395549,21
1658577736.56883,350088.6395577,54
1658577736.56883,350088.6395608,70
1658577736.56883,350088.6395637,63
1658577736.56883,350088.6395667,37
1658577736.56883,350088.6395697,23
1658577736.56883,350088.6395728,23
1658577736.56883,350088.639576,18
1658577736.56883,350088.6395804,9
1658577736.56883,350088.6395833,4
1658577736.56883,350088.6395863,0
1658577736.56883,350088.6395894,-7
1658577737.07881,350088.6395928,4
1658577737.07881,350088.6395997,21
1658577737.07881,350088.6396074,18
1658577737.07881,350088.6396148,14
1658577737.07881,350088.6396201,21
1658577737.07881,350088.6396245,42
1658577737.07881,350088.6396277,124
1658577737.07881,350088.6396319,313
1658577737.07881,350088.6396348,584
1658577737.07881,350088.6396375,730
1658577737.07881,350088.6396402,391
1658577737.07881,350088.6396428,-186
1658577737.07881,350088.6396455,-212
1658577737.07881,350088.6396482,134
1658577737.07881,350088.6396508,139
1658577737.07881,350088.6396536,4
1658577737.07881,350088.6396564,56
1658577737.07881,350088.6396593,96
1658577737.07881,350088.6396619,65
1658577737.07881,350088.6396647,77
1658577737.07881,350088.6396674,106
1658577737.07881,350088.6396702,98
1658577737.07881,350088.6396728,96
1658577737.07881,350088.6396754,106
1658577737.07881,350088.6396781,110
1658577737.07881,350088.6396813,117
1658577737.07881,350088.6396841,127
1658577737.07881,350088.6396869,122
1658577737.07881,350088.6396897,117
1658577737.07881,350088.6396933,134
1658577737.07881,350088.6396962,148
1658577737.07881,350088.6396989,162
1658577737.07881,350088.639702,171
1658577737.07881,350088.6397048,181
1658577737.07881,350088.6397076,204
1658577737.07881,350088.6397104,223
1658577737.07881,350088.6397133,235
1658577737.07881,350088.6397163,256
1658577737.07881,350088.6397191,270
1658577737.07881,350088.6397219,278
1658577737.07881,350089.1761481,289
1658577737.07881,350089.1761628,289
1658577737.07881,350089.1761661,266
1658577737.07881,350089.1761684,216
1658577737.07881,350089.1761706,157
1658577737.07881,350089.1761729,106
1658577737.07881,350089.1761751,58
1658577737.07881,350089.1761772,2
1658577737.07881,350089.1761794,-47
1658577737.07881,350089.1761815,-61
1658577737.10109,350089.1761837,-44
1658577737.10109,350089.1761858,-49
1658577737.10109,350089.176188,-51
1658577737.10109,350089.1761911,-16
1658577737.10109,350089.1762048,-9
1658577737.10109,350089.1762128,-32
1658577737.10109,350089.1762153,-25
1658577737.10109,350089.1762175,11
1658577737.10109,350089.1762196,32
1658577737.10109,350089.1762218,23
1658577737.10109,350089.1762246,16
1658577737.10109,350089.1762352,18
1658577737.10109,350089.1762445,25
1658577737.10109,350089.1762469,49
1658577737.10109,350089.1762491,56
1658577737.10109,350089.1762512,47
1658577737.10109,350089.1762533,56
1658577737.10109,350089.1762554,56
1658577737.10109,350089.1762582,40
1658577737.10109,350089.1762683,44
1658577737.10109,350089.1762767,58
1658577737.10109,350089.1762792,63
1658577737.10109,350089.1762813,51
1658577737.10109,350089.1762834,42
1658577737.57127,350089.1762856,56
1658577737.57127,350089.1763006,70
1658577737.57127,350089.1763026,58
1658577737.57127,350089.1763046,56
1658577737.57127,350089.1763066,63
1658577737.57127,350089.1763085,58
1658577737.57127,350089.1763256,65
1658577737.57127,350089.1763276,80
1658577737.57127,350089.1763295,82
1658577737.57127,350089.1763314,108
1658577737.57127,350089.1763341,146
1658577737.57127,350089.1763365,139
1658577737.57127,350089.1763383,115
1658577737.57127,350089.1763403,106
1658577737.57127,350089.1763422,98
1658577737.57127,350089.1763442,98
1658577737.57127,350089.1763462,103
1658577737.57127,350089.1763481,98
1658577737.57127,350089.1763501,96
1658577737.57127,350089.1763523,94
1658577737.57127,350089.1763593,91
1658577737.57127,350089.1763708,96
1658577737.57127,350089.1763808,98
1658577737.57127,350089.1763865,103
1658577737.57127,350089.1763887,122
1658577737.57127,350089.1763906,181
1658577737.57127,350089.1763927,329
1658577737.57127,350089.1764078,584
1658577737.57127,350089.1764101,782
1658577737.57127,350089.1764329,605
1658577737.57127,350089.1764419,42
1658577737.57127,350089.1764446,-228
1658577737.57127,350089.1764469,42
1658577737.57127,350089.176449,190
1658577737.57127,350089.1764512,89
1658577737.57127,350089.1764535,103
1658577737.57127,350089.1764556,150
1658577737.57127,350089.1764578,122
1658577737.57127,350089.1764599,117
1658577737.57127,350089.6630781,143
1658577737.57127,350089.663105,148
1658577737.57127,350089.6631081,148
1658577737.57127,350089.663112,150
1658577737.57127,350089.6631142,160
1658577737.57127,350089.6631164,174
1658577737.57127,350089.6631185,169
1658577737.57127,350089.6631207,167
1658577737.57127,350089.6631228,190
1658577737.57127,350089.6631249,216
1658577737.57127,350089.663127,212
1658577737.5942,350089.6631291,197
1658577737.5942,350089.6631312,202
1658577737.5942,350089.6631333,212
1658577737.5942,350089.6631365,214
1658577737.5942,350089.6631495,237
1658577737.5942,350089.6631575,278
1658577737.5942,350089.6631602,299
1658577737.5942,350089.6631625,299
1658577737.5942,350089.6631647,294
1658577737.5942,350089.6631669,299
1658577737.5942,350089.6631737,313
1658577737.5942,350089.663185,313
1658577737.5942,350089.66319,263
1658577737.5942,350089.6631922,164
1658577737.5942,350089.6631942,75
1658577737.5942,350089.6632095,25
1658577737.5942,350089.6632115,-18
1658577737.5942,350089.6632135,-63
1658577737.5942,350089.6632154,-94
1658577737.5942,350089.6632326,-106
1658577737.5942,350089.6632346,-113
1658577737.5942,350089.6632365,-124
1658577737.5942,350089.6632385,-122
1658577737.5942,350089.6632405,-113
1658577738.11407,350089.6632436,-117
1658577738.11407,350089.6632458,-117
1658577738.11407,350089.6632478,-106
1658577738.11407,350089.6632498,-96
1658577738.11407,350089.6632518,-80
1658577738.11407,350089.663254,-61
1658577738.11407,350089.6632559,-65
1658577738.11407,350089.6632578,-70
1658577738.11407,350089.6632598,-47
1658577738.11407,350089.6632618,-32
1658577738.11407,350089.6632638,-44
1658577738.11407,350089.6632657,-44
1658577738.11407,350089.6632677,-42
1658577738.11407,350089.6632697,-51
1658577738.11407,350089.6632718,-44
1658577738.11407,350089.6632739,-28
1658577738.11407,350089.6632758,-23
1658577738.11407,350089.6632778,-35
1658577738.11407,350089.6632805,-37
1658577738.11407,350089.6632846,-14
1658577738.11407,350089.6632894,-4
1658577738.11407,350089.6632942,-21
1658577738.11407,350089.6632993,-18
1658577738.11407,350089.6633066,-9
1658577738.11407,350089.6633099,-11
1658577738.11407,350089.663313,-4
1658577738.11407,350089.6633159,-25
1658577738.11407,350089.6633188,-63
1658577738.11407,350089.6633218,-47
1658577738.11407,350089.6633247,-4
1658577738.11407,350089.6633276,2
1658577738.11407,350089.6633306,-4
1658577738.11407,350089.6633344,-4
1658577738.11407,350089.6633366,-11
1658577738.11407,350089.6633388,-16
1658577738.11407,350089.6633409,-14
1658577738.11407,350089.663343,-16
1658577738.11407,350089.6633451,-9
1658577738.11407,350090.1998464,4
1658577738.11407,350090.1998648,2
1658577738.11407,350090.1998732,9
1658577738.11407,350090.1998798,35
1658577738.11407,350090.1998884,37
1658577738.11407,350090.1998986,28
1658577738.11407,350090.1999061,37
1658577738.11407,350090.1999154,35
1658577738.11407,350090.1999223,37
1658577738.11407,350090.1999293,136
1658577738.11407,350090.1999338,353
1658577738.11407,350090.1999403,584
1658577738.13701,350090.1999466,614
1658577738.13701,350090.199954,176
1658577738.13701,350090.1999608,-351
1658577738.13701,350090.1999669,-266
1658577738.13701,350090.1999792,16
1658577738.13701,350090.1999891,-63
1658577738.13701,350090.1999968,-115
1658577738.13701,350090.2000041,-21
1658577738.13701,350090.2000105,-35
1658577738.13701,350090.2000175,-56
1658577738.13701,350090.2000207,-9
1658577738.13701,350090.2000236,-7
1658577738.13701,350090.2000266,-18
1658577738.13701,350090.2000302,2
1658577738.13701,350090.2000355,-16
1658577738.13701,350090.2000411,-47
1658577738.13701,350090.2000443,-30
1658577738.13701,350090.2000494,-9
1658577738.13701,350090.2000628,-16
1658577738.13701,350090.2000759,-9
1658577738.13701,350090.2000889,9
1658577738.13701,350090.2001021,14
1658577738.13701,350090.2001151,25
1658577738.13701,350090.2001284,42
1658577738.69393,350090.200141,47
1658577738.69393,350090.2001491,68
1658577738.69393,350090.2001565,89
1658577738.69393,350090.2001643,77
1658577738.69393,350090.2001733,82
1658577738.69393,350090.2001813,139
1658577738.69393,350090.2001896,164
1658577738.69393,350090.2001968,143
1658577738.69393,350090.2002039,127
1658577738.69393,350090.2002168,106
1658577738.69393,350090.2002295,54
1658577738.69393,350090.200243,9
1658577738.69393,350090.2002479,-7
1658577738.69393,350090.2002523,-58
1658577738.69393,350090.2002565,-136
1658577738.69393,350090.200261,-181
1658577738.69393,350090.2002653,-193
1658577738.69393,350090.2002701,-190
1658577738.69393,350090.2002744,-176
1658577738.69393,350090.2002789,-131
1658577738.69393,350090.2002838,-96
1658577738.69393,350090.2003105,-122
1658577738.69393,350090.2003259,-148
1658577738.69393,350090.2003307,-150
1658577738.69393,350090.2003356,-122
1658577738.69393,350090.2003387,-87
1658577738.69393,350090.2003418,-98
1658577738.69393,350090.2003448,-94
1658577738.69393,350090.2003479,-73
1658577738.69393,350090.2003512,-98
1658577738.69393,350090.2003555,-124
1658577738.69393,350090.2003589,-106
1658577738.69393,350090.2003646,-89
1658577738.69393,350090.2003682,-103
1658577738.69393,350090.2003736,-96
1658577738.69393,350090.2003774,-73
1658577738.69393,350090.2003846,-77
1658577738.69393,350090.7844479,-101
1658577738.69393,350090.784467,-103
1658577738.69393,350090.7844715,-77
1658577738.69393,350090.7844753,-70
1658577738.69393,350090.7844788,-98
1658577738.69393,350090.7844838,-98
1658577738.69393,350090.7844881,-68
1658577738.69393,350090.7844918,-61
1658577738.69393,350090.7844974,-84
1658577738.69393,350090.7845011,-103
1658577738.69393,350090.7845054,-101
1658577738.69393,350090.7845094,-82
1658577738.69393,350090.7845129,-54
1658577738.71687,350090.7845172,-30
1658577738.71687,350090.7845208,-30
1658577738.71687,350090.7845242,-44
1658577738.71687,350090.7845278,-51
1658577738.71687,350090.7845315,-61
1658577738.71687,350090.7845361,-63
1658577738.71687,350090.7845393,-44
1658577738.71687,350090.7845421,-37
1658577738.71687,350090.784545,-40
1658577738.71687,350090.7845477,-25
1658577738.71687,350090.7845506,-4
1658577738.71687,350090.7845534,16
1658577738.71687,350090.7845561,44
1658577738.71687,350090.7845588,61
1658577738.71687,350090.7845615,68
1658577738.71687,350090.7845642,73
1658577738.71687,350090.7845669,120
1658577738.71687,350090.7845697,287
1658577738.71687,350090.7845725,551
1658577738.71687,350090.7845752,749
1658577738.71687,350090.784578,614
1658577738.71687,350090.7845808,70
1658577738.71687,350090.7845835,-287
1658577738.71687,350090.7845864,-58
1658577739.27068,350090.7845891,139
1658577739.27068,350090.7845917,42
1658577739.27068,350090.7845944,9
1658577739.27068,350090.784597,40
1658577739.27068,350090.7845998,35
1658577739.27068,350090.7846026,73
1658577739.27068,350090.7846077,94
1658577739.27068,350090.7846107,63
1658577739.27068,350090.7846135,89
1658577739.27068,350090.7846162,122
1658577739.27068,350090.784619,101
1658577739.27068,350090.7846221,115
1658577739.27068,350090.784625,164
1658577739.27068,350090.7846277,169
1658577739.27068,350090.7846304,148
1658577739.27068,350090.7846331,160
1658577739.27068,350090.784636,190
1658577739.27068,350090.7846387,200
1658577739.27068,350090.784643,212
1658577739.27068,350090.7846458,235
1658577739.27068,350090.7846485,268
1658577739.27068,350090.7846512,296
1658577739.27068,350090.7846539,301
1658577739.27068,350090.7846567,287
1658577739.27068,350090.7846595,325
1658577739.27068,350090.7846623,367
1658577739.27068,350090.784665,355
1658577739.27068,350090.7846677,348
1658577739.27068,350090.7846705,332
1658577739.27068,350090.7846732,296
1658577739.27068,350090.784676,261
1658577739.27068,350090.7846789,171
1658577739.27068,350090.7846816,80
1658577739.27068,350090.7846843,61
1658577739.27068,350090.784687,65
1658577739.27068,350090.7846898,28
1658577739.27068,350091.3698869,-51
1658577739.27068,350091.3699034,-49
1658577739.27068,350091.3699083,25
1658577739.27068,350091.3699122,7
1658577739.27068,350091.369916,-44
1658577739.27068,350091.3699196,-23
1658577739.27068,350091.3699232,23
1658577739.27068,350091.369927,32
1658577739.27068,350091.3699306,-21
1658577739.27068,350091.3699342,-63
1658577739.27068,350091.3699379,-16
1658577739.27068,350091.3699415,30
1658577739.27068,350091.3699451,11
1658577739.27068,350091.3699488,-7
1658577739.28065,350091.3699523,-23
1658577739.28065,350091.369956,-21
1658577739.28065,350091.3699602,11
1658577739.28065,350091.3699637,-16
1658577739.28065,350091.3699676,-49
1658577739.28065,350091.3699712,-23
1658577739.28065,350091.3699746,-7
1658577739.28065,350091.3699783,-18
1658577739.28065,350091.369982,-9
1658577739.28065,350091.3699856,7
1658577739.28065,350091.3699892,-11
1658577739.28065,350091.3699937,-9
1658577739.28065,350091.3699977,7
1658577739.28065,350091.3700034,-7
1658577739.28065,350091.3700076,-23
1658577739.28065,350091.3700133,-21
1658577739.28065,350091.370017,-4
1658577739.28065,350091.3700266,23
1658577739.28065,350091.3700306,21
1658577739.28065,350091.3700399,2
1658577739.28065,350091.370045,21
1658577739.28065,350091.3700489,54
1658577739.28065,350091.3700546,63
1658577739.28065,350091.3700583,58
1658577739.85583,350091.3700621,54
1658577739.85583,350091.3700661,37
1658577739.85583,350091.3700795,4
1658577739.85583,350091.3700947,0
1658577739.85583,350091.3701048,35
1658577739.85583,350091.3701098,54
1658577739.85583,350091.3701142,54
1658577739.85583,350091.3701186,61
1658577739.85583,350091.370123,49
1658577739.85583,350091.3701292,42
1658577739.85583,350091.3701334,51
1658577739.85583,350091.3701373,54
1658577739.85583,350091.3701412,54
1658577739.85583,350091.3701497,82
1658577739.85583,350091.3701572,155
1658577739.85583,350091.3701644,353
1658577739.85583,350091.3701717,683
1658577739.85583,350091.3701788,779
1658577739.85583,350091.3701859,308
1658577739.85583,350091.3701927,-221
1658577739.85583,350091.370197,-139
1658577739.85583,350091.370201,101
1658577739.85583,350091.3702055,25
1658577739.85583,350091.3702112,-18
1658577739.85583,350091.370215,47
1658577739.85583,350091.3702188,23
1658577739.85583,350091.3702227,-7
1658577739.85583,350091.3702282,16
1658577739.85583,350091.370232,14
1658577739.85583,350091.3702356,37
1658577739.85583,350091.3702428,106
1658577739.85583,350091.3702525,106
1658577739.85583,350091.3702658,68
1658577739.85583,350091.3702803,84
1658577739.85583,350091.3702874,101
1658577739.85583,350091.954924,87
1658577739.85583,350091.9549364,94
1658577739.85583,350091.95494,122
1658577739.85583,350091.9549424,131
1658577739.85583,350091.9549445,120
1658577739.85583,350091.9549466,134
1658577739.85583,350091.9549486,190
1658577739.85583,350091.9549508,219
1658577739.85583,350091.9549528,219
1658577739.85583,350091.9549549,245
1658577739.85583,350091.954958,278
1658577739.85583,350091.9549692,287
1658577739.85583,350091.9549783,261
1658577739.85583,350091.9549866,216
1658577739.85583,350091.9549938,226
1658577739.86581,350091.9550028,266
1658577739.86581,350091.9550152,226
1658577739.86581,350091.9550192,120
1658577739.86581,350091.9550321,51
1658577739.86581,350091.9550403,14
1658577739.86581,350091.9550443,-49
1658577739.86581,350091.955049,-96
1658577739.86581,350091.9550526,-101
1658577739.86581,350091.9550562,-122
1658577739.86581,350091.9550605,-115
1658577739.86581,350091.9550657,-51
1658577739.86581,350091.9550695,-54
1658577739.86581,350091.9550732,-91
1658577739.86581,350091.9550768,-54
1658577739.86581,350091.9550818,-28
1658577739.86581,350091.9550872,-61
1658577739.86581,350091.9550929,-63
1658577739.86581,350091.9550987,-25
1658577739.86581,350091.955104,-21
1658577739.86581,350091.9551479,-30
1658577739.86581,350091.9551622,-4
1658577739.86581,350091.9551676,7
1658577739.86581,350091.9551716,-2
1658577739.86581,350091.9551751,16
1658577740.39276,350091.9551795,25
1658577740.39276,350091.955183,16
1658577740.39276,350091.9551864,14
1658577740.39276,350091.9551899,21
1658577740.39276,350091.9551934,16
1658577740.39276,350091.9551978,2
1658577740.39276,350091.9552017,-16
1658577740.39276,350091.9552062,-7
1658577740.39276,350091.9552101,25
1658577740.39276,350091.9552151,35
1658577740.39276,350091.9552189,16
1658577740.39276,350091.9552267,7
1658577740.39276,350091.9552317,7
1658577740.39276,350091.9552363,11
1658577740.39276,350091.9552408,23
1658577740.39276,350091.9552446,28
1658577740.39276,350091.9552491,37
1658577740.39276,350091.9552546,58
1658577740.39276,350091.9552585,75
1658577740.39276,350091.955272,87
1658577740.39276,350091.9552774,98
1658577740.39276,350091.955282,84
1658577740.39276,350091.9552858,42
1658577740.39276,350091.9552903,30
1658577740.39276,350091.9552949,63
1658577740.39276,350091.9552987,77
1658577740.39276,350091.9553034,77
1658577740.39276,350091.9553079,89
1658577740.39276,350091.9553116,94
1658577740.39276,350091.9553162,94
1658577740.39276,350091.9553206,120
1658577740.39276,350091.9553254,139
1658577740.39276,350091.9553299,139
1658577740.39276,350091.9553365,207
1658577740.39276,350092.4907157,407
1658577740.39276,350092.4907277,685
1658577740.39276,350092.4907308,819
1658577740.39276,350092.4907334,511
1658577740.39276,350092.4907359,-30
1658577740.39276,350092.4907382,-106
1658577740.39276,350092.4907405,181
1658577740.39276,350092.4907428,181
1658577740.39276,350092.4907451,63
1658577740.39276,350092.4907474,124
1658577740.39276,350092.4907497,164
1658577740.39276,350092.490752,129
1658577740.39276,350092.4907543,153
1658577740.39276,350092.4907566,186
1658577740.39276,350092.4907589,162
1658577740.39276,350092.4907612,141
1658577740.40274,350092.4907635,174
1658577740.40274,350092.4907659,204
1658577740.40274,350092.4907683,202
1658577740.40274,350092.4907705,212
1658577740.40274,350092.4907728,226
1658577740.40274,350092.490775,221
1658577740.40274,350092.4907772,214
1658577740.40274,350092.4907795,235
1658577740.40274,350092.4907818,259
1658577740.40274,350092.4907841,268
1658577740.40274,350092.4907864,282
1658577740.40274,350092.4907887,301
1658577740.40274,350092.4907909,325
1658577740.40274,350092.4907932,353
1658577740.40274,350092.4907954,376
1658577740.40274,350092.4907976,384
1658577740.40274,350092.4907999,402
1658577740.40274,350092.4908021,424
1658577740.40274,350092.4908043,419
1658577740.40274,350092.4908066,398
1658577740.40274,350092.4908089,367
1658577740.40274,350092.4908111,306
1658577740.40274,350092.4908133,235
1658577740.40274,350092.4908156,183
1658577740.93131,350092.4908177,146
1658577740.93131,350092.49082,113
1658577740.93131,350092.4908221,87
1658577740.93131,350092.4908242,80
1658577740.93131,350092.4908265,87
1658577740.93131,350092.4908286,84
1658577740.93131,350092.4908308,73
1658577740.93131,350092.4908329,65
1658577740.93131,350092.4908349,70
1658577740.93131,350092.490837,94
1658577740.93131,350092.4908391,113
1658577740.93131,350092.4908412,103
1658577740.93131,350092.4908433,94
1658577740.93131,350092.4908454,91
1658577740.93131,350092.4908475,89
1658577740.93131,350092.4908497,101
1658577740.93131,350092.4908533,96
1658577740.93131,350092.4908556,84
1658577740.93131,350092.4908578,101
1658577740.93131,350092.4908601,117
1658577740.93131,350092.4908624,108
1658577740.93131,350092.4908647,103
1658577740.93131,350092.490867,110
1658577740.93131,350092.4908692,106
1658577740.93131,350092.4908714,89
1658577740.93131,350092.4908736,94
1658577740.93131,350092.4908759,120
1658577740.93131,350092.4908781,139
1658577740.93131,350092.4908803,146
1658577740.93131,350092.4908826,146
1658577740.93131,350092.4908849,139
1658577740.93131,350092.4908871,131
1658577740.93131,350092.4908893,141
1658577740.93131,350093.0282317,134
1658577740.93131,350093.0282518,129
1658577740.93131,350093.028263,150
1658577740.93131,350093.0282733,146
1658577740.93131,350093.0282792,160
1658577740.93131,350093.0282846,216
1658577740.93131,350093.0282895,233

1658577740.93131,350093.028294,226
1658577740.93131,350093.0282994,263
1658577740.93131,350093.0283061,278
1658577740.93131,350093.0283122,242
1658577740.93131,350093.0283193,216
1658577740.93131,350093.0283284,207
1658577740.93131,350093.0283389,219
1658577740.93131,350093.0283452,233
1658577740.93131,350093.0283533,233
1658577740.93131,350093.0283647,228
1658577740.94228,350093.0283791,221
1658577740.94228,350093.0283926,228
1658577740.94228,350093.0284061,245
1658577740.94228,350093.0284126,228
1658577740.94228,350093.0284152,219
1658577740.94228,350093.0284233,235
1658577740.94228,350093.028437,266
1658577740.94228,350093.0284472,414
1658577740.94228,350093.0284535,730
1658577740.94228,350093.0284578,965
1658577740.94228,350093.0284646,720
1658577740.94228,350093.0284696,77
1658577740.94228,350093.0284788,-183
1658577740.94228,350093.028488,131
1658577740.94228,350093.0284963,247
1658577740.94228,350093.0285112,106
1658577740.94228,350093.0285196,164
1658577740.94228,350093.0285268,237
1658577740.94228,350093.0285337,190
1658577740.94228,350093.0285407,195
1658577740.94228,350093.0285478,204
1658577740.94228,350093.0285548,183
1658577740.94228,350093.0285608,207
1658577740.94228,350093.0285646,216
1658577741.5152,350093.0285683,202
1658577741.5152,350093.028573,223
1658577741.5152,350093.0285764,242
1658577741.5152,350093.02858,226
1658577741.5152,350093.0285836,235
1658577741.5152,350093.0285871,266
1658577741.5152,350093.0285905,261
1658577741.5152,350093.028594,259
1658577741.5152,350093.0285993,287
1658577741.5152,350093.0286035,315
1658577741.5152,350093.028607,325
1658577741.5152,350093.0286105,341
1658577741.5152,350093.028614,362
1658577741.5152,350093.0286177,379
1658577741.5152,350093.0286214,395
1658577741.5152,350093.0286259,407
1658577741.5152,350093.0286295,409
1658577741.5152,350093.0286327,402
1658577741.5152,350093.0286488,386
1658577741.5152,350093.0286537,379
1658577741.5152,350093.0286572,346
1658577741.5152,350093.0286611,247
1658577741.5152,350093.0286647,174
1658577741.5152,350093.0286686,143
1658577741.5152,350093.0286722,94
1658577741.5152,350093.028676,47
1658577741.5152,350093.0286798,23
1658577741.5152,350093.028697,4
1658577741.5152,350093.028701,0
1658577741.5152,350093.0287045,9
1658577741.5152,350093.0287082,-2
1658577741.5152,350093.0287251,-23
1658577741.5152,350093.6126964,-11
1658577741.5152,350093.6127181,-7
1658577741.5152,350093.6127282,-7
1658577741.5152,350093.6127352,25
1658577741.5152,350093.612741,18
1658577741.5152,350093.6127453,-30
1658577741.5152,350093.6127514,-40
1658577741.5152,350093.6127568,-7
1658577741.5152,350093.6127608,21
1658577741.5152,350093.6127666,0
1658577741.5152,350093.6127702,-32
1658577741.5152,350093.6127746,-35
1658577741.5152,350093.6127812,-40
1658577741.5152,350093.6127861,-61
1658577741.5152,350093.6127913,-77
1658577741.5152,350093.6127949,-68
1658577741.5152,350093.6127984,-44
1658577741.5152,350093.6128019,-58
1658577741.52717,350093.6128055,-77
1658577741.52717,350093.6128093,-77
1658577741.52717,350093.6128132,-80
1658577741.52717,350093.6128184,-89
1658577741.52717,350093.612822,-98
1658577741.52717,350093.6128273,-98
1658577741.52717,350093.6128317,-87
1658577741.52717,350093.6128367,-84
1658577741.52717,350093.6128421,-89
1658577741.52717,350093.6128467,-75
1658577741.52717,350093.6128518,-63
1658577741.52717,350093.6128551,-70
1658577741.52717,350093.6128602,-68
1658577741.52717,350093.6128658,-51
1658577741.52717,350093.6128698,-23
1658577741.52717,350093.6128734,-9
1658577741.52717,350093.6128769,-18
1658577741.52717,350093.6128827,-30
1658577741.52717,350093.6128865,-32
1658577741.52717,350093.6128898,-35
1658577741.52717,350093.6128952,-42
1658577741.52717,350093.6129031,-25
1658577741.52717,350093.6129084,4
1658577741.52717,350093.612913,-4
1658577742.05352,350093.6129205,-18
1658577742.05352,350093.6129243,0
1658577742.05352,350093.6129278,9
1658577742.05352,350093.6129313,9
1658577742.05352,350093.612935,35
1658577742.05352,350093.6129388,120
1658577742.05352,350093.612943,301
1658577742.05352,350093.6129464,570
1658577742.05352,350093.612952,735
1658577742.05352,350093.6129555,468
1658577742.05352,350093.6129588,-127
1658577742.05352,350093.6129622,-308
1658577742.05352,350093.6129657,4
1658577742.05352,350093.6129711,89
1658577742.05352,350093.6129746,-42
1658577742.05352,350093.6129798,-4
1658577742.05352,350093.6129844,47
1658577742.05352,350093.6129896,2
1658577742.05352,350093.6129942,-9
1658577742.05352,350093.6129977,30
1658577742.05352,350093.6130015,61
1658577742.05352,350093.613005,70
1658577742.05352,350093.6130084,56
1658577742.05352,350093.6130118,54
1658577742.05352,350093.6130153,75
1658577742.05352,350093.6130189,77
1658577742.05352,350093.6130223,87
1658577742.05352,350093.6130259,115
1658577742.05352,350093.6130297,120
1658577742.05352,350093.6130353,115
1658577742.05352,350093.6130412,155
1658577742.05352,350094.1485556,188
1658577742.05352,350094.1485769,179
1658577742.05352,350094.148585,176
1658577742.05352,350094.1485891,209
1658577742.05352,350094.1485927,233
1658577742.05352,350094.1486035,226
1658577742.05352,350094.1486135,245
1658577742.05352,350094.1486198,282
1658577742.05352,350094.1486257,282
1658577742.05352,350094.1486316,275
1658577742.05352,350094.1486357,278
1658577742.05352,350094.1486397,270
1658577742.05352,350094.1486442,207
1658577742.05352,350094.1486481,89
1658577742.05352,350094.1486527,11
1658577742.05352,350094.148659,-7
1658577742.05352,350094.1486636,-44
1658577742.05352,350094.148668,-89
1658577742.05352,350094.1486741,-94
1658577742.0635,350094.1486803,-82
1658577742.0635,350094.1486867,-61
1658577742.0635,350094.1486915,-56
1658577742.0635,350094.1486977,-82
1658577742.0635,350094.1487025,-87
1658577742.0635,350094.1487091,-63
1658577742.0635,350094.1487137,-84
1658577742.0635,350094.1487183,-124
1658577742.0635,350094.1487661,-103
1658577742.0635,350094.14878,-32
1658577742.0635,350094.1487844,-23
1658577742.0635,350094.148788,-63
1658577742.0635,350094.1487911,-49
1658577742.0635,350094.1487943,-28
1658577742.0635,350094.1487979,-61
1658577742.0635,350094.1488013,-80
1658577742.0635,350094.1488049,-56
1658577742.0635,350094.1488088,-16
1658577742.0635,350094.1488122,-4
1658577742.0635,350094.1488156,-42
1658577742.0635,350094.1488194,-51
1658577742.0635,350094.1488233,-2
1658577742.0635,350094.1488274,25
1658577742.0635,350094.1488314,23
1658577742.64242,350094.148835,9
1658577742.64242,350094.14884,4
1658577742.64242,350094.1488434,28
1658577742.64242,350094.1488468,25
1658577742.64242,350094.1488504,0
1658577742.64242,350094.1488537,-7
1658577742.64242,350094.1488568,4
1658577742.64242,350094.1488598,21
1658577742.64242,350094.1488629,21
1658577742.64242,350094.148866,23
1658577742.64242,350094.148872,51
1658577742.64242,350094.1488782,84
1658577742.64242,350094.1488845,87
1658577742.64242,350094.1488883,77
1658577742.64242,350094.1488918,49
1658577742.64242,350094.1488964,16
1658577742.64242,350094.1489037,25
1658577742.64242,350094.1489108,42
1658577742.64242,350094.1489145,21
1658577742.64242,350094.148918,16
1658577742.64242,350094.1489212,47
1658577742.64242,350094.1489257,65
1658577742.64242,350094.1489322,61
1658577742.64242,350094.1489386,56
1658577742.64242,350094.1489452,58
1658577742.64242,350094.1489519,129
1658577742.64242,350094.1489585,280
1658577742.64242,350094.1489651,473
1658577742.64242,350094.1489717,664
1658577742.64242,350094.1489802,617
1658577742.64242,350094.7335031,129
1658577742.64242,350094.7335193,-266
1658577742.64242,350094.7335231,-68
1658577742.64242,350094.7335262,127
1658577742.64242,350094.7335291,11
1658577742.64242,350094.7335324,9
1658577742.64242,350094.7335405,84
1658577742.64242,350094.7335461,40
1658577742.64242,350094.7335544,4
1658577742.64242,350094.7335606,54
1658577742.64242,350094.7335641,80
1658577742.64242,350094.7335733,61
1658577742.64242,350094.733582,63
1658577742.64242,350094.7335909,84
1658577742.64242,350094.7335996,73
1658577742.64242,350094.733605,54
1658577742.64242,350094.7336072,63
1658577742.64242,350094.7336094,96
1658577742.64242,350094.7336117,131
1658577742.64242,350094.7336138,127
1658577742.66508,350094.7336159,134
1658577742.66508,350094.7336181,176
1658577742.66508,350094.7336203,179
1658577742.66508,350094.7336224,195
1658577742.66508,350094.7336245,254
1658577742.66508,350094.7336267,266
1658577742.66508,350094.7336307,278
1658577742.66508,350094.7336328,327
1658577742.66508,350094.733635,329
1658577742.66508,350094.7336467,318
1658577742.66508,350094.7336549,346
1658577742.66508,350094.7336586,360
1658577742.66508,350094.7336643,341
1658577742.66508,350094.7336678,289
1658577742.66508,350094.733673,221
1658577742.66508,350094.7336761,190
1658577742.66508,350094.7336793,157
1658577742.66508,350094.7336848,96
1658577742.66508,350094.7336879,77
1658577742.66508,350094.7336913,80
1658577742.66508,350094.7336947,65
1658577742.66508,350094.7336982,80
1658577742.66508,350094.7337054,96
1658577742.66508,350094.7337115,103
1658577743.17611,350094.7337151,122
1658577743.17611,350094.7337193,115
1658577743.17611,350094.7337229,89
1658577743.17611,350094.7337264,84
1658577743.17611,350094.7337299,70
1658577743.17611,350094.7337339,61
1658577743.17611,350094.7337377,82
1658577743.17611,350094.7337409,75
1658577743.17611,350094.7337444,23
1658577743.17611,350094.7337482,-2
1658577743.17611,350094.7337538,18
1658577743.17611,350094.7337597,42
1658577743.17611,350094.7337662,23
1658577743.17611,350094.7337708,-11
1658577743.17611,350094.7337789,-23
1658577743.17611,350094.7337831,-11
1658577743.17611,350094.7337892,-4
1658577743.17611,350094.7337938,-7
1658577743.17611,350094.7337994,-14
1658577743.17611,350094.7338037,-21
1658577743.17611,350094.73381,-32
1658577743.17611,350094.7338161,-32
1658577743.17611,350094.7338209,7
1658577743.17611,350094.7338272,35
1658577743.17611,350094.7338326,28
1658577743.17611,350094.733837,7
1658577743.17611,350094.7338429,9
1658577743.17611,350094.7338476,18
1658577743.17611,350094.7338539,14
1658577743.17611,350095.2703004,25
1658577743.17611,350095.270319,40
1658577743.17611,350095.2703307,14
1658577743.17611,350095.270346,0
1658577743.17611,350095.270352,18
1658577743.17611,350095.2703579,35
1658577743.17611,350095.2703664,18
1658577743.17611,350095.2703717,-30
1658577743.17611,350095.2703762,-61
1658577743.17611,350095.2703812,-44
1658577743.17611,350095.2703856,-25
1658577743.17611,350095.270391,-49
1658577743.17611,350095.2703963,-70
1658577743.17611,350095.2704016,-80
1658577743.17611,350095.2704075,-77
1658577743.17611,350095.2704117,-51
1658577743.17611,350095.2704168,-23
1658577743.17611,350095.2704212,-18
1658577743.17611,350095.270426,-14
1658577743.17611,350095.2704313,84
1658577743.17611,350095.2704358,343
1658577743.19805,350095.2704418,638
1658577743.19805,350095.2704464,619
1658577743.19805,350095.2704511,94
1658577743.19805,350095.2704557,-353
1658577743.19805,350095.2704641,-179
1658577743.19805,350095.2704704,51
1658577743.19805,350095.2704747,-30
1658577743.19805,350095.2704792,-47
1658577743.19805,350095.2704852,23
1658577743.19805,350095.2704903,-2
1658577743.19805,350095.2704956,-11
1658577743.19805,350095.2705041,80
1658577743.19805,350095.2705111,141
1658577743.19805,350095.2705196,136
1658577743.19805,350095.2705253,134
1658577743.19805,350095.2705304,139
1658577743.19805,350095.2705354,148
1658577743.19805,350095.2705425,176
1658577743.19805,350095.2705467,202
1658577743.19805,350095.2705519,212
1658577743.19805,350095.2705556,202
1658577743.19805,350095.2705592,183
1658577743.19805,350095.2705637,209
1658577743.19805,350095.2705683,278
1658577743.75668,350095.270572,296
1658577743.75668,350095.2705757,287
1658577743.75668,350095.2705794,310
1658577743.75668,350095.2705838,329
1658577743.75668,350095.2705876,346
1658577743.75668,350095.2705917,384
1658577743.75668,350095.2705954,400
1658577743.75668,350095.2705991,384
1658577743.75668,350095.2706026,384
1658577743.75668,350095.2706082,395
1658577743.75668,350095.2706128,360
1658577743.75668,350095.2706168,287
1658577743.75668,350095.2706215,226
1658577743.75668,350095.2706269,179
1658577743.75668,350095.2706334,131
1658577743.75668,350095.2706397,91
1658577743.75668,350095.2706456,63
1658577743.75668,350095.2706503,37
1658577743.75668,350095.2706541,28
1658577743.75668,350095.2706586,40
1658577743.75668,350095.2706628,32
1658577743.75668,350095.2706669,21
1658577743.75668,350095.2706712,21
1658577743.75668,350095.270677,18
1658577743.75668,350095.2706832,28
1658577743.75668,350095.2706882,23
1658577743.75668,350095.2706949,11
1658577743.75668,350095.2706988,37
1658577743.75668,350095.8546067,54
1658577743.75668,350095.8546185,42
1658577743.75668,350095.8546254,40
1658577743.75668,350095.8546361,30
1658577743.75668,350095.8546439,25
1658577743.75668,350095.8546485,54
1658577743.75668,350095.8546541,63
1658577743.75668,350095.8546581,32
1658577743.75668,350095.854662,-2
1658577743.75668,350095.8546654,-11
1658577743.75668,350095.8546739,9
1658577743.75668,350095.8546795,44
1658577743.75668,350095.8546818,56
1658577743.75668,350095.8546839,42
1658577743.75668,350095.854686,16
1658577743.75668,350095.8546882,-9
1658577743.75668,350095.8546903,-9
1658577743.75668,350095.8546924,47
1658577743.75668,350095.8546945,73
1658577743.75668,350095.8546966,18
1658577743.75668,350095.8546987,-9
1658577743.75668,350095.8547009,-2
1658577743.76766,350095.8547029,4
1658577743.76766,350095.8547052,37
1658577743.76766,350095.8547073,80
1658577743.76766,350095.8547094,84
1658577743.76766,350095.8547115,47
1658577743.76766,350095.8547134,28
1658577743.76766,350095.8547156,73
1658577743.76766,350095.8547176,96
1658577743.76766,350095.8547197,56
1658577743.76766,350095.8547218,11
1658577743.76766,350095.8547238,11
1658577743.76766,350095.8547259,47
1658577743.76766,350095.8547279,51
1658577743.76766,350095.85473,30
1658577743.76766,350095.8547322,51
1658577743.76766,350095.8547342,89
1658577743.76766,350095.8547363,91
1658577743.76766,350095.8547384,82
1658577743.76766,350095.8547405,117
