-45,80738209
-44,25066526
-45,94930887
-49,65489976
-50,61713367
-49,08569958
-48,56027986
-50,54055035
-56,02618055
-67,51683372
-78,51216705
-77,51183177
-71,76547339
-73,02273178
-73,53324137
-70,04663134
-77,06252578
-94,33054388
-104,1003001
-104,1214045
-103,1434627
-102,9160761
-107,4388426
-118,4613561
-125,233207
-125,2539828
-122,0232677
-108,2906432
-97,80568826
-114,8179797
-135,0770921
-128,0825984
-112,8340698
-103,8310766
-92,57318772
-89,05997147
-105,0409957
-122,265828
-116,984036
-98,94518773
-89,89885186
-85,09459789
-76,53199652
-66,71061991
-54,63004197
-51,78983868
-69,6895883
-88,57887174
-87,7072728
-73,0743785
-61,17977932
-70,27306955
-96,60384754
-106,171716
-77,22628232
12,73284119
201,456037
438,4436819
521,9461472
286,4637978
-84,75300771
-219,7039173
-122,1385859
-69,55667569
-84,95785639
-56,5918054
-21,45820815
-20,55675839
-13,6371584
7,300880733
19,00763887
30,73338657
46,22838483
40,49288488
17,27712793
6,83134493
17,15575639
40,00057211
61,865991
70,50220089
74,15937829
76,33768823
64,28728405
49,50830725
53,50088731
66,01514148
72,05117472
74,60907943
71,68893542
61,0408097
55,91475637
60,81081654
59,72901817
47,419376
35,13189144
25,86655248
17,12333367
11,90219596
10,20308672
11,52593968
20,87067484
34,48719849
39,62540321
37,53516777
41,71635722
52,66882286
63,39240225
75,88691925
89,15218408
92,68799331
84,74412997
80,57036361
86,66645035
83,78213298
65,16714107
54,32119108
57,24398645
55,93521774
47,64456278
46,62168681
58,86624261
65,62787071
49,90619953
33,70084561
41,26141374
58,58749722
66,67867806
67,28452718
69,90460468
77,53846006
82,68563246
82,34565096
85,5180348
95,4522937
105,6479281
111,1044295
108,0712808
99,29795642
97,53392285
103,7786388
107,7815558
111,2921181
115,5597634
110,083923
95,86402244
86,39948138
83,93971441
80,48413126
71,78213719
63,58313337
65,38651731
74,44168327
77,24802261
65,55492425
48,61177505
48,41796026
68,72286391
83,77586928
78,82635926
69,62371684
65,66732552
57,95656974
57,74083532
122,2695099
302,5419834
541,3076483
641,8159005
421,8161392
28,05776777
-147,709806
-58,23716954
7,975095251
-13,07358789
-7,383788992
14,04392852
16,95900831
22,36090149
24,9990671
19,12297249
25,98209375
39,3259161
33,40393431
13,71565311
4,260587568
10,03826346
15,29821769
8,789998646
-9,986833441
-36,53270612
-58,84803436
-68,43322025
-66,28865259
-62,41470661
-68,56174366
-76,48011086
-72,9201408
-74,3821513
-98,11644506
-120,6233094
-120,6530161
-119,205821
-131,0319638
-145,8816679
-165,7551401
-190,9025705
-208,8241321
-222,769981
-239,2402557
-250,7350774
-255,5045497
-255,7987583
-247,8677712
-236,2116382
-231,0803914
-231,7240443
-232,8925926
-235,0860135
-241,8042658
-246,2972903
-230,0650091
-200,3573262
-188,6741272
-191,7652794
-182,3806318
-172,2700153
-186,4332425
-205,8701082
-202,330389
-186,3138439
-179,3202141
-179,5992232
-181,1505774
-183,4739657
-176,5690599
-159,1855151
-148,5729696
-150,2310454
-151,4093481
-145,3574674
-138,3249773
-135,0614363
-132,8163879
-129,0893603
-124,1298677
-116,9374095
-108,5114716
-100,6015259
-89,20703148
-71,82743417
-52,46216745
-37,36065263
-27,77229924
-18,19650547
-8,132658555
-3,330135177
0,961698084
18,99348434
46,01587594
57,77953405
49,03512816
38,03333565
36,27484135
40,51033699
43,74052079
45,21609696
45,1877752
39,65627021
44,37230119
107,5865913
270,0498674
495,512859
619,2262983
440,9409196
46,90745823
-170,1233492
-95,65076568
-14,17405453
-30,69247954
-18,70530569
18,53820037
10,03876977
-16,45286903
-22,43599084
-23,1598742
-27,12380194
-23,07706164
-16,26894619
-19,19875427
-26,11579085
-24,01936772
-13,15880395
-6,283426405
-10,89257023
-18,23557933
-17,81180684
-14,62061559
-15,6613786
-16,93347951
-18,18631302
-21,6692854
-23,38181484
-17,32333194
4,506719902
31,10888404
33,23369023
13,38165417
-3,696722825
-14,50095424
-22,78056872
-26,0351104
-25,01413929
-21,96723158
-15,89397999
-6,543994066
-0,916900486
-0,512343351
10,17001553
36,13049638
57,61940119
66,88701349
75,18359812
84,75940099
95,11464889
107,7495493
114,4142903
112,1090401
113,0839474
120,3391407
123,6247286
121,9407995
121,0374216
119,6646425
117,0724897
118,7609701
124,2300701
127,7297556
130,0099719
133,5706441
135,9116763
134,2829524
130,1843361
130,1156703
138,0767779
147,3174617
149,8375043
146,3866683
138,2146966
125,0713124
117,2062196
124,1191025
134,3096264
136,0274378
134,0221644
129,5434156
121,0907824
118,163838
125,2621379
134,1352204
143,0326064
151,9538003
148,39829
130,3655473
115,8550284
110,366174
104,3984097
99,20114666
99,7737818
100,3656982
95,97626546
99,35484036
151,250767
297,1633776
509,5919925
628,2859211
460,9944618
91,46690318
-110,7974762
-43,049407
25,21037156
-1,518888101
-5,237941244
15,05244969
11,10151558
6,408481189
11,47256567
10,29298314
7,118943154
7,199651346
5,784309907
5,122118166
2,96227314
-7,696029911
-19,35359693
-23,01123449
-21,91974927
-21,57994745
-25,99263419
-33,90861305
-34,07868546
-21,75365013
-8,93430253
-4,371434327
-2,065832838
2,481719511
2,770445724
-4,200425231
-12,93165789
-22,67400976
-34,42823083
-46,94506301
-63,97523966
-85,51948507
-107,328514
-128,4030311
-145,7437305
-156,8512955
-162,7263978
-167,6196971
-176,5318409
-185,2134639
-186,1651875
-184,8876195
-187,3813538
-186,8969696
-185,6850315
-193,4960888
-197,3306754
-182,4393092
-167,8224918
-170,2307084
-172,4144272
-162,8740995
-153,6101587
-153,1230208
-163,1630838
-178,4807274
-185,3263128
-184,4501827
-184,8526606
-180,0340513
-166,74464
-156,7346927
-152,2544559
-145,0541562
-138,3840004
-137,7441756
-135,8848486
-132,3061664
-135,5082557
-143,241223
-151,0051545
-157,3001165
-158,8761547
-156,7332948
-154,3715421
-154,0408819
-153,2412794
-144,4726796
-127,4850079
-114,0281695
-116,10205
-130,4565154
-141,8414122
-142,2565678
-131,9517901
-116,4268683
-107,4315728
-105,7156553
-102,2788493
-96,87087018
-75,49141538
14,35983519
205,933219
427,2290905
487,247821
233,7397982
-142,5445739
-266,3548759
-158,6906723
-102,3015131
-114,186933
-91,59645253
-64,7795782
-59,23580278
-49,2146058
-37,46545391
-32,73780133
-28,03109022
-23,09475113
-16,67820343
-7,530855745
-5,402106379
-8,041343803
-3,197947088
7,128713629
17,43927668
25,23438838
26,26470258
25,53088016
33,28358853
50,02350122
68,50129728
83,96766087
98,92328073
114,8688497
122,8050642
117,2326236
108,9022302
104,5645881
99,47040307
91,37038188
77,76523198
56,90566086
37,2923756
25,67608231
17,05748574
9,437288688
6,066191551
6,944891834
13,82408366
23,20445728
25,33669861
26,72148872
37,35950343
46,50141276
45,64788054
44,54956391
51,45711289
62,62116992
69,04236945
67,72133748
63,90869113
61,85503826
63,56097702
66,52709547
62,75397115
51,74217076
44,49224969
48,50475173
57,78020867
62,56913993
61,37205224
56,93943933
51,52178154
48,61954555
45,98318406
38,61313551
32,25982377
30,67365787
25,85503176
21,55432402
26,77189766
30,25809983
25,51326167
22,78769804
22,58170735
21,64557139
27,22955511
42,33390651
55,20885645
52,60461853
39,52138895
31,95934643
33,66865204
37,14944919
36,90186349
32,92600273
28,97195679
31,78979761
58,12957918
147,7413375
333,3750906
559,0308385
639,4585632
408,4082291
31,37978222
-116,8768488
-31,36175337
10,67496165
-9,266828318
13,81273473
31,41349145
16,78526524
18,17786246
27,0910725
18,77466801
11,47840503
13,9520232
12,94524596
11,45778074
20,98931918
36,03953738
45,35809612
50,44464113
54,54880331
54,17019905
54,30843048
61,46308577
65,1337394
54,56995252
42,27127322
44,23723689
51,96736651
54,71117304
54,71815575
47,98780255
35,7695904
32,06298565
31,36744446
16,93241311
-2,99267151
-15,65838159
-26,56529793
-36,46400958
-40,10511337
-40,48921354
-37,36692129
-30,73885434
-29,60563652
-33,9678973
-34,57627137
-29,68139821
-24,28392158
-22,88448912
-25,48375189
-29,08236389
-31,6809816
-32,28026355
-29,13086982
-23,4834616
-21,58870072
-27,69724917
-36,80976864
-39,17692008
-36,79936319
-34,92775597
-27,56275429
-19,95501136
-23,60517734
-27,01389882
-20,43181839
-14,35957419
-13,54779942
-12,99712196
-11,45816382
-11,68154079
-13,66786195
-11,91772924
-7,681737036
-8,460471718
-10,50451124
-5,81442472
1,859227979
1,015896652
-9,344958842
-14,72386819
-5,371350215
5,462087468
-2,724051133
-23,43025004
-35,90698092
-39,90470276
-47,67386152
-61,96488975
-74,27820629
-77,11421598
-72,22330927
-68,10586198
-58,01223498
12,3072261
197,3521912
433,8723459
507,6173919
246,8370473
-150,9689534
-292,3008589
-190,4089009
-137,7932941
-155,4542355
-134,6419048
-111,3564638
-115,8480566
-112,6168089
-100,4128285
-92,98620482
-85,33700871
-82,46529257
-88,87109013
-88,05441638
-74,26526752
-63,75362089
-60,26943489
-54,31264903
-47,13318381
-44,73094079
-43,60580252
-35,25763264
-19,4362758
-5,641557811
0,626714396
4,118752653
10,0847875
15,27506807
12,43986206
2,579455504
-4,055847239
-3,215723694
-3,649833391
-11,60781803
-26,33930167
-47,34389089
-68,121175
-79,67072624
-82,49210002
-83,58483515
-87,44845406
-88,83246307
-80,48635267
-70,40959777
-67,85165803
-64,8119781
-58,03998799
-59,28510335
-69,29672582
-73,82424338
-67,11703066
-60,17444935
-63,74584856
-71,83056516
-73,42792421
-71,28723938
-73,65781327
-81,03893793
-89,9298952
-94,3299572
-88,98838673
-81,40443774
-82,82735577
-89,75637844
-92,94073587
-92,37965121
-90,82234107
-90,01801603
-93,96588115
-101,4151364
-107,6149774
-113,0645954
-117,5131784
-116,7099114
-110,4039766
-104,8445548
-105,7808247
-113,7119647
-121,6371523
-120,5555656
-110,9663831
-97,11878461
-86,51195167
-89,14506817
-98,26732079
-101,6278996
-101,4759985
-99,81081601
-92,6315554
-82,43742558
-74,47764145
-68,50142448
-50,00800323
29,00338614
214,2834993
455,5830835
568,9028764
370,9936065
-9,394008105
-187,50926
-105,8514529
-49,16990187
-77,71393444
-66,23289048
-30,97612293
-24,19299821
-22,13289667
-13,79521301
-13,92935673
-19,53475252
-17,36084072
-5,157077653
5,327063907
2,842094413
-6,611492855
-9,533222138
-2,422635553
8,970706576
19,14722539
28,35732316
38,35138305
49,37976875
62,19282424
76,79087353
90,1742204
101,8431482
113,5479195
123,038776
134,3159385
154,3796063
172,7299574
180,6171481
183,7913131
177,7525651
162,0009951
151,5366719
148,6096421
147,2199304
151,1175391
162,8024482
175,0246156
180,0339769
179,0804454
175,6639123
170,0342465
167,6912951
167,6348829
159,614813
150,3808666
150,6828034
152,2703614
151,1432573
153,0511869
152,4938246
143,7208244
135,4818196
135,5264232
138,8542282
138,2148079
132,6077159
125,0324868
119,2386363
117,7256616
116,9930416
113,2902374
110,1166926
105,7218338
97,10507092
94,01579746
99,70339118
100,4172144
92,40661452
86,42092434
85,95946269
86,02153481
82,35643292
75,71343664
68,59181359
61,49081985
59,40970053
70,0976903
89,05401394
97,77788691
84,76851592
61,2750995
43,29682857
28,58288708
15,88245254
18,94469667
33,26878599
38,35388246
35,69914405
52,5537254
140,4167785
330,0374531
531,9148976
533,5482597
226,4366867
-127,4206734
-192,7746718
-82,37615759
-59,97597781
-84,57497627
-68,92399318
-64,52386445
-77,87542104
-73,72948835
-68,33688556
-72,94842502
-69,06491163
-59,93714222
-60,0659049
-62,20197851
-59,34613196
-57,24912366
-54,41170093
-48,83459938
-45,26854239
-42,71424048
-38,42239081
-32,64367655
-26,37876642
-25,6283141
-32,39295772
-37,42331934
-40,22000449
-49,03360161
-56,11468162
-53,46379745
-54,83148354
-68,71825548
-83,87460948
-94,05102205
-104,9979495
-119,9658277
-136,2050716
-149,4660747
-157,9992092
-160,5548251
-159,8832503
-163,9847902
-168,1097272
-161,0083208
-149,9308071
-150,1273987
-160,5982843
-169,3436288
-174,3635728
-181,9082328
-186,9777008
-181,5720441
-176,1913055
-181,335503
-189,7546299
-192,1986544
-186,16752
-178,6611452
-178,9294238
-183,2222245
-183,7893913
-179,8807434
-174,9960754
-176,8851573
-184,7977346
-182,9835287
-167,1922366
-153,4235316
-153,1770629
-156,9524565
-150,2493149
-137,0672176
-128,4057213
-124,5143603
-123,8926465
-127,0400702
-124,4561
-109,6401834
-96,59174725
-95,06019785
-91,79492162
-73,54528545
-52,06063716
-50,09030592
-62,88360278
-67,43982115
-65,25823728
-70,08811085
-73,17868544
-62,77918912
-50,38883503
-47,00682196
-37,38233489
21,98545431
178,5973863
405,9543137
529,0571003
340,6566206
-50,74624125
-246,6505915
-159,8055281
-74,46014108
-79,1135133
-65,76472126
-42,16283575
-43,30692262
-43,19604352
-37,07925665
-32,95561753
-26,57417975
-22,93399576
-24,78411765
-23,87359792
-15,70149027
-3,266850429
7,181263107
13,14378822
17,62165841
19,36580194
17,87714109
21,90659127
33,95506029
45,52344751
52,612643
57,9735268
64,60696804
71,26382419
69,19494021
56,15114779
45,13326449
46,14209301
51,42842036
44,24301707
25,58663644
12,96001373
5,863865378
-9,451111712
-29,98424097
-40,48486691
-36,70235584
-30,88609662
-30,0355014
-26,90000629
-20,47907211
-18,27218507
-17,27885743
-11,4986282
-7,681063804
-8,3257587
-7,43233604
-5,000448279
-0,529777791
4,979962544
4,279028754
1,117645215
4,246004101
3,164264848
-11,12744636
-21,37903708
-15,59044913
-9,761659011
-15,64267837
-22,73355444
-26,53437044
-32,54524596
-36,01633736
-33,44783809
-29,83997903
-27,94302882
-33,75729413
-48,28311993
-55,52088974
-47,22102589
-35,13398966
-24,5102815
-11,60044119
-5,905047964
-10,92472063
-10,41011764
0,138062805
13,21908277
30,83216452
48,47649055
49,90120362
39,85540682
39,83816362
48,848498
52,6353946
52,19779885
54,78461715
62,14471714
71,27692783
86,43003998
149,6028063
314,7939418
546,0021241
659,7259939
460,7141552
72,46517597
-111,7724118
-21,00011121
56,78053983
41,56796913
49,86057084
73,15670597
72,954703
79,50285852
93,79943789
95,84267589
97,88077745
107,4119184
115,684246
127,1958803
140,9449142
143,6794147
141,8974238
151,0969591
167,276015
177,6825633
179,8145546
181,6699186
190,7465659
202,0423881
208,8052597
217,0330386
228,4735674
229,6246743
211,4841746
186,2998713
172,5695566
168,2910131
158,4620148
140,3303285
116,1437146
87,89992901
70,84672381
65,98184883
52,8030528
38,30808472
40,49469513
46,36063744
46,40366928
52,37155379
65,26206107
73,07296945
67,55206692
49,9471525
40,75603764
54,47654761
68,60652288
68,64382061
68,08631596
69,93190361
72,17849912
78,57404037
82,61648902
79,3038319
77,38408247
83,85528223
91,71550216
85,96284416
69,09544243
59,11146497
54,50911492
45,786632
41,69229394
47,97441783
54,88136156
53,16152518
43,31335227
33,83533131
27,47599703
20,48393176
17,35776673
19,09618342
17,19791484
9,411746821
-2,763480735
-14,32887258
-15,28547689
-6,134284072
5,373774459
11,98782744
2,707064905
-16,46926066
-25,54183322
-25,76127212
-27,878131
-27,14289678
-18,55598864
-10,11775704
-2,578482766
35,06162399
157,8024245
380,8938525
591,5859148
558,1286924
206,2723407
-130,982909
-148,8867494
-38,93879615
-36,63858758
-59,73558376
-48,47916615
-54,61863695
-57,40321871
-37,08205383
-31,90420415
-43,6186506
-49,47429286
-51,96994908
-50,85435562
-43,12616688
-38,28395509
-38,57621023
-39,25133994
-41,8076695
-44,74344185
-42,55681761
-36,24587524
-31,55861117
-31,24293997
-31,04669466
-28,96762693
-31,25340753
-38,65162663
-45,65979428
-53,27534086
-62,74561765
-71,06789738
-80,73937487
-94,00716772
-107,868317
-123,8197881
-144,1084714
-162,7311835
-173,1846675
-177,4655948
-179,8205655
-182,9961095
-190,4886882
-201,0446948
-207,9104564
-207,5822345
-203,8062269
-203,8285687
-211,145334
-222,502537
-231,6461339
-235,0720241
-236,5260522
-242,004009
-250,5016342
-257,264617
-264,0385986
-273,0691742
-281,101894
-288,8822659
-298,1557572
-308,9177965
-324,1637761
-340,6390533
-352,0889535
-360,5087716
-368,8937745
-377,9892035
-387,790276
-396,2921884
-402,7401182
-409,6292262
-417,7046592
-423,9615521
-429,6450306
-441,2502137
-463,5222159
-492,9561502
-513,7971302
-514,540273
-505,6807016
-498,7135477
-494,1339544
-500,6870783
-518,3680929
-525,1721911
-515,5945874
-507,1305212
-508,7752595
-514,0240992
-515,6223701
-517,3154378
-524,8487062
-505,4676203
-385,1676689
-157,6943877
22,45663859
-68,71022715
-424,9406767
-697,7304594
-684,325385
-611,471326
-637,9142206
-652,1500753
-622,4249677
-610,7350488
-601,3265459
-573,4457648
-550,8390929
-534,0030013
-508,9340475
-486,8788777
-476,3342293
-469,5469335
-465,2639172
-461,9822058
-453,1989251
-443,6613037
-438,6166752
-436,8124804
-441,246269
-449,1657021
-450,8185541
-448,9527143
-452,316189
-458,6571035
-465,9737034
-478,2643565
-489,7775548
-487,2619154
-469,2161822
-445,3892276
-423,7800536
-407,387793
-391,7117109
-367,2512055
-333,0058093
-299,22519
-276,6591515
-273,5576344
-290,1707173
-300,4986168
-274,7916884
-220,3004269
-146,2754667
-41,96758219
81,37231215
225,4931616
428,8937711
683,0728056
942,52879
1206,260109
1492,515009
1804,041597
2161,587841
2576,901572
2972,230484
3237,572135
3362,923947
3413,033208
3426,647075
3417,01257
3409,626587
3413,735889
3387,087114
3309,676771
3235,001247
3182,806805
3111,089589
3017,845622
2927,070812
2831,760953
2728,911724
2630,518698
2532,327336
2417,332999
2275,28094
2114,166315
1957,484183
1820,729507
1698,64716
1581,731925
1466,728499
1347,631497
1213,685455
1061,634831
904,9740096
763,6973073
642,2989724
528,7731902
394,8640863
188,8157296
-76,12786378
-267,9727273
-331,7249401
-371,1406237
-428,2259382
-446,7370788
-411,4302719
-306,0617715
-105,3878557
81,33517752
30,60101335
-297,8466756
-583,5142257
-579,9079786
-484,5342777
-488,6494639
-498,2598724
-467,1218287
-455,4916452
-490,1256171
-627,5300191
-899,9611018
-1196,925088
-1431,428168
-1660,9765
-1912,8262
-2139,983346
-2314,453967
-2408,244046
-2438,609514
-2488,806244
-2575,090054
-2624,966699
-2600,691868
-2542,521184
-2486,210198
-2416,014388
-2320,689156
-2223,989822
-2149,171627
-2097,239725
-2048,449185
-1976,804983
-1883,562004
-1791,725041
-1707,798785
-1633,787832
-1581,196674
-1537,279702
-1476,791199
-1409,735344
-1353,616204
-1295,937738
-1229,20379
-1162,668091
-1092,834259
-1015,205792
-940,7860717
-877,0783607
-821,085801
-769,3114135
-719,2580966
-670,1786261
-623,3256537
-575,9517067
-525,0591874
-475,6503726
-431,9774131
-388,7923334
-344,5970315
-307,6432788
-278,1827201
-246,466873
-210,7471291
-177,2747531
-144,5508837
-104,8265337
-61,85259033
-28,12981605
-3,158848811
22,30979719
49,27573079
78,23868311
109,6985067
136,1551745
158,3587791
185,0595315
211,0077599
227,7039087
243,1485373
264,3423186
282,5360377
296,2305905
312,4269821
322,8763257
322,0798404
320,53885
320,5047811
320,9791616
328,9636186
341,9598768
356,2197568
376,7451727
394,5381307
391,8507267
371,9351447
357,0436542
362,4286089
380,3424438
393,7876737
397,5168905
394,0327616
390,0880272
411,6854984
511,3280548
719,0186424
949,760271
985,3060123
692,1589975
324,0724148
247,2995073
371,8435706
413,2079506
395,6460408
418,9112804
436,007152
433,4371786
446,9549222
460,5639808
458,5179863
459,0706025
463,475522
458,986465
454,6071761
459,5914224
463,1929914
462,4156885
465,513335
471,9897657
476,5988267
476,3443737
474,2302693
478,7603812
485,6885799
484,0187369
482,2547225
487,6504037
484,9596426
470,1862939
457,8342033
448,9072057
435,6591231
421,0937629
410,214916
397,5263552
373,7818332
342,2350813
319,1398074
307,4996944
293,3183989
278,3495492
273,0967444
267,8135522
252,753508
239,6701134
238,3168345
239,1971011
231,3143052
216,6717994
202,0228965
189,8708674
180,9689408
168,5703016
142,67809
111,7954008
90,67528181
78,32073356
70,23470808
69,17010817
71,1297866
61,61654533
39,88313485
25,43225344
27,0165466
32,88860643
37,30097106
40,00612419
35,75649457
29,80445558
28,65232484
23,80236384
12,75677765
5,517714612
4,087266089
1,967466288
-5,589707934
-15,3323372
-18,50855969
-17,11657126
-23,90462542
-39,37103332
-47,76416379
-42,33244317
-31,82435528
-25,23844126
-25,32329938
-28,07758488
-29,50000973
-33,08934235
-40,09440736
-39,01408524
-29,097312
-33,84307881
-54,0004316
-60,06847062
-50,79635005
-47,43327747
-49,22851339
-47,68137074
-35,04121433
32,94253974
208,0204246
443,4429233
541,2104694
305,3234475
-104,217806
-275,1630021
-183,0118988
-132,0143002
-163,9200556
-159,7290594
-145,9412496
-159,5566075
-164,0751566
-150,7469622
-142,0721305
-141,3008073
-144,683178
-151,4694661
-153,9099328
-152,2548758
-149,5046287
-137,6595601
-121,2200728
-116,9366028
-124,0596184
-128,3396197
-124,027137
-114,8727309
-106,3769906
-104,2905335
-108,1140039
-108,8480728
-105,2434362
-106,800815
-116,0209536
-128,9046192
-143,452601
-158,6657093
-172,7947746
-184,340647
-197,3041949
-214,1863046
-231,9878791
-247,9598377
-256,3531148
-253,9186594
-246,157434
-241,3204141
-245,4085873
-252,6729523
-251,8645187
-242,9843056
-230,7833414
-220,5126628
-217,6733141
-220,2663464
-221,2928174
-216,7537899
-210,1503321
-207,9835159
-209,2544172
-206,9641148
-198,1136896
-186,9542245
-179,2368036
-174,7125113
-172,6324323
-177,4976506
-186,5592493
-189,3183099
-186,5259116
-186,6831314
-188,0410429
-186,3507164
-184,6132182
-181,0796102
-171,0009495
-157,878288
-145,7126721
-133,505142
-123,2567317
-115,9684686
-103,6413728
-84,02645744
-65,62472772
-50,68718103
-38,71480652
-32,95858487
-30,16948801
-26,09847893
-20,74651139
-8,61452976
8,79653121
12,98574656
2,202201326
-0,805009345
6,963220004
8,75600526
4,82247287
-0,338240035
-13,47698554
-26,09460484
-12,19192816
63,48022533
242,9210476
493,3797416
623,3555219
430,8476139
50,85525456
-122,372308
-33,58581418
27,96400676
-0,223563021
7,350769946
30,68631041
22,03237437
21,88828909
37,50339302
43,87703573
51,50857794
64,89739139
72,04285878
75,19437377
79,10134082
85,01317519
91,92930281
94,09916021
94,02219443
98,69786294
103,3756335
103,3049841
103,235403
106,6663881
113,3474477
123,2780994
133,4578709
136,6362993
133,8129311
133,7373222
132,6590377
122,3276518
111,2427479
109,9039178
112,3107625
107,4628914
96,35992231
90,00148166
90,38720398
86,51673196
77,88971632
77,25581567
83,6146964
86,21603256
90,30950573
102,8948049
113,4716265
113,039674
106,5986579
103,398296
108,6883126
119,218439
125,488413
121,7479792
113,2468883
109,9848976
112,7117706
113,427277
109,1311925
103,3232988
98,75338339
96,92123977
97,57666702
100,2194699
102,8494586
100,716449
92,07026225
78,41072484
65,73766853
62,05093027
66,35035212
67,13578122
58,65706969
48,91407459
41,65665784
34,6346862
31,84803119
33,04656905
28,98018065
15,64875151
-2,197828288
-20,30966416
-41,68685704
-69,07950341
-92,48769538
-99,91152069
-95,35106277
-91,30640077
-92,77760959
-99,51475993
-108,5179183
-114,0371471
-117,3225045
-121,3740448
-124,1918181
-125,2758704
-125,1262439
-125,2429767
-108,876103
-13,52565303
199,5583467
418,6258738
403,9269094
71,9614388
-267,2705492
-301,019062
-187,5341031
-171,5656725
-187,1137664
-156,1783773
-139,0094943
-144,3571026
-134,2211841
-119,3517169
-116,2486758
-111,662032
-95,3417533
-75,03780399
-66,00014504
-65,97873402
-57,72352517
-47,23446942
-48,01151445
-48,5546047
-42,11368141
-38,68868266
-36,27954341
-26,38619553
-10,25856784
4,853413831
11,19982664
10,28075065
11,84626883
19,39646694
26,18143358
28,20126007
30,20604043
26,69587135
8,17085208
-10,86891553
-17,67332716
-22,99227602
-35,07565295
-53,42334641
-67,78524261
-63,6612255
-48,55117687
-37,70497637
-30,37250161
-24,55362818
-23,74822973
-25,70617805
-24,17734307
-21,16159298
-22,15879427
-27,66881179
-37,94150882
-47,97674713
-47,27438705
-36,58428752
-30,15630618
-36,24029941
-47,33612241
-52,94362926
-52,31267298
-48,94310564
-42,08477834
-34,48754138
-33,40124423
-34,57573568
-28,76086383
-20,95647621
-18,41241985
-16,87854129
-11,8546867
-6,840701915
-3,336432516
3,408276114
9,143578728
5,619630147
0,586585203
4,044598672
9,74382522
10,43441934
13,11653529
21,54032703
27,4559482
28,863552
29,51329121
30,15531807
32,03978426
36,41684086
44,53663826
54,64932617
57,5050535
49,85396836
40,19621804
34,28194889
32,86130634
35,43443485
37,75147784
36,0625777
33,86787572
43,66751204
98,71162569
246,0003545
474,033835
636,5622026
517,5855914
141,1041341
-121,8820377
-84,62279397
5,131994078
-5,86754616
-12,87128868
6,620891107
3,859116375
0,343508863
11,07418887
15,30127525
11,27488538
11,99513521
16,96213919
17,67601032
14,13686014
7,594798694
-3,950065411
-11,24762505
-6,297774547
-2,600409686
-7,405427691
-8,462727229
-6,522208392
-6,583772694
2,852676946
19,03723621
23,96999941
22,40105947
26,83050798
29,75843518
22,93493
12,11008006
2,033971689
-8,793310037
-19,6216813
-33,2010595
-54,03136326
-75,61251238
-89,44442783
-93,52703172
-89,11024729
-84,19399887
-84,02821189
-79,86281282
-70,44772917
-66,78288947
-65,11822322
-57,20366092
-49,53913398
-47,62457477
-47,70991651
-44,29509336
-36,38004029
-32,96469312
-38,29898849
-38,38286382
-30,46625732
-30,54910793
-35,38135534
-32,71293993
-29,5438028
-31,37388569
-33,20313102
-30,78148185
-20,60888182
-9,935275225
-8,760606905
-10,33482229
-10,90786736
-14,72968863
-15,30023314
-12,11944846
-17,93728264
-32,25368421
-40,8186022
-38,63198608
-33,1937858
-30,00395172
-28,06243465
-26,11918583
-22,42415692
-15,22729998
-11,02856747
-18,82791226
-33,37528761
-42,92064716
-48,21394493
-48,25513533
-36,54417315
-28,58101353
-37,86561201
-45,14792449
-38,42790723
-32,20551688
-29,98071044
-23,7534453
-19,0236792
-19,04137029
-10,55647706
41,93104158
187,9212264
414,1641177
570,6597554
447,4081791
78,65942791
-167,0864594
-117,0794445
-28,06948958
-46,80655709
-56,29061001
-32,52161177
-31,74952622
-33,9743177
-21,69595099
-15,66439137
-15,87960462
-13,59155698
-13,30021523
-14,00554666
-8,957519105
-1,656100917
0,898738982
2,707031109
8,768805404
15,08409121
19,40291729
25,97531176
34,55130213
40,88091526
45,46417736
48,80111396
48,39174992
45,48610939
42,58421582
40,43609193
39,54175968
33,65124031
20,01455426
8,881721178
4,252759932
-1,622311446
-13,99347575
-30,61071663
-43,2240186
-45,58336707
-42,43874832
-41,54014958
-42,38755899
-44,48096565
-50,07035963
-50,40573197
-38,73707473
-28,06438097
-26,63764479
-25,95686135
-25,52202686
-29,08313865
-29,39019512
-26,9431958
-28,49214136
-28,03703363
-24,0778756
-23,36467145
-21,89742657
-18,92614757
-23,2008423
-30,22151984
-30,23819058
-28,25086616
-29,75955953
-29,26428497
-24,51505809
-20,76189582
-22,25481647
-30,74383973
-39,97898666
-38,21027974
-28,68774284
-24,16140129
-25,63128183
-30,09741265
-35,55982342
-35,76854526
-29,72361079
-24,6750541
-24,62291081
-25,817218
-25,5080143
-24,69533984
-21,8792363
-15,30974687
-5,986916277
5,08920921
12,16858178
7,251152075
-3,6631308
-8,574319289
-9,982467376
-11,88763059
-7,039865996
3,060767803
5,914210676
3,520400966
25,6292755
127,2407696
334,104817
550,7213502
563,3402999
265,4615955
-78,16483513
-135,7890654
-25,91117038
-9,781226359
-38,14931111
-19,01550376
-9,629884789
-21,24253602
-13,60354058
-2,962982876
-9,570948596
-15,67752466
-13,03279919
-9,636861515
-5,489802107
-2,59171257
-7,442685605
-15,79281498
-18,1421955
-14,74092295
-12,08909412
-11,6868067
-13,03415927
-16,13125129
-14,22818303
-2,825055522
8,328029438
9,480969369
4,88366113
3,786000965
6,187884551
6,089207033
5,239863078
9,139746916
11,28875239
0,436772984
-20,66629809
-40,27056787
-52,62614361
-55,7331327
-50,34164262
-44,45178091
-42,8136551
-41,67737267
-37,54304098
-31,66076724
-25,03065844
-18,90282129
-19,02736221
-22,90438722
-20,5340019
-13,91631136
-11,80142018
-15,18943231
-19,08045107
-18,47457907
-16,62191815
-19,77256931
-20,92663271
-15,58420753
-12,995392
-13,16028327
-8,328977399
-2,501569271
-0,928152558
-0,608819651
-1,543661609
-3,482768096
-1,67622733
2,375873978
3,423450676
3,216419233
5,25469779
5,788206219
2,816866178
2,590601164
6,359336574
8,872999751
9,881520048
12,88482887
17,38285975
19,37554837
21,11283264
27,09465272
31,07095113
26,54167274
19,00676483
13,21617717
6,669862048
0,867774325
-0,690128528
-0,503886375
-0,82353637
2,600887086
10,26935239
14,18183078
13,33829638
27,48872624
106,1331004
288,5214017
505,1536165
544,5297336
262,6497455
-100,9863525
-181,3785619
-63,27688089
-27,18130441
-48,09182421
-31,00842871
-21,181103
-26,35982884
-17,79458462
-13,48534535
-15,68208261
-7,634764593
-2,593356023
-10,30781819
-17,02810891
-19,50418254
-23,48598995
-24,97347852
-21,96659214
-19,71527124
-17,96945271
-13,72906999
-8,74405304
-2,514328322
5,960181148
10,92955581
10,14387955
11,60323966
17,55772685
20,5074352
21,70246216
24,64290849
20,57887828
6,260478875
-10,81217915
-27,88898199
-42,46981272
-53,80455124
-70,39307442
-87,98525607
-90,08096703
-83,4300752
-83,7824456
-84,13794043
-77,99641913
-75,60773845
-81,22175247
-82,58831272
-74,70726822
-72,82846556
-80,20174898
-79,07696041
-69,95393959
-67,58252414
-69,96254961
-71,84384964
-71,47625594
-66,10959847
-63,7437055
-72,12840368
-82,26351816
-82,8988727
-76,28428972
-69,66959045
-66,054595
-70,18912248
-81,0729911
-83,20601825
-73,83802067
-67,2188145
-62,8482154
-57,22603869
-59,60209943
-66,22621255
-64,34819296
-53,46785565
-40,83501583
-37,44948904
-44,31109123
-45,91963893
-37,27494932
-30,12684039
-28,97513099
-27,81964104
-22,41019154
-10,24660477
2,421295625
-1,40631545
-19,4792647
-27,04738052
-20,86049313
-21,91843467
-29,7210393
-29,76814333
-26,80958532
-26,34520617
-14,12484926
51,35163951
217,8344116
446,3236155
544,0693973
322,8218997
-56,66873739
-202,6523773
-98,37888646
-34,5981347
-46,55999515
-25,51434443
-12,21106267
-31,90003362
-31,08114467
-13,25428697
-6,91935546
-0,826248949
12,52512985
20,13487425
21,75307354
28,62981296
39,01517363
44,65923253
40,81206247
24,72373202
9,144305536
11,32384311
25,51240055
39,71002937
53,41677677
65,13268564
72,10779455
74,84213776
75,08574522
76,08864257
77,10085116
80,62238808
91,40326617
96,44349404
87,99307612
82,80201267
80,37029983
65,9479297
54,5348903
59,88116572
66,23673609
68,85157772
75,72566307
81,10896093
81,25143638
81,15305094
82,81376263
84,73352604
86,66229243
90,85000981
94,29662304
90,50207394
83,21630137
79,43924134
76,17082713
71,41098938
69,90965624
72,41675342
71,18220441
60,95593048
49,48785092
44,77788311
40,57594263
31,38194345
24,19579803
20,76741745
16,59671159
13,4335892
12,27795812
11,87972537
10,23879733
2,105079867
-8,021521529
-9,891101565
-6,753755012
-2,859576556
4,04133936
5,448898682
-7,636992101
-23,9664258
-29,53949439
-28,10628884
-28,41689896
-29,47141327
-29,76991884
-35,56250112
-49,34924382
-63,13022875
-68,40553567
-66,17524216
-65,68942346
-71,44815231
-73,70149886
-65,19953048
-51,69231168
-15,6799039
97,33763455
299,6102487
467,6378868
385,920501
34,70804686
-243,7495163
-217,2022252
-109,4001125
-111,3432068
-121,2815325
-93,21510969
-88,14395396
-95,81807644
-86,98748368
-77,40217753
-75,31215505
-68,46740849
-57,11792518
-54,26368746
-61,90467262
-70,54085287
-71,92219525
-63,0486616
-51,1702085
-43,03678728
-36,64834392
-32,25481906
-28,856148
-23,45226061
-16,54308141
-7,128529486
0,541481463
-0,782956861
-5,601747366
-6,414787594
-5,971969736
-5,273180662
-2,318301954
-2,607209946
-16,13977577
-42,1658654
-63,93533972
-71,94805458
-75,20386086
-77,20260454
-72,94412679
-68,17826408
-67,65484821
-63,87370644
-55,58466162
-50,03753224
-49,4821326
-53,91827289
-60,34575932
-62,26439427
-60,67397641
-58,32430084
-56,46515925
-59,59634005
-64,46762855
-60,57880709
-50,17965523
-46,01994993
-49,09946569
-52,16797477
-53,72524735
-54,02105171
-49,80515446
-43,07732071
-44,08731428
-51,33489789
-52,5698334
-48,791882
-46,75080444
-42,94636123
-35,37831289
-34,29642016
-46,70044424
-58,09014699
-54,71529121
-48,32564086
-45,17096128
-35,75101948
-28,81558431
-35,36442678
-47,14732026
-59,41404076
-70,41436714
-71,64808139
-66,36496891
-64,81481868
-60,74742359
-49,91258067
-42,06009133
-18,68976162
81,19859751
283,3551699
486,7801342
479,4736631
178,1859236
-133,8329236
-164,082724
-67,81332991
-72,77460052
-99,96640211
-71,38860835
-50,04110054
-51,17376781
-49,28650739
-47,37922482
-42,95183417
-31,25425827
-24,28642896
-24,54828725
-21,28978358
-14,260878
-8,461540383
-2,141750633
4,198501133
8,809214391
12,94037802
17,59197014
26,5139579
39,20629735
46,41893327
48,15179898
52,40481624
55,42789505
53,47093355
51,53381789
48,36642209
42,9686079
39,09022472
35,73110952
30,39108666
20,06996789
4,267552206
-7,0163742
-6,532038004
-2,529678816
-2,509549233
-3,221914873
-1,91705442
1,40474036
8,993164592
19,09790029
22,71861635
17,60496857
12,25659964
11,42313921
14,85420389
20,5493973
20,25831014
11,73052022
6,965592567
10,96307949
14,22252066
12,24344322
10,27536188
9,567779077
5,370185033
-1,317942053
-1,997135883
5,3320581
9,419082873
4,263370012
1,114339868
5,721401767
6,333954203
1,201385055
3,573071802
11,94838176
15,5766723
17,70729112
26,58957648
44,2228575
66,10645438
79,48967871
75,12183378
63,50221484
65,88010946
83,25479776
91,12555282
83,99164096
85,85232211
95,45685013
91,55447317
94,89443403
171,4759706
365,798316
605,8606993
676,4123456
421,9524768
58,48031151
-47,25493424
57,49595342
96,48218654
67,70297578
76,40753083
93,34506089
94,01477504
100,9158827
108,0475942
110,909121
120,2496762
131,3184753
136,364736
138,3876795
139,8865302
141,8605166
149,5588717
163,4808334
173,3756448
175,9925549
180,3308193
187,3897
189,6684663
189,1663954
194,6327723
204,816891
207,7180544
197,8355747
183,6687745
168,2169866
146,7295545
125,9558333
115,3951897
105,5470025
75,41066339
22,73557675
-36,47883945
-90,73315342
-129,0279191
-143,6136759
-147,490948
-152,9102443
-151,872058
-142,626866
-132,6751288
-120,76729
-111,9037761
-115,8349959
-124,0613407
-125,8331833
-128,9008784
-144,0147616
-171,67515
-206,632341
-237,6366127
-252,1882234
-253,5374115
-260,6843951
-289,3793719
-337,8725192
-383,6639932
-409,0039295
-426,8924424
-447,829625
-456,3155491
-445,350265
-426,4338014
-405,5661655
-380,7473425
-355,7272962
-338,5059682
-326,8332785
-309,709125
-285,383384
-264,6059097
-255,8765347
-251,6950696
-239,8113032
-225,475003
-214,6859145
-198,443762
-174,4982482
-151,8490546
-124,2458418
-49,68824899
119,0741051
345,0416225
449,9647256
249,8438573
-126,0705198
-296,2779232
-199,0278506
-114,8197807
-116,903173
-93,52746817
-58,19208857
-46,8964382
-30,88990325
-14,42185234
-12,74163682
-13,09859119
-13,74203336
-17,17126509
-12,88557229
-3,384225446
-0,916479982
2,268423337
17,92125801
34,04281136
39,38388418
42,44529022
44,72785583
41,98241947
43,70983131
51,41095272
56,33665587
60,98782324
65,61534714
66,97012926
73,80308019
88,36511894
97,65717243
97,43017503
89,93506808
68,17279935
37,3943226
20,60059702
21,7925868
24,97126057
24,38759094
24,29255395
29,68712863
43,32229645
61,19904082
75,06834661
76,18119964
67,78858616
66,64149239
75,49090398
82,08780555
86,43318019
95,52800896
105,3732704
106,7199401
99,31899002
94,42138843
96,27809899
96,89008052
95,25828649
91,88366458
81,01715618
70,659696
73,81221159
84,72562291
91,15084192
92,33877213
93,29030821
90,50633557
83,73772993
89,23535698
109,5000719
122,5327192
117,3341319
104,1551318
94,24652848
89,85911938
85,74368932
74,90101013
62,5818404
63,28692512
73,01699538
80,02276807
118,8049456
253,1142156
466,7012508
598,8167084
444,9612303
54,13544236
-198,9100454
-140,9246392
-34,40776178
-42,85885259
-53,77736784
-30,16278084
-27,2645821
-31,83227951
-23,36539852
-20,86348223
-25,8260916
-23,25280553
-14,89322097
-7,996953071
-2,81363524
1,907080747
6,165524673
9,212007809
13,29682286
19,42024389
23,83252633
26,28390689
30,77460356
39,55481562
52,37472358
65,23448923
71,63425564
72,07414717
72,55426952
72,57470974
71,38553631
73,23679917
73,3785298
63,81074128
48,03342836
30,5465676
10,35011738
-7,555981922
-16,42180785
-18,49745576
-17,78303868
-17,52868718
-19,23454925
-18,65079014
-14,02759218
-8,865154698
-6,163693769
-7,923442099
-12,64464883
-14,57757935
-12,72251511
-15,57975345
-28,64960736
-43,4324053
-50,42849099
-54,38822317
-63,06197541
-70,95013589
-72,80310712
-76,12130576
-83,65516236
-86,15512111
-79,37163961
-73,30518861
-76,45625177
-84,82532538
-93,16291812
-97,21955077
-92,24575599
-77,74207801
-59,45907236
-52,64730563
-67,55735515
-91,18980872
-103,7952644
-101,62433
-94,92762318
-92,95577079
-94,95940876
-96,6891818
-96,64574306
-83,82975388
-13,74188347
163,6171914
397,7467866
487,3962112
253,3147673
-136,9982492
-289,2935484
-183,3218464
-119,3338647
-143,3303298
-134,3119735
-113,0295317
-114,4837448
-110,1753574
-101,1051173
-100,773776
-97,68208797
-86,33081047
-79,47070322
-81,10252808
-80,47704881
-73,84503071
-66,20724039
-59,06444538
-52,16741393
-46,51691464
-40,36371622
-32,95858713
-27,30229537
-25,39560811
-22,23929146
-11,08411013
1,069172811
-0,030203723
-12,3829986
-20,98996815
-24,35186591
-30,46944231
-38,59344441
-49,72461561
-70,36369541
-93,26141906
-105,1685173
-108,0857163
-105,0137369
-89,9532949
-64,65510036
-40,61985758
-25,84826475
-19,34101366
-11,3487895
6,12772946
28,33787209
47,53097468
64,20638119
79,8634435
90,75152167
95,36998417
98,96820818
104,0455798
103,8514942
94,38535615
82,14657993
74,63458974
72,09881995
71,53871525
68,70373098
58,34333326
48,20699931
49,79421761
53,35448817
48,13732273
43,14224497
43,86879076
45,31650835
51,23495857
66,87371508
84,48236455
91,06050685
80,1077553
64,3737368
64,35809211
75,81047594
81,73055724
83,86801931
90,22256003
95,29389202
91,8317428
96,335855
169,0559865
362,2419105
604,893416
678,7603076
420,3424057
28,88954692
-109,0984161
-1,121614288
57,06983779
29,9758422
33,34631769
46,68119983
44,48044112
53,49401111
55,72189649
37,16410119
26,57064647
33,441571
40,27693097
33,32680012
12,59126982
-6,429550851
-12,98553508
-16,57653824
-24,2023979
-24,61293374
-10,55794756
4,462776764
9,449473247
12,65239384
20,82180842
27,95800474
32,06128846
44,63198306
61,17042986
55,67698794
37,15203409
36,34596273
41,25918589
27,89213306
7,495251154
-5,180995617
-15,88612585
-28,61964105
-39,3810258
-50,41974784
-70,98525827
-102,3269917
-131,9443662
-144,8367841
-142,0036313
-140,4442781
-144,9080793
-148,1443742
-154,4024871
-166,1817271
-174,481389
-173,0507529
-161,889085
-157,4956376
-175,6196491
-197,2603451
-200,6669379
-196,8386271
-203,2746003
-213,4740326
-209,186088
-193,4099187
-181,8946662
-173,1394614
-163,8934251
-162,905668
-169,6752918
-171,9513889
-167,7330433
-160,0193308
-140,0593194
-117,1020702
-109,896637
-101,6920676
-87,9874038
-100,781682
-131,0739336
-135,3631857
-119,8984614
-116,1787805
-117,7031596
-109,2206132
-96,23015366
-86,98079221
-88,22153915
-90,95140453
-49,91939865
89,37546734
321,1841809
511,2577277
438,0970907
74,45324993
-228,1728182
-212,0301415
-98,36775263
-93,93468945
-101,7299959
-73,75272221
-62,75192598
-54,7266723
-36,92603456
-32,34909498
-33,24494521
-23,11268689
-11,70143226
-11,26030472
-20,53843942
-24,78498381
-10,24909828
12,82004334
21,42325318
12,31132874
0,985052369
-6,554809317
-13,05750599
-13,02230415
-0,698487679
24,66464162
47,56776351
36,51153876
1,746608656
-10,72640554
-1,65690308
-5,794304218
-24,63805072
-36,68760635
-36,44245731
-37,40211274
-51,81610515
-73,43399088
-87,50535051
-92,02978932
-93,00693766
-88,93645139
-80,06801225
-74,65132822
-67,93613394
-43,922191
-9,609288319
11,00275753
15,41410202
16,87487238
17,88516728
18,94505658
26,05458107
39,21375224
51,17255202
46,18093262
22,48881629
9,846095176
17,75263114
20,20825561
14,21276948
15,01594296
19,11751552
23,76719578
26,96466147
22,9595594
29,50150542
53,59008439
65,47485027
61,65532607
67,13100396
72,90134529
61,71578074
51,57371037
58,22450377
77,66750022
102,1520088
106,6773088
80,49264938
60,34725051
66,74030269
77,42096742
82,63837743
89,891637
97,92982229
109,5019816
143,857136
241,4942792
439,4123785
672,3603749
725,5871835
451,3416941
84,62277177
-0,320742985
131,5099665
183,8636937
156,7392091
159,6352611
164,0505763
153,2338604
161,9337986
186,6490563
173,3782798
88,12009681
13,62311739
45,38593438
125,6571243
167,4352479
180,4688512
171,0064658
134,0466101
118,8377899
141,6284991
157,9172205
163,452427
176,7325818
189,2561398
207,0215482
239,7772475
268,021672
276,0032514
270,9704107
264,4215722
253,3551555
234,0195789
224,1632602
231,0346175
226,3820705
190,4540409
149,7489539
130,7652386
112,2513294
82,7056668
73,1266981
88,76287875
98,86267307
89,17455523
69,94701023
60,42853486
65,1176386
61,2628446
50,36269059
66,41572986
89,92053217
80,87568465
63,77979274
55,88148115
45,67939466
47,92219913
54,60858231
40,23725475
19,30695067
-1,183571168
-41,23552666
-84,35010546
-85,27847022
-62,27175572
-85,83106811
-154,4574841
-202,4020503
-215,1657823
-217,4996639
-223,9046468
-246,3816493
-271,431556
-285,3052172
-305,003448
-320,5270277
-315,3766993
-313,8031689
-305,5571052
-266,6391387
-257,2998614
-301,7898262
-318,6095466
-291,0094958
-274,9901068
-281,3017718
-301,6948414
-330,419625
-346,9763897
-337,1153605
-280,83672
-153,8906077
31,72287986
196,0036894
154,9518111
-176,4327212
-495,3998299
-499,4493935
-369,8312467
-348,5451799
-363,8409397
-344,4682284
-340,4267046
-350,7159825
-344,3356328
-312,5351821
-242,5641134
-170,1718663
-155,8578367
-169,6213778
-158,2117997
-144,3783697
-147,3703129
-143,6868124
-137,0770095
-143,7900041
-130,8248553
-83,9305814
-59,85616081
-72,10053218
-77,16259499
-74,54121008
-74,23520016
-72,99335036
-83,81440881
-95,19708725
-88,39006166
-71,64197288
-39,20142729
-14,0669975
-47,73722305
-104,9606112
-126,2356374
-127,5607466
-129,6843536
-129,3548437
-120,320574
-95,82987418
-77,63104687
-84,47236902
-96,85209256
-94,51844535
-77,71963209
-62,45383525
-41,71921601
1,736084807
15,66394572
-39,68373633
-89,80504703
-78,44805561
-56,86081595
-65,04136751
-89,23773641
-125,1979364
-141,6699701
-81,15182963
15,10850186
41,36304945
-2,886154743
-40,38707258
-42,88766099
-15,13587305
27,62034096
62,3830325
100,9042537
139,9360561
151,7304899
156,5396027
166,1154384
155,2100362
142,5754295
159,213645
180,6267012
187,316608
198,5353651
210,7849612
202,3173728
180,1345637
161,7384831
149,8810655
140,314229
125,5398748
109,8098859
115,6261262
134,4904398
133,1546497
124,120557
146,3899401
233,9645536
413,8461275
618,0363665
644,2869489
366,8495255
13,47571962
-60,33287463
90,42530739
158,5017999
115,1481059
101,6156965
116,9060102
119,5204523
137,4603936
157,7271707
144,0720846
134,2464003
141,0013463
121,8381137
91,25785609
72,26168855
54,35068743
51,77588966
57,28829238
33,13885239
4,328485785
25,60806746
80,72843077
122,1903671
127,9946257
82,6419129
19,3828924
11,71818453
51,89836621
76,42397063
70,79548706
50,26336065
40,82799228
60,98973838
68,24891086
26,60577694
-15,18944084
-14,63656476
-7,485461882
-29,48604408
-52,63826802
-43,44213515
-22,64769156
-9,505027981
5,485720373
9,824373927
-0,239291101
-1,205542527
1,675308006
-3,847094756
-8,773149433
-17,85329774
-25,58802422
-3,477855906
33,226638
49,27484645
49,16611698
35,89975603
20,72502943
40,89116277
72,14734189
64,74271336
44,92638494
45,44742611
50,05486861
44,74770696
40,02489906
48,63536676
57,07799644
58,35163967
67,20511383
66,63720275
53,14665739
56,98219654
57,14250748
30,37624676
8,93204085
12,30848695
40,75415373
84,76758209
102,8472859
90,99175302
105,6994457
140,2188019
121,0482355
65,18613801
67,3808785
116,8808051
112,1842455
56,7895083
39,94488327
58,64864274
48,39904232
30,94432186
103,0327063
301,1624068
517,3316213
556,5385358
304,2813252
-84,94184566
-267,6328214
-161,2934547
-44,17560562
-62,78114054
-89,86193122
-83,41985383
-115,956788
-150,2246158
-127,9752209
-104,4604876
-115,1822995
-116,8925391
-100,0930866
-89,78581886
-86,47260841
-85,65532276
-89,83582325
-91,76596419
-87,6975919
-84,13254377
-78,5726474
-72,26971961
-74,9755656
-79,69197799
-74,92073598
-58,41360445
-30,42233306
-12,94865544
-26,99428829
-40,56093054
-25,15026256
-14,26394527
-26,90361941
-26,57090465
-12,26739889
-29,99467745
-70,75429228
-96,29777127
-121,8766175
-147,4923085
-118,1462955
-54,59000286
-53,32482741
-100,1021376
-107,1732731
-86,28954384
-92,70222986
-126,9125803
-167,9218132
-183,4811144
-138,0916377
-65,25450381
-43,47079997
-73,99157961
-106,8178617
-151,9506305
-192,640835
-132,1393883
-10,94716779
20,4349858
-11,24373158
-14,23408688
-29,28680961
-76,40259159
-94,83208667
-58,82591047
-2,384640184
17,24118568
-16,19893255
-53,70545555
-62,27880483
-67,6693626
-95,12747171
-123,6534355
-114,997518
-79,40994322
-67,39089603
-88,6905215
-106,5589252
-100,7461731
-80,25229186
-58,07726864
-48,47105142
-58,43354902
-71,21463128
-70,56412923
-65,98183528
-68,46750342
-64,02084947
-44,39155132
-41,32924918
-66,08354591
-56,90400733
54,2098375
265,0084959
478,4925111
509,9124621
241,518963
-116,1873373
-220,7057555
-122,7855746
-86,42604394
-97,37638021
-56,88576761
-29,95335851
-47,57827401
-55,50960448
-50,74641017
-42,03772177
-14,13254109
3,970158378
-12,22856926
-27,7276429
-11,27595517
30,87762691
40,2342612
-35,70487026
-110,438562
-71,96558591
16,96530813
43,10539132
25,45595525
25,01831108
33,04378871
29,78373601
21,48951794
15,91251573
18,80412605
14,16576011
-22,00115717
-52,94518805
-25,41488286
8,091219099
-28,6754113
-88,21329396
-109,2709405
-126,3468549
-161,9395351
-192,0474731
-218,1691563
-231,0530686
-192,6976909
-139,1015026
-142,762982
-174,4306074
-180,3528584
-174,7782165
-157,4551658
-126,6321947
-127,8077962
-151,4804692
-143,3987191
-125,0610591
-129,9660109
-133,1121059
-126,7478859
-126,371904
-122,7327256
-107,8289295
-93,15910844
-85,47187045
-82,51583934
-79,53965581
-72,29197828
-65,02148379
-61,47686883
-54,65685022
-40,56016594
-28,68557599
-25,78186317
-24,84783394
-21,38231919
-18,13417503
-12,60228356
-4,035553651
-2,432921664
-4,293352191
13,63416123
45,35059542
61,85689687
71,40398109
84,24273194
79,37400101
65,54860701
68,26733519
75,53093671
77,09012817
86,945591
103,097971
107,0478777
103,2958842
139,3425264
273,6883027
488,8336736
643,0290614
552,0248494
218,3213823
-52,08103474
-38,93213615
73,51830378
93,52047061
97,07450957
136,6805253
149,5885818
135,5487021
138,5608684
152,3750216
158,2410617
163,6588472
169,3781956
161,3988833
142,9706452
134,0931754
139,7661267
146,7391111
147,2616999
147,5834238
149,7037727
144,3721968
134,3381061
132,6008708
137,4098217
141,2642509
145,9134112
147,8565174
137,0927462
119,3712369
109,9410915
109,0513754
108,451118
108,3893131
110,1149192
110,6268607
108,9240278
103,0052775
95,11943437
92,26529075
91,69160788
89,14711639
92,8805171
106,3904818
116,4256538
116,2346493
113,5660575
111,4184419
108,5403409
110,180269
115,5867175
112,7581551
101,9430296
96,38976813
96,34677844
91,81244989
85,03515436
83,76324733
80,4950689
66,2289448
51,46318751
47,19609726
48,92596319
51,1510644
51,61967108
46,58004561
38,28044373
34,21911562
33,39430712
29,0542608
23,44721724
21,32141607
17,42509726
11,25650224
9,813875116
11,84546384
14,34952142
15,07430713
9,268087702
3,929138514
11,30574482
26,39620292
39,44882141
45,96192233
37,43384242
15,36293425
-4,002432511
-11,66386998
-11,87297083
-11,13130712
-12,94042914
-18,30186423
-25,96711563
-22,68766134
36,28504702
193,1995854
399,8045582
495,5985998
323,5803752
-25,25141851
-218,6480515
-160,3607597
-92,89074421
-111,9891698
-112,1571644
-85,39581777
-75,95618059
-76,08926366
-76,29603684
-68,57742818
-53,18432303
-47,11756317
-44,37794599
-32,71622363
-26,1331022
-32,87924103
-39,45525189
-41,61169827
-49,09909471
-55,16790609
-46,81854704
-36,55138126
-34,36672099
-28,7648264
-19,99590511
-18,06011168
-18,20754711
-13,43825844
-13,00223831
-27,64942463
-44,62970019
-42,4428924
-26,58877298
-21,31705772
-33,62740628
-52,26942205
-72,74265195
-91,29658637
-98,93065909
-105,1442473
-118,9366714
-127,3071954
-123,0050266
-107,0293162
-85,62915881
-76,05359319
-81,05160224
-82,12211329
-64,26399842
-41,2260748
-45,50710509
-66,35579782
-53,27080789
-11,00073704
-4,544134385
-51,39949702
-93,06527061
-94,53985004
-93,32158011
-114,1587563
-127,5496254
-123,2423866
-128,7351919
-151,7761476
-170,6133146
-171,9947097
-166,6683066
-169,3820367
-181,3837906
-199,9214186
-223,9927326
-242,0955065
-244,2274781
-240,3863497
-241,06979
-237,0254352
-216,5008901
-190,4937297
-181,0015009
-188,2717234
-192,3018916
-183,339476
-174,6319247
-178,4266652
-183,2211056
-180,7626367
-183,7986333
-192,8264561
-189,5934535
-178,3469631
-184,5843137
-178,3028271
-72,74981951
128,8273959
272,4315075
183,5652036
-131,5188301
-396,067912
-398,5793665
-294,0505264
-255,2287345
-241,8613458
-237,9457294
-260,7292706
-262,2093729
-234,3834602
-213,4989785
-205,8033987
-218,2942176
-243,2189612
-239,3251858
-208,8604807
-198,8224702
-216,9588153
-227,7672164
-217,4954152
-205,3911966
-196,2023909
-178,9268763
-164,5625802
-164,1074821
-163,0596153
-152,9170688
-141,4279898
-135,0905853
-134,1531247
-131,363941
-124,7214337
-121,7240701
-123,3703878
-128,9089962
-135,0885787
-134,6578945
-135,8657804
-145,4611531
-153,6930102
-159,8104329
-169,5625872
-182,4487258
-190,2181897
-175,3704101
-153,4049097
-167,0713048
-203,3693062
-221,2987212
-228,359455
-240,801512
-257,1249971
-280,5801174
-286,6671832
-250,3866092
-204,2389158
-173,7247306
-152,8447886
-151,5999342
-161,9911215
-131,2694155
-39,1859931
43,25785655
54,06073085
41,97111329
64,48737281
93,35776324
105,8304228
121,9033737
124,3245218
87,59165622
58,70244939
90,40445662
138,6951162
136,0717494
101,2815604
72,32163668
50,43894918
51,88035246
68,64258528
52,47227097
16,86591801
10,81992066
23,33055967
31,89400308
58,00630707
132,663417
277,3611682
470,5952876
575,6113945
416,4050019
62,22151806
-152,693752
-104,345605
-17,23893807
-13,37874642
-13,77012199
-8,668251333
-29,0784137
-37,5059789
-19,20640518
-8,685236906
-13,44810229
-22,50071088
-29,59885112
-20,99838765
-2,955258714
10,27452672
37,18489174
100,5196945
200,7727313
324,1877394
454,0084008
582,228345
705,5911525
829,0903584
951,4694558
1034,221899
1054,341109
1050,320475
1050,653358
1045,583097
1046,853013
1065,956409
1072,88658
1051,886811
1022,200388
1003,570596
1002,990727
998,2040841
967,7039853
935,233768
928,5367942
935,3564547
928,4361742
903,7694157
880,3496859
871,6705393
870,9755838
863,0084854
846,5129729
827,7328436
798,4119676
761,0442934
740,623853
735,3947666
714,3512485
674,4876114
638,5482723
612,5277575
589,6707076
565,2218829
536,9261688
506,5285807
473,2742693
431,6585259
391,4267878
378,074643
377,0978356
341,2422713
282,7540217
251,1293304
246,8646173
247,2064839
240,4017184
208,9473004
155,3404061
124,0784127
140,1589037
167,3296735
174,0887317
179,4343082
209,8648576
268,1290635
356,725843
513,6543511
758,6639848
973,0043872
947,6754519
669,1773263
443,7604162
477,4253889
569,9231772
543,7549829
494,67228
470,4268183
420,0206262
362,2060141
317,7355771
264,8621978
208,5890488
164,4195956
137,3575986
137,4071153
152,0725025
164,8584181
204,0198228
325,5619818
576,990466
904,5611533
1151,28023
1281,404191
1399,93984
1522,394294
1587,274976
1595,589623
1568,096281
1501,053308
1409,969368
1319,35344
1230,214805
1121,563056
962,9080909
757,2601104
541,3796196
299,0274241
-14,53537165
-350,797367
-639,4968673
-902,371887
-1139,660152
-1278,599105
-1325,925905
-1372,377435
-1440,690304
-1488,100852
-1501,095153
-1490,909021
-1467,028015
-1454,937442
-1471,622366
-1476,06761
-1422,757763
-1349,677186
-1303,810022
-1241,890193
-1129,151419
-1017,827214
-956,9009016
-919,8556156
-838,174313
-696,0897789
-549,5846355
-430,6413506
-325,9922455
-234,3695045
-140,2551833
-12,88121849
97,52056304
123,9684347
122,9807603
139,8259839
98,52261994
-18,4107574
-162,9555247
-377,09302
-692,0545538
-1081,32142
-1614,624908
-2330,196311
-3098,516944
-3938,818147
-5091,081305
-6521,287855
-7717,419298
-8220,707214
-8193,883275
-8110,929252
-8098,327034
-8045,558635
-7980,106213
-7953,452076
-7900,328701
-7773,968742
-7633,355046
-7539,220667
-7457,048875
-7341,823173
-7227,027306
-7135,64528
-7022,91137
-6877,310134
-6752,326429
-6660,945421
-6558,152597
-6430,183783
-6303,275152
-6189,163236
-6070,834945
-5931,777574
-5795,728814
-5685,926772
-5571,109974
-5438,267384
-5319,138412
-5213,462927
-5098,481266
-4966,184251
-4814,813193
-4663,359908
-4538,316725
-4434,676496
-4327,682609
-4192,328993
-4014,860132
-3794,771072
-3529,557429
-3224,215398
-2850,241763
-2311,883904
-1597,389802
-830,7580487
-41,23785228
838,9209559
1729,967916
2517,651934
3270,221275
4102,423564
5036,505774
6000,714227
6872,044593
7614,741879
8365,050437
9548,463953
11488,72545
13460,82729
14522,76117
15034,26812
15567,08851
15864,46203
15844,62774
15814,57403
15809,0386
15697,00856
15452,47032
15145,65966
14899,56174
14725,41105
14549,94148
14394,3863
14254,22813
14086,44902
13962,78041
13889,95314
13705,69748
13342,49311
12961,06917
12731,15424
12602,97635
12455,26301
12307,24121
12192,13744
12053,42768
11861,83746
11659,59183
11487,41538
11345,28227
11207,91626
11054,54068
10882,87846
10699,6522
10512,0841
10322,64603
10127,55956
9935,045924
9769,826081
9625,62072
9455,150276
9261,134951
9097,044733
8944,599414
8736,018608
8385,771772
7749,578227
6914,907173
6266,727712
5820,008867
5046,219604
3311,078847
-130,4444981
-5422,381524
-10899,5133
-14458,12086
-16022,98518
-16950,63714
-17840,85752
-18369,92701
-18454,12612
-18387,98523
-18322,28451
-18257,05397
-18192,32336
-18128,12223
-18064,47985
-17948,92523
-17640,98707
-17097,19379
-16429,07344
-15709,40376
-15001,46211
-14367,02547
-13761,62043
-13154,02315
-12583,00938
-12031,60443
-11447,33311
-10859,2198
-10329,78836
-9866,31217
-9445,31407
-9003,81638
-8492,340874
-7996,158769
-7590,290714
-7213,256775
-6821,576428
-6424,018548
-6017,601394
-5629,592605
-5283,509185
-4933,1175
-4525,433265
-4066,221536
-3626,496707
-3370,522498
-3381,81195
-3395,627422
-3145,730578
-2785,132392
-2494,093133
-2218,122369
-1957,978959
-1751,671052
-1541,95608
-1315,340763
-1108,581102
-912,9323766
-726,1491493
-555,2352614
-374,6938339
-190,0272686
-37,48724839
93,67526049
233,7100072
375,8674534
511,1487711
647,8058387
778,3412379
901,2582493
1037,310848
1173,253699
1266,592151
1323,582233
1391,480645
1482,794753
1575,282583
1657,952815
1741,56477
1832,378409
1903,40432
1936,153711
1955,888402
1974,620814
1989,363961
2019,131441
2064,937421
2111,296635
2155,974364
2189,236433
2203,349196
2208,079524
2211,694795
2213,962882
2224,652141
2256,781398
2282,619937
2274,687486
2265,004206
2270,59068
2259,717892
2230,657223
2217,430432
2223,559643
2216,067332
2178,476314
2131,809727
2108,84102
2113,343936
2107,342503
2069,111012
2017,174009
1969,05628
1938,282831
1925,878881
1904,369842
1865,031306
1826,889031
1799,468927
1803,797039
1854,399534
1944,052687
2091,782865
2240,116514
2166,330142
1783,450308
1424,003606
1390,766649
1476,016057
1432,028443
1362,580397
1346,698475
1309,40918
1248,238956
1199,714166
1163,361084
1157,955879
1164,024605
1118,593182
1045,437389
1000,582847
964,0550096
910,3791474
862,3303374
827,4334504
780,2131387
746,1938249
756,6496894
732,6046596
645,3323983
609,6062927
622,6994434
567,384654
474,6844205
435,3709209
427,2160055
395,4911868
339,9676303
291,6661449
261,3571738
212,3107856
94,79666617
-48,91589041
-109,8079895
-102,361144
-118,3072817
-161,3787531
-235,3083379
-353,3292525
-446,925156
-496,8301568
-566,0288187
-631,5061665
-640,9976916
-652,2393573
-695,4676033
-726,4193513
-766,5820083
-826,4434717
-856,4921326
-864,7168793
-882,107101
-899,1526905
-907,8440469
-926,4220784
-976,3782039
-1031,704355
-1050,142979
-1058,437037
-1082,580008
-1085,315889
-1077,639193
-1105,294954
-1141,028721
-1159,086564
-1177,465066
-1189,911329
-1192,922969
-1168,248114
-1034,385406
-797,3339937
-619,8435345
-689,1641896
-1087,546622
-1560,241993
-1688,251959
-1534,078668
-1436,724754
-1381,943336
-1272,988011
-1167,612849
-966,3223911
-519,8716404
118,733941
865,9884383
1701,63549
2564,918294
3352,329614
4012,111787
4632,506729
5305,00594
5919,100519
6329,781161
6563,288172
6682,111477
6714,990622
6740,914788
6817,1228
6935,603129
7119,343909
7411,832941
7813,557702
8267,505358
8654,66277
8890,766504
9025,052844
9116,257797
9126,617107
9057,366262
8968,990508
8848,974855
8663,554091
8428,212789
8145,935323
7802,205872
7375,758436
6722,326843
5571,644764
3866,445718
1867,963089
-274,0698667
-2563,170009
-4740,854301
-6476,639804
-7818,543658
-8936,583078
-9757,02534
-10130,13777
-10038,68773
-9646,942627
-9215,919864
-8839,136866
-8446,111052
-8060,359828
-7743,150578
-7451,500649
-7139,427348
-6779,197925
-6409,079567
-6174,83939
-6061,494423
-5910,561605
-5692,807771
-5430,249645
-5160,403832
-4942,536805
-4726,664902
-4490,304311
-4250,721066
-3885,181039
-3427,949929
-3234,293255
-3438,976351
-3655,014354
-3529,1722
-3230,714618
-3033,656117
-2895,760988
-2738,29329
-2604,516848
-2493,195245
-2368,091817
-2224,469647
-2079,34156
-1958,470118
-1862,617616
-1772,046072
-1669,267231
-1552,292552
-1437,133213
-1310,800097
-1168,803798
-1064,154611
-1005,612532
-945,4372547
-869,8881659
-763,2243457
-617,2045639
-506,8372779
-464,3806311
-413,0924514
-342,9802497
-305,3012188
-277,0622323
-221,7698443
-139,1802881
-44,79947686
11,61699733
30,8138629
77,28616868
129,2792833
145,2888947
185,561009
267,5919495
314,6283555
321,167181
352,2056926
405,2414683
448,5223951
482,796667
496,5627826
506,819543
546,8160487
585,801697
615,2761793
664,4894775
701,6918615
703,633885
702,0663827
704,7404663
701,4075209
702,819201
723,7274266
763,1343791
813,5424969
863,2044713
883,8732418
872,301992
869,9941445
888,7033564
885,4335145
860,6887303
882,2233354
936,041876
938,1491079
913,5499917
911,9996869
904,0035476
941,3171159
1111,446118
1338,146457
1471,674208
1371,035616
1008,487084
711,2851716
757,6865894
893,6981921
882,5769732
874,3300598
918,9647064
900,7382897
871,1583024
893,2323483
897,4681359
890,8734732
904,4562619
888,224492
872,1862357
896,8496425
889,222933
850,3143939
860,1323722
885,1852698
872,2315381
858,5296728
858,5882081
862,6657118
878,0207801
874,9120321
847,8481048
835,8376481
825,6393196
789,2617798
749,713687
743,7536929
769,390437
770,1325429
723,7386127
689,4672234
673,8269213
620,0762188
556,2235889
543,277462
556,9962209
553,8881972
535,9616669
520,9748469
509,1858909
485,3528857
464,2338474
476,0867182
493,1693624
472,4895635
435,5550206
421,8733451
413,702058
372,0485864
335,670261
367,3243128
413,0178707
388,7579588
327,8014939
296,6552827
290,3260199
277,3202856
265,3945435
271,5551382
262,308294
220,6601124
205,1165707
236,68352
253,1166839
230,6716568
199,8539027
163,4187535
131,6214083
135,2169317
147,7102534
131,8561667
106,159328
87,37425567
83,75532992
113,5567917
203,0327424
395,6871436
596,7738164
527,0464414
128,7585585
-216,3364332
-205,2352754
-40,68485058
-9,682181625
-64,47443187
-84,05890462
-95,18304283
-116,8444286
-109,0407827
-83,51996383
-90,52996823
-117,8189286
-117,1351137
-104,2269269
-118,8429058
-148,7317211
-175,8921753
-181,3232017
-142,5238636
-113,7433524
-149,9809869
-195,4862116
-193,0085954
-170,5478305
-175,6037303
-210,4262283
-230,5153766
-222,8713437
-232,9944135
-257,1349835
-249,7935625
-239,2207694
-264,1673314
-281,8840815
-265,8719576
-266,8819997
-307,1653484
-345,9732429
-363,3070191
-360,6681073
-337,3080304
-325,7284017
-342,9309228
-352,6673818
-356,6896509
-373,2496842
-359,5995158
-322,2412576
-326,6770969
-349,4092945
-350,1901826
-361,272162
-363,9077006
-323,8493309
-311,3496479
-348,9113066
-356,5370201
-336,7295574
-334,491741
-326,3264449
-315,9865922
-326,9751532
-333,5451429
-336,949619
-341,6916799
-307,0244622
-270,7011387
-299,2249164
-328,3490344
-302,5767614
-283,6613942
-286,3562553
-271,6646907
-276,8400682
-319,8857755
-347,0552175
-348,1018152
-315,779003
-246,5902276
-225,5389451
-267,6286199
-272,8627227
-202,7447283
-39,02811419
204,5336414
328,6870612
148,4286707
-197,4950004
-380,587416
-323,8520325
-267,042297
-306,4116457
-283,7135023
-204,7012764
-218,8783624
-252,4981377
-207,8139612
-200,5791722
-258,5470889
-278,721007
-269,6041986
-273,4499105
-271,0113636
-258,2917513
-255,5442381
-250,0219591
-205,2280183
-149,165488
-134,8374074
-137,9967818
-124,6465815
-101,789741
-74,42915792
-49,31769233
-39,70816577
-41,60336045
-24,25601851
16,58115872
29,15551148
10,46442219
11,75531619
15,52566225
-6,227026727
-8,255193253
16,18876534
21,85249736
33,48369724
75,33010597
87,63951148
59,40974905
48,13870164
58,07430021
55,71452402
27,05740088
8,101007424
66,09346926
150,5329612
149,6677074
102,4959815
72,76610672
48,22645594
65,37545178
119,9615666
139,2333225
139,4392914
142,0780949
114,8984042
90,89894017
100,328473
114,9358224
138,7198572
169,1794953
176,3137032
171,1214966
164,851939
146,0041425
127,327267
125,8205201
150,4831566
210,3144785
250,8138345
205,4806196
138,314275
130,0642873
143,9801886
143,5615558
137,80801
125,2192168
113,044885
123,0347667
200,4386567
385,2563918
587,7378508
598,8829536
312,6916607
-56,0860271
-157,2000693
-10,90038638
74,0631399
39,19066574
27,98238485
46,18852785
43,55936167
55,34518905
81,79634784
67,16321052
23,19618351
3,145706603
23,76225237
56,5463255
51,49846222
19,61922966
27,1592252
46,36907588
-9,250562278
-66,19900487
-12,72553977
42,4205722
11,74009668
20,48382508
86,65257396
79,99718434
24,51852109
18,96747226
24,0949484
-4,848118046
11,38922658
88,55795648
102,9090658
49,94356787
47,91249469
66,06689619
13,65783958
-44,31359128
-23,84629651
23,0608391
22,65894549
-3,550833345
-5,06733998
9,860595804
1,234156379
-25,94546436
-29,92706161
-22,95942031
-35,54131575
-32,42151419
-12,34877345
-29,57184359
-65,58946743
-82,90038123
-74,50331521
-7,39699422
64,41986171
39,19853678
-16,80968115
-18,85350115
-31,68162979
-70,0427717
-45,4356301
11,64109257
-13,0613058
-72,29152761
-63,04827605
-44,33025563
-70,38617271
-76,46473604
-56,06465722
-60,18465126
-74,82343705
-81,97973785
-98,65228179
-95,83980234
-42,29103878
-2,504736682
-26,22964834
-33,21453325
63,79184147
239,5407006
386,7832605
346,7707286
58,75430278
-224,0148285
-233,2854871
-103,8065054
-58,07672667
-60,59500548
-43,61020806
-40,62121269
-54,12690997
-48,62620327
-30,118009
-11,60125693
16,17510942
18,21213256
-29,48915936
-41,17775278
15,14735094
41,23713527
53,59256821
115,2146021
109,1041731
5,012201525
-33,0604091
21,13722821
57,10598352
55,84670978
60,11024261
58,89740011
38,9589827
71,54577291
158,4085352
153,5480159
52,21494276
9,410025315
19,63395427
1,137401593
-1,578979626
9,985444692
-33,91871048
-77,04084936
-50,63039545
-28,43679164
-64,70950021
-78,69800296
-24,65180123
-0,820415952
-49,20338767
-70,30027659
-54,6106626
-70,63414527
-78,87034384
-66,31889726
-66,97946416
-33,60172279
-4,935371066
-59,48012647
-118,985726
-131,4519263
-136,3785032
-125,0152522
-89,61198784
-72,168544
-95,68477369
-127,1605489
-130,8457607
-121,7403187
-125,3441515
-109,4072061
-42,67944806
5,089138874
1,148552707
18,99877347
30,13976333
-12,17853321
-12,95618917
16,30670511
-14,63995786
-9,796302529
70,58752992
98,26138174
77,72507885
85,22843105
121,0212322
224,3532607
419,9742791
586,1340352
526,8322616
228,5686762
-20,40701743
-27,34512996
45,75401401
52,89007627
50,81270523
69,0215362
61,2661917
53,29628174
87,61140411
99,21114467
56,59507767
30,26276603
47,96376168
73,44760584
68,96382938
48,26195308
58,84148798
80,95193573
68,09278888
34,76353122
17,71363811
21,69257681
34,69980685
78,4847803
130,2969422
105,6357307
44,25057785
35,39090931
30,0561452
0,495700216
36,70898405
118,9454017
110,7043538
26,98523693
-20,46255581
-34,6396348
-56,79661332
-52,43410731
-3,802734985
3,846883491
-66,98587367
-118,0516295
-107,6010081
-114,884634
-154,1531322
-127,9071275
-34,64724439
-9,624106743
-72,58833735
-107,5405577
-99,23138763
-115,1614451
-145,3313457
-131,4917026
-73,14312605
-52,28622317
-100,6715976
-128,2998495
-104,9215746
-95,53736471
-103,897807
-89,2534838
-59,85497236
-60,70284463
-95,79766694
-121,3899998
-128,2303977
-128,8194087
-108,1575745
-81,49542983
-81,58350259
-68,92231344
-24,26237564
-21,35419482
-54,69826885
-53,54508759
-61,14513275
-102,7488777
-97,10678718
-53,21931744
-45,83691576
-55,46002047
-46,58906074
-26,97445651
28,88338172
184,984053
422,0771659
533,662339
321,7392004
-54,44261142
-218,1334483
-126,8336517
-66,54355299
-123,5134731
-140,4937228
-72,98460233
-19,48640135
-4,249399168
16,47613554
18,68994468
-19,10821924
-67,16859304
-101,7414029
-63,32686438
39,07481769
65,46344908
11,33884625
-16,29916377
-45,4507433
-87,8660441
-42,54520742
66,01163602
94,05436592
39,58287239
11,34705586
16,84682703
8,582106783
0,802826145
17,75892616
36,45035784
27,37708202
10,53906933
9,936300034
24,56876395
49,43646033
34,78939773
-35,37240607
-81,29892426
-77,24012108
-79,69595196
-108,4163637
-123,9012945
-117,9006744
-122,414425
-84,69245994
11,76531501
27,20900183
-44,86128991
-64,19544328
-54,79333412
-83,65483122
-79,02979652
-27,16808527
-6,319546229
-17,98402185
-31,91134848
-53,35135651
-78,05387064
-81,51871
-50,99568842
-32,48461456
-51,48529218
-42,74752028
-4,521093334
-2,055801515
-12,10143086
-5,907763501
-11,97457786
-20,80164888
-18,6387482
-23,23564437
-33,8421031
-42,20788741
-28,83275786
10,53352721
21,39121154
-0,259459317
-0,168238166
6,665123614
-1,009124127
5,059269483
30,37055614
58,17498818
62,47281834
47,26429963
50,79968507
47,82922756
17,10317965
2,621793357
5,635320021
28,64401008
82,39811291
101,6478766
103,643548
224,3853722
481,6235925
676,3584505
538,3401857
109,0690351
-177,2047663
-126,7309863
-17,75939527
-25,53976632
-52,07187561
-44,85550236
-36,39042897
-16,42644123
23,78667167
33,74911693
3,711098059
-13,57718521
-5,115537068
3,096234311
-1,441683356
-14,22910654
-12,51585598
39,44824321
105,4133615
94,62966481
37,34731454
20,3164674
33,28727542
56,00988585
84,48444113
90,71107887
84,68993174
81,17112752
57,65478897
36,39103388
51,87997502
78,8717201
100,1163718
97,11402764
46,3647802
9,618716894
18,62592008
-1,113532969
-55,84957002
-79,5821239
-53,06113247
0,213461416
21,99170992
-11,22633976
-43,94064533
-69,15116937
-94,10787932
-41,06074739
53,49024946
47,54512958
-13,39609334
-20,08341016
-12,76681625
-31,94631147
-51,12190002
-48,54359044
-14,71139548
23,37466793
27,2145788
12,30831212
10,655839
14,25712671
2,112138788
-28,52916486
-52,41682786
-27,55089731
22,56857637
28,6915395
4,567935287
-6,802296132
-26,41921752
-54,53289448
-41,14339531
-7,250790904
-25,85515464
-73,45656227
-84,80509178
-53,15082332
-8,993839041
-4,834222984
-37,92206098
-50,50744052
-59,84045062
-93,17118172
-79,24972554
-0,826174998
35,59937598
-0,223167487
-29,54390106
-33,86292109
-50,68032447
-64,74620853
-28,81067091
34,12619057
45,81427803
3,253493654
-29,05626021
-35,6150809
-38,67306534
-39,7303099
-49,03691031
-73,59296151
-57,89855756
43,79620849
197,4912447
364,6864604
507,6317663
495,8270743
220,7722982
-125,2826466
-225,3378432
-123,8933724
-75,69931347
-94,25574327
-76,56273664
-57,6203661
-72,42870186
-58,73781163
-22,29776063
-41,60861142
-86,92042387
-62,73325506
2,702840797
20,63781243
14,32161157
24,50419306
15,93551487
-10,3844618
-26,45577249
-39,52844937
-16,10252125
61,32198652
99,24505209
61,41665714
33,83678692
33,50543034
22,92257994
34,33823195
60,25238635
49,66504684
50,5762209
85,7359198
72,64415863
8,050956264
-46,29366457
-87,13967731
-91,23705159
-43,8357532
-42,18574408
-107,2869824
-112,1394225
-60,74301492
-68,3477065
-93,95344028
-62,31015561
-46,41778817
-75,27626997
-63,13552945
-27,99549146
-53,35607734
-87,71720498
-58,32878884
-21,19074003
-31,55296636
-52,16537243
-45,27785964
-26,39032633
-26,5026678
-48,86477643
-63,22654173
-55,08785043
-47,94858657
-42,3086316
-28,41786445
-46,27616167
-81,13339746
-49,23944385
4,405829255
-17,69744606
-60,29913582
-57,14910428
-46,49721404
-46,34332616
-44,18730027
-38,7789947
-18,61826661
-4,954972111
-24,53896638
-45,62010382
-47,94823814
-47,02322254
-41,84490983
-33,16315254
-34,97780308
-44,53871387
-52,59573748
-59,64872679
-66,94753507
-70,9920162
-60,28202473
-46,81741609
-55,3480467
-51,62377411
-23,39445713
-36,15995602
-81,17013257
-92,92485028
-88,92397448
-104,9173725
-120,4049137
-104,1364699
-70,36191508
-55,08112582
17,7060186
249,2496361
480,0498419
439,8567477
135,6704626
-171,7589081
-264,4312622
-157,3465012
-40,5045301
-42,90525786
-90,29859723
-61,18446498
2,437218052
2,81652678
-21,54646817
10,34829943
62,7508913
58,91136458
5,579771728
-33,74383954
-0,059426358
81,63304924
106,0836202
66,79231453
51,00915497
75,7341592
106,4673396
115,9587034
97,70825236
73,46598295
63,23188624
86,75594787
124,538148
114,0784614
83,37685712
98,68329898
110,7477451
91,07014817
110,6504553
154,7386081
149,5845427
107,4381897
61,54947433
42,91831631
93,54462998
165,4283243
170,5693029
139,9674642
150,1227012
179,534902
189,9539494
201,6297212
204,5620901
171,2509242
127,1960865
91,14743543
75,10482458
109,5681031
142,2871158
102,0117028
45,24170035
26,72694021
8,96725031
-11,53754541
16,7123732
84,46682262
111,9756158
78,98856216
29,00546801
-19,7238636
-30,94963261
22,32795818
57,35870327
11,14239454
-39,32117849
-30,78222861
-21,99097072
-77,44762165
-146,1524001
-118,3555262
-22,05722189
-2,007710127
-50,20721514
-64,15596212
-84,85417706
-140,8020866
-137,4999179
-85,19789822
-84,39625525
-119,3452165
-115,5450091
-72,99586018
-51,44799598
-77,65164217
-111,8570235
-136,0643636
-162,273885
-154,7358087
-99,95035423
-67,41773926
-94,13817966
-130,1118892
-131,8390794
-103,5699594
-33,55473585
115,2063874
311,4632094
390,7155321
180,7131607
-181,7940963
-320,3064269
-204,3240155
-128,0970427
-127,6256851
-88,66011557
-75,70050246
-114,24701
-120,5497978
-106,6090212
-110,1748305
-77,74737142
-13,07678461
-8,91320576
-52,25676534
-60,60758858
-51,46579534
-74,33149998
-97,45481131
-69,08583248
-30,97466087
-39,62138804
-20,02609961
60,06112477
81,39021157
41,46109335
45,52370891
66,57800331
63,62392794
78,66144058
98,44050543
113,4610932
153,9731809
171,9767526
145,2217983
126,4583152
118,6863067
113,905783
116,6167612
115,5692647
124,5133238
132,4489753
110,6262631
88,54523718
88,20595462
88,60847894
75,25288033
66,13923554
84,51762788
88,38814719
39,25088977
-2,644041671
7,453461986
20,54351616
2,126242519
-18,79823106
-47,22977059
-105,668236
-116,8634814
-51,06535478
-32,52369853
-75,23834928
-68,45913807
-49,18589044
-90,41842654
-123,6565613
-127,4001044
-150,1488606
-134,6526296
-63,66120658
-55,42438185
-122,6919413
-155,2136665
-121,2393349
-80,76871959
-80,05159012
-93,08771213
-93,87684773
-108,6687556
-118,2131914
-87,25990737
-60,55865322
-65,85917584
-83,16121964
-113,2145268
-119,2688372
-73,57388906
-54,87941877
-86,43516122
-95,74085003
-91,29621771
-92,60099591
-59,15491563
-2,207707418
93,4908984
286,6911715
468,8933813
411,5977968
83,3046864
-218,7356826
-234,5230438
-113,5571323
-88,33768484
-112,1144399
-90,88713799
-68,40552203
-78,4193374
-82,42833227
-68,9322578
-68,6808684
-81,67392194
-86,66118001
-82,14240813
-61,86737601
-33,83585775
-33,5476321
-48,50248266
-39,70019815
-22,8905726
-26,07340558
-33,74850245
-22,16567455
4,925260575
29,77447894
28,63214993
2,498436077
-0,376507144
15,75746848
3,400503703
8,052731619
51,21427747
52,13525846
19,31578355
15,50595333
4,20585977
-49,08441389
-99,61479335
-100,1352134
-52,89561798
-16,14596057
-35,88620409
-65,86632114
-55,08629415
-38,79611549
-44,24578759
-37,18532304
-2,614744745
30,96591403
43,55660953
39,9072874
25,01788265
4,138319567
-1,981488385
25,90836141
77,05776065
109,7165901
100,6347194
86,81200742
97,74830172
97,44343891
68,89724453
67,10953303
110,3301078
133,8087612
115,7952746
101,5394183
103,7909517
93,29962346
66,81517115
78,33732178
133,3657916
149,6502863
115,940501
97,48612053
96,03681936
76,5922618
70,15210214
107,4659848
120,2835443
89,35440571
94,67818465
108,2544874
67,33291118
29,41304431
10,99446639
-15,42325147
15,15945354
93,99213614
130,3243432
210,1556141
415,7354805
549,8134674
385,1390927
12,96186752
-207,468703
-130,15312
-8,841890394
-5,535526405
-17,73454559
-11,93947034
-29,90082762
-32,61914865
6,155031441
40,67117388
44,42873665
30,92717478
21,41594069
36,64448458
53,36225472
30,06869786
-9,736740477
-9,804615554
37,86451688
84,770101
95,66158125
85,53840273
73,65001158
60,99585532
47,3253833
51,13804702
95,93330054
149,7106009
153,7194083
125,709187
112,9294049
94,87953486
62,30905425
77,21744587
133,6041981
126,9688054
60,81076869
41,8795955
55,42480067
16,69590656
-34,80755656
-15,58605014
35,35997306
36,28006925
8,423804074
-1,209247123
-10,86949889
-14,30735535
11,97679017
22,48255543
-6,540430333
-23,09252612
-3,424078854
13,96457697
-1,676880433
-36,59875985
-55,55135675
-28,78495301
15,70018337
-2,596201499
-68,67434707
-80,53447816
-49,67680467
-53,85152138
-81,55880769
-114,5488274
-158,3217286
-173,8776433
-153,4666873
-142,8389601
-160,4945448
-193,6835075
-227,4058977
-252,4117478
-261,2010732
-260,0238721
-262,6301251
-264,2697958
-270,6928299
-289,1491557
-300,3886839
-303,1613075
-303,4669017
-279,805324
-239,9264141
-216,3299939
-150,7658677
48,51617815
299,7663749
371,9849714
130,6722342
-240,6715526
-385,2960874
-270,2010515
-164,1361085
-148,6009052
-127,3450712
-97,11821924
-100,4199454
-120,499829
-128,6074332
-118,7423046
-98,15397397
-81,09195627
-70,05575074
-53,79484124
-25,05869647
-1,346770218
-12,9085016
-44,49331532
-42,10062197
-3,479818307
19,61971248
13,44860044
15,75748856
49,79703244
80,31789995
67,07077093
44,05633683
46,77530031
40,97837497
14,91628488
18,3397643
64,24955723
93,39641705
72,78110611
41,40439535
23,01706387
-4,630101465
-41,53630646
-60,20075
-49,12262449
-17,80111628
2,764593904
-11,4246695
-33,61807733
-36,56479613
-41,01398861
-53,96481413
-45,41642912
-24,86798754
-30,06864136
-38,76754103
-23,46383592
-24,40667478
-61,34520625
-78,52857927
-36,4559436
9,373549745
-2,289251966
-23,69350367
-6,08836296
-5,22299055
-44,09655074
-49,20821187
-7,057146774
12,10746674
3,786445459
16,48060033
37,44073597
28,41765028
3,412133952
0,174970063
28,45693365
57,25879126
54,58130057
52,67520994
80,54125799
84,68017324
41,59267371
4,279466458
5,241247297
37,22870035
62,99249769
64,28329899
121,8517512
295,948488
482,0741299
491,7292834
231,414541
-96,36951931
-161,6223342
-26,09335536
20,21795016
-9,937900234
3,689594964
12,85092115
-3,953452647
0,276925972
10,04249257
5,343665647
15,43084642
39,80441863
39,71474835
15,16218383
2,897055283
17,16967476
44,48033601
54,57931432
38,2168664
46,89323027
95,60862518
121,6132515
105,9072906
90,74090479
104,3642375
132,5274127
146,9805355
163,2236917
195,2569478
207,0803512
180,9439302
138,8476938
122,7916319
155,7757152
185,0498955
161,8641057
115,4682596
80,61225234
60,54596029
55,51924125
77,28193453
110,0838611
102,4248237
70,55460707
68,222978
76,92968558
78,42446136
81,70701953
62,27705714
28,38425429
43,27827436
95,45876422
92,17535451
37,17765983
22,46527903
42,28779545
34,64477722
9,285777511
-8,789665183
-20,58202673
-19,84179707
-16,06947992
-23,76559244
-20,68066492
-6,565240457
-18,41987463
-45,24513515
-52,5416015
-51,05986462
-56,80052653
-55,51419998
-43,45150808
-46,11308393
-67,49957024
-77,86161899
-66,949891
-51,26505557
-50,05779011
-68,07877973
-74,82871683
-36,80830074
45,48176268
172,7907615
344,8679779
471,212689
371,0741669
31,20167905
-229,1555111
-202,4981437
-106,3269623
-106,1427136
-112,4461462
-106,7380114
-115,0190618
-96,79005139
-70,55173513
-77,55486838
-95,55020661
-107,288505
-121,520518
-137,9969991
-151,2187002
-148,6863712
-124,9007602
-104,1126123
-102,0726698
-102,0316715
-101,4903527
-114,1994444
-116,6596734
-73,87176143
-15,3364253
4,445623743
-7,276319736
-14,25295503
-7,984974963
-0,473065542
-7,467905673
-27,72016683
-34,98051278
-18,99959922
-12,52807359
-37,06657467
-66,11573239
-79,67616752
-91,2484914
-111,5833057
-136,4312022
-144,0427625
-116,4185576
-85,30914812
-82,71508372
-85,13690294
-78,57513305
-79,28028984
-82,0028774
-80,99338797
-83,50230171
-74,03008659
-44,82719816
-29,14407946
-43,48116084
-59,8388598
-61,2175809
-56,1177156
-48,53964218
-45,48372558
-56,20031734
-61,68975549
-37,95236449
-8,738455077
-13,04832429
-33,13225535
-28,24051762
-10,87336653
-10,78104358
-13,46377629
-5,921778171
-8,155248689
-20,66437329
-27,69932337
-28,76025628
-17,84731536
1,539370068
3,399684675
-10,51647292
-12,95919018
15,8214593
118,5754157
317,5526332
495,0030792
441,6767352
117,823596
-186,3063301
-206,4630213
-93,64644272
-69,6065462
-75,59327049
-33,85654143
2,353728002
5,28763754
-6,554700506
-24,67316138
-37,067608
-37,48789114
-33,93384956
-22,65531014
-4,152088099
1,826012912
-5,97079941
-6,542306173
6,611722529
20,24152744
24,34735993
23,67948186
29,98816534
43,02369253
49,53635547
55,27645589
72,49430493
76,440223
53,11453954
38,26759281
37,89972966
26,51130533
30,35268318
60,92423454
59,4763384
21,00938123
-1,976243268
-16,7301344
-42,00188469
-51,04108017
-39,59730058
-33,1701196
-34,75910512
-33,3638195
-27,98381974
-22,86865783
-23,0178809
-24,18103154
-12,10764798
10,20273559
21,50058883
18,78638495
17,56060052
20,07371517
17,32621137
11,56857417
14,55129094
24,77485116
20,98974614
0,196468777
-5,354486679
11,33737512
18,77255039
9,951535952
0,624829005
-3,707073116
3,95632682
17,6155257
11,52101984
-5,57669527
-4,677125166
3,470223335
-1,634158085
-17,48977947
-37,09615283
-49,45279231
-47,8092145
-47,41493856
-56,01948648
-52,62238331
-19,22315731
67,42865977
243,5835326
462,2419218
531,1542843
282,8210723
-102,757266
-234,5802872
-109,3975529
-36,70862939
-62,01308828
-57,56050655
-39,85046665
-47,88255676
-52,90637088
-46,92150906
-34,42757751
-13,17418877
-4,410961858
-24,38752242
-45,60350287
-28,30854253
19,24771224
55,56560788
70,64548356
73,98767102
67,34249443
63,46027033
70,84130748
71,98590674
58,14436102
52,06695512
62,75396568
65,20566108
53,92230131
50,90413795
53,90141407
42,16436412
24,4432139
23,98818048
30,04947215
22,87728834
7,471819567
-13,4167526
-41,03825558
-61,39252585
-62,97940897
-52,2987596
-42,35044156
-34,88432782
-27,15030056
-28,64825118
-37,62808027
-37,33969767
-32,53302248
-31,20798301
-21,61451683
-12,75257074
-26,12210077
-46,72307215
-54,0554593
-53,61924585
-47,66442455
-36,19099727
-32,69897497
-38,1883777
-38,65923447
-34,1115833
-29,79547113
-28,71095377
-40,60809586
-57,23697079
-56,59766069
-42,69025631
-31,01485698
-22,57157054
-11,61051326
6,368190218
18,864407
8,377995964
-11,84119209
-20,04331441
-16,22853615
-5,897030318
5,951022355
10,8154335
8,196007197
14,59254013
74,75482164
230,6826339
434,8757519
522,8339437
334,0569706
-30,20541291
-223,703459
-153,9374264
-71,90757988
-68,61419077
-43,80753633
-15,23789981
-27,90557028
-33,06084251
-13,95401678
-5,335398809
-4,95529954
3,685964961
10,83807367
14,50070075
24,42351569
35,35618349
42,54836478
48,74971599
49,4598895
43,92853381
36,15529367
24,88981029
19,63172144
36,13066165
59,63626234
59,64815203
43,16595646
35,68929877
35,21779967
30,50107756
19,03874879
-0,169572287
-16,12427307
-14,57574259
-8,274371298
-17,72055097
-34,91467446
-43,85713562
-49,29832905
-57,98865
-66,17849418
-73,11825759
-76,80833636
-70,7491266
-62,44102424
-67,63442485
-78,57972347
-77,77731449
-74,22759147
-84,68094698
-98,63777242
-100,0984579
-95,56339215
-93,03296214
-92,25755318
-90,73754863
-79,47332981
-61,71527579
-54,96376329
-57,96916653
-60,73185706
-66,50220363
-69,78057206
-57,56732506
-39,36282214
-35,16741944
-40,2314696
-38,80532164
-36,88932079
-39,98380839
-34,83912176
-20,95559405
-18,33355414
-32,22332646
-40,12523097
-30,28958291
-24,21669278
-31,65686618
-31,86040369
-23,07760078
-19,05874764
-9,304129164
36,18597526
163,4112918
382,1215523
555,5664943
455,7458615
87,40940319
-187,693125
-154,8119613
-44,69733766
-38,34947976
-40,26860674
-8,704931194
1,591340898
-4,379989718
-2,869115493
-0,126221994
0,598512176
5,554915455
17,2428234
25,16207875
19,31253151
15,44403903
30,05646602
42,64968469
34,72357476
33,02802353
54,31292595
69,32818467
67,32371008
70,79942041
80,00524171
81,44110794
75,35696102
60,75275085
46,62843537
56,73398056
83,81936052
93,1345575
79,6795619
62,2043723
41,95899553
13,69344663
-16,09225108
-39,64806601
-52,97395825
-57,81987963
-63,93577362
-69,07157539
-59,97721179
-47,40260131
-48,34765416
-52,31227217
-54,79634891
-60,04976961
-42,57241122
-3,86414241
2,075176408
-26,00430694
-39,85243643
-35,21904783
-26,85396878
-19,50701878
-21,42800925
-16,8667436
0,426982814
-3,296617456
-29,78732393
-45,54490829
-45,81913441
-45,35975844
-38,91652883
-13,98918645
8,172535388
0,318910842
-18,54977853
-23,18324387
-22,58118907
-28,99331086
-32,91929891
-13,35883595
14,18840223
4,722746573
-15,00546527
10,25411091
35,25182583
13,48803652
-6,286893707
-1,322595415
-5,368693162
-18,92480562
-7,990545678
76,93447938
272,3506678
513,7584231
605,1581542
372,300275
-30,81479576
-210,6866344
-116,8148126
-30,44889763
-27,83845245
-23,73303578
-28,13220239
-47,28550317
-38,69248538
-10,35269277
-4,265665769
-19,93094167
-30,84805481
-39,76653673
-57,18591642
-64,60572043
-55,02547313
-55,69469686
-71,36291215
-80,77963793
-79,9443917
-62,35668976
-26,76604741
-8,671979153
-22,07399893
-40,22162032
-54,61435674
-57,50172169
-30,63322897
-0,258392881
-2,626728486
-17,48775181
-19,84098006
-19,9359319
-25,27212764
-45,09908947
-74,41634173
-75,22341111
-60,51982691
-72,55512126
-85,32882938
-80,34048979
-81,83964459
-85,32583968
-87,548625
-96,25755477
-89,70218775
-57,88208747
-32,29682247
-33,94596657
-45,32909907
-55,44580504
-72,0456755
-90,12830773
-105,1933055
-116,4902792
-108,5188463
-85,02863137
-79,5192664
-99,49039107
-127,6916529
-148,1227077
-141,0332194
-119,9228605
-104,2913127
-82,63826615
-75,46342068
-100,2664854
-118,7971791
-110,8052305
-90,79037837
-67,75237179
-53,19097033
-57,85594425
-75,24707469
-84,11415386
-70,4569852
-52,02538361
-52,31917557
-53,83819932
-21,08230505
24,44864496
20,7547762
-22,66379824
-33,55697779
-2,924674553
16,73318659
8,166667818
2,625818308
18,86067408
27,62125792
28,90757926
109,4696341
319,557405
549,6708609
580,3099571
298,9746351
-69,83517729
-180,619566
-53,12863073
44,6375147
42,4287428
32,99491211
48,58586731
55,20143917
32,84144461
22,50568668
63,94395461
100,4060239
71,64165621
34,15059967
52,43258872
98,23734429
133,5645739
163,6639716
181,7852184
162,4279819
125,841917
112,7766654
115,2318563
133,4571061
178,7020189
196,2161864
182,4991882
185,800592
145,1199539
77,70681808
110,5607177
182,1811747
212,5677001
243,4697942
199,8869469
84,56863791
95,51433707
189,2235044
171,1955907
119,9300375
120,1762774
95,6837346
107,701825
182,4799566
167,2675295
95,81393683
106,3685644
137,1807914
127,9999908
121,5755295
109,4067686
103,243064
146,5837666
172,6782227
135,7757743
109,3757596
107,2275131
78,83036649
22,68364835
-11,21331496
15,38880087
8,489318554
-86,41244046
-92,06715555
2,524493444
-25,3881734
-130,0558357
-154,7291722
-167,4088608
-198,0955776
-172,789997
-122,2427911
-115,2046291
-137,6761773
-142,6580986
-134,6510517
-153,6556914
-182,6726675
-177,4526251
-178,2462037
-219,0540369
-210,6267524
-146,964971
-161,5693069
-217,4403666
-189,3287493
-148,485046
-164,1598392
-174,3537028
-174,0672015
-183,0508907
-175,0553158
-169,3310122
-190,3785048
-207,6983076
-208,0409237
-182,1568445
-71,54655
128,7894922
324,6008265
401,1370104
233,3976138
-133,1177799
-353,6595738
-267,9781573
-129,5739059
-97,9471807
-98,59832838
-100,0276808
-120,485555
-137,2222526
-111,23806
-65,03324774
-55,6080708
-59,96276796
-39,09756183
-20,01265864
-15,70824803
-22,93450294
-47,44157941
-43,97961644
17,45126412
63,35095774
51,96937731
50,05645326
73,61213367
66,13638439
35,8791891
24,09054938
35,52048485
73,66903316
109,5362501
100,1222097
88,17700405
98,70074363
75,94355715
27,65559161
-1,662987698
-16,01199715
-11,89123485
-0,55048062
-16,48949601
-37,20802436
-36,20579082
-42,48250241
-54,53784807
-37,62149871
-16,23310731
-16,62230898
-1,788721061
27,51805678
27,04844247
10,05287137
7,781796217
8,235686937
4,165030549
8,320331008
16,20210905
17,31090206
15,39726385
14,21176456
16,75499043
22,5275436
20,28004197
20,76311894
49,72742324
83,4236187
79,60238402
57,26441254
51,16041202
51,54110437
47,65722542
46,75952465
44,59876494
38,42572226
36,49118544
37,29595588
37,59084721
38,62668504
33,65430666
21,9245607
16,68830683
20,69641544
22,94976729
19,44925324
6,945773821
-14,30976104
-10,31643242
41,6766873
83,42053401
60,16605156
14,66419133
-2,334088093
-3,577821337
-6,816036615
-7,797756126
-5,02199645
-2,737768956
-3,694080206
7,360067631
79,67567636
241,7537513
418,095301
443,2013366
211,0728716
-111,7890789
-214,3834982
-104,7093687
-35,76567243
-49,05139132
-49,81550777
-43,30700508
-46,77486791
-42,46808277
-38,88563848
-41,77652666
-37,88974217
-29,97428366
-24,52915398
-18,80336074
-19,79591675
-34,25584052
-47,18215679
-46,823897
-42,43009977
-34,74981147
-18,53208664
-9,525988576
-19,73058978
-31,89497248
-33,26822919
-32,59946315
-30,63778887
-26,38233267
-39,08223316
-64,98664177
-49,59472325
18,84434379
58,33136637
31,61713663
6,702431331
9,08801129
-7,225379088
-38,73701234
-40,69617848
-17,10218546
-4,204359742
-4,002046763
1,755388532
12,3185612
17,43806578
11,36447581
0,598343312
-0,609801704
3,490548279
-2,600122218
-14,38135215
-18,85270444
-19,26376644
-22,61415044
-27,6534941
-38,13146094
-55,79774082
-67,40205033
-69,94413334
-77,67376135
-92,59073399
-106,1948794
-117,7360549
-125,2141468
-128,6290716
-139,2307759
-152,7692369
-148,4944628
-130,6564931
-120,7553993
-120,041285
-125,264286
-142,1745714
-156,0223431
-146,8078367
-133,5313217
-136,6931016
-138,7935143
-133,8329328
-136,0617646
-140,4804529
-138,3394762
-127,3893488
-111,880621
-115,0638795
-136,9397471
-144,0088834
-130,7719848
-118,7297844
-123,6330527
-142,7325972
-151,5292628
-146,0239319
-147,9675241
-156,3609969
-158,4553454
-159,0016022
-150,2508376
-85,95415974
65,63728584
250,2723158
360,6997093
291,6682081
18,67651636
-241,7766988
-250,1928075
-124,3232168
-70,91937073
-58,23274966
-34,76487054
-53,51728643
-108,2415863
-117,9393947
-75,36237144
-40,51221149
-21,39064432
1,000566321
11,65962279
2,834694016
1,023915892
21,72539178
44,93719299
59,90735928
70,6338994
69,36479167
70,09798454
88,33139722
97,31292031
89,04041645
95,26172103
113,7246429
107,676965
86,86644534
95,29081762
125,6977921
139,8350562
131,950276
117,5410964
108,3551425
105,8900201
101,1433174
86,61260505
70,04543805
73,93935618
98,7918853
107,8505384
98,6128168
110,8262111
128,7382025
115,5962639
105,8978611
127,1404543
147,0714989
151,688447
148,7387487
135,4698537
123,879212
123,9642758
127,4725008
139,1513473
158,248282
161,0107794
152,1863229
166,2724067
200,5165373
221,4162345
226,9690336
235,6724865
247,0241636
255,771655
260,6625726
256,944551
252,36525
261,6723554
274,1135813
274,9366715
273,8894011
266,7195781
251,4250455
265,0036826
309,2034069
332,5221759
312,2079883
272,7588864
257,9229574
281,9483354
303,5832028
299,8257923
296,4243884
302,8773294
307,433009
303,8398779
288,5964455
276,4512821
281,6530198
286,200355
279,0920494
266,5769321
245,4039012
228,0719254
229,3300454
240,9273761
295,3631076
447,6365071
651,4969204
737,1937736
541,7265743
173,8449133
-16,20153372
39,83699475
83,46034796
54,16846404
81,71137148
155,0891904
183,3021339
160,3505093
143,4847195
160,955264
180,5127401
173,4078442
154,6413729
140,4642235
126,377396
125,381993
154,2292214
170,1703928
129,4569248
70,34034122
55,82227312
100,6544595
150,3387479
140,6270949
103,2715665
96,52433911
100,8876992
100,3640441
111,7058825
115,6658339
82,24662949
29,95111201
24,03223566
88,49306617
109,3367807
-9,433332374
-140,0638736
-143,551333
-95,39209012
-100,5824147
-146,868467
-193,4962988
-222,2118536
-226,2609677
-223,8893706
-236,5926866
-249,3664349
-256,7060314
-288,8567894
-336,8139209
-351,572538
-333,877654
-334,9741852
-377,856952
-423,770681
-430,7100062
-415,919471
-414,1435302
-435,8765514
-488,8628178
-540,0965294
-513,5718059
-425,5326886
-385,7231428
-420,6370602
-457,2682613
-468,1104983
-488,4074575
-523,6527619
-544,5899743
-531,9626001
-494,0140904
-468,9878446
-475,1272142
-488,4255053
-497,8759826
-505,2218721
-505,2063649
-514,3226207
-541,5637712
-556,422924
-550,1431659
-549,7175673
-558,6391854
-558,6510685
-548,4962602
-548,1678028
-563,4087419
-548,4621305
-446,3210331
-261,9785302
-86,92772236
-92,91173484
-378,1737219
-725,9568716
-822,5044097
-717,5596051
-638,8657738
-610,1662839
-587,7045602
-588,2240893
-589,7184239
-564,9311878
-540,3560809
-529,4868842
-514,8174643
-499,8417786
-499,5538803
-510,4479234
-516,2681676
-501,7589832
-480,1648563
-476,2303941
-479,7003292
-483,5695254
-498,8329822
-502,2358403
-479,2733861
-459,1910573
-449,4844475
-443,8993111
-458,931569
-482,8273124
-478,832809
-456,694507
-449,65904
-461,7232326
-481,8841043
-488,3888749
-469,7349687
-466,1700198
-507,4418759
-538,2986037
-493,9884929
-414,7600606
-390,612056
-421,5434647
-447,3035125
-429,6416701
-350,5576569
-264,5514449
-253,3732631
-278,7736009
-275,0032119
-263,3131178
-253,4546115
-232,9292612
-225,4889131
-231,1356952
-217,3720198
-187,2005871
-163,6243878
-154,8967059
-153,2711215
-135,0015131
-102,5920601
-84,79724497
-70,37185558
-41,07098697
-32,90004327
-63,61473939
-67,47110253
2,024526408
75,3654916
78,29482122
49,05522652
48,63910108
66,03852024
77,24524065
93,50070006
122,5460172
151,371992
180,4691056
230,8275213
286,1870845
289,5373242
245,6174537
245,1663717
329,4226641
409,6246049
411,5101589
391,3169828
403,7824278
427,143542
453,1370728
508,9994698
633,7168876
836,7751892
1031,909949
1040,856457
774,5997225
483,6244766
467,9151788
582,9560197
607,7309261
646,9735662
734,1673538
746,5454543
747,0907896
830,7860443
905,6136708
906,0558961
902,8447275
944,2119595
988,63918
993,6077776
986,0989484
1019,343703
1090,322876
1143,517129
1161,906963
1179,972726
1202,194618
1219,802702
1253,526914
1302,597067
1349,242864
1394,193906
1423,929703
1426,679678
1433,173183
1453,139506
1455,307881
1459,157499
1492,917516
1513,317066
1498,08527
1483,451249
1480,394133
1468,39307
1447,677241
1436,975871
1451,018236
1496,033679
1540,00162
1536,401569
1508,713135
1501,166038
1498,490126
1509,415382
1564,421935
1603,490079
1581,600278
1554,233184
1544,619643
1531,740715
1518,57768
1508,112055
1505,325602
1509,200347
1494,218586
1460,6129
1434,616169
1412,711582
1386,132653
1374,86323
1369,637507
1335,940042
1310,755762
1332,069981
1332,118409
1286,887166
1267,362793
1263,782265
1225,883001
1174,902879
1139,580245
1139,403925
1156,863237
1121,198004
1049,39856
1009,455769
964,3610278
883,3562818
819,6840339
798,8373552
811,0598946
824,5958896
788,1901755
726,3381951
710,2860081
756,0303001
864,8183917
1007,398247
1021,268481
754,6783702
379,6278578
223,3675626
246,8987859
209,973519
154,594449
167,7649659
133,4891687
19,27187055
-85,38139521
-162,7143703
-211,2200665
-229,3907614
-295,9679944
-441,9425628
-571,5545185
-636,2931651
-697,8970554
-784,3539889
-851,1510102
-897,5244073
-979,4597112
-1109,691694
-1246,204371
-1327,730996
-1337,25407
-1370,505333
-1490,215772
-1614,11562
-1699,43436
-1794,900725
-1897,242703
-1968,937541
-2008,711749
-2063,7911
-2190,650644
-2359,014704
-2511,356887
-2659,150088
-2796,366499
-2893,977614
-3003,204236
-3151,516488
-3272,883818
-3391,025011
-3547,158195
-3649,000853
-3724,769833
-3908,181359
-4101,701039
-4186,54388
-4286,9243
-4447,306137
-4547,402663
-4614,426602
-4734,090134
-4863,354917
-4986,4321
-5120,532334
-5226,115791
-5327,892178
-5453,570751
-5537,610337
-5619,469344
-5795,855781
-6006,227277
-6169,541094
-6279,25415
-6342,573035
-6423,454029
-6557,603122
-6690,976031
-6827,778224
-6991,714935
-7132,491188
-7241,061813
-7338,631471
-7428,15467
-7578,58579
-7813,629104
-8017,988795
-8131,118982
-8209,97374
-8296,257121
-8392,173179
-8486,925988
-8569,469666
-8647,7584
-8605,996462
-8088,13824
-6848,388252
-5151,701174
-3377,531861
-1336,585369
1206,433019
3677,067777
5929,863108
8308,612921
9951,360813
10337,15004
10250,27351
10165,02374
10081,44283
9999,57249
9919,453949
9841,127983
9764,634872
9690,014386
9617,305763
9546,547682
9477,778251
9411,034982
9346,354769
9283,023871
9079,327894
8663,301764
8253,229716
7911,145271
7555,831219
7227,319598
6932,14168
6620,82795
6295,40809
6010,910965
5794,8646
5591,046171
5320,481984
4994,447462
4655,967132
4245,814604
3702,512565
3073,33276
2370,29598
1670,922051
1229,729819
1043,487139
839,7108658
578,4168394
361,3698772
186,8337634
80,82123895
76,59399306
88,91265447
56,2867835
49,47486449
68,48429882
-0,678601663
-129,7586206
-204,2516426
-248,9046583
-301,9657687
-331,6841892
-360,560253
-408,0954141
-446,0422493
-486,6544605
-518,9368759
-483,8954505
-390,7872667
-277,3705341
-184,4045883
-188,6498901
-258,6180231
-317,0716921
-416,0247193
-546,2420417
-609,7397066
-643,0348675
-692,8957791
-713,5917914
-738,3933443
-813,0719609
-885,90024
-935,4018493
-960,3515169
-940,775023
-932,6991906
-981,1518763
-1020,66196
-1015,009335
-1004,974896
-979,8405283
-889,1390961
-756,9044296
-687,4213124
-776,2254679
-958,8535461
-1029,093109
-940,4826153
-835,811407
-770,1196922
-704,1985301
-627,3398141
-548,5862554
-473,2313657
-387,8194396
-286,8955365
-192,0054626
-98,94575173
4,986353345
96,49292069
176,0253489
279,2843871
406,9701559
532,0321675
641,9193477
743,3300565
850,9621106
961,5128049
1066,178935
1184,65682
1326,642326
1468,830886
1601,91753
1727,096899
1838,563279
1954,010617
2091,132551
2229,62243
2359,923342
2500,478137
2642,979451
2768,369735
2891,841276
3025,836224
3156,79662
3273,914416
3375,631506
3475,13975
3592,880997
3723,047117
3844,830021
3967,171689
4106,514198
4237,049746
4346,470676
4470,969507
4615,738955
4755,971962
4884,611722
4985,351702
5064,385673
5175,907734
5334,612335
5501,444307
5649,598882
5766,77172
5858,408936
5961,457119
6089,613364
6217,82529
6348,291065
6502,209431
6672,779729
6858,701917
7074,676598
7318,405041
7553,8392
7734,18174
7880,386058
8037,906301
8182,197392
8285,465043
8307,915784
8142,006976
7781,94683
7334,44443
6795,459751
5660,95367
1317,887991
-6649,27454
-12661,82022
-14159,53438
-14037,45135
-13917,60448
-13800,02606
-13684,74739
-13571,79872
-13461,20923
-13353,00703
-13247,21917
-13143,87159
-13042,98915
-12944,59557
-12848,71349
-12755,36438
-12664,56863
-12576,34543
-12490,71286
-12407,68785
-12327,28615
-12249,52235
-12174,4099
-12101,96105
-12032,18689
-11965,09735
-11900,70118
-11839,00593
-11780,01802
-11723,74266
-11670,18392
-11619,34467
-11421,72664
-10920,33039
-10242,90531
-9512,949662
-8753,210535
-8039,933895
-7398,864565
-6802,246245
-6241,821517
-5703,33185
-5156,267615
-4610,618091
-4105,121478
-3636,264904
-3172,284443
-2718,415121
-2301,390932
-1914,444849
-1547,30884
-1224,713883
-923,639977
-554,0661585
-148,4705195
157,1697785
410,3784876
713,680256
967,3506111
1132,665941
1355,653478
1661,841278
1918,0082
2079,933894
2234,148771
2425,433993
2603,571446
2744,593721
2898,784096
3087,176511
3241,555549
3331,206415
3429,164912
3551,967421
3639,150878
3721,752751
3852,061019
3958,36415
3994,701076
4023,611172
4078,884231
4164,310445
4250,430378
4257,784946
4239,41539
4293,113258
4330,420377
4317,128835
4358,530953
4399,919265
4357,086494
4320,825531
4304,929408
4262,44128
4352,154399
4641,362096
4859,357752
4799,934781
4481,886609
4077,506645
3903,838269
3996,674802
4066,559492
4050,785487
4046,645817
4012,683376
3942,940896
3895,210932
3840,035839
3756,207756
3699,518583
3689,509965
3670,473271
3603,44958
3524,479659
3473,853946
3432,362534
3366,545155
3288,441161
3246,58951
3224,778748
3149,296998
3057,681938
3019,970794
2972,200318
2890,906783
2849,125961
2812,393114
2727,492984
2649,459776
2575,077146
2474,878194
2420,395451
2391,660867
2291,705801
2181,311015
2113,006658
2020,072263
1915,536739
1843,678356
1800,524744
1786,352885
1737,939103
1622,309062
1531,737754
1486,499503
1418,36795
1324,616053
1246,266086
1217,089628
1211,357566
1146,840089
1027,056685
925,276141
856,5165398
808,0452595
767,6289717
706,0336419
630,7745288
572,8661847
516,5724563
439,6564853
359,1307104
288,7568686
234,5459974
211,0084376
181,9038356
94,49114694
-4,721360246
-53,47610142
-84,26617146
-143,3353401
-211,4280473
-240,0393976
-247,6651556
-293,5517393
-353,6962146
-390,8462887
-443,7503041
-517,157231
-554,3166605
-539,4787976
-487,394453
-378,0650355
-220,742544
-142,4295592
-306,8792348
-684,3452889
-972,8319952
-977,5941737
-900,3871815
-941,9669029
-1001,58974
-996,012604
-1009,742902
-1069,53853
-1121,657862
-1148,359738
-1150,153455
-1147,048756
-1175,055818
-1213,435242
-1239,698044
-1281,855641
-1317,419838
-1313,902824
-1328,567154
-1371,175739
-1361,491837
-1326,529038
-1354,801257
-1389,322717
-1364,607943
-1358,921744
-1407,779209
-1432,695689
-1406,186788
-1392,018352
-1421,456456
-1438,517393
-1419,217662
-1417,823957
-1446,353158
-1471,822314
-1491,748635
-1496,899482
-1474,542353
-1456,694874
-1464,874785
-1482,849932
-1489,888255
-1457,507777
-1402,726594
-1391,562861
-1410,284787
-1399,91062
-1377,208638
-1368,447142
-1361,394439
-1352,568839
-1326,488641
-1273,922124
-1242,38754
-1249,153101
-1244,986972
-1225,15726
-1212,432007
-1182,579182
-1136,866669
-1118,562261
-1126,933649
-1122,24842
-1081,274041
-1022,027856
-991,7770797
-997,2887847
-992,0798987
-959,1671957
-914,3172893
-873,2966261
-874,6214789
-911,5579403
-896,871917
-826,079123
-797,4450747
-810,7350845
-792,2142557
-753,1474775
-694,5494193
-536,1845266
-282,0670157
-86,21086962
-138,6298337
-459,0874113
-753,0968604
-762,1711894
-629,5731536
-548,5652525
-490,9097257
-444,6185508
-434,2034402
-417,9258386
-386,2969206
-374,8275885
-367,2784704
-327,659918
-284,4820055
-261,7545276
-233,2369985
-201,1886504
-180,8684332
-169,7850131
-167,9467722
-150,1118082
-104,2879339
-65,23267716
-41,95328102
-13,70670384
23,25038032
53,16158116
59,77079152
53,07218647
59,31022241
90,97963594
138,8254426
179,3429353
193,2776832
182,6255296
171,3825904
177,045252
181,3601693
172,8242636
187,1847203
226,1889864
238,0847678
234,120027
257,0429802
276,8520945
275,7960845
293,1239101
327,5847726
352,9281117
360,4036021
347,2611505
346,2508913
370,1231839
389,6286081
420,5179613
455,042254
436,2027064
395,5007439
396,9379937
423,2662805
450,2376222
475,104226
478,1184841
457,7829694
441,8504313
444,8237913
452,4561384
458,7507252
479,2109631
501,5904177
504,3928048
513,8719855
536,0319616
525,1268716
497,9109853
505,1387001
510,5645359
482,6931304
479,5292353
517,3277106
530,843521
503,0817308
493,2974994
574,996077
769,1827998
966,3630855
976,542429
730,2263977
428,9206272
338,8808167
402,1127247
409,1221647
406,1650008
482,4971434
515,1245446
447,0531948
416,7891174
462,5883657
470,707018
432,9011741
423,9269509
430,0404786
431,9978968
460,3053506
487,4689867
468,74495
431,6393793
411,6584043
409,8081415
420,8446912
426,7741335
410,6025252
381,5858965
353,2302477
349,7915459
381,2757218
390,1886672
365,786231
370,3242174
371,8083821
335,9944301
337,3880127
363,2447251
322,3201036
249,3696231
235,398695
288,6626645
349,9168084
356,6663331
324,6663722
316,1719847
322,1881528
297,4697803
252,2716903
222,3486241
221,4552389
266,3461066
344,2757122
370,2484523
325,2686336
292,5904719
283,4680906
253,6555199
207,1566954
147,2254569
95,61554828
112,5806158
160,3742077
142,9997734
94,96066316
87,76012688
84,90131413
58,88727351
43,22095229
39,40519615
32,1927489
30,83625231
39,58824607
49,20116765
44,67735241
13,76903363
-29,02165734
-52,44269085
-50,74213872
-50,1681739
-75,7190701
-120,6432013
-144,4390415
-130,8551637
-125,3902399
-108,5430399
49,93756905
324,302623
456,3030622
280,9397321
-60,7866162
-256,8753245
-210,325827
-148,637649
-193,8104058
-224,843802
-201,7376297
-203,2417681
-229,1061817
-225,0809193
-211,9161126
-227,1119752
-258,4188009
-299,5869624
-306,6169103
-225,009171
-149,5143458
-177,1331093
-222,8662077
-218,7144575
-211,9287438
-217,7600191
-219,2093013
-217,277672
-198,9662757
-172,2763172
-176,9590606
-203,7658274
-210,9479948
-198,0069944
-189,9443099
-198,7614761
-197,7100765
-149,2917424
-101,7581504
-132,1110212
-203,6021179
-241,233244
-249,2562418
-252,9229909
-250,2354064
-250,1954369
-259,8050632
-252,8162965
-226,4811766
-221,0517704
-238,53017
-244,4184912
-237,968872
-239,1834706
-248,814464
-255,8640465
-250,3344278
-234,7278315
-233,0464938
-247,7926616
-249,9685912
-240,0765465
-239,1187979
-242,5976203
-243,7652923
-252,374094
-261,4263062
-241,9242086
-196,3700785
-170,5161897
-179,1148108
-187,6682041
-182,4286241
-176,6483166
-169,579517
-154,4744494
-140,0853254
-140,9143426
-151,7136839
-158,7355162
-162,2319891
-158,4552341
-141,4073635
-127,3404695
-126,7566227
-123,6578721
-110,5462431
-69,42373735
52,45766835
248,846023
376,489402
256,1359081
-67,96632782
-280,8191462
-236,674358
-146,0337439
-137,6490541
-129,522007
-104,4042892
-99,79755492
-98,4534251
-88,87348719
-85,05929463
-86,0123664
-82,48418657
-73,97620399
-65,23983187
-59,77644749
-59,83739188
-65,92396958
-65,28744834
-45,17905896
-25,34999507
-28,55141296
-37,78443147
-38,80013185
-42,09955766
-33,68371477
0,696428728
24,03994253
7,845934091
-19,38645142
-24,65803117
-7,469584725
11,92814581
14,28445566
2,098677282
-6,879819887
-1,401629565
9,782691136
8,422621476
-4,982323168
-19,18259158
-31,92859698
-29,72071738
-0,809295877
21,55535899
13,87297285
4,893305148
4,866148737
4,791329445
13,91870566
21,74816789
16,02963827
15,01307014
21,94844752
27,33578461
33,17512531
25,96654266
2,960138309
0,656042009
23,05441101
25,90542952
10,20930812
18,2162832
43,42661634
47,34059372
26,70852553
11,53074533
23,30760947
47,03949643
52,47680618
37,8699596
24,7193978
32,77558149
70,28899032
102,2601223
83,93949297
36,57763505
4,425097503
4,982445026
27,75025737
24,47912868
-1,080333149
14,82249288
40,93824022
20,76755411
21,06109097
124,3195177
332,2935112
541,9837574
518,3909511
182,765795
-113,8910009
-82,57871985
45,70336127
34,95597095
-1,570157311
12,12571435
30,29432759
57,18642729
77,05276098
78,39407827
90,96113033
95,75466932
81,52544788
76,7742186
63,00173351
44,45874357
91,14599818
172,5642447
179,214228
142,09669
156,712369
204,8119997
249,3963125
270,2160328
236,5218811
216,3145725
255,344816
248,1133145
178,8707641
142,867854
135,1052663
153,0836753
213,0537474
215,2661407
147,7215049
128,420481
125,3637007
61,30178671
21,98535201
65,91499991
112,8413238
107,2649068
56,43632182
1,356131233
38,77488671
146,1931291
165,3613883
105,0301832
74,70002139
48,37139917
22,7948015
58,97070185
86,64956217
59,83183279
69,26795243
90,95834813
53,65343521
23,35361731
10,30928633
-32,72917751
-31,01140572
38,46295855
64,69426051
27,43283379
-2,820999542
-17,56692886
-62,05465495
-107,5338899
-37,25435713
97,03420893
100,0820628
11,88944786
-13,293403
-11,21626781
-40,12893507
-84,28120374
-127,172883
-88,55379229
20,57623912
20,71737207
-79,13024227
-110,4664622
-96,54115532
-102,3541984
-32,40547712
152,805114
334,7776719
399,0122852
255,5090341
-75,73200895
-312,4607795
-274,6772205
-158,3812825
-131,3229232
-150,0021072
-167,1688059
-154,5729975
-111,4646662
-80,59380258
-83,21040325
-113,5644704
-127,9060119
-116,7350408
-136,5515754
-166,1056388
-151,3972591
-117,9264686
-73,94330399
-15,44780625
-9,690020141
-76,91999418
-136,1377805
-126,0934344
-49,53701453
31,28141749
46,11179729
7,954057873
-32,94187026
-60,57605886
-65,44858184
-44,30951505
-25,65893615
-33,74692448
-62,07356085
-95,63892747
-105,1931077
-75,98618616
-65,0182482
-111,5393801
-159,5496689
-161,7992022
-139,5380681
-122,0163549
-117,7341514
-116,9415465
-97,88862909
-89,32548821
-146,5022127
-196,1688913
-120,5756124
-16,72246422
-46,10953457
-130,9869108
-142,8546799
-144,7129281
-194,5617413
-218,6512047
-182,7314029
-117,3024197
-63,86433841
-78,66724147
-127,2112107
-140,246327
-145,5226709
-167,0403217
-188,2993583
-194,2998587
-156,0419002
-106,5255595
-105,5009123
-99,46803387
-54,92699874
-45,37788076
-84,07075316
-130,2556886
-150,6827592
-96,60203656
-26,01359173
-41,91749538
-63,31381775
-20,70262871
-36,58399782
-106,4579944
-46,5746874
127,0658542
274,2135618
415,8683666
472,2802001
218,9489937
-148,6253212
-216,6928135
-104,2535521
-93,80760606
-102,3550447
-81,14593778
-78,93035518
-33,2083673
3,269955111
-40,74545919
-55,50468193
-9,007785346
0,745157737
-30,24592609
-17,73111085
37,78952877
48,06591741
24,09797905
42,38563691
80,92881353
112,2274307
151,5314095
171,0906701
168,9051323
176,7247147
185,0493354
220,6289119
296,2133609
321,0525981
300,6465391
317,7450985
325,5981903
302,705728
308,3176248
312,683793
288,0541448
274,9285919
263,0570458
235,4394175
237,3256181
268,2155584
265,3591493
239,5063017
240,4069265
240,8109351
216,7182389
189,62875
145,2923807
107,9590443
172,3786546
281,0511261
281,4763746
217,4043167
189,3348703
169,0179547
137,7034904
120,8913997
113,8316066
97,52403684
66,21861827
24,91528078
-7,386043425
0,064580251
26,26708898
2,471422636
-56,32247605
-78,36466134
-76,40518434
-101,6940929
-159,2314313
-208,0172403
-176,5515569
-96,08441419
-84,61584122
-104,1458628
-72,42449939
-57,20176699
-89,47767692
-109,7522357
-122,5254451
-153,7973015
-157,0677963
-104,8369156
-79,85463986
-120,1209441
-118,1357975
-40,14916357
57,83900037
219,3287429
416,8201189
411,5631894
84,058022
-267,4453094
-285,4467241
-103,696135
-54,94344812
-111,9385625
-110,9313706
-84,67175768
-93,40960206
-113,644775
-125,6271406
-103,6065559
-43,33287065
-20,05592743
-57,77556157
-66,99160117
-26,95386705
-13,66217279
-32,11632472
-37,81612195
-35,01135639
-37,70181275
-44,13726862
-54,56749453
-68,74225393
-84,41130334
-92,07439235
-90,48126375
-97,1316536
-111,0252913
-117,9118997
-129,5411953
-150,1628883
-157,0266825
-151,8822759
-159,9793606
-185,3176228
-215,8967432
-242,2163971
-253,0262546
-246,0759805
-235,615235
-227,8936735
-219,9109471
-217,6667023
-213,660582
-185,3922251
-140,6112668
-112,0673393
-108,0100715
-106,4390896
-93,85401725
-76,75447576
-63,89008454
-60,26046125
-60,36522216
-47,70398239
-22,77635625
-10,08195756
-15,6203999
-22,14129699
-29,14426299
-37,37891283
-28,09486251
-2,041729495
16,780867
13,62330565
-7,76403735
-22,13078859
-13,97657784
-5,80103836
-14,60380731
-27,63452605
-38,14284057
-49,62840177
-52,0908659
-34,77989488
-14,19515666
-10,58632562
-7,203082913
9,704883163
10,88787681
-21,15380563
-61,41987607
-85,41005501
-90,87407188
-86,81166546
-86,22258415
-89,6065864
-82,71344103
-55,29292753
39,1551635
263,3810301
523,1348586
557,6668232
246,2270858
-141,9342045
-244,0669114
-116,4209123
-49,24609785
-75,79237283
-76,5596562
-43,5478814
-21,25699667
-18,18696527
-16,83776579
-2,709392347
8,198145108
-0,865179401
-11,39940812
-3,154599785
18,11917017
31,42180943
25,00320856
19,36324088
36,00176227
55,66861101
58,61360761
63,83655473
83,83723698
98,61542085
99,9208546
103,7532681
111,612373
114,9978622
117,1594101
120,0966728
126,8092874
128,7968726
104,8090283
85,59533592
109,9053581
123,4886389
87,59470383
71,47305997
98,87319587
93,79458176
49,4866696
36,44889322
53,4306684
65,68139303
85,45044726
110,2371936
120,5409773
125,1111263
134,1969514
143,5477467
145,9127898
140,2913419
134,682648
130,3359375
122,5004241
111,6753064
101,8597679
100,5529776
105,2540901
96,71224618
78,676573
79,89618446
92,62018164
85,34765317
61,0776756
53,30931389
92,04162176
141,2736421
132,5044077
99,23294111
107,7082558
131,429356
132,6452379
113,6048894
83,80729107
80,25141655
134,1862331
195,860702
193,7737793
144,4244163
100,5615599
58,43415333
11,54113687
22,38144812
145,2040228
314,7577951
453,7916986
585,0546666
623,5456328
365,5135319
-53,54269982
-228,1241237
-150,7317985
-101,6167793
-99,03011724
-82,47285878
-95,69604507
-87,95071131
-40,23788618
-40,80859122
-76,91384016
-99,30463836
-122,9819821
-133,1968582
-110,950243
-90,74310216
-97,07638981
-109,451048
-106,8680062
-85,0781806
-35,3324734
25,36822748
45,2730492
26,38113449
20,94164225
29,4537481
25,91664491
26,57954339
50,4416726
74,75228046
72,01063433
58,96602146
53,11774952
24,46514707
-36,24243592
-74,25562764
-48,32503395
5,298762029
23,8652004
-9,626255136
-68,67611683
-116,0348725
-140,2029852
-145,4308927
-109,9690074
-52,56771556
-44,72737743
-90,19832666
-143,4808701
-160,5752873
-130,4818308
-116,7007252
-131,7321672
-143,3263257
-173,9833409
-198,4533248
-187,4863607
-194,8325029
-224,491777
-251,2141792
-288,9996768
-292,5982076
-237,0096802
-195,2339738
-191,520938
-200,8703932
-244,7821301
-327,7559101
-345,5414651
-223,1384978
-117,7966816
-157,5156604
-206,2950495
-214,1344349
-266,5333739
-280,741395
-235,5079985
-261,0826562
-260,7148119
-156,1538814
-141,3992531
-213,9502879
-201,0563198
-155,7166558
-171,1805766
-207,9473368
-227,0161652
-191,636265
-92,55681449
-17,77696735
30,4541471
194,3874233
476,2737792
620,1141555
386,1595156
-43,08915522
-217,1308501
-100,7145413
-17,58918041
-41,25369913
-47,95700975
-35,94800569
-56,47556207
-80,28853625
-70,38576851
-59,51608254
-45,67828612
22,37882827
78,90648284
35,90591386
-13,62162901
20,07511662
55,99742524
27,64658275
-18,22611422
-17,61935898
46,71816453
136,287781
186,3408231
168,3786308
129,1525505
116,4139346
105,1641405
60,40452986
18,63646826
44,36132403
110,5804678
156,2952715
171,5071079
130,4673498
58,92736924
28,38853665
-7,647779643
-71,9302143
-59,95740569
-22,22799658
-72,74063492
-72,74397455
15,01332411
9,03259325
-30,68484296
-0,137669143
-21,82457941
-77,49427805
-28,39548028
40,22308712
11,86268507
-37,22543848
-45,29004923
-30,82992718
2,656132685
18,41931973
-9,289192954
-39,21824919
-40,61671035
-10,483456
18,68261555
-2,867413406
-46,38248055
-45,86154411
-17,55358343
-7,457599505
5,427384422
24,85232237
-10,4318549
-86,42424041
-85,62395146
11,71986991
68,85805643
37,79141518
10,02072712
8,296746681
-4,379798659
-25,00820875
-35,33781114
-32,3679615
-32,34804387
-18,77747109
37,59431496
70,267843
23,49361212
-26,22790851
-28,39627989
-30,2610934
-46,57197105
-55,82856563
-48,53056091
-2,677671821
49,23035545
53,69374329
109,9626826
328,0373327
592,6678212
655,854244
375,5966653
-31,85488249
-169,0003987
-57,83991429
-10,37349208
-44,10122639
-30,52324308
-3,139699478
-3,200784189
4,293282987
25,59225124
44,4458389
65,35373368
86,81559283
98,83104341
99,39968251
100,7710776
135,4447665
195,4202584
209,6970332
178,5245427
184,1522104
233,5794323
281,805577
310,079986
307,6519745
307,0208316
325,1858209
302,3961807
246,9011246
259,6998424
350,5414999
381,67524
307,8501829
298,565427
377,8200491
353,8631053
231,9436313
172,3106432
193,9631382
222,9000949
243,3704743
276,1232204
279,4072604
238,4715062
222,3148542
231,4361867
212,0843721
169,2582661
138,7067117
141,4285407
156,9225738
148,9376218
145,722486
183,5259591
206,596826
168,1838642
119,785845
115,401534
123,779692
69,41907542
-49,93156245
-152,0234711
-186,3579019
-181,9361072
-161,00934
-112,3288527
-96,89589669
-167,9617214
-240,7775738
-279,5946973
-357,1643316
-407,9877113
-312,0660656
-204,1506175
-244,2425831
-302,3431708
-285,4535807
-297,075004
-353,958622
-414,3556061
-452,0171162
-406,694301
-321,3882967
-302,1002266
-343,8312006
-393,0823146
-389,8546496
-297,3992715
-230,9672302
-288,5595595
-344,1772761
-307,8213793
-267,4928505
-273,4426527
-296,9217299
-310,9310069
-309,7213885
-291,5437593
-201,1489833
0,71209662
222,288659
341,3299043
267,085055
-62,69664378
-412,5159241
-387,6234949
-122,7700416
-77,20622618
-216,9326864
-236,700036
-168,2588642
-150,6097357
-142,2531903
-117,1897431
-99,41988381
-56,94407701
-12,51276196
-35,87635243
-67,78523668
-24,23977736
25,7596885
13,96284955
-4,630579871
-1,770859766
-30,45822447
-77,69288271
-42,22501766
71,19521303
142,5676771
152,6422675
153,6689025
125,1475253
62,07810415
65,21063179
183,0451257
243,5816275
120,8202032
5,760942543
43,90395896
89,99938931
58,79739359
78,79815462
173,2518778
161,6587908
8,019143176
-103,166794
-56,89872819
70,07365372
128,0006855
87,13272112
19,22013407
-27,23668272
-13,98731744
32,21866015
49,38169834
81,50226299
123,5808371
46,1179202
-151,8859718
-282,1803075
-188,2645401
-15,8881084
-35,80043671
-146,5009358
-115,7390034
-41,51402436
-54,57537169
-75,17240675
-52,5544799
-48,47093107
-95,42109028
-121,4042782
-70,66980682
-41,46697977
-117,2950931
-186,1534359
-107,7912906
24,54206618
-3,652636714
-134,8746658
-150,3732832
-81,39774776
-84,6973149
-148,7712378
-138,1187676
-38,48915432
-23,88164698
-128,0454945
-180,7299463
-156,1842525
-154,1576648
-206,149437
-254,9088253
-179,9350893
1,022507995
147,4646994
269,8922128
369,3057712
251,7060916
-114,906115
-398,5301444
-359,1652997
-188,8108914
-136,9662383
-157,6306676
-139,0535158
-134,7341284
-188,9218612
-219,8660799
-185,566161
-126,521492
-91,23147187
-130,4455112
-191,1630326
-149,1334714
-41,3562754
9,419094601
-13,3068356
-64,53355373
-98,51056133
-82,98737397
-32,21352148
10,06145184
26,08798708
24,86651051
18,14743345
17,93115215
21,71804769
23,00848585
26,30281706
32,10137637
37,40448337
29,46244221
2,525541581
-13,15594526
-8,581760419
-20,75166134
-53,16542071
-54,07282633
5,526318972
81,38219749
133,2449768
189,11481
266,9918359
345,626179
410,0179501
494,9172465
680,574152
900,7387375
978,4110611
956,3411686
965,2790939
947,9748591
883,9284753
893,8899425
952,3592507
920,8363796
841,5712996
836,8139723
880,3143505
847,5723793
702,0879962
556,111132
455,8917109
362,9296516
323,7248677
342,2772679
371,0867574
384,9032377
300,4766079
144,3067649
54,39360442
25,98702128
15,5869104
47,69316731
120,3056889
180,4243741
154,2991247
71,67984572
35,56644654
33,20884137
-3,39304998
-46,48930138
-13,82997966
74,33485613
113,2551554
92,93087681
68,11198887
109,5484708
297,740313
512,6875181
461,6401014
70,59809152
-312,9384686
-305,7195214
-81,99499378
-59,26479659
-170,5288239
-175,5369524
-157,7890407
-210,284929
-246,0244381
-221,757369
-180,9835025
-170,4525985
-191,9143954
-208,6186096
-222,3149354
-254,0030439
-278,9325829
-280,3531767
-278,2644251
-265,4159035
-236,3071625
-235,4377272
-261,0570973
-248,1647468
-205,7601232
-202,342648
-218,1617161
-203,4666955
-195,5069274
-199,2817262
-165,2903789
-140,0321456
-161,006259
-164,2119248
-161,1483213
-205,8146
-273,959885
-335,0832739
-316,6838372
-196,5106191
-160,8126374
-273,8388836
-337,0883237
-292,8098981
-262,752522
-276,6650857
-298,0464556
-308,3954738
-279,7109591
-238,4917075
-265,2364925
-350,444066
-402,6131586
-352,2424805
-237,8307219
-212,6265542
-297,1286301
-335,0855848
-304,9960369
-310,3585888
-360,6718278
-412,9343272
-432,144647
-392,8013347
-354,4029267
-390,9479489
-438,434918
-412,1123426
-380,2287241
-416,2825577
-455,5223341
-461,9465402
-475,0536602
-476,0921772
-469,5605742
-513,9573354
-554,0309476
-524,029901
-530,7026914
-628,0478204
-685,0637979
-670,4991425
-675,6023835
-691,372062
-676,8067323
-604,4049633
-419,66534
-202,8364651
-194,4169599
-500,4054662
-862,8006475
-961,6011906
-872,055807
-814,6632341
-764,422237
-672,3316099
-623,1401771
-631,5967948
-619,9503528
-587,1997751
-583,0940221
-574,1320915
-507,5630199
-426,635884
-402,3498022
-427,4539358
-434,94749
-400,8297159
-369,349911
-347,0074211
-307,551641
-284,2320161
-295,2980434
-295,9992725
-273,5853069
-245,0558053
-208,660482
-181,1491086
-177,5215146
-161,7775883
-119,6672781
-80,94059284
-32,0976031
46,36155838
138,6866957
269,6275494
449,4337954
639,1050446
841,1408427
1027,040669
1153,303936
1293,42999
1464,41811
1563,767506
1603,477322
1651,296633
1677,974445
1684,759698
1731,151261
1817,397937
1891,998459
1896,201492
1821,505635
1742,659417
1705,161301
1669,509681
1606,702888
1563,989184
1579,116766
1586,333766
1549,888251
1508,778226
1444,751632
1347,806346
1273,190188
1265,400914
1292,686222
1258,043752
1178,721085
1159,715747
1163,775211
1114,146891
1057,328155
1039,816314
1022,358634
997,7023285
1019,094567
1042,532473
984,513125
896,7835605
831,3407757
734,4317281
627,3033379
652,7024896
830,1260341
968,0707903
899,0335471
596,5110647
179,7500775
-88,75270492
-133,7505955
-182,7469277
-314,2450535
-410,7483415
-483,7601751
-557,2839499
-597,0730723
-700,380957
-915,9610251
-1088,066702
-1151,701416
-1194,118594
-1211,071663
-1178,064044
-1161,599154
-1176,6804
-1191,061179
-1199,244877
-1188,734865
-1170,784497
-1146,397109
-1048,826017
-903,5745135
-842,1458671
-844,0433199
-800,5200857
-739,8293476
-718,2242568
-693,9579301
-607,5334483
-501,4538545
-470,472152
-492,3413027
-495,5642251
-508,1437931
-584,8328337
-693,1341258
-739,8003984
-714,8343291
-702,9885422
-724,5156079
-747,6680402
-795,6982957
-830,1087723
-732,9018077
-597,3296782
-600,3945976
-625,0987155
-565,1941166
-546,6828196
-579,0667756
-566,5978677
-513,2779097
-474,858645
-492,0917463
-528,7288141
-531,2713762
-543,2208872
-597,3287274
-639,8462023
-643,5245422
-604,6149013
-515,6183576
-445,0359123
-439,1184891
-441,1169345
-427,0320168
-407,6144266
-370,3647759
-352,0335983
-371,8713491
-333,3784048
-218,5550634
-168,9015445
-210,4179891
-222,6044601
-189,4609422
-150,7373423
-39,43348981
192,7008632
434,6660413
456,7124458
138,3405537
-213,4490824
-211,1558352
-35,77900269
-19,56780958
-66,27140736
-34,13887527
-12,91922098
-40,36138142
-23,96422359
42,0234546
90,85292341
121,7755203
124,2926492
92,40577891
85,61644289
107,1762376
126,8368215
167,3499143
206,4672952
205,4408021
219,2723306
268,2138322
287,5173134
265,4348344
240,7185078
253,6204972
312,3930159
364,0383255
377,5587345
368,706597
357,2343112
355,394318
339,6890996
308,1211778
310,6931129
341,1575018
345,0169769
311,7742043
257,4318822
208,99274
221,9595358
290,3350558
309,6221121
255,8235413
221,1922033
238,2309791
253,69277
226,5804954
177,3970914
150,1455095
135,0787149
100,1996846
99,51140658
170,5168775
191,4691016
108,6210891
42,97585452
22,0364153
-19,69420977
-46,96300202
-5,016944453
42,14697681
25,28177105
-4,109558514
-15,52401618
-56,2086152
-86,41037919
-64,37634354
-67,10355683
-67,08908216
6,420001443
37,67659771
-6,066408193
-17,05615099
-24,03978655
-73,2644932
-112,4774729
-101,6759526
35,64281473
345,9815488
630,0929409
585,4796526
202,644315
-134,4104729
-160,9321446
-93,16816791
-104,6160453
-68,27331509
19,36244725
72,54362861
117,0225771
127,8016012
84,88296892
84,2689069
146,4615997
184,7131889
186,0257726
181,1514043
161,5920926
177,3498001
274,9264434
344,5738918
321,0439672
308,0884433
321,4590452
291,9074489
265,6852807
284,2941171
282,4854838
231,2608561
199,871658
241,0692618
289,1049885
260,9801066
197,9458329
164,0033312
141,4037132
120,8980375
127,23731
138,4224837
109,9544584
68,83408106
53,06214556
21,13939276
-16,18348942
14,0941341
54,97284561
19,45317481
-39,71440106
-69,27945705
-76,99162023
-33,85056952
41,39396464
49,74220054
-5,305694485
-31,99960371
-26,33946064
-36,82524868
-67,20700065
-84,73479843
-40,15877246
37,52089871
44,30398892
1,940224924
5,429286915
30,02080908
17,96438018
-10,24045587
7,90580063
65,40260579
59,24937275
0,69547239
0,240233969
18,63294584
-16,12714384
-56,29082639
-74,10893185
-69,08232826
-5,961920856
100,2513487
245,3065031
446,7025302
476,6883839
130,2629847
-236,824779
-249,3260505
-127,2420036
-120,823842
-138,5727984
-110,2401334
-72,32713477
-51,33511673
-70,26541871
-112,6194047
-126,1484622
-94,35400139
-68,23745429
-92,30027365
-128,7939322
-125,7199216
-78,5797516
-40,62494918
-68,60705747
-108,5276349
-104,6382544
-114,4405021
-126,6859771
-75,12628961
-41,01306098
-80,84792214
-100,132513
-90,61848135
-115,3074822
-137,4511768
-136,3012314
-138,8593171
-118,8771081
-76,85628174
-60,2985168
-75,2054932
-101,8288909
-134,9203892
-173,9816658
-180,264396
-131,0202519
-102,5009017
-116,9580087
-88,64323062
-46,30821897
-79,70461803
-133,8340643
-146,6981856
-156,2986005
-149,1369176
-95,96473472
-76,78363816
-119,0952022
-132,6509885
-112,4525451
-116,251406
-119,0490908
-106,8471036
-113,3969326
-115,2000498
-96,75790993
-101,5719503
-125,1435902
-117,7242301
-72,31525154
-43,66801635
-71,28386634
-104,1641227
-96,56008584
-90,22303447
-106,9042257
-105,1048943
-76,07625242
-46,56948943
-9,585771197
80,87375999
253,5579858
420,4658123
385,5961698
91,69801383
-198,9796753
-227,1878918
-116,1776044
-86,19975607
-101,5052638
-73,09501863
-44,46988505
-59,1307013
-84,07827905
-89,81340325
-84,33683214
-73,14929705
-54,00150243
-41,89412572
-47,32781735
-48,55320073
-29,07087217
-1,381400968
14,26467065
5,366827429
-18,5754189
-26,81252971
2,905060453
43,82694378
52,70273912
46,53209185
56,06467377
65,55018294
63,48834355
60,87890577
60,47164554
57,51636442
48,0128894
30,46107264
21,86079132
42,21194736
56,01446721
22,51830159
-17,77657478
-28,87016342
-38,51244241
-57,70336662
-63,94286809
-39,98085625
-3,567218279
-4,451819439
-39,88450338
-54,11509247
-48,89338818
-67,71917141
-94,84220285
-82,26222334
-45,22895428
-30,74209795
-33,55133795
-39,65633956
-59,05675014
-69,75219954
-55,4923005
-50,77664904
-62,10482492
-47,72639201
-2,390898738
27,9021215
20,40314989
-1,637318188
-19,21877364
-36,34069407
-46,00254421
-24,95377636
10,55616916
15,27786357
1,96188922
24,6088391
120,2193165
297,5439343
485,0833149
502,5880896
231,3088981
-108,0036118
-173,8487849
-50,2259587
-23,38446393
-64,32362516
-38,29276103
18,95881522
36,18179539
14,12687583
-3,955242916
