-0,264599954
-2,600153275
-8,186002409
-18,02231785
-26,60920747
-29,9467792
-31,53514095
-32,3744006
-32,46466591
-37,30604449
-44,14864373
-41,4925708
-31,58793254
-24,43483543
-20,28338557
-17,63368858
-18,48584961
-20,33997321
-18,69616336
-14,8045234
-10,66515593
-7,778162847
-9,393645218
-13,26170329
-12,1324364
-6,755942979
-4,63232045
-8,76166522
-18,14407262
-26,77963687
-27,66845103
-23,06060694
-18,20619522
-15,35530519
-17,00802482
-19,16444076
-14,57463819
-7,488700898
-5,906711142
-8,078749678
-8,504895692
-8,185226776
-8,369818888
-5,808746318
-5,502081658
-16,44989576
-30,65225773
-32,85923485
-22,8208926
-7,287294597
12,74149743
32,51542364
35,78442616
17,04844906
-2,442561619
-4,438657806
3,060110589
7,803695708
10,29205176
11,27513506
22,25290401
98,22531913
294,6923431
518,1539408
469,1100791
15,56072734
-415,2441432
-401,054559
-184,1205442
-99,69212083
-70,26930865
-21,35212522
-15,44058584
-26,28470357
-13,63448924
-6,239951442
-10,3510965
-6,717928521
-1,840449357
-3,968658633
-6,102553737
-5,492129833
-4,137379866
-2,038294569
-2,694862472
-9,357069916
-15,77490106
-15,19833789
-9,877360241
-4,311945811
-1,002070168
-6,197706774
-23,648827
-41,60540014
-46,31739345
-42,28477214
-41,75749942
-45,73553651
-48,46884267
-48,4573752
-44,95108952
-36,44993915
-27,45387574
-24,71284912
-26,72680732
-26,74569659
-23,01946144
-20,04804467
-19,58138739
-17,6194291
-15,16210764
-14,70935931
-12,26111885
-8,06731948
-5,127892977
0,307230338
7,488121537
9,664853052
10,58749864
17,00613334
23,92083343
26,83167642
28,23874094
28,1421068
26,04185485
24,68806701
27,0808262
31,9702163
31,85632211
24,98922932
21,11902445
24,49579481
27,36962849
24,99061425
22,60884158
24,22440053
25,8373818
24,9478766
26,05597663
29,9117741
31,01536158
30,11683206
29,96627884
26,81379553
17,65947598
4,253414252
-6,154295414
-3,313558656
12,77571898
32,86363198
53,95027486
70,5357421
66,87012808
43,95352712
23,53603333
12,61774068
3,948742879
0,279133392
1,609005368
-0,31154838
18,51756458
123,5964363
336,9251583
497,5038216
308,5825169
-191,5886659
-482,7596373
-347,9303087
-157,6005917
-110,0203992
-73,93964426
-33,10824105
-33,77610442
-34,44315004
-22,85929446
-23,77445511
-28,68855033
-28,35149942
-29,76322266
-30,42364132
-26,83267773
-24,49025528
-24,64629843
-23,05073279
-19,20348511
-15,10448329
-12,00365647
-9,150934985
-6,296250432
-5,189535683
-4,080724907
-0,719753597
1,893441411
0,00892191
-4,873251694
-8,253020408
-9,130326668
-9,755114363
-10,37732886
-8,746916994
-4,61382714
0,271990822
5,160585462
8,80200379
9,19629124
7,093491655
3,493647271
-1,353201296
-4,697015064
-6,787756695
-8,125390513
-5,209882509
-1,041200355
0,130686585
3,055807249
10,23418887
16,91585695
20,60083528
22,28914593
22,73080921
23,92584371
28,12426626
32,82609195
33,28133412
28,99000434
22,45211244
17,16766649
15,3866728
15,35913594
15,33505869
12,81444213
4,797285545
-4,966413499
-9,226659183
-6,733457423
-3,486815863
-4,486743869
-9,983252522
-17,97635461
-23,46606461
-22,9523987
-21,18537473
-24,16501221
-31,89133231
-43,11435784
-53,08411322
-53,05062452
-42,26391938
-25,97402703
-3,930978268
21,61519456
35,41445756
25,46677535
3,522111048
-8,419573724
-6,608318779
-1,79416537
1,272843837
2,592664789
7,415252063
55,4905589
208,8185372
439,1491376
512,9823095
188,0680009
-298,8438413
-430,7532712
-230,1603445
-92,06511768
-62,96764842
-19,11799552
6,233781216
-0,66237905
3,693461869
10,3012412
5,410895259
3,522359457
4,385568356
0,500455691
-1,383045595
2,234996682
4,854513983
4,975437077
7,097696075
10,97122047
13,84593917
16,72178052
21,09867237
24,97654206
25,85531652
21,98492225
13,11528538
6,496331711
7,12798674
7,760175703
3,642823609
-0,97414472
-3,090804615
-3,457231525
-1,573500974
1,56031147
-0,555869765
-8,172120219
-11,28851536
-8,905130567
-11,52204105
-21,38932187
-33,25704785
-43,87529356
-48,49413332
-44,86364109
-38,23389048
-32,85495471
-28,22690658
-23,84981841
-19,22376204
-12,59880876
-6,225029301
-3,102493794
-0,981271735
1,638568045
4,756957418
7,623828986
8,239116115
7,852752968
8,464674532
8,074816654
6,683116069
7,289510428
8,89393833
9,49633935
10,34665407
10,69482409
7,290792095
2,634501836
3,225898184
7,814927149
8,401535903
3,735672808
-0,432712562
-3,353669398
-9,77724563
-19,70348791
-25,38244158
-19,81415067
-4,248657859
16,06399554
37,62376959
52,43062576
48,73452693
30,28543743
14,83332303
10,12815096
11,41988995
15,20851021
16,49398347
9,276282981
24,80538351
140,8312614
380,1038945
551,1232623
330,6393457
-205,8478725
-488,3384084
-325,832276
-128,829488
-84,08005538
-49,08398766
-14,0912926
-21,10197641
-25,11604368
-19,13349738
-24,65433888
-29,17856793
-28,2061827
-29,98717971
-32,27155393
-36,8092987
-45,60040578
-49,89486536
-45,94266603
-38,99379485
-33,79823729
-32,10597729
-30,41699724
-26,23127803
-23,79879902
-23,86953808
-22,69347158
-21,52057443
-24,60082011
-30,18418062
-32,77062656
-33,36012715
-34,45265018
-34,54816211
-32,39662805
-26,99801176
-20,35227573
-15,70938115
-12,31928796
-11,43195484
-15,29733929
-19,4153976
-19,78608488
-19,90935514
-20,28516125
-17,41345497
-12,54418703
-7,927307119
-3,562763891
2,299494963
10,15952272
17,76737357
23,62310262
26,72676585
27,82842008
29,92812295
33,77593287
37,62190903
40,46611136
39,80860046
33,14943763
25,7386848
24,82640452
28,16265994
29,74751473
29,08103313
27,41327987
25,74432013
26,07421956
28,65304421
30,23086054
28,80773533
25,13373572
20,20892916
17,53338335
16,85716627
11,9303461
2,75299122
-5,674829807
-10,60304828
-5,031595393
15,53959778
39,86060021
50,93148093
40,00230897
14,82315337
-2,105916849
-0,284832739
5,786474584
5,608073905
3,430033889
10,25242306
75,82530977
267,6487622
519,4728483
533,7976359
109,1231923
-375,800415
-414,9731193
-183,3948539
-79,56555237
-63,73514886
-22,65357771
-12,57077371
-27,23667201
-19,1512082
-7,314318286
-7,225938723
-6,136006434
-4,04445882
-5,95123378
-7,856269723
-9,259505587
-13,16088085
-15,06033555
-12,70781029
-11,85324628
-14,49658531
-15,63776979
-12,52674276
-9,663447903
-10,54782957
-12,42983276
-14,80940317
-20,4364872
-28,56103193
-38,6829852
-49,30229555
-54,16891228
-53,03278545
-49,6438659
-41,00210523
-28,10745586
-17,459871
-10,30930468
-7,405711766
-9,749047955
-13,3392698
-15,42633473
-17,51020103
-18,84082787
-18,91817533
-18,99220437
-17,31287691
-12,63015575
-7,194004647
-1,754388308
4,68872761
8,885376485
9,585590716
11,78940172
15,74683992
18,20793474
20,17271459
20,64120685
17,61343788
14,83943301
15,31921652
16,80281163
18,04024051
17,78152426
10,77668289
-1,22426464
-7,221300495
-4,214407914
0,046428757
1,811224063
1,579991436
-2,647256812
-6,620509494
-3,589756556
2,195010926
3,983800732
-1,723380502
-18,42652729
-38,37563528
-45,07070132
-37,26172336
-23,94870056
-6,381633211
14,6894772
30,76462805
31,34381551
16,6770346
3,264279155
2,85554185
6,950814173
8,550086438
11,65334779
15,01058618
36,87178841
143,4869401
366,1060257
542,7290284
363,6059305
-149,2632873
-466,1286451
-337,4901642
-136,3478673
-89,45177803
-63,30192123
-26,39832289
-26,24101016
-24,8300113
-10,41535571
-9,247073922
-12,07519757
-7,149759422
-2,22079334
1,711665708
5,647581662
5,836917374
4,029634621
3,475694107
3,175055474
2,377677312
3,333517166
6,042531543
6,254675927
4,469904785
5,688171577
7,15942877
4,383627844
2,110719304
0,590652697
-5,176623385
-9,691161288
-8,703014282
-7,962236555
-7,218883192
-1,97301017
3,775325662
5,026066594
4,529154068
4,284528694
1,042130266
-5,198102226
-13,18623058
-21,92231737
-25,40642591
-22,88862028
-20,86896525
-19,34752633
-18,3243697
-21,54956222
-23,2731714
-17,74526538
-10,71591293
-6,185183423
-2,403146796
0,130126441
1,664565239
3,450098026
4,986652729
7,524156792
10,0625372
7,851720494
1,141632803
-6,317800146
-11,026653
-9,485000759
-4,942918752
-2,900482618
-3,857768278
-7,314851915
-9,521809951
-6,728719019
-2,685655943
-2,392697712
-4,599921452
-4,807404407
-3,01522391
-0,973457357
2,567817817
5,858524166
3,898584257
-3,0620793
-9,27354383
-9,985886561
-2,4491846
14,5864851
37,37104575
57,15442078
65,18653386
56,46730889
36,9966701
24,274542
26,05084948
30,07551778
27,84847257
24,86963992
26,1389464
56,40631906
178,9216854
406,4349737
542,4461125
290,7050311
-222,2883404
-451,5340716
-283,532231
-116,5328866
-81,53610577
-43,54195477
-10,30049927
-14,31180405
-10,57593301
0,407050844
-6,862914574
-16,63589039
-12,91193676
-5,941112829
-3,723476697
-4,259085416
-6,797994947
-10,34026014
-11,1359347
-7,185071184
-1,737720946
1,206065862
1,896240325
3,332754789
7,265562877
9,444619515
3,619880955
-6,458695207
-12,04115001
-14,62752311
-17,96785275
-19,06217576
-20,41052752
-26,51294197
-29,86945155
-24,73008723
-18,09487847
-16,2138532
-18,83703783
-21,71445722
-21,09613467
-21,4820919
-26,87234908
-31,76692475
-32,91583587
-31,06909781
-23,72672429
-13,88872743
-9,555117722
-7,72590402
-3,651093542
-1,830691868
0,735297067
11,04687097
20,10402919
16,90677273
8,955104224
9,74902796
20,78854986
29,32367748
22,35442
7,38078826
2,402794679
5,420453312
3,683779816
-1,807208555
-5,052492959
-5,802052976
-5,805866619
-4,563910346
-2,076159072
-2,592586184
-4,863163553
-2,88786155
-2,166649063
-9,449493513
-17,48636087
-20,02721567
-20,57202104
-24,12073871
-30,17332904
-27,22975103
-7,539962356
15,64608061
26,3284228
20,50711038
-0,317809222
-22,64628738
-28,22827427
-19,81371892
-12,15256922
-11,74477194
-18,84027279
0,310983582
134,7090535
403,1039945
546,4958646
215,6347234
-378,2293692
-591,0963521
-367,9661634
-180,0887404
-128,2140198
-61,09193722
-14,22242787
-21,10542616
-18,49086588
-0,87868019
4,981198293
8,08883751
14,6943059
16,79767239
17,64900632
23,49837744
30,09585588
33,19151208
33,03541679
30,87764103
29,46825604
30,55733324
32,89494422
34,9811607
37,06605447
38,1496974
36,23216135
32,06351819
25,89383973
17,2231977
8,051663708
0,629309235
-5,543794437
-9,467576234
-7,391965327
-1,566891166
3,757716494
7,831927554
8,905811549
5,979437611
2,302874445
1,376190293
0,949452914
-2,227270453
-5,153913111
-4,830408933
-2,25669239
3,067301424
10,89163677
16,71637722
18,29158567
17,61732428
15,19365447
12,5206369
13,84833142
17,6767971
20,00609216
22,58627397
24,41739904
19,99952299
10,83270054
3,41698548
0,002430665
-2,160912001
-4,822991583
-4,983758129
-1,893162683
-0,051157295
-0,957695038
-1,112730013
-0,516217368
-3,168113297
-9,318375059
-17,21696098
-25,86383047
-31,258944
-29,40226317
-21,29375064
-7,683370179
11,42891332
29,04313388
32,9093244
19,77751668
4,897741369
3,020028044
8,894405142
12,77089999
14,8995388
17,28034667
42,16334758
159,0485644
407,936019
623,5757319
461,2177228
-82,13798994
-439,7413888
-321,0924575
-120,6911808
-86,28754461
-66,8815357
-27,22314205
-27,31235266
-29,14915754
-15,98354774
-13,56551534
-13,64505341
-6,972156046
-4,046818313
-4,369036268
-2,688806934
-1,506128297
0,17900071
4,366580214
6,806609415
5,499086597
2,444009138
-1,858626475
-6,15882464
-8,456590622
-9,751930547
-14,29485139
-25,83536095
-41,87346786
-54,90918156
-65,1925123
-78,72347109
-89,50206975
-90,27832083
-87,80223767
-83,07383431
-69,34312554
-53,86012687
-45,37485451
-41,13732535
-39,39755699
-39,40556767
-37,16137631
-33,16500247
-33,16646635
-35,41578876
-33,41299114
-28,65809554
-24,15112457
-18,14210145
-10,13104996
-3,617994436
-0,102959762
3,664028641
7,932944825
10,20376233
13,72645418
19,75099293
22,77735063
21,80549888
21,33540879
24,11705104
26,40039588
23,43541311
18,22207214
15,51034195
14,30019113
12,84158791
12,88450012
14,42889525
15,22474043
15,27200245
15,3206478
15,87064263
16,42195279
12,97454386
4,028381126
-5,666570379
-9,860345883
-3,30298085
13,50548903
34,56502785
53,62559951
61,93716772
53,249696
36,31314773
27,37748613
29,19267429
33,00867519
36,07545168
36,64296654
40,21118246
98,78006207
285,349568
548,1696627
589,7403087
167,0614686
-364,3668951
-446,0448198
-213,472343
-98,89950202
-82,82633415
-36,25287658
-16,42916643
-24,60524069
-14,28113623
-9,456889767
-18,63253788
-15,55811695
-7,483663209
-11,15921265
-17,33480108
-16,01046406
-11,68623691
-8,112154704
-6,288252235
-10,96456401
-20,39112426
-25,56796686
-25,24512541
-23,92263314
-21,60052294
-21,52882735
-30,45757851
-41,13680819
-43,31654777
-43,99682819
-49,42768
-53,3591333
-54,54121776
-55,72396258
-51,90739651
-39,84154783
-25,52644433
-16,7121133
-16,14858154
-19,58587534
-20,02402047
-16,96304218
-15,90296517
-19,59381361
-23,03561112
-20,47838077
-14,42214506
-8,866925923
-3,312744718
2,740377776
7,042421366
9,593366449
13,89319402
19,94188567
24,7394236
27,03579062
27,58097014
27,62494622
27,66770349
28,20922725
29,2495034
29,78851847
28,07625963
22,86271468
14,64787205
3,931720806
-3,785749337
-2,504548034
2,275315702
4,053833502
4,080997637
4,106801021
5,381237212
8,404300408
9,425985454
6,446287835
3,715203678
5,482729753
7,748863469
1,263602877
-11,72305334
-15,96110585
-6,700554689
5,808600727
20,31636163
38,82272988
44,82770796
28,33129898
6,833506673
-4,665664602
-8,666209876
-8,66812356
-5,421399457
-3,176030759
1,067989945
51,56067067
221,05202
469,2920472
509,280762
106,7681748
-392,2457034
-459,5108612
-231,7772863
-115,2949662
-88,56388758
-36,33403668
-18,10539917
-29,62796017
-17,65170425
-3,676615476
-5,95267737
-6,729872941
-1,508184685
3,212405407
7,931915842
15,15036562
16,36777421
4,334161575
-4,700451861
3,763954782
13,97740284
9,689914075
3,151510709
8,61221537
14,57205111
9,031041378
1,739210031
-1,303418691
-7,596820172
-16,64096943
-24,18584111
-31,48140954
-35,27764869
-33,3245322
-29,6220334
-25,17012534
-18,71878073
-12,51797204
-9,567671441
-9,617850866
-11,41848199
-13,96953625
-17,52098486
-19,82279884
-15,87494897
-8,927405891
-4,730140033
-0,533121676
6,163679052
9,860292161
9,056747789
10,50307618
12,1993077
6,39547277
0,341601915
4,287725709
10,98387478
11,6800798
9,626371449
7,572780437
6,269337466
9,216073227
12,91301839
11,36020357
4,807659358
-6,744583733
-17,79649526
-17,34804487
-10,64920231
-9,949937427
-10,0002202
-7,300020733
-11,09930929
-18,14805628
-15,69623228
-6,74380805
-3,040754547
-5,587042922
-8,882644538
-10,17753098
-10,22167408
-12,01504588
-14,30761872
-8,849365165
9,609741925
34,06972942
52,03062388
57,99245159
50,20523851
29,16901029
10,38379224
9,099609341
15,81648624
18,28444723
18,75351624
23,47371684
65,44507222
210,1676052
440,8913382
510,8662933
163,592492
-336,6800443
-457,7012949
-248,9712393
-111,2398576
-76,25713019
-28,02303801
-6,037562345
-13,80068497
-6,562388089
2,427345629
3,168533064
7,411190632
8,405334286
6,400979508
13,39814131
21,14683421
20,14707227
19,14886906
23,40223764
26,90719062
25,66374007
19,92189758
10,43167427
5,443080697
10,70612696
16,72082262
16,73717674
11,25519785
-1,975106019
-16,95372737
-22,18065923
-21,40589514
-23,12942919
-24,851256
-23,82137072
-22,28976902
-21,00644714
-19,47140186
-18,18463049
-19,39613089
-28,85590148
-43,81394124
-51,52024969
-50,22482693
-47,17767359
-44,6287909
-41,57818064
-38,02584515
-33,97178736
-26,91601077
-16,60851947
-7,299318093
-2,988411895
-4,925806701
-7,361508924
-0,795525571
8,272135761
3,091466875
-7,58754102
-4,514897318
1,559387986
-4,36469571
-11,53715961
-9,708015539
-5,377275915
-5,794953783
-8,711062795
-8,125617222
-3,788631952
-1,70012249
-3,360104963
-4,018596116
-3,425613318
-3,331174557
-1,485298447
2,111995778
5,21068826
6,56075852
5,412185455
3,264947341
0,619021836
-3,525614025
-7,668983822
-7,561111751
2,047977374
21,90825813
43,51970449
56,63228981
58,49598685
47,36076777
25,47660413
11,3434669
16,21132646
23,33015262
20,9499146
17,57058105
20,69212005
59,06449914
193,4376853
407,8116449
472,9363439
147,8117476
-328,8121791
-458,185472
-271,5581671
-138,1803013
-95,30191162
-41,67303577
-19,54371187
-28,66397849
-19,03387465
-6,653439809
-7,522713849
-6,141737063
-1,260550144
1,87080583
3,752289407
1,883858772
-2,734528232
-4,852914099
-3,721341639
-0,839853965
2,291505519
4,922693138
8,803664959
11,93437681
10,81478428
7,444842773
5,824507484
7,203733438
9,082475503
9,210688408
7,588326763
6,465345072
7,841697758
8,467339176
6,092223638
5,216305428
7,839538824
10,21187812
9,58327763
5,953691743
1,323074907
-2,558618331
-5,441433307
-7,825415221
-8,460609113
-5,347059844
-0,984812075
0,87608976
0,485601469
2,593679129
9,450279107
15,55535808
17,90887306
20,26078141
24,61104088
29,70960962
34,0564462
35,90150964
34,74475941
31,5861555
28,42565839
27,26322912
26,84882925
26,43242096
27,763967
28,59343077
25,6707763
23,24596828
25,0689721
25,63975387
20,9582804
12,27451929
0,588438887
-5,849991671
-0,540802423
4,015977419
-1,429680504
-8,377803682
-14,07841872
-22,2815513
-28,73722621
-31,19546725
-34,40629732
-40,36973828
-45,58581106
-47,30453553
-46,02593056
-38,250014
-20,47680261
-2,706312127
0,31144282
-10,17355132
-20,911307
-27,15183555
-32,64514718
-34,89125098
-30,39015489
-26,14186568
-24,39638898
7,846270737
138,0861102
385,8231273
561,807321
328,7886918
-243,2327591
-555,5070288
-394,0341137
-182,0640086
-122,5967073
-72,63220231
-25,67048502
-31,46154558
-37,50537294
-27,30195486
-29,10127792
-31,65332749
-23,20808777
-17,76554181
-16,57567145
-12,63845738
-7,703879162
-3,021915174
1,157457322
4,084262195
8,258524431
15,43027012
21,59952645
23,51632167
24,43068514
27,59264722
31,00223935
30,90949397
27,81444454
25,96712551
23,36757231
14,26582132
4,661909865
2,805876186
5,197759433
7,587599638
9,475437695
10,61131534
12,74527514
14,37736044
11,2576154
6,886084905
6,012814586
3,387850789
-6,238759457
-16,86696846
-19,74672787
-15,12798875
-7,760701547
-2,144816151
-5,280281908
-17,41704765
-26,55506171
-23,69427196
-14,33462585
-8,976070381
-8,868552198
-9,012017572
-6,406412443
-2,551682445
-0,94777293
-0,344628997
-0,24219552
-3,890417173
-8,289238457
-6,188603728
0,911542777
5,261256912
5,860594594
4,459611779
2,308364434
3,15690851
6,005299914
6,603594485
5,451847966
3,550115977
-0,851546007
-7,753082686
-14,65443896
-18,80555996
-17,70639105
-8,606877892
8,493033569
29,34339706
44,69426594
42,79569323
25,89773152
12,000433
10,85384941
15,45803202
19,31303161
22,16889846
27,02568229
66,6334323
206,9921971
458,3520247
630,9629624
406,8250571
-134,0616453
-413,6970992
-252,5812599
-80,96408356
-70,84552679
-54,22554712
-24,8541028
-37,2311529
-42,85665726
-29,73057658
-27,10287237
-26,97350701
-21,34244376
-20,45964674
-22,32508101
-23,18871253
-28,05050817
-32,66043578
-29,76846416
-27,62456308
-33,7287033
-40,33085658
-44,68099568
-50,27909441
-51,3751276
-47,71907113
-48,06090193
-51,40059803
-53,73813851
-57,82350356
-62,90667444
-64,98763357
-64,31636445
-59,39285171
-47,96708113
-34,78903962
-23,60871526
-14,92609726
-11,49117602
-11,55394308
-10,3643912
-9,672514275
-11,47830741
-12,2817669
-11,83289022
-11,88167606
-9,428124287
-4,972235991
-2,514013455
-0,303460165
3,909419183
9,374618692
15,34213126
20,06194858
23,53406114
27,75845825
31,98512799
34,71405727
37,44523181
39,92863614
38,91425363
35,40206645
34,14205562
36,38420101
38,12848133
36,37487415
32,87335592
31,12390196
31,12648648
29,88108259
27,38766234
25,39619666
24,15665547
21,91900761
20,18322091
23,19926217
26,71709721
25,98669087
24,75800699
23,78100853
18,80565746
9,331914884
-0,39025899
-5,11090482
-3,830064107
-2,797779172
-0,514093134
12,77095011
27,30730592
22,59492893
3,883773049
-7,576208458
-8,535062994
-7,242838582
-4,44958384
-0,905347958
7,139819336
62,9358678
233,9827467
488,7804049
565,3287907
199,1278521
-331,8224631
-465,5222078
-254,9714349
-128,1701978
-113,6185499
-74,56654499
-50,764237
-57,46167999
-49,65892814
-37,60603572
-37,05305706
-34,5000465
-28,94705837
-27,89414695
-26,84136646
-23,288771
-20,73641454
-17,43435086
-12,63263355
-9,08131597
-6,53045119
-3,980091998
-1,430290846
2,118900176
6,167429374
7,465245474
5,762297661
3,308535603
0,353909485
-2,601629962
-5,058131433
-8,515643019
-12,97421217
-15,9338857
-13,64470969
-5,856729534
3,180010122
9,965465414
12,99959327
13,53235145
13,06369856
12,09359409
10,87199842
9,398872854
9,424179662
11,44788207
12,71994432
11,49033164
9,509010315
8,275947699
8,541112214
13,55447338
20,06600185
20,3256694
19,58344898
23,33931469
23,34324184
19,59520694
20,34518772
18,09316315
5,339113449
-6,166979902
-8,675134142
-8,685365224
-10,1976878
-14,21211521
-24,97865949
-37,99733132
-40,26814006
-33,79109372
-30,31619898
-30,34346112
-29,8728841
-28,90447049
-26,6882215
-23,22413696
-21,01221533
-19,30245369
-16,84484774
-17,38939182
-23,93607888
-33,9849005
-41,53584688
-42,83890687
-37,14406795
-23,45131623
-2,510636497
21,42798784
37,3645747
33,04914332
14,73171427
3,412309425
4,340951974
8,267666385
12,94247841
16,36541505
16,78650459
50,20577653
193,1232616
445,5389917
571,2030001
268,8653209
-266,7240103
-460,564957
-267,6574814
-114,7515447
-88,59710699
-47,19412733
-18,29256372
-28,39237315
-25,99351161
-13,59593415
-12,44959483
-11,30444683
-8,410442418
-14,01753299
-21,37566912
-20,73480054
-16,59487621
-13,20584433
-8,567652378
-3,430247111
-0,793574628
0,842419621
3,977790792
7,612594625
10,99688741
12,13072595
7,76416754
-3,352730077
-17,71990874
-26,58730988
-27,95487461
-28,0725437
-29,19025762
-32,30795663
-38,67558073
-40,04306975
-30,91036339
-21,27740121
-18,39412271
-18,51046732
-18,62637451
-17,74178372
-15,85663449
-15,97086644
-17,58441933
-16,44723309
-12,30924784
-7,670403954
-4,530642062
-1,639903111
4,001871612
8,644740444
10,78876131
16,1839917
22,58048861
24,72830854
25,87750744
28,77814068
29,93026303
27,5839286
25,73919085
25,64610252
24,30471562
22,9650814
23,37725032
22,041272
17,20719522
13,62506787
14,29493695
15,9668485
16,89084763
17,31697843
16,74528401
16,17580642
15,60858666
13,79366464
12,98107919
14,67086798
12,86306754
4,307713256
-5,495160699
-13,29552135
-20,34333694
-25,13857696
-22,18121216
-10,22121454
7,491442568
29,45678458
47,42483556
45,14561826
23,11915411
4,595463169
2,32456414
7,056474367
10,54120981
12,52878506
14,2692133
43,26250634
169,5086746
411,257727
569,0096712
327,5145133
-206,7277419
-471,4670909
-317,953532
-146,4370645
-108,6676893
-70,64540871
-36,12022641
-44,34214747
-53,31117836
-50,27732696
-47,74060251
-41,70101562
-35,90857828
-36,11330385
-36,56520701
-33,26430381
-27,21061159
-20,65414905
-15,84493616
-12,28299421
-8,718345745
-6,901014592
-6,081025817
-1,758405726
4,81681816
7,894617117
7,974961236
8,057819443
7,393159517
6,730948108
6,321150755
4,913731913
2,758654965
2,105882252
5,705375087
12,30709379
17,66099768
19,51704515
19,62519365
18,73539973
14,84761903
6,96180637
-1,922084272
-6,804099727
-7,684287595
-7,062696231
-5,439374708
-2,564372793
1,812259081
6,940469844
12,07020782
16,45142075
18,33405584
18,46805976
20,35337871
23,48995841
24,87774418
25,51668092
26,15671319
25,04778518
23,18984082
22,08282374
21,72667734
23,12134483
24,01676921
22,41289337
21,80966008
21,95701202
19,35489183
16,00324214
15,4020056
16,5511249
17,2005428
16,85020221
16,50004614
17,9000178
18,80006061
14,20011821
5,850134523
1,000053759
2,149820462
1,799379534
-7,551323736
-18,90234364
-24,00373404
-24,85554829
-18,70783929
-0,060659362
22,08593969
31,73190666
21,62719095
-2,228257416
-20,58448773
-22,69154864
-18,79948805
-18,15835315
-21,7681904
-26,37904545
-0,490963189
124,6460123
368,2818379
532,9164711
289,7998704
-264,5680047
-547,187194
-386,3077363
-193,4296694
-140,5530303
-95,92785487
-61,55417811
-70,43203402
-68,56145558
-50,69247478
-47,07512258
-46,20942894
-39,34542276
-39,23313193
-42,62258328
-40,76380259
-34,9068146
-27,05164299
-22,19831039
-22,09683836
-18,7472474
-10,14955697
-1,803785452
4,790049807
8,381932525
8,221847466
10,05978044
15,64571828
16,97964888
13,06156114
9,641444977
4,719291336
-1,454907848
-1,381159645
4,940529859
10,01015555
11,82771327
13,64319983
14,45661295
12,01795129
10,07721441
9,634402794
7,439517771
5,242561559
4,043537222
1,342448661
-1,860699405
-0,565901452
6,976848829
15,51755852
18,30623544
14,09288816
10,62752595
13,1601588
15,19079734
15,21945291
16,99613744
14,77086352
7,543644321
4,314493599
5,58342568
5,100455428
4,365598235
6,128869996
6,140287088
3,149866358
0,907625094
2,163581012
5,667752234
6,92015727
4,670814995
-0,080255365
-3,833034256
-2,337501814
1,156362117
2,398577966
0,639166418
-7,62185161
-22,38445498
-34,14862234
-34,66433219
-23,93156283
-6,700292414
13,52950102
33,25783955
41,48474538
30,46024077
11,93434806
5,407089647
11,87848797
16,09856548
15,06734465
16,28484795
29,25109783
100,9661167
292,429927
536,892551
550,354011
136,0643291
-343,4764725
-391,2683718
-171,8113469
-76,10537611
-66,40043769
-28,69651016
-15,74357214
-23,29160242
-12,59057994
-6,140483811
-12,19129333
-11,74298797
-7,795547387
-9,598951444
-10,6531802
-8,208213924
-8,264033095
-9,070618412
-5,627950796
-0,186011394
1,755218415
-1,804242982
-7,364377435
-8,925167038
-6,236594128
-5,048641287
-6,11129135
-10,9245274
-24,73833278
-39,55269108
-42,61758615
-39,18300209
-38,49892329
-36,06533436
-30,13222018
-25,44956592
-21,51735697
-18,33557901
-19,15421797
-21,97326003
-23,04269165
-25,61249952
-29,93267063
-31,75319218
-32,32405165
-31,64523677
-26,96673553
-22,28853614
-21,11062709
-17,6829971
-9,505635124
-3,078530375
-0,651672288
1,274949463
4,701344973
9,877524113
14,55349653
17,47927164
19,40485867
20,08026661
20,00550424
18,68058017
16,60550277
18,28028024
21,9549206
21,12943166
17,80382107
17,22809631
18,65226467
18,5763333
19,00030919
22,67419917
23,84800995
20,02174808
14,94541998
8,369031965
0,042590211
-7,283899202
-10,3604303
-6,93699722
1,986405836
16,40978457
37,33314461
52,75649151
45,92983079
25,60316788
16,2765082
19,19985712
19,37321996
18,04660206
19,47000872
17,14344524
40,31691691
167,990429
411,163987
555,3375961
297,2612617
-228,5650107
-468,8912157
-304,9673477
-133,5434011
-93,36937036
-60,44524962
-41,77103309
-57,84671485
-57,9222889
-46,74774911
-49,82308926
-52,14830301
-46,22338388
-43,29832528
-43,87312049
-40,44776263
-34,02224469
-30,5965595
-28,42069976
-24,99465798
-22,56842653
-18,8919976
-14,71536322
-14,53851523
-14,61144533
-11,934145
-8,256605547
-4,578818113
-2,900773639
-3,472462877
-3,543876396
-3,115004569
-4,435837581
-5,256365421
-0,576577889
7,103535409
10,53398506
10,46478184
10,89593673
9,077460875
3,759365633
1,191662541
1,12436332
-2,942520122
-7,758975697
-8,57499114
-8,140554005
-5,205651677
3,72972863
13,41559987
18,35197516
18,28886776
15,22629112
16,91425881
25,60278455
31,54188221
31,23156578
30,67184941
30,36274734
27,80427396
27,24644374
30,68927129
31,13277131
25,32695859
18,771848
17,21745451
21,16379317
24,86087906
23,30872737
19,25735331
17,45677213
15,40699915
9,608049688
2,309939101
-5,487317248
-15,78370399
-28,82920575
-41,87380719
-46,66749296
-33,46024777
-7,252056359
14,2070965
20,16722595
8,628347082
-15,40952509
-33,94637564
-35,23218974
-29,51695268
-27,30064984
-27,83326676
-27,1147891
4,104797336
128,5755066
351,5473525
479,0203487
231,2445088
-261,780154
-477,0536266
-311,0758961
-142,59695
-93,61677584
-45,88536154
-16,15269525
-25,41876539
-21,43356072
-9,947070242
-15,20928331
-18,2201896
-12,72977911
-12,2380422
-13,74496957
-13,75055231
-15,50478189
-13,75765016
-7,759149374
-4,259272218
-2,508011785
1,244638389
5,498684323
8,504131579
12,26098525
17,76924996
21,27892984
19,29002851
15,80254912
17,81649427
22,58186605
22,59866603
19,61689521
19,63655405
23,90764247
29,18015981
31,45410484
27,97947574
19,00627013
10,534485
4,064116774
-5,904838741
-15,87238635
-21,83853146
-32,05328011
-46,26663896
-50,47861528
-41,68921699
-30,89845262
-23,60633136
-18,81286301
-18,26805802
-18,22192747
-10,17448308
3,124262791
11,92429715
12,47560638
8,528176211
6,831991759
10,38703751
16,44329732
20,50075444
19,80939149
13,36919049
4,430132866
1,492199433
4,805370422
5,119625484
3,434943696
5,25130357
7,068683065
8,387059594
11,45641004
10,77671075
2,34793758
-9,579934125
-18,5069295
-18,93307416
-6,858394164
15,71708398
40,29333333
56,87032655
56,9480359
40,52643325
22,10549014
16,93517774
21,76546691
24,8463282
24,17773189
23,00964799
31,09204625
91,67489622
261,0081672
474,5918285
458,9258489
51,76019742
-382,4051572
-411,0702463
-207,4851014
-102,6497537
-58,31423478
-3,228576085
8,357190995
0,193035105
13,52892498
21,36482945
12,4507175
4,536558246
2,622321013
5,20797532
9,043490925
10,87883785
14,96398639
20,54890716
21,38357112
19,46794958
18,80201423
18,38573719
19,21909099
23,55204864
25,38458363
18,21666996
8,798282154
7,129395292
10,20998503
9,040027638
2,369499985
-7,801620401
-17,97335533
-20,89572594
-16,06875264
-11,24245514
-12,91685239
-20,59196258
-27,51780314
-30,94439068
-34,62174101
-40,54986911
-47,47878911
-52,15851429
-52,83905706
-50,52042895
-46,70264058
-43,88570169
-42,56962106
-38,50440659
-28,94006521
-16,87660294
-4,31402481
6,497665068
9,058463565
3,118368511
-4,072621296
-6,514506086
0,042714885
9,849043331
10,15448194
4,709034378
2,76270527
-3,684499787
-15,13257423
-13,58151055
-1,531300279
-1,981933999
-16,18340136
-27,1356911
-30,588791
-30,79268798
-28,49736802
-26,20281625
-23,15901691
-15,11595339
-3,073608244
9,968036819
14,75900088
0,049303822
-23,16103371
-30,62199029
-21,08354381
-13,04567139
-11,75834949
-10,9715539
-6,685259755
32,60055843
185,1359267
456,9208718
569,9554209
188,4896016
-410,2265577
-585,1930284
-357,9097814
-192,6267871
-139,0940157
-63,81143674
-24,52901978
-36,49673389
-32,96454795
-25,18243057
-34,15035019
-31,61827508
-18,83617336
-18,30401308
-19,02176218
-9,989388608
-2,706860272
-1,424145131
0,358788799
5,141973407
11,67544045
18,95922153
28,24334803
37,77785114
43,56276177
48,34811053
53,88392771
56,42024324
55,20708666
52,7444871
49,0324732
42,57107316
35,11031462
29,90022472
27,69082997
26,48215633
23,77422909
19,56707287
16,86071164
15,65516861
12,45046627
8,246626322
6,043669691
5,591616469
5,140485906
5,190296384
7,491065394
8,792809516
6,595544395
3,649284726
1,204044227
1,259835628
5,566670648
9,124559984
9,683513286
11,74353915
15,05464511
16,3668376
16,93012196
16,74450244
13,55998216
9,376563113
6,694246154
5,263031
5,332916217
6,403899217
6,47597625
5,549142406
6,873391607
10,44871661
9,275109001
-0,897440798
-14,56894353
-20,98941111
-13,15885661
6,172705761
28,50526061
46,33879143
50,92328055
36,00870918
14,09505743
5,932304267
9,020427577
7,109404153
1,699209714
0,039818917
3,631205369
51,72334165
220,0661993
489,6597489
595,0039601
231,3488013
-352,3057596
-527,209756
-281,113222
-105,0161927
-88,16870392
-56,5707925
-25,72249596
-28,12385269
-17,2749018
2,074316818
4,173762578
2,023394184
5,123169675
6,223046448
9,322981285
14,92293038
10,77284936
2,62269332
5,722416864
11,5719741
6,921318708
1,270403928
3,119182622
1,217607291
-10,6843699
-19,58679708
-18,98972265
-19,39319527
-25,04726379
-29,20197726
-28,60738487
-26,51353594
-25,17047988
-21,57826617
-13,7369443
-5,396563807
-0,55717416
-0,468824797
-4,631565063
-11,04544419
-17,96051128
-24,37681525
-29,04440481
-31,21332848
-31,63363448
-31,05537077
-29,478585
-26,65332449
-20,57963617
-10,75756661
-3,437161943
-4,618467863
-11,0515296
-12,2363919
-0,923098966
12,38830551
8,947778424
-5,244722754
-8,689239932
-4,635814389
-7,334486746
-9,785296947
-7,238284234
-14,19348713
-30,15094342
-36,11069012
-30,82276348
-27,28719893
-27,75403111
-28,22329381
-29,44501995
-33,66924161
-40,89598996
-48,12529529
-47,35718695
-34,59169335
-14,82884199
9,181340626
33,18882897
43,19359848
31,69562563
12,69488788
3,691363728
3,93503271
5,675875411
8,913873472
11,39900961
16,13126761
74,11063235
264,3370898
544,3106271
607,7812323
186,2488948
-363,7863949
-455,0746454
-215,6158638
-93,66005647
-73,95722828
-23,25738312
-1,810523705
-11,86665158
-0,675767124
12,51213043
11,94704302
14,87897375
20,8079269
21,73390789
20,90692334
22,07698101
24,99408983
26,15825989
24,56950245
23,47782992
22,63325585
20,53579496
17,93546311
15,8322773
14,97625565
14,36741742
11,505783
6,141373883
1,274212672
-2,345676928
-5,468270124
-6,843541039
-8,221462728
-12,60200718
-15,73514533
-11,12084709
-3,009081329
-1,399815897
-8,543017653
-23,43865246
-42,58668521
-51,23707983
-41,38979929
-30,04480566
-33,70206006
-44,11152274
-49,27315304
-51,93690946
-55,60274964
-59,2706304
-60,69050773
-46,11233686
-14,03607222
3,288332489
-6,389075686
-15,568249
-13,999139
-12,4316966
-10,61587204
-8,301614945
-10,98887434
-18,17759867
-24,11773582
-23,80923317
-17,75203756
-12,19609537
-11,8913525
-14,58775444
-14,03524625
-10,23377262
-7,933277867
-3,633705986
4,914999345
8,462894729
5,510037027
6,556483332
12,85229095
15,39751735
10,94222017
3,736457182
-3,469713752
-8,426234687
-4,633047628
9,909905448
30,70268256
53,9953417
65,78794082
51,33053778
26,62319035
17,41595616
20,95889269
22,00205726
19,29550697
16,58929868
13,38348904
37,17813439
161,2232908
415,0190139
627,8153593
462,8623817
-85,33986401
-455,0413238
-341,2419438
-129,1916708
-78,64045188
-44,58823481
9,465032239
14,2694005
3,324920638
2,881642748
-6,310383699
-15,25110986
-13,69048753
-12,8784692
-10,06500802
-1,750057864
-4,933573324
-20,86550974
-30,04582321
-31,72447063
-35,90140966
-37,3265988
-33,24999738
-30,42156557
-25,3412644
-14,25905579
-10,42490256
-24,33876841
-44,00061801
-52,91041693
-51,31813172
-43,47372987
-30,12717989
-23,02845124
-25,92751441
-22,82434092
-14,46890328
-14,61117509
-20,75113096
-26,88874659
-34,27399873
-45,40686525
-54,53732506
-45,41535821
-21,54094585
-9,164070232
-13,53471474
-18,6528639
-16,51850335
-9,381619893
-7,74220146
-18,10023714
-25,95571719
-18,30863301
-2,158977165
11,74325661
15,39807343
9,805477221
9,465470757
18,37805564
22,54323231
20,71100005
23,88135695
25,55429998
19,72982494
20,15792646
28,58859806
31,02183209
26,95761978
24,64595122
27,3368154
34,78020019
38,97609236
30,67447759
17,62534046
17,57866451
31,53443222
37,492625
29,45322327
31,91620639
44,88155274
43,34923973
31,31924379
23,79154038
15,51610405
-0,75709157
-18,77807375
-21,04687063
-0,563511215
25,17197467
39,40955638
42,14920248
37,14088078
22,88455833
-0,869798535
-23,12222416
-32,87275356
-29,8714224
-20,11826696
-15,36332412
-5,356631285
70,65177357
271,161852
526,173565
542,4368733
100,7017369
-423,2818842
-483,5140306
-236,7447433
-118,9740633
-102,9520322
-36,42869155
16,59591666
9,871750429
-6,851232453
-17,82307429
-30,29381745
-31,76350438
-23,48217751
-19,69987926
-20,16665201
-11,13253804
6,90242046
13,43818147
13,22470314
27,01194381
40,29986208
30,58841681
8,377567174
4,417272659
27,95749313
45,74818882
36,03932042
21,83084903
17,37273627
13,41494423
10,45743555
2,750173452
-16,45687829
-18,91375525
6,379507614
19,67287603
8,966316397
4,259795857
7,803282276
2,346744287
-6,109848693
-12,81652644
-23,02331789
-24,73025116
-15,43735346
-19,39465114
-38,60216965
-39,30993349
-10,51796625
5,273709453
-20,43492805
-45,14389942
-29,60322435
-7,312921512
-13,27300855
-25,7335021
-26,19441774
-28,15577002
-31,86757242
-27,07983737
-25,29257623
-35,25579927
-36,71951573
-21,18373372
-14,1484603
-22,36370144
-24,57946203
-19,79574588
-18,01255571
-12,47989319
-3,447758887
-4,166152314
-13,13507192
-19,1045151
-20,32447819
-23,29495649
-29,76594428
-30,2374348
-26,20942028
-29,43189197
-29,90484009
-18,37825394
-10,60212183
-11,57643111
-11,30116823
-13,77631871
-18,75186718
-15,22779739
-11,70409223
-18,93073375
-26,65770318
-21,63498094
3,137453308
37,90962067
58,181543
58,70324284
47,47474344
27,24606869
10,26724314
5,288291951
3,559240867
1,830116197
1,850944787
2,37175399
28,64257164
141,913426
366,9343459
546,9553603
380,4764988
-109,0022088
-418,2307323
-321,4590414
-156,4371054
-107,9148933
-59,6423741
-12,61951647
-10,34628904
0,17733969
16,2014013
-3,274072584
-27,99905034
-25,47350034
-9,447391012
2,829309128
-0,143368527
-17,11539273
-28,3367324
-27,30735664
-22,77723481
-15,7463365
-8,464631593
-9,932090292
-17,39868314
-17,86438105
-10,82915535
-3,792977779
3,494179456
6,532343665
-2,428458352
-12,63820034
-10,34685659
-1,804402008
2,739187896
2,783936974
0,829868406
-0,372995312
0,175367599
-1,025021813
-3,224143261
-2,421977237
-5,868505032
-17,81370876
-22,00757137
-11,20007668
-5,391209368
-11,58095503
-12,01930017
-5,206232202
-4,641739504
-7,575811405
-6,758438207
-2,939611199
12,88067733
38,70243409
44,52566476
29,35037398
26,42656539
39,25424154
45,33340394
37,66405304
28,24618824
28,82980784
35,41490909
39,75148814
41,08954008
29,67905891
7,020037556
7,362467854
36,70634057
52,0516454
35,39837094
22,49650476
39,34603334
54,44694212
39,79921546
23,15283671
23,00778818
23,61405115
20,97160589
15,33043167
6,440506769
5,801808487
14,66431316
24,27799619
29,89283201
19,25879417
-6,874144703
-19,75601285
-13,63683941
-8,266654323
-5,895488405
-7,023373257
-11,15034128
0,473574374
23,59833978
25,9739203
5,600280602
-9,022615342
-10,14480421
-13,26632331
-22,63721056
-29,50750447
-29,8772441
-16,49646904
46,38478058
216,7664642
457,1485408
490,7809688
92,91370639
-395,2032887
-478,570059
-289,9366475
-189,3030975
-146,1694524
-63,785756
-19,65205218
-29,26838512
-36,38479912
-39,2513386
-46,36804809
-49,73497222
-45,85215565
-25,21964306
-0,587479149
-1,205708568
-15,57437592
-19,19352572
-16,56320238
-14,43345018
-8,804313238
-0,925835477
1,451939379
2,078967847
16,4552067
39,330613
44,95514412
30,82875776
17,95141198
15,07306522
16,1936763
17,31320451
17,93160954
14,04885158
5,414891293
3,029689852
8,893208967
7,755410896
-2,133741534
-7,774284905
-13,66625519
-25,05968774
-24,45461726
-10,85107779
-9,499102685
-22,14872462
-28,04997556
-26,45288672
-31,85748859
-37,76381091
-23,17188262
0,418268082
5,756613834
2,593128066
5,677785033
9,510559827
20,34142838
38,4203675
43,99735482
38,0723689
37,14538915
39,21639589
36,28537033
29,60229461
22,16715177
15,47992578
10,29060154
6,349164897
4,655602619
5,959902433
5,262053017
-3,187956002
-14,39013403
-16,84448953
-10,30102999
-5,259761933
-4,970690919
-6,183821545
-8,899157438
-11,36670126
-11,83645471
-13,55841851
-18,03259245
-25,00897532
-26,98756497
-16,46835831
-12,95135128
-33,18653887
-51,67391514
-43,1634732
-19,65520524
-2,399102517
2,854844634
2,356646792
-0,64368456
-5,646137037
-8,150697364
-12,90735138
-25,41608406
-33,1768795
-26,68972095
-12,45459081
30,77852935
175,2596588
437,9888176
606,7160266
358,6913076
-181,8353172
-437,3638243
-283,14419
-135,1763894
-111,9603972
-67,24618726
-34,28373263
-48,57300585
-42,86397872
-15,90662237
-5,450907329
-6,24680347
-5,544280071
-7,843305814
-16,3938488
-26,69587659
-30,24935617
-24,30425402
-16,6105361
-8,168167898
1,522885595
4,462659837
5,401190724
13,58851457
20,77466811
20,20968844
18,39361303
14,57647971
-1,241673375
-21,56080776
-25,63088469
-18,45186515
-16,27370984
-8,096379251
7,58016635
9,255966895
2,931062497
6,605493424
14,02930009
13,45252303
1,875202877
-9,202619644
-4,030903748
7,140391401
7,561306665
0,981882917
-1,847838979
6,572181814
17,24198609
14,16161458
8,581107923
16,25050668
24,66985128
22,83918203
16,75853907
7,677962392
-2,652508215
-1,482833152
12,93702696
25,85711126
26,77745865
19,69810775
18,11909692
23,54046419
22,21224731
10,6344837
0,807210418
2,980464184
11,40428134
10,82869786
2,253749301
-2,57052918
-0,144102847
8,033062598
12,461001
6,389745764
3,069329795
9,249785533
9,68114492
0,863439391
-5,953300133
-11,26904326
-16,08376013
-10,89742143
-0,709998409
-2,271462872
-13,0817872
-17,39094436
-9,698907908
1,49434801
1,438848632
-17,86538141
-46,66831811
-61,46993809
-49,0202186
-26,56913752
-15,11667341
-4,162805436
14,29248655
13,49922203
-14,04258015
-35,33290184
-36,37172556
-31,6590345
-28,19481253
-23,47904423
-18,76171485
-7,542810316
64,17768273
271,1497769
543,8734843
564,3488161
129,3257829
-360,6956054
-405,4653397
-194,9834115
-109,4998131
-93,26453725
-44,77757776
-31,03892893
-44,0485858
-37,55654412
-32,31280033
-35,81735158
-25,57019571
-5,821331243
0,679242588
-5,568474131
-6,314482001
-2,558782309
-4,301377022
-5,542268784
-2,281460917
-0,26895741
-0,254762919
0,261117234
3,028677073
8,297909965
12,06880863
12,84136514
13,36557094
10,89141682
3,668892964
-0,052011078
2,22869363
1,760995415
-2,205118002
-0,919659496
8,117357469
19,40591884
27,69601
33,23761575
35,78072033
30,32530742
19,62136019
17,41886122
26,96779259
33,01813586
26,56987205
17,62298171
14,17744487
11,23324108
4,540349414
-3,151251533
-7,841583616
-8,530669143
-7,968530864
-10,15519196
-14,84067603
-16,0250071
-11,70820957
-8,640308245
-9,571328323
-9,501295356
-6,180235263
-1,858174311
0,214860894
-1,711156584
-4,136253995
-2,5604589
-0,483799152
-2,406302891
-6,07799853
-10,74891474
-16,16908046
-19,58852484
-22,75727729
-27,92536742
-32,09282504
-32,00968016
-27,175963
-21,3417039
-22,0069334
-27,17168218
-28,08598105
-26,74986094
-25,4133529
-24,07648808
-28,23929773
-30,65181316
-21,06406576
-11,47608696
-12,63790824
-18,04956111
-24,71107709
-30,62248772
-29,28382453
-24,94511901
-21,10640264
-10,26770685
8,320936968
27,65949752
41,99794358
43,336244
28,17436776
11,51228394
11,34996175
21,43737056
23,27447987
16,11125937
13,19767891
39,78370854
151,3693185
383,7044793
600,2891617
479,8733365
-23,54302509
-402,7099515
-332,127471
-138,5456117
-85,21440102
-56,63386648
-13,05403505
-10,4749334
-10,39658785
8,680975638
11,75773148
0,083654487
-5,841280139
-7,267096783
-3,693819406
4,878528461
6,199923732
-2,229656225
-11,91023358
-18,34183002
-19,77446675
-17,20816449
-15,39294345
-12,82882331
-5,015823255
0,29603808
-1,893257404
-1,08372726
6,724611518
10,2817425
3,087649818
-7,107681802
-14,30426706
-20,25212007
-25,70125433
-29,40168276
-26,85341766
-17,05647071
-10,01085299
-9,46657494
-7,923646397
-2,882076556
-0,591873985
-8,553046621
-19,76560176
-22,47954607
-20,69488558
-16,66162567
-8,379771083
-5,84932594
-11,57029371
-11,54267722
-2,766478667
3,75830038
5,031658994
9,303596873
17,82411434
20,84321235
19,61089247
23,12715687
24,89200835
18,9054503
16,41748673
19,42812221
15,93736192
8,94521162
6,701677627
1,206766834
-9,039513312
-13,28715482
-10,53614915
-8,786487241
-12,78815951
-15,04115587
-9,545465713
-8,301077968
-16,05798107
-22,06616299
-24,57561124
-22,8363129
-15,84825462
-16,6114226
-27,87580269
-32,64138029
-26,65814046
-19,92606788
-18,69514689
-28,96536147
-45,73669529
-51,75913172
-48,78265383
-53,55724441
-63,83288597
-65,1095608
-55,63725094
-43,16593822
-30,44560424
-12,47623046
8,242201884
11,20971167
-9,57368206
-23,35796014
-13,39310331
-2,679092191
-2,215907341
-1,253529251
-3,041938362
0,668884918
68,8789602
262,0883071
505,0469452
509,2548941
98,46217337
-353,3311976
-390,1251993
-188,4198124
-92,21501771
-58,01079609
-7,057128507
4,146003907
-4,401380111
10,30073802
22,75237669
22,20355415
24,15428841
21,10459733
11,30449852
13,75400937
26,95314707
32,65192854
30,10037045
29,54848924
32,49630107
34,69382181
37,64106707
43,83805218
45,78479216
40,23130175
38,67759537
45,62368714
49,81959086
46,51532004
44,21088782
42,15630707
33,6015903
26,2967497
24,49179712
21,68674411
25,38160184
40,07638118
42,77109264
22,96574643
6,66035239
6,604920042
4,299458572
-6,006023165
-16,81151664
-30,36701367
-42,92250637
-44,7279872
-38,78344892
-34,33888464
-33,39428775
-32,69965197
-30,00497132
-24,56024012
-17,615453
-12,92060485
-10,47569089
-9,280706599
-13,58564774
-17,39051035
-8,695290732
3,75001455
5,695408674
-1,359105431
-9,91352508
-11,46784783
-7,272071458
-10,07619398
-19,13021363
-23,43412885
-23,48793829
-22,29164079
-19,34523541
-18,89872135
-20,20209805
-19,00536507
-17,80852217
-17,86156925
-20,91450638
-26,96733375
-27,52005172
-23,82266076
-25,12516147
-27,17755458
-23,72984092
-22,53202143
-27,83409715
-28,3860692
-19,43793881
-12,23970727
-15,79137594
-26,09294625
-33,6444197
-33,19579782
-23,49708221
-6,798274489
12,15062368
31,09961062
43,54868462
36,49784396
13,94708691
0,646411743
5,845816747
13,04530021
14,24486043
15,44449576
16,64420454
41,09398519
153,5438361
369,4937559
517,193743
317,143796
-162,1560863
-426,7059052
-309,0056619
-155,0553576
-113,354993
-64,4045693
-18,70408713
-18,50354723
-17,30295015
-8,102296358
-16,65158618
-25,45081981
-17,74999732
-9,049118611
-8,348183463
-11,89719149
-15,19614216
-12,24503476
-3,793868416
6,157357915
14,35864546
15,05999563
13,51141002
20,71289044
28,41443886
26,61605748
25,81774872
31,01951517
32,22135969
30,42328532
32,12529535
31,57739328
28,02958286
31,48186809
36,93425318
29,8867426
17,83934109
15,29205362
13,99488542
2,447841994
-7,349070908
-2,645847257
2,807519241
-2,488964845
-6,785292672
-4,581457119
-2,877450786
-2,92326599
-2,218894764
2,235671144
9,940440275
14,39542146
16,85062381
21,80605674
24,76172994
26,46765342
29,17383745
26,63029261
22,08702976
22,79406007
22,00139499
14,70904624
7,417025853
-0,624653857
-11,4159803
-14,20694059
-10,49752159
-13,53770986
-19,8274917
-23,11685314
-25,40577993
-22,69425759
-16,73227135
-18,26980622
-24,30684693
-24,09337801
-20,62938373
-22,66484812
-30,44975502
-38,73408804
-43,26783059
-43,80096586
-40,33347687
-32,11534646
-25,89655728
-33,17709183
-52,20693246
-64,73606134
-61,01446056
-49,54211203
-34,56899759
-14,34509896
3,879602234
12,60512444
10,83148617
-1,691294004
-15,46319747
-17,7342056
-16,50429972
-19,52346118
-18,29167134
-15,30891157
-6,325163288
55,15959203
217,6453728
413,8821975
393,6200844
17,60905156
-377,1508829
-403,1597011
-216,6673853
-116,1739179
-71,92928156
-14,4334591
6,563566445
-1,938188208
1,561293409
10,5620275
15,06402998
21,81731647
28,32190228
27,07780238
20,33503142
17,84360367
24,60353302
32,61483298
33,87751666
33,64159674
35,90708546
33,17399463
25,69233557
25,21211914
32,2333557
36,75605511
37,2802267
37,80587928
36,5830211
32,61165987
31,6418027
34,17345614
32,45662614
26,99131803
25,02753654
23,06528576
15,35456913
8,395389465
7,187748897
8,481648896
8,777090253
3,324073067
-6,377403255
-12,07734002
-13,02573923
-14,22260363
-18,41793667
-26,11174255
-35,05402621
-36,24479333
-21,18405034
2,12819558
15,19193647
12,75716363
6,823867565
6,392038028
8,211663991
8,782733647
6,605234415
-0,820847072
-8,995524957
-10,91881417
-10,59073042
-15,2612902
-22,18051078
-27,59841022
-34,76500735
-40,68032178
-37,09437389
-32,75718484
-37,16877654
-35,07917169
-23,23839372
-23,39646684
-31,55341599
-27,20926687
-17,61404591
-13,76778025
-9,420497791
-5,322227123
-9,472997551
-17,12283908
-20,0217824
-21,16985888
-21,06710057
-14,21354016
-2,109211015
15,74585289
39,10161694
44,20804592
11,565104
-24,82724522
-20,96903872
1,88968595
4,748890726
2,858536997
15,46858565
36,07899706
104,4397312
285,0507474
493,4120047
436,2734617
-4,86492333
-410,5031928
-391,1413891
-189,0295553
-110,4177347
-69,05597071
3,555692676
37,66721136
44,27854097
50,63963691
35,75045437
9,61094837
-9,278926225
-21,66921469
-7,3099624
31,04878517
48,40698248
43,76458397
47,62154404
51,97781713
42,58335767
34,18812019
39,54205928
45,64512965
40,99728612
33,34848369
23,19867753
7,79782303
3,895875801
20,24279171
37,08852692
39,43303789
34,77628141
25,36821464
1,958795097
-22,45201927
-25,8642701
-17,52799856
-8,443245358
5,639949313
8,721545779
-11,19849508
-26,12021183
-15,79364241
-6,218824176
-18,64579383
-27,57458743
-11,50524033
2,312212794
-15,12226201
-39,55869794
-36,74712745
-23,93758221
-24,63009311
-24,82469021
-15,77140273
-4,720259079
3,828713225
-8,12451247
-43,82996193
-61,03765999
-33,74763061
2,540103213
3,075519421
-20,1414031
-21,86068449
-7,082343914
-13,05639957
-27,03286864
-22,01176734
-13,74311083
-17,97691331
-21,46318792
-10,20194681
4,556798915
-1,936960818
-22,18323506
-34,68203181
-47,18335806
-53,93721975
-42,19362177
-36,95256801
-36,46406129
-8,228103429
22,50530479
14,73616362
-11,5355257
-25,80976089
-31,83653867
-32,36585476
-23,3977039
-19,93207984
-31,96897534
-45,2583822
-27,30029128
91,15530752
349,3584252
563,3090739
371,0072662
-198,2969839
-551,6036619
-422,6627521
-201,4742382
-120,5381031
-69,85432848
-36,17289564
-43,24378485
-34,06697566
-11,39244685
-6,220176439
1,449858276
17,61768072
24,783315
14,94678594
-2,141881026
1,517340223
20,17447641
22,32955489
11,98260357
7,133650953
16,78272609
37,17985857
46,57507848
39,9684164
31,60990342
30,74957105
40,63745126
47,77357643
35,15797935
19,29069319
25,67175149
39,55118813
34,17903732
19,5553336
19,93011178
32,55340696
34,92525451
24,54569003
22,66474936
33,28246852
40,89888378
39,51403154
33,12794839
27,49067107
22,10223645
12,46268152
8,07204338
15,18035923
22,28766634
30,89400205
46,24940377
54,10390893
53,45755501
53,3103795
44,6624199
28,76371372
19,61429844
19,71421154
27,56349043
32,16217253
20,01029518
3,607895654
0,205011181
4,051678901
4,647935878
2,493819082
-1,660634612
-13,31538843
-25,72040572
-23,62564994
-16,53108466
-19,6866736
-24,09238059
-26,49816963
-34,15400483
-37,30985049
-29,46567103
-20,87143104
-13,77709529
-7,182628697
-0,087996363
15,75683644
22,10190425
-3,552758575
-28,70711786
-24,86113963
-17,2647901
-20,91803569
-31,82084303
-39,72317895
33,12498952
264,4736951
526,3229704
483,6728476
23,02335887
-413,375464
-417,2735893
-226,4209858
-160,3176222
-139,2134676
-81,60849156
-50,2526635
-43,39595334
-27,03833121
-13,92976748
-17,32023283
-24,7096982
-25,84813479
-27,23551412
-30,62180798
-28,75698845
-23,64102793
-18,52389911
-11,40557501
-3,036028947
5,334765427
7,456834133
-0,169797146
-2,795103068
4,330941363
3,708360785
-5,912820522
-9,032578649
1,599109943
17,23226841
16,11691951
-0,746914366
-6,35921126
4,280050393
14,42089174
14,31333351
0,957395999
-17,39690094
-18,24953789
2,149504119
13,55024359
-2,547301433
-26,39311338
-37,23717515
-33,82947013
-23,91998221
-24,25869577
-38,59559568
-42,68066734
-21,26389666
4,404729934
4,825225481
-10,25239751
-11,32812707
-3,651951773
-2,223860742
1,956156345
9,888109252
12,07200718
13,75785877
18,69567209
17,38545462
6,827213293
0,770954433
12,2166838
30,66440657
33,61412732
22,81585006
17,51957819
17,72531454
16,43306134
20,39282024
27,6045923
27,56837797
25,03417715
23,25198913
14,22181263
-0,306354228
-9,832513875
-4,856669332
13,62117581
30,1010174
42,58285072
60,0666705
66,55247091
48,54024558
27,27998759
19,0216895
13,01534334
2,760940619
-2,241527676
6,257928947
25,00930049
74,01257644
221,7677458
464,5247973
563,0337188
248,544498
-256,4428777
-426,4284218
-252,9121477
-114,3940696
-73,87420189
-20,85255943
5,920842584
-9,80401143
-12,2771374
-6,248551586
-12,96827059
-15,43631133
-10,40269103
-13,61742719
-23,83053761
-25,79204036
-17,25195376
-11,71029638
-12,91708701
-10,62234468
-5,326088626
-7,778338279
-15,47911326
-17,67843336
-12,87631854
-8,072788917
-9,017864743
-15,46156641
-23,40391442
-24,5949294
-16,03463206
-11,72304323
-20,41018379
-28,09607471
-22,78073702
-14,21419181
-15,3964602
-21,57756336
-25,75752249
-30,93635881
-36,11409356
-39,54074796
-46,71634328
-56,39090075
-59,31444159
-57,48698702
-59,15855822
-60,07917636
-52,74886256
-40,66763793
-29,3355235
-21,00254029
-19,66870926
-20,08405131
-12,74858731
-3,162338041
0,924675747
1,51243338
2,850914242
4,190097784
0,02996352
-5,379508968
-1,788340029
4,303450055
1,64584107
-2,761187128
3,332345387
15,17641861
16,2710126
6,116107484
2,711683469
9,557720817
12,65419986
10,25110099
13,34840468
19,69609144
15,04414186
4,142536594
2,991256345
7,840281881
10,93959402
18,78917365
35,63900171
52,73905917
58,83932708
52,18978654
35,04041869
11,89120472
-0,007874133
6,593163426
6,694298731
-9,204486835
-13,85321185
-4,751894828
4,849445736
60,95079141
231,5521238
453,6534246
450,0046754
46,605858
-395,7930458
-432,4420541
-235,0911852
-139,990457
-94,63988759
-21,03949494
3,810703024
-5,589311556
4,760443507
9,109950457
0,2091916
4,558149301
13,15680599
10,25514416
6,603146385
10,95079529
14,2980736
12,6449641
14,49144966
18,83751324
18,1831379
18,02830676
22,87300307
26,46721017
28,31091151
30,90409063
33,99673122
39,33881707
41,18033208
31,27126031
18,86158593
18,95129328
27,54036681
27,62879115
19,21655108
18,05363152
18,89001759
9,475694569
3,56064792
4,39486329
-5,771673481
-17,93897635
-17,35705909
-19,52593523
-31,19561811
-37,61612084
-35,03745629
-29,45963712
-21,13267572
-8,80658426
1,768625363
3,5929415
2,666352768
10,73884805
21,06041652
18,63104761
12,45073106
16,76945688
20,0872154
11,15399723
-0,78020669
-7,215405128
-10,15160653
-8,338819013
2,472949617
8,283691892
-11,40659933
-42,84793084
-51,7903091
-35,48374025
-18,67823004
-15,8737839
-23,57040691
-29,26810379
-30,46687889
-38,91673624
-49,61767946
-47,81971187
-43,52283637
-44,47705553
-34,68237157
-13,13878631
2,153698755
7,445082521
8,735364228
6,274543483
0,812620252
-2,150405143
2,885467977
10,92024065
7,953914249
-2,76350948
-0,982028461
29,54835973
129,5776579
349,105869
572,6329966
465,1590445
-59,31598335
-493,7920825
-453,0192482
-238,7474755
-148,976759
-87,2070931
-16,68847191
-6,670889238
-13,9043386
4,611186755
16,62569382
12,38918986
8,901682389
5,413179152
5,423688135
14,93321754
21,4417758
19,19937153
12,20601356
1,961710905
0,716472765
10,9703085
12,72322764
2,975239849
1,726354954
14,4765829
22,97593375
15,72441768
8,972044967
18,46882598
27,96477117
13,45989103
-17,54580385
-37,05230287
-35,80959537
-25,06767068
-14,32651811
-15,08612696
-33,84648656
-50,10758624
-49,36941536
-46,63196333
-48,39521961
-46,90917372
-46,42381524
-49,93913386
-44,45511934
-29,47176156
-22,2390505
-21,00697627
-12,27552911
-6,544699417
-12,06447772
-11,33485473
0,394178695
9,372631497
12,10051244
12,57783009
13,80459281
18,78080876
24,25648587
22,98163184
19,45625417
22,93036008
25,65395658
16,62705042
7,099648089
10,07175583
14,79337962
9,51452516
1,735197901
2,205403009
9,425145378
19,64442963
30,3632601
27,33164085
7,049575673
-5,482931931
-0,765878735
5,700738211
11,66692158
20,63267377
31,34799692
46,31289288
58,77736324
52,74140936
32,45503229
22,16823287
25,63101169
26,09336908
21,05530515
21,51681978
34,72791263
83,93858315
225,1488306
464,858654
606,0680522
342,0270239
-210,2644323
-471,3063181
-296,8486354
-116,1413859
-82,18457189
-39,97819538
1,477741322
-7,56676415
-12,36171424
-0,407111444
-3,952958343
-12,49925754
-8,546011673
-6,843223404
-12,89089539
-11,6890303
-7,98763076
-13,78669938
-18,58623872
-17,63625127
-21,18673948
-26,98770568
-28,78915213
-29,34108096
-25,14349421
-13,44639376
-10,74978136
-21,55365858
-22,10802686
-13,16288742
-17,46824132
-24,77408939
-18,83043229
-13,63727041
-16,94460393
-18,25243279
-15,06075667
-10,61957499
-6,428886897
-8,988691274
-21,7989867
-33,35977148
-32,1710436
-27,98280074
-34,54504027
-42,85775926
-39,42095441
-29,48462214
-23,5487585
-21,86335921
-18,42841965
-15,49393486
-22,80989952
-30,62630796
-16,19315417
7,239568228
4,421865957
-12,3962539
-7,964783896
5,466283752
2,896957194
-1,17275507
8,757155808
15,43669903
3,115884132
-12,20527899
-7,526780124
6,901391298
6,329246164
-5,243204313
-7,065948598
1,361025157
3,03772911
-3,535824281
-4,859622262
-0,433651791
2,992100454
6,167648068
8,843004909
8,768185093
1,193202981
-16,38192683
-30,7071895
-33,03257
-31,85805305
-28,43362322
-16,75926484
-0,084962107
17,33930098
34,01354056
36,43777293
12,61201451
-18,46371814
-27,03940838
-13,61503943
0,809405532
7,483943442
10,90859128
38,33336608
153,0082849
378,1833649
557,6086231
391,7840767
-120,5402573
-475,3643616
-386,1882194
-183,7618136
-110,3351272
-56,40814336
-4,730845321
-12,80321638
-22,62523994
-4,696899548
-3,518178862
-16,83906169
-14,65953201
-9,479573928
-16,79917177
-22,11831002
-19,43697339
-14,00514677
-2,822815288
5,360035691
-1,95657943
-9,022646502
0,661848364
14,84691878
20,5325781
22,96883935
29,15571529
29,09321838
15,78136073
7,220154155
9,909610142
10,34973983
11,54055403
17,48206318
15,67427738
7,367206371
7,560859516
13,50524581
14,45037388
13,14625195
11,34288789
3,540289154
-2,511537175
4,187415581
10,13715371
3,837683089
-2,960990785
-3,008862828
-3,555928356
-11,35218308
-16,14762313
-2,942245015
13,26395435
7,720977639
-3,321172854
7,387504763
25,34701199
29,05734994
22,51851935
12,73052055
4,193353524
-0,592982134
-8,378487193
-19,16316278
-20,94701039
-8,480031847
11,73777067
24,20639464
17,67583722
8,396095253
13,36716526
13,83904347
5,311725787
14,28520786
28,50948505
24,23455245
27,46040488
47,18703693
44,41444296
16,64261707
0,621553182
-8,148755016
-30,41831402
-33,4371305
4,294788698
29,27743656
12,01080593
-5,255110467
-13,77032005
-38,28483034
-46,04864896
-10,8117836
23,42575795
29,41396787
19,65283827
1,142361228
-13,11747119
-10,12666693
-2,885233945
-7,143180155
-11,40051346
3,09275827
39,08662724
119,0810857
301,326126
510,8217406
429,0679219
-53,43533732
-463,9380444
-427,6902063
-216,4418301
-118,6929226
-73,94349035
-41,94353987
-43,6930774
-38,44210902
-24,19064059
-22,43867777
-12,93622598
-2,183290422
-8,179876057
-0,925987598
20,07837049
11,58319401
-15,91152098
-17,40577814
3,600419128
12,35706772
2,114164816
-10,87829213
-19,12030535
-16,86187679
-3,103008116
-1,093700665
-19,58395549
-25,07377333
-1,313154632
20,69790047
14,20939213
-11,27867918
-29,26631269
-25,25350733
-7,74026175
9,273425721
11,78755703
-5,697865595
-16,68283963
-12,41736227
-25,40143044
-49,13504082
-49,61818978
-37,10087348
-30,08308781
-27,3148284
-33,29609067
-39,77686981
-26,50716079
-7,236958347
-9,216257048
-19,69505125
-16,17333513
-5,90110269
0,371652225
1,144935929
2,918754874
13,94311565
18,21802495
5,993489593
-0,73048351
5,796112634
10,57328509
11,351041
16,37938752
19,40833188
14,68788132
17,21804307
31,49882441
34,28023254
14,5622747
-3,155041961
-1,871710318
1,16227668
-2,30307399
4,982244556
23,5182391
29,30491632
15,34228274
3,380344771
7,169108661
12,70858049
3,748766175
-14,21032857
-23,66869822
-16,87633747
-5,58324123
-4,539404639
1,505176911
33,80050778
58,84659206
35,64343356
-3,558964171
-11,7605979
1,538535307
10,58843808
9,389112719
-0,809438796
-12,75721483
1,795785914
96,34956438
298,9041211
500,9594564
430,5155701
-15,17753841
-433,86987
-435,5614259
-233,5022079
-135,1922181
-87,88145893
-33,31993329
-24,50764451
-33,94459628
-20,88079275
-9,566238446
-13,00093834
-15,18489781
-11,61812265
-8,05061908
-4,232393735
1,336546329
7,406193635
13,47654029
14,79757799
9,369298007
8,691691209
17,76474805
26,08845858
29,66281246
32,23779892
33,06340682
34,38962463
38,96644043
41,29384192
39,12181642
37,4503509
36,52943196
30,85904584
22,43917844
21,76981532
29,60094171
31,4325425
21,5146023
12,59710538
11,18003573
7,763377046
-2,152887248
-8,818774
-9,984300318
-18,64948355
-29,3143413
-22,72889137
-8,893151803
-4,807140829
-4,220876881
-1,134378569
5,452335326
17,03924586
26,37633396
29,4635804
30,55096583
31,88847081
34,47607579
36,81376113
36,40150712
34,23929399
28,82710193
15,16491107
-0,247298452
-4,909546542
-5,32185309
-9,984237978
-10,64672106
-10,80932217
-20,97206107
-29,13495748
-28,79803106
-33,46130136
-41,37478787
-42,03850995
-41,45248687
-43,11673776
-41,03128162
-39,69613732
-41,61132355
-33,77685886
-17,94276162
-15,35905001
-27,27574205
-35,69285553
-36,86040805
-39,27841699
-42,69689952
-39,86587257
-30,78535286
-20,70535683
-6,375900716
16,20299953
36,0313282
36,85906985
16,4362093
-10,48726835
-26,91137774
-28,33613321
-24,76154884
-23,68763841
-19,86441541
-2,291893054
62,27991575
229,1009984
466,6713425
521,7409361
147,5597674
-377,622175
-515,0549022
-312,7384252
-174,1727543
-130,1079
-63,04387215
-26,73068042
-30,4183342
-16,10684258
-1,046214384
-3,986458124
2,07241795
17,13040587
19,68749794
14,49368673
18,04896509
26,85332611
26,40676316
17,70926986
14,01084005
19,81146785
27,61114762
29,40987392
22,95764157
13,00444561
8,800281302
11,8451441
12,1390297
3,93193398
-4,526146982
-8,235216908
-13,69527934
-19,65633762
-20,61839494
-20,5814543
-17,79551855
-7,010590359
0,273327739
-3,193766626
-4,161875686
0,618998472
1,648853893
2,177688755
5,70550136
3,482290135
-2,241946379
0,782790473
7,306499458
6,579179444
2,850829404
4,621448408
14,89103562
29,4095903
40,1771118
40,69359954
32,45905305
29,72347193
38,73685585
45,24920458
43,51051795
42,77079588
40,78003836
31,28824545
19,29541728
9,551554071
6,556656109
13,31072375
17,06375744
8,565757686
0,066725078
-1,683339715
-1,684435941
3,313437231
11,31028072
8,806095523
-0,949117261
-3,455356449
0,03737924
4,779091184
14,51978086
20,00944987
6,748099885
-7,51426727
-0,277649675
8,45795472
1,192548086
-4,073867271
-7,591288912
-27,85971426
-50,12914058
-50,39956501
-34,9209845
-15,19339588
8,033204223
26,00881933
26,73345316
14,20710959
2,179792702
-0,348493235
3,37225625
-1,90795417
-21,18911961
-36,22123497
-29,25429494
21,46170605
168,1767738
408,1409142
533,6041336
270,5664386
-227,7221642
-440,5116677
-286,3020647
-143,8433476
-121,6355086
-90,92853956
-59,9724322
-58,51717784
-46,56276755
-27,3591921
-27,65644197
-33,45450735
-29,50337814
-22,80304391
-15,85349394
-10,90471723
-14,95670244
-21,00943792
-18,81291174
-14,11711163
-11,17202502
-4,727639029
2,466059538
4,909084188
6,10144874
10,29316732
14,48425438
15,17472465
15,1145932
14,30387538
7,492586854
-1,819256418
-3,631638177
-0,444541869
1,742049347
8,178152601
17,36378531
19,79896515
17,23371011
15,9180384
17,10196853
20,78551925
22,46870957
15,65155875
4,834086265
0,516311858
2,698255477
4,379937296
3,311377697
2,74259727
6,673616799
12,60445726
13,78513979
12,46568573
16,14611656
22,3264539
22,75671955
17,68693541
14,61712352
16,79730603
18,47750518
11,40774333
-1,161957101
-8,481573624
-8,051083681
-4,620464671
-5,939693956
-15,00874888
-24,07760675
-26,39624492
-25,71464071
-25,78277148
-23,35061465
-19,91814765
-20,235348
-20,30219329
-16,6186612
-16,4347295
-23,0003761
-26,31557901
-24,13031641
-25,69456661
-29,25830811
-28,32151958
-26,63417989
-28,44626813
-33,25776359
-34,56864582
-26,87889462
-17,93849004
-12,49741241
-10,80564237
-17,11316085
-23,9199491
-23,9759887
-25,53126157
-29,58575001
-26,13943666
-16,69230457
-11,99433716
-7,045518278
12,65416782
38,10473644
43,55620245
25,50858026
10,21188382
13,1661266
18,12132158
14,07748124
12,28461757
14,99274203
24,95186556
93,16199855
276,8731509
494,0853318
470,7985502
62,51281407
-367,7718689
-399,8054916
-205,8380477
-109,6195313
-67,64993713
-8,429260606
2,042502345
-20,73464485
-17,01069937
2,214340965
12,19047774
17,91771191
22,64604378
19,12547307
5,355998847
-8,412380454
-9,679667014
-0,695863647
9,039026209
15,52499849
11,7620485
-0,749829066
-3,010640134
6,479608751
12,22091043
15,21325715
20,70664054
23,70105164
23,69648089
23,19291816
21,69035272
21,68877328
19,68816799
7,688524431
-3,810170368
1,69207009
16,19523176
23,1993001
23,20426001
19,71009593
13,21679178
10,974331
12,73269659
9,491871049
2,751836451
-3,23742557
-9,225933803
-12,21370745
-10,4507661
-4,937129749
4,82718126
15,59214621
19,10774406
16,12395342
17,39075258
21,65811956
22,42603206
24,19446753
26,46340315
20,48281587
11,00268241
9,272979271
10,29368276
7,314769018
4,586213995
2,857993508
0,880083231
1,402458723
1,675095433
-2,302031277
-6,528946119
-9,005673867
-13,98223934
-20,70866738
-21,68498286
-17,16121064
-17,13737556
-25,11350245
-33,58961609
-33,06574121
-23,54190245
-16,76812439
-19,49443151
-23,72084817
-20,44739861
-11,42410695
-5,65099714
-8,628092995
-14,85541815
-19,08299605
-26,81084995
-38,78900293
-44,01747781
-37,74629722
-25,22548354
-12,95505891
-11,68504523
-20,91546411
-23,14633693
-19,62768475
-21,60952838
-24,09188831
-30,07478474
-45,55823758
-55,54226639
-47,02689044
-25,51212866
-1,747999648
15,01547832
19,27828733
12,0404098
-1,698171499
-11,93747344
-11,42751253
-10,16830493
-17,90986643
-22,65221244
-12,89535802
21,36068216
124,1158938
321,1202629
469,8737761
298,12642
-161,121818
-446,8709504
-357,8709893
-195,8719461
-128,3738323
-65,12665862
-17,38043562
-18,63517337
-11,6408816
9,102430346
8,34475353
3,586079379
12,82639971
17,8157067
11,80399295
12,2912514
26,02747538
34,26265862
31,74679519
37,22987955
48,46190656
45,19287142
32,67276971
35,9015974
54,3793508
63,10602661
59,58162191
62,0561341
67,27956101
60,50190077
47,97315193
42,69331337
43,16238434
38,88036446
29,8472537
27,56305239
29,02776123
24,24138127
19,45391392
17,16536096
10,37572451
5,835007063
5,293211454
-6,999659114
-29,79360108
-44,33861054
-40,13468322
-20,43181449
-5,729999373
-8,279232523
-12,32950825
-11,63082049
-13,43316284
-15,23652854
-19,54091046
-26,84630112
-19,65269267
2,539923071
12,48155466
5,42221102
2,36190141
2,050635461
-7,511576839
-13,57472515
-8,138798754
-9,953786603
-25,01967727
-35,83645898
-34,15411959
-28,4726466
-27,54202717
-30,61224807
-34,68329574
-37,00515626
-29,32781532
-16,9012583
-16,47547019
-20,30043564
-14,37613894
-9,452564035
-9,529694497
-4,857513561
-2,436004104
-4,265148654
0,405070613
3,324671867
-2,756326372
-6,587905238
-4,92004552
-0,752727664
8,164068226
15,83036239
15,7461754
12,16152817
9,576441951
10,49093832
10,4050392
1,318766827
-9,017856229
-8,354807072
-2,942062485
-1,27959893
5,382607447
25,79458082
53,70634566
71,36792677
60,52934925
30,19063848
11,60182019
11,26292035
11,67396527
12,33498153
17,74599598
8,657035785
-6,431871633
45,97930143
219,1405829
429,0520011
424,4635845
53,37536184
-368,4626379
-428,3003854
-250,3878513
-144,4750057
-97,31181872
-38,14826021
-12,98429972
-12,06990667
-1,405050213
0,510300651
-6,073822864
-2,657389364
-1,49036728
-9,822724869
-10,40443023
-3,235451306
-0,315755896
4,354688338
9,525913862
4,447953262
0,62083923
9,544604563
17,46928214
13,89490493
10,57150596
19,24911833
34,17777517
39,60750965
33,03835499
32,47034437
42,65351103
46,83788816
42,02350894
38,21040651
34,89861395
28,33816429
19,02909049
12,97142538
16,41520172
18,36045215
4,557209142
-18,99449495
-34,04462796
-34,84315788
-36,89005293
-48,93528153
-55,47881232
-44,0206142
-27,81065634
-26,09890819
-35,13533948
-37,41992027
-30,20262097
-23,23341232
-17,51226545
-8,03915187
0,435956506
-0,086912677
-4,357732214
-1,876475369
2,606884109
-1,407628034
-11,66998658
-21,43016685
-29,18814474
-33,94389673
-31,19739988
-22,44863192
-22,94757119
-38,1941967
-45,18848817
-33,43042599
-27,1699913
-34,40716598
-37,89193267
-38,87427481
-47,60417663
-55,83162319
-52,30660038
-40,52909499
-32,24909465
-34,71658791
-39,93156423
-34,39401403
-26,10392866
-26,06130045
-23,01612271
-14,46838978
-11,16809698
-9,36524072
-6,059818418
-9,751828582
-15,4412708
-8,628145738
4,437544803
12,75579792
30,32660957
63,39997457
82,97588657
67,30433808
36,38532042
19,21882372
18,05483694
20,64334783
17,23434294
8,827807619
13,67372599
59,77208097
183,6228543
390,7260263
518,3315764
295,6894826
-188,2002784
-439,0877309
-309,9729006
-140,8558143
-71,4865
-3,364987053
36,25869413
19,13451192
16,01243347
41,1424248
54,52445074
51,65847498
48,79446007
50,68236742
51,57215735
49,96378905
51,60722066
54,75240922
53,89931075
48,5478802
45,44807156
55,84983777
73,75313084
81,90790181
78,3141008
67,47167701
50,38057877
31,54075356
20,702148
24,86470794
35,77837843
34,69310376
11,10882751
-20,22450744
-27,30695888
-11,13858523
-8,719445528
-26,54959938
-40,12910693
-42,20802887
-41,78642633
-45,86436092
-49,94189466
-47,76908995
-47,59600955
-54,17271652
-61,74927422
-69,82574627
-74,40219647
-64,72868884
-41,30528751
-23,63205676
-25,70906093
-30,53636439
-24,61403154
-19,69212673
-18,27071428
-15,59985838
-19,67962312
-32,76007239
-39,59126992
-28,42327917
-7,256163346
7,910014644
6,825192237
-8,260692764
-19,59770215
-17,43589727
-13,52533902
-14,11608777
-13,45820337
-12,55174509
-14,14677163
-15,24334101
-13,84151064
-10,19133721
-6,792876684
-6,146184284
-6,501314448
-5,108320799
-4,217256125
-4,578172342
-1,941120471
0,693849389
-2,17331191
-8,792652541
-15,41421967
-16,28805945
-7,664216964
2,957263772
9,576339841
21,19296945
41,55711195
51,91872787
39,77777891
24,38422799
21,23803925
15,5891781
2,937611192
2,03330648
12,62623322
22,21636198
68,80366467
234,1381146
492,2196863
556,2983559
159,3741007
-376,5531005
-489,2332673
-276,9164181
-153,8525699
-113,541738
-45,73393641
-21,17917767
-38,37747278
-33,57883129
-19,78326124
-11,99076918
-0,201360173
5,584962246
1,368196037
-2,601659325
-6,574602856
-9,550632056
-8,279742914
-7,761929905
-2,497185996
15,01449736
30,7731302
32,02872407
23,03129202
6,280848584
-4,472590228
13,27099308
37,51161746
32,24930333
15,23407257
9,965948481
3,194955795
-7,828879336
-10,10552936
-6,384965329
-2,917156932
0,047927509
1,760321016
4,470057936
7,927173928
7,381705939
3,833692192
0,783172162
-1,769813444
-3,075222706
-3,633012515
-6,443138595
-10,00555552
-10,82021676
-9,887074665
-8,706080532
-7,277184607
-7,350336117
-7,675483298
-4,252573423
-0,081552826
-0,662366939
-5,494960312
-10,32927665
-12,16525884
-13,00284898
-12,59198842
-8,432617779
-3,774676996
-2,618105347
-8,712841482
-20,80882347
-27,90598881
-24,50427449
-18,85361701
-17,70395242
-20,05521636
-28,40734408
-39,26027049
-38,8639302
-29,96825753
-26,3231866
-28,67865132
-34,28458542
-42,39092254
-50,24759622
-55,10453995
-50,46168724
-34,3189716
-15,92632662
-0,033685989
15,35901645
24,25184668
17,64487047
2,038153315
-7,068239567
-6,174243296
-1,529793361
3,365174345
6,260723486
14,40691725
74,3038183
250,2014888
508,3499902
596,7493834
251,1497288
-273,6989142
-420,0464867
-218,8929305
-92,48818857
-74,58220426
-30,17492204
-7,266287181
-19,8562459
-11,94474536
1,968266293
-1,117160097
-3,700974729
-0,283128872
1,886425108
2,307733719
-1,269157682
-7,344204913
-5,667364999
2,76140381
5,692142013
0,874888833
-5,6903178
-8,253441279
-4,314446332
0,37670095
1,570033101
4,015581256
7,213375134
4,913443027
0,615811774
0,320506756
1,777551874
2,236969541
0,448780663
-4,836995363
-7,620340669
-0,901238922
8,070324668
8,544363337
5,270888765
5,749911062
4,731438772
0,215478859
-1,547963288
-1,808883862
-5,067280638
-9,823152975
-14,32650181
-17,32732968
-16,82564066
-13,82144045
-9,064736288
-3,555536985
-1,043852918
-1,529696011
0,236920263
7,255980901
15,02746937
20,30136762
23,32765611
20,60631379
16,38731816
18,67064523
21,20626959
20,24416437
22,03430133
25,3266508
26,37118174
25,91786178
23,2166572
19,76753296
19,07045275
16,62537898
7,682272829
-1,258905749
-3,448197983
-3,135646267
-5,571294133
-7,505186218
-5,437368239
-2,867886962
-5,296790171
-10,47412664
-10,39994609
-10,07429919
-24,49723747
-46,41881332
-52,83907999
-42,00809147
-27,67590254
-10,84256867
12,24185398
31,07730858
34,16373773
21,75108344
6,339287193
6,428289978
17,76803233
19,35845436
15,19949581
15,5410961
20,63319432
76,97572932
256,3186397
510,911864
569,5053405
192,5990075
-320,557197
-435,7133347
-237,6194675
-133,5256571
-119,9319652
-68,33845311
-38,7451823
-46,40221378
-40,80960834
-29,21742647
-27,6257283
-29,28457357
-28,94402159
-23,1041312
-15,26496074
-12,17656799
-13,33901014
-16,25234378
-14,16662483
-4,331908501
1,751750715
2,334299098
7,665683734
11,99585255
8,57475433
9,15233879
16,22855657
18,80335927
17,37669952
17,44853097
16,26880832
11,0874874
4,654525113
-2,530120445
-8,466490024
-6,654623164
-0,094558178
1,713667874
-2,47998079
-4,175538654
0,126961122
-1,572513282
-14,02399232
-21,22750507
-19,68307921
-23,89074099
-30,85051523
-29,06242532
-25,52649316
-26,49273919
-23,21118236
-12,43184012
-2,404728394
3,370138384
10,39274733
18,91308707
23,4311478
24,69692125
26,46040068
27,72158092
23,98045836
12,98703092
0,491298086
-5,256739096
-6,507078042
-9,75971462
-15,26464316
-18,77185644
-13,28134574
-2,543100798
0,442890161
-2,573359597
-3,841835309
-8,612520736
-20,63539817
-26,66044846
-19,437651
-13,96698379
-14,4984234
-12,28194503
-16,06752251
-29,85512831
-36,8947336
-34,93630821
-36,72982071
-41,52523842
-45,82252739
-52,62165249
-56,17257739
-51,2252646
-41,02967551
-23,83577039
-2,643508453
8,047152148
4,486254271
-6,57615824
-22,14004059
-33,20534705
-33,27203101
-32,84004501
-34,65934074
-28,97986913
-17,80158032
13,37557623
127,5516518
349,9766983
508,9007682
309,3239146
-180,5038087
-448,8323477
-326,4116478
-168,7416538
-123,0723103
-69,15356143
-23,73535109
-26,5676228
-23,15031986
-5,48338537
-0,816762222
-0,90039318
2,015779102
3,681812039
6,347763084
8,513689687
9,679649263
16,34569915
24,2618966
24,92829869
22,34496235
23,7619443
29,679301
35,84708865
41,76536314
50,43418003
57,8535945
62,02366133
66,44443488
65,11596904
58,28831722
59,46153231
64,13566666
60,31077205
56,73689966
59,16410004
58,34242313
55,27191815
51,20263367
36,88461753
19,56791684
10,00257793
0,188646389
-12,12383301
-19,43481631
-21,24426037
-20,05212291
-19,35836249
-23,41293858
-28,21581151
-26,01694253
-20,81629382
-18,61382845
-13,15951046
-3,953304824
0,754822514
3,714904657
10,42697373
18,14106088
24,60719628
28,82540909
28,79572749
25,76817867
23,4927888
23,46958308
23,19858567
19,42981977
12,91330753
5,899070127
-0,612872258
-4,372500451
-3,879796272
-1,884742527
-1,887323013
-4,637522502
-6,635326745
-3,630722461
1,876302667
4,385760004
2,647659964
-0,837987976
-2,571175271
-1,301894297
-1,280138342
-5,005901597
-9,229179143
-13,94996694
-18,16826183
-17,38406151
-11,8473645
1,19182982
22,73352124
39,02770876
38,57439058
23,62356409
4,925225935
-5,270628011
-6,214002623
-6,154903506
-5,593336986
-1,779310099
12,53716943
85,35609319
277,4274521
513,7512364
500,8274358
63,65603922
-417,7629649
-474,4295889
-269,8438455
-157,755748
-106,4153106
-38,07254766
-17,97747427
-26,38010603
-13,78045907
-9,428550017
-21,074396
-22,71801466
-21,60942411
-29,49864292
-33,63569015
-27,52058532
-19,15334838
-16,53399974
-23,91256024
-33,28905115
-31,41349417
-22,53591141
-19,65632539
-21,27475907
-13,89123577
2,494220745
7,131586338
-5,229163537
-13,08805382
-10,69510983
-12,30035731
-16,90382236
-15,75553151
-13,35551163
-16,20379004
-20,05039442
-19,14535285
-15,48869383
-15,83044622
-24,42063934
-35,00930286
-38,59646691
-39,68216201
-47,2664191
-55,59926955
-57,93074516
-57,76087818
-52,83970127
-41,16724757
-31,74355066
-27,81864457
-22,39256381
-11,71534336
0,962981319
8,892374274
11,57279906
16,00421874
23,18659586
29,36989244
33,30406998
35,23908947
37,17491133
38,61149545
33,29880118
21,48678728
15,17541197
17,8646329
19,30440711
15,74469108
14,68544071
18,62661127
19,56815746
10,01003336
-3,797807563
-5,855412449
2,837170942
4,779894229
-0,277291591
4,165563852
11,8584103
-0,698803131
-26,75612795
-38,31361631
-30,12132097
-14,42929533
3,512406593
17,45373016
15,3946201
-0,414979443
-13,22512496
-13,78587354
-9,097282851
-15,40941118
-31,97231736
-35,53606084
-23,3507016
-15,16630018
13,76708234
151,1993843
421,6305437
597,3104978
336,9891835
-227,8334628
-500,9075051
-342,233008
-167,3100362
-116,8886552
-55,4689305
-7,050928276
-7,384714854
1,029643075
15,94207854
18,60252429
28,51091284
32,66717652
19,32124743
18,97305756
37,37253872
48,26962268
47,66424109
47,80632562
49,94580788
52,08261956
56,4666924
61,34795822
60,726349
57,10179688
61,97423423
74,09359364
78,459808
70,82281051
62,43253476
61,28891473
60,89188483
56,24137997
53,33733561
52,17968773
46,76837296
39,10332858
33,93449255
31,01180359
28,08520119
22,15462568
13,22001826
3,781321036
-5,661522905
-9,858569489
-6,309873584
-3,265488968
-2,225468281
-2,189862984
-7,158723311
-5,88209823
11,3899646
29,90741888
34,4202197
24,67832359
14,68168856
15,43027413
12,42404139
-0,087046971
-3,603026631
-4,123931591
-19,64979414
-34,18064481
-33,21651235
-33,2574237
-43,30340393
-52,35447624
-54,91066189
-54,47198022
-52,78844856
-52,11008224
-55,68689459
-59,26889683
-55,60609814
-45,44850555
-37,29612398
-36,39895622
-40,75700286
-48,1202623
-52,48873076
-49,11240222
-43,99126844
-38,62531893
-29,01454094
-27,90891946
-48,05843721
-68,71307464
-66,62280989
-56,03761886
-54,70747512
-53,63234999
-41,81221248
-23,24702936
-6,436765082
0,618618136
-11,08083966
-32,53509617
-39,49410687
-32,95782501
-30,67620163
-32,1491856
-33,37672361
-31,10876019
12,15476225
159,6639034
408,418725
560,669291
317,6656671
-227,5920788
-523,1038769
-382,8696553
-192,3893405
-131,412857
-72,44012738
-17,22107251
-12,50561151
-9,79366177
1,664860983
-5,379957345
-11,67802926
-0,479265745
4,216423738
-6,840868844
-13,90105012
-11,46402538
-12,27969858
-18,84797248
-19,1687486
-7,491927339
3,682592012
2,104911184
-2,474867104
3,693360792
12,85969939
16,77425401
21,93713074
26,34843637
22,75827831
17,66676457
15,82400369
11,23010465
5,885176849
6,78933004
11,94267425
16,84531973
16,99737692
10,89895634
5,300168571
3,701124184
0,351933674
-4,24729259
-2,846444431
-0,945411917
-6,794085425
-12,89235569
-10,74011388
-5,337251627
-2,683661104
1,470764925
10,12613305
21,03254916
32,69011839
38,84894507
38,50913267
42,42078373
50,83399985
52,74888161
44,91552852
34,58403898
31,00451024
34,67703833
35,60171804
28,27864287
24,45790497
33,63959511
42,32380266
36,51061549
23,45012001
16,14240107
15,58754194
14,78562431
14,23672818
19,69093193
26,14831218
24,85894386
19,57290009
20,79025223
26,5110698
25,23542049
17,2133701
11,44498257
9,930319908
9,16944219
5,412407554
-0,340727835
-1,839909789
-1,335086118
-3,326206638
0,436776816
9,20391038
1,97523815
-21,74919782
-30,96935753
-18,93520302
-10,64669843
-12,10380991
-14,3065057
-18,75475609
-26,69853346
-33,63781219
-32,57256876
-16,50278167
7,07156852
17,65049924
13,4840259
11,57216187
8,914918553
-6,737694656
-20,38567033
-17,52900299
-10,66768912
-9,551727103
-8,431117251
8,694138246
88,07403533
281,2085681
513,3477288
502,4915079
76,6398942
-392,4571255
-439,0495659
-231,6374436
-129,2207767
-93,54958497
-37,37388987
-22,19371443
-32,5090832
-19,57002231
-7,126559328
-7,928723333
-0,226544816
12,47994433
11,94071085
4,155720142
5,374936326
13,34832224
16,32583952
17,80744857
23,54310867
25,78277796
23,5264135
25,02397131
31,52540639
37,78067274
37,78972347
34,55251074
35,31898587
35,83909936
30,36280088
21,89003937
15,42076307
11,4549195
8,992455563
10,78331754
13,32745113
9,124801526
3,925313392
3,478930939
2,035597945
-1,654742208
-9,342146498
-31,52667223
-64,958377
-80,88731868
-57,31355534
-22,48714526
-22,65814689
-46,07661881
-51,24261969
-40,15620828
-34,56744337
-30,22638376
-21,13308823
-19,28761553
-26,94002432
-29,34037319
-19,73872058
-9,385124789
-8,779643955
-14,17233601
-20,06325867
-25,9524694
-29,34002543
-27,97598367
-24,36040075
-21,74333298
-22,62483632
-26,00496637
-25,88377835
-20,5113271
-12,13766705
-5,512852203
-10,13693613
-20,75997195
-20,88201232
-15,50310943
-15,87331497
-14,99268014
-11,11125566
-12,72909169
-17,34623791
-15,96274345
-9,328656897
-7,444026316
-11,30889921
-14,17332252
-17,28734264
-19,65100541
-16,01435609
-11,12743936
-11,99029937
-15,85297965
-18,21552319
-21,82797239
-26,44036908
-27,55275452
-28,66516937
-32,02765375
-33,14024718
-32,50298864
-31,11591652
-20,72906863
3,407517746
30,54380592
47,42975974
49,81534363
40,45052254
28,33526199
22,46952804
20,10328728
14,98650684
11,61915439
11,75119813
11,88260677
46,76334955
192,1433962
438,5227171
546,9012828
243,2790648
-268,8439652
-459,717835
-294,3425717
-148,9682022
-100,8447527
-42,72224894
-10,60071629
-19,48017957
-12,61066315
6,257809087
10,3752137
11,49152771
16,60672862
15,72079437
14,58370336
23,19543445
30,55596695
28,16528062
28,27335568
37,88017278
46,23571304
46,33995803
45,94288975
49,54449066
54,39474368
61,24363218
66,59113996
64,18725129
59,03195092
59,62522401
64,46705621
66,05743363
62,64634284
60,23377088
58,56970525
51,40413393
40,73704539
29,06842857
15,39827288
5,72656825
2,553305071
-2,37152575
-11,79793281
-22,72592421
-33,90550753
-42,33668984
-47,01947769
-46,95387712
-41,38989362
-36,32753216
-31,01679718
-19,20769257
-10,65022168
-9,344387299
1,959808321
19,2623635
23,31327711
18,61254859
13,41017797
7,956165821
5,000513311
2,293222182
-3,66570524
-11,62626604
-15,83845673
-12,3022732
-11,76771078
-22,48476419
-32,45342757
-33,92369443
-34,89555771
-37,36900976
-38,8440423
-45,57064648
-59,29881285
-67,02853134
-62,75979132
-55,99258154
-49,97689017
-45,2127048
-48,70001241
-55,43879942
-54,92905167
-51,17075441
-46,41389234
-39,15844957
-36,65440968
-36,15175567
-26,65047
-15,90053459
-16,40193082
-21,90463955
-24,40864111
-27,66391532
-29,42044149
-21,42819845
-10,68716452
-12,19731756
-22,95863494
-26,22109358
-19,73466997
-12,49934014
-5,265079679
6,718136213
22,70033276
30,93153558
24,41177067
15,6410644
15,86944351
16,59693508
9,823566523
4,799365586
8,52436032
19,24857908
64,47205049
212,1948035
470,6668672
626,1382711
361,8590448
-199,1707819
-484,7011788
-340,7321156
-156,763562
-90,04548735
-28,82786082
13,38934847
10,35617155
16,82263957
31,28878376
25,50463545
23,47022604
33,93558697
35,15074975
35,8657459
41,83060697
38,79536448
36,51004998
36,97469498
24,68933093
15,65398926
26,36870131
38,33349835
39,04841156
35,51347201
28,97871065
19,94415829
18,15984561
20,62580312
15,09206115
8,308649862
5,775599198
-1,507061099
-14,03930152
-24,07109278
-21,60240586
-6,133212011
3,836517257
-0,44318987
-8,722305504
-14,75080207
-19,77865234
-25,3058294
-33,58230672
-45,3580581
-57,38305776
-65,90728028
-68,93070065
-69,4532943
-73,47503707
-78,99590523
-77,51587552
-66,03492514
-49,05303176
-36,07017355
-32,08632917
-29,6014778
-27,11559913
-27,8786734
-20,89068138
-7,65160441
-6,161424377
-13,67012376
-14,17768562
-8,184093621
-8,189332021
-13,6933857
-12,19624018
-3,947881583
1,051703294
2,302527019
2,804601493
2,307937954
3,062546964
7,318438401
12,07562146
13,08410463
14,5938957
20,60500178
22,61742923
17,13118372
9,896270194
6,412692861
12,93045521
23,19956002
27,7200093
31,49180436
29,01494576
10,28943332
-4,18473387
2,342442556
10,87096022
11,650816
14,68200608
9,464525874
-13,2516299
-28,46646725
-22,67999289
-19,14221427
-27,35313952
-29,56277747
-18,77113764
-1,228230251
15,06593383
22,11134306
25,65798523
29,2058475
23,25491638
17,55517779
22,60661701
23,15921872
17,71296704
19,01784549
25,07383706
57,63092419
179,6890888
406,2483123
575,8085756
397,8698591
-104,8178572
-426,2545938
-320,6903714
-133,8752114
-83,05913553
-52,74216568
-16,92432424
-16,1056339
-13,53611761
0,784201373
1,355299562
-1,322846772
7,249738439
17,32303108
23,39700687
24,72164139
16,79691012
7,87278844
9,949251666
11,77627507
4,103833921
6,681903474
23,51045903
26,58947595
16,41892966
20,7487957
33,57904975
34,15966763
29,24062533
28,07189907
28,15346526
26,48530059
19,31738201
11,64968677
9,482192418
9,564876872
13,3977184
18,98069565
14,81378768
4,146973981
-1,269765514
-6,936450403
-15,3530998
-16,2697323
-15,436366
-27,35301842
-46,51970656
-54,6864468
-49,10325495
-43,77014623
-44,9371352
-48,85423581
-54,02146135
-55,93882446
-50,60633708
-44,27401049
-42,19185526
-41,10988127
-37,77809768
-35,44651291
-40,11513467
-47,03396994
-45,70302496
-41,6223052
-44,04181542
-45,21155959
-41,38154096
-42,801762
-46,97222444
-44,14292925
-38,81387665
-36,98506612
-36,15649636
-32,32816535
-24,50007033
-17,9222078
-17,84457353
-21,76716257
-25,68996926
-26,86298722
-25,2862094
-23,45962805
-18,38323472
-9,307020341
-2,730975153
-0,905088772
-5,079350185
-13,50374776
-17,67826928
-19,35290192
-19,7776323
-9,452446487
5,12266999
9,447732125
7,022755414
4,097755839
1,922749847
4,497754335
5,572786631
-4,102135529
-11,02699402
1,798229671
22,12355438
32,1989993
41,77458392
62,10032802
77,17625165
70,25237513
52,57871896
45,4053039
49,98215085
51,8092809
46,63671527
41,46447531
47,54258245
106,1210582
277,1999242
526,779202
611,6089132
277,9390796
-244,2302775
-425,1491364
-259,8174756
-133,2352738
-102,9025096
-52,06916211
-19,98521019
-31,15063307
-38,31541015
-37,22952103
-38,39294557
-33,30566386
-27,46765626
-29,12890345
-35,2893864
-38,94908641
-31,60798514
-22,51606462
-27,92330725
-36,32969586
-29,73521367
-16,38984437
-9,543572085
-3,446381423
6,901742521
12,00081414
10,35084732
12,20185538
15,80385111
9,156846724
-2,739146149
-5,134116479
-4,028053848
-11,67094846
-17,31279118
-6,203573489
8,906712434
9,018073745
0,880516907
-3,255952319
-8,641328885
-18,02560847
-20,90878748
-16,04086308
-12,92183318
-12,80169645
-15,68045235
-28,80810111
-43,68464374
-38,06008206
-15,1844187
1,692342906
4,820198512
1,94914304
3,829170588
18,21027442
34,09244695
31,47567977
18,85996362
20,49528838
35,63164308
49,01901592
50,40739421
33,29676442
14,18711217
20,32842222
36,72067847
31,36386394
17,00796085
19,40295051
26,79881341
16,44552919
-2,406923361
-4,758566298
5,890577492
9,540484288
4,941129542
-2,157512119
-10,25546688
-11,10276173
-3,949424484
-8,045483721
-25,64096882
-30,73590995
-23,33033804
-27,42428477
-37,01778258
-34,11086466
-25,70356491
-22,54591797
-22,88795918
-24,22972457
-27,57125087
-37,16257546
-53,00373638
-62,84477235
-56,18572267
-36,2766273
-8,617526781
21,29153776
37,45052461
27,35939151
4,26809566
-7,823406271
-4,665158118
2,492795793
7,400410663
10,30764124
10,46444182
33,62076629
152,7765682
394,4318005
589,5864161
424,9903672
-95,8563939
-451,9539156
-362,8022463
-174,1514349
-115,2515304
-61,602582
0,795360814
5,442248409
-2,91196901
6,232658621
8,876081247
5,268248719
5,909110812
7,298617248
8,686717717
11,3233619
12,20849949
7,092080219
-1,775946136
1,854370288
18,73297945
24,35983144
13,73487648
7,608064968
15,22934748
24,84867479
26,21599794
21,5812682
18,6944371
20,05545648
19,16427851
14,02085568
11,62514083
10,9770872
3,326648408
-3,576221492
5,518431983
18,11056378
7,450129324
-22,96291546
-45,62861414
-51,04700974
-52,71814472
-59,39206098
-61,56879982
-53,49840195
-50,93090743
-62,11635569
-71,30478549
-66,74623492
-53,44074138
-39,38834156
-31,58907142
-32,79296617
-30,5000603
-18,46038751
-13,6739807
-17,890872
-14,11109273
-5,584673362
0,938356443
9,207967883
11,72413302
7,73682477
12,49601696
19,00168429
8,753802368
-1,497652272
7,49729782
16,98863103
11,47632669
2,46036509
5,44072747
19,16739605
22,64035402
9,609585573
2,825075874
11,2868111
18,74477843
17,94896607
12,14936323
5,095960139
5,038748084
12,72771937
19,66286734
21,0941864
16,02167199
10,6953206
12,61512981
13,03109823
5,693225543
1,351512506
3,005960943
3,156573751
0,303354903
-4,05369055
-7,164556479
-7,779235676
-7,89771985
-0,269999629
22,85393544
50,2240969
60,84049737
44,45315054
15,06207121
-2,832724767
-5,481220439
-2,883397787
1,210762288
3,051279958
11,38817647
76,47147413
251,0511963
471,6273675
480,9500132
88,01915986
-390,9151648
-477,8529322
-280,7941125
-160,7386751
-114,9365883
-52,63781911
-25,09233386
-28,55009769
-20,26107478
-11,72522831
-5,942520465
1,837087548
-3,386364503
-12,36283589
-3,342284921
13,17533103
19,44005553
17,45193308
14,71100906
15,96732981
19,72094251
19,47189523
14,47023693
12,96601741
22,95928729
37,95009804
43,93850194
38,92455207
31,90830228
30,88980719
35,86912218
40,34630336
39,07140757
35,29449233
34,26561587
33,23483707
28,20221545
20,91781118
17,13168504
16,84389838
8,804513146
-12,98640819
-37,2788026
-52,57260657
-61,11775609
-65,66418668
-63,21183343
-55,01063099
-46,06051363
-41,11141524
-38,66326937
-29,46600923
-20,76956774
-28,07387753
-34,878871
-23,18448032
-11,49063745
-15,54727418
-25,60432216
-30,66171293
-29,46937791
-23,02724848
-15,08525598
-18,39333172
-34,70140706
-43,50941337
-40,56728213
-42,1249449
-45,18233338
-40,48937943
-34,2960151
-30,10217265
-25,15778459
-21,21278372
-19,76710312
-16,57067623
-10,87343683
-11,17531909
-20,97625763
-24,27618747
-11,57504415
-4,122763684
-8,419282637
-4,214538124
3,49153215
1,448989868
2,907896068
11,36831112
10,33029471
0,543905792
-2,740797421
1,226242516
-2,054917748
-15,58422238
-19,3616164
-0,387045667
21,58954304
27,81820206
37,54898278
60,03193565
66,26711015
50,25455476
34,49431696
22,98644319
12,48097886
10,47796831
15,72745481
16,72948053
21,98408655
76,7413128
234,2511981
461,2637802
526,2790954
191,2971793
-307,431934
-459,4082116
-274,8816216
-134,6021334
-91,81971763
-26,53434612
21,50400813
23,29537087
21,33976664
18,38721875
14,93774929
27,24137913
38,54812791
32,10801405
23,17105475
24,23726601
31,05666258
38,87925804
42,20506475
37,53409388
33,86635539
38,20185808
41,54060958
40,38261634
43,22788366
44,8264157
41,17821549
43,53328493
48,14162482
47,25323486
48,36811367
49,4862588
41,60766675
31,48233299
28,86025196
28,9914171
25,87582084
23,01345468
17,65430914
-0,451626198
-24,55436265
-35,90391246
-36,00028871
-40,34350537
-52,93357725
-66,77051997
-72,35434995
-67,68508439
-61,51274127
-60,83733927
-65,15889782
-66,47743704
-54,04297771
-35,60554128
-30,41514983
-34,22182606
-30,02559325
-20,82647527
-19,12449651
-24,91968191
-32,21205691
-35,75164745
-31,53847992
-24,82258117
-24,10397846
-30,13269947
-34,40877226
-27,93222525
-20,4530872
-25,47138721
-25,98715469
-9,000419314
-5,26121104
-28,01956007
-34,77549684
-6,779051995
8,219743628
-15,52914099
-33,27573701
-19,02007577
-3,012188685
-3,002107313
-8,989863286
-13,22548832
-7,209014171
9,05952734
15,08010438
6,102685098
6,12723765
19,40373021
24,93213098
20,96240821
13,74453022
0,278465394
-9,185817794
-8,89835077
-10,60916484
-11,3182912
2,224239119
26,76839521
48,56414635
52,86146197
31,16031171
1,210665375
-9,987506988
-6,934235137
-9,879548593
-19,32347664
-23,51604832
-15,70729239
17,35276261
112,4140885
298,9766572
483,2904412
395,3554132
-57,82845407
-461,5111872
-447,6928125
-240,3733561
-128,8028438
-62,48130087
2,591247671
9,914777156
-10,51073669
-6,435317767
7,891010401
10,46822468
6,046302325
8,125220997
16,70495875
18,03549406
15,6168058
26,19887327
41,53167618
39,86519468
27,19940935
27,28430119
44,36985163
59,45604255
55,54285629
43,13027559
45,71828367
59,05686419
62,14600125
57,23567941
57,07588368
57,16659952
51,75781286
48,84951006
50,94167794
50,2843038
46,62737535
39,72088079
25,56480874
14,15914831
12,50388901
6,849020837
-5,555465794
-11,45958002
-15,11333054
-24,76672562
-29,4197731
-24,57248038
-22,22485447
-28,62690193
-40,27862894
-47,18004126
-41,58114425
-31,9819429
-29,63244178
-33,78264513
-39,68255678
-40,83218023
-33,48151862
-24,38057474
-20,27935107
-23,17784974
-31,3260726
-37,72402117
-39,87169671
-40,26910017
-40,91623227
-50,56309346
-67,20968394
-64,60600371
-41,75205253
-30,89782998
-37,29333546
-44,93856817
-50,08352717
-50,47821141
-50,62261967
-58,01675063
-59,16060291
-45,80417502
-35,44746541
-34,0904725
-30,98319467
-27,87563031
-28,51777779
-24,90963551
-16,80120193
-17,19247554
-27,83345491
-33,72413872
-24,86452574
-9,254614874
-3,14440516
-11,5338958
-25,67308618
-31,81197587
-21,45056464
-0,588852506
23,27316029
49,63547324
65,99808558
56,11099624
33,97420385
24,33770674
23,45150289
20,81558995
20,9299652
24,54462557
34,65956758
82,52478739
219,6402807
450,0060429
599,6220688
371,4883529
-166,8951108
-472,2783287
-344,1613078
-159,7940554
-95,17657937
-24,80888803
31,3090098
20,67710479
12,79538715
31,91384657
39,53247222
38,1512528
41,77017649
35,13923095
15,50840333
7,877680304
21,24704801
36,36649208
40,48599767
33,8555494
21,97513143
18,59472741
26,71432051
34,58389341
35,20342832
30,57290699
26,4423107
23,06162029
22,68081615
32,29987824
38,91878608
25,78751879
9,156055103
10,02437333
20,39245142
25,76026694
23,37779714
13,24501888
-2,138091272
-12,02155708
-10,15540259
-7,039652146
-12,17433036
-16,80946208
-13,19507242
-13,83118668
-26,7178304
-33,10502927
-20,74280919
-12,88119618
-26,27021642
-36,90989619
-27,30026188
-13,94133998
-6,083157021
0,524260412
-0,619114302
-6,513307794
-1,408346687
3,695742417
-9,95106704
-23,09880156
-15,99748756
-4,147151365
0,202180806
3,550482872
4,897728897
-7,756106888
-29,41105007
-37,06712605
-29,72435998
-25,38277683
-26,79240127
-25,95325774
-20,61537039
-16,52876309
-18,44345936
-20,35948244
-15,52685521
-8,19560019
-4,61573955
-6,28729507
-12,46028814
-16,38473973
-15,81067042
-18,23810033
-19,91704916
-13,34753614
-7,529580051
-9,213199189
-12,64841137
-18,58523392
-31,52368365
-45,71377688
-54,15552939
-55,34895645
-46,04407278
-25,49089258
-4,189429468
5,86030346
0,158293682
-18,79547076
-35,00100126
-32,70830863
-17,9174031
-3,628294338
0,159008593
-15,30550279
-15,27183639
88,51000051
329,5400012
552,3181595
442,59447
-55,63107224
-455,6084716
-400,3377318
-189,568856
-112,0518466
-66,53670576
-7,773434695
-1,262034218
-10,75250451
0,505154822
8,760944763
12,51486687
22,26692326
27,51711665
22,51545029
18,26192801
21,25655419
26,74933376
33,49027219
38,9793755
34,21665025
25,2021035
28,68574286
40,41757643
45,14761286
43,62586125
38,35233122
29,07703289
28,79997683
42,5211741
52,74063622
50,95837517
44,92440337
37,88873368
32,6013794
33,56235423
37,77167231
37,47934816
22,43539672
-4,860166711
-22,40732644
-24,70606642
-27,50637024
-34,80822114
-41,11160202
-44,16649547
-45,22288375
-47,53074881
-46,84007231
-40,40083562
-38,46301984
-44,5266058
-48,59157408
-43,90790501
-38,47557869
-45,044575
-53,6148736
-50,18645396
-45,50929534
-42,58337685
-30,65867741
-19,98517578
-21,81285059
-24,14168031
-20,22164331
-17,05271783
-16,63488201
-17,21811388
-18,3023914
-17,63769246
-13,97399488
-9,811276426
-7,149514816
-5,73868774
-5,328772859
-4,16974782
-1,011590263
2,145722171
2,55221183
-0,792098959
-3,887187894
-4,48303271
-6,329611183
-9,926901142
-14,77488047
-20,87352711
-21,7228191
-11,07273451
8,82674846
30,97565156
48,62399642
56,02180459
48,6690975
32,5658965
24,96222281
29,85809754
34,00354169
34,39857613
37,79322162
44,9374988
80,83142817
215,9750301
468,8683249
638,5113327
400,4040734
-157,953433
-458,5611668
-309,4191083
-119,7772381
-71,38553667
-29,24398485
1,397436551
-9,961253414
-3,320035813
15,07110818
11,21219729
7,603250145
16,74428527
18,38532111
10,77637601
7,667468239
6,058615995
-0,550162606
-3,158849512
1,982573268
7,124123667
10,01581956
6,407678797
-7,450280842
-19,05804159
-15,66558573
-4,272895537
1,120046663
-3,236741453
-12,34324222
-17,19943797
-13,05531103
-7,660843739
-9,016018397
-12,8708173
-12,97522271
-8,329216868
-3,182781987
-3,785900236
-7,888553744
-10,99072459
-16,09239482
-28,19354642
-46,5441613
-57,89422134
-54,99370836
-51,59260409
-52,44089021
-48,78854835
-42,88556004
-38,48190675
-32,07756989
-24,92253079
-22,01677072
-23,86027085
-26,4530123
-22,54497613
-11,1361433
-0,22649473
7,433988742
9,595326336
3,007537336
-4,079358917
-2,915343026
2,49960446
4,165503037
1,332372249
-5,499768322
-13,33089906
-9,911000318
2,509947576
2,431964313
-13,1449304
-25,72071687
-27,04537536
-23,36888619
-18,94122965
-14,26238609
-12,83233586
-17,15105935
-22,96853701
-21,78474934
-14,84967688
-11,41330026
-7,725600179
0,713442571
2,403847104
-9,65436757
-24,71118256
-28,26657909
-16,82053853
0,626957607
14,32592767
26,02638983
37,22836208
37,18186225
23,38690797
8,84351665
-2,698294488
-12,23850846
-10,77710851
0,185921879
10,90059897
44,86693875
161,834957
382,304669
558,7760902
388,7492352
-130,5258814
-473,2992453
-363,5708427
-165,5906599
-109,1086838
-63,37490147
-13,13930046
-13,90186861
-14,91259418
3,828534193
9,07152747
3,066396216
1,563150582
4,561800301
10,81235468
16,06482259
15,56921248
13,82553232
16,83378967
21,59399158
25,85614469
31,87025513
35,38632858
34,40437021
35,67438474
41,44637636
46,72034881
49,74630528
48,77424849
40,05418064
27,08610342
16,370018
13,90592503
20,44382466
22,73371647
15,52559955
13,31947245
20,61533318
26,66317922
24,9630075
13,51481444
-3,931404116
-13,37565284
-10,81793696
-9,008262254
-12,69663503
-16,88306214
-24,31755102
-38,5001096
-46,93074641
-40,85947048
-34,78629143
-35,96121941
-33,13426511
-29,05543979
-31,97475523
-31,14222379
-22,55785835
-15,97167235
-12,88367977
-12,29389513
-12,9523335
-9,109010503
-4,013942276
-5,167145516
-8,068637451
-8,968435849
-12,36655901
-16,01302577
-15,65785549
-16,30106807
-18,94268392
-20,33272401
-23,7212098
-26,10816327
-21,49360695
-15,62756385
-15,5100575
-19,39111197
-21,52075179
-21,39900203
-21,27588824
-18,15143647
-12,02567327
-11,89862567
-19,52032119
-20,64078783
-9,260054064
-0,628148842
-2,745101574
-3,360942138
2,024299135
3,410591462
1,297903614
2,686203923
2,825460288
-4,03435982
-12,89328935
-16,00136166
-13,60861053
-11,71507011
-12,57077498
-15,17576005
-19,28006066
-24,13371248
-25,23675155
-16,08921426
3,808862682
28,70744222
49,35648698
54,25595929
39,40582118
19,8060344
13,95656041
18,10736043
21,75839542
24,90962611
26,31101299
30,21251637
76,36409632
227,2657128
466,9173255
584,318894
303,9703779
-227,3782637
-462,2270713
-294,826086
-128,4253487
-89,27490033
-44,62478195
-12,47503465
-21,3256995
-13,42681757
10,22157011
15,11942253
9,016698767
2,663357969
-8,190640615
-14,54533762
-7,400773532
2,243011303
7,135976724
8,528082763
-0,830710334
-15,19044209
-13,80115177
2,087121623
15,97433939
20,86046313
19,24545478
17,62927663
20,01189132
25,39326191
31,02335185
32,402125
25,27954571
15,90557874
15,53018938
22,15334341
24,02500711
19,39514732
16,51373144
14,88072743
7,246103855
-2,140170117
-6,278124689
-8,91778942
-13,05919321
-17,45236428
-22,09733016
-24,49411768
-21,89275294
-16,29326131
-10,1956674
-8,349995059
-11,50626737
-6,164506617
10,92526572
18,26302897
6,098763279
-4,067550351
3,514069909
13,34360675
10,17104373
2,746365258
-0,680443346
-2,609395896
-1,790505308
1,7762164
1,840758118
-5,346890361
-18,03673833
-26,97879416
-26,1730653
-30,11955831
-44,56827879
-48,26923143
-38,47242001
-34,17784737
-37,88551545
-44,09542526
-50,80757688
-53,02196952
-52,73860145
-51,95747004
-44,17857177
-32,90190223
-30,37745613
-39,85522728
-48,83520866
-42,81739235
-29,05176961
-22,28833084
-22,27706562
-23,7679627
-22,76101004
-18,50619479
-14,25350331
-10,25292121
-6,754433335
-6,00802378
-5,263675921
-1,021372418
0,718904764
-3,542825654
-5,806544288
-5,072231106
-9,839865443
-20,60942602
-29,63089095
-32,65423778
-30,42944349
-21,70648452
-2,735336775
22,48402434
38,95162392
37,66748751
25,38164112
12,09411118
4,304924559
5,514108486
11,47169059
14,42769883
13,63216154
20,83510733
77,28656513
240,9865642
471,1851339
517,382304
158,5781044
-327,4774347
-445,034283
-253,34241
-117,4017851
-59,71237749
9,475843731
32,16290955
10,59885105
6,533699363
14,21748568
19,65024123
26,83199725
26,01278499
19,94263567
21,1215805
25,29965063
25,72687718
24,15329117
27,57892355
33,00380517
25,92796678
15,85143901
22,27425232
33,44643708
34,61802346
34,03904148
35,70952099
36,12949163
38,04898286
42,21802393
45,38664387
45,30487149
41,97273536
38,39026381
37,05748494
36,97442657
36,14111627
32,30758134
23,2238488
11,6399454
2,555897587
-4,528268468
-11,1125269
-18,94685214
-31,03121893
-42,11560232
-46,44997768
-47,53432068
-47,61860734
-45,45281397
-42,53691725
-41,37089414
-40,20472197
-34,7883784
-26,37184142
-20,95508937
-19,28810091
-18,37085506
-18,4533312
-17,28550904
-11,61736862
-8,948890364
-13,78005503
-14,36084374
-7,191237942
-4,02121947
-6,350770496
-7,179873551
-7,258511522
-10,33666766
-15,91432556
-19,49146918
-18,31808286
-14,89415126
-12,71965943
-11,04459278
-6,868937052
-1,442678381
-0,26580325
-5,338298506
-12,16015136
-13,98134937
-8,55188049
-3,871733004
-4,690895577
-3,509357231
1,422892646
3,855864302
4,289567621
3,474012125
-1,84079303
-6,404839054
-4,718117519
-4,280620362
-8,342339887
-10,15326876
-10,96340001
-15,27272703
-18,3312436
-15,38894382
-10,69582219
-13,75187357
-28,05709316
-41,86147656
-41,9150197
-28,71771889
-6,769570808
18,67942753
34,87927872
30,32998501
8,7815483
-8,266029892
-6,812748392
0,391393614
0,096396584
-4,19773938
-6,991014527
3,21657054
66,42501487
229,8843172
455,3444757
515,5554887
180,0173535
-311,2699323
-453,0563718
-267,8419685
-129,6267259
-83,66064808
-28,44373943
-5,476004629
-17,00744866
-9,788076868
1,682105115
-6,846908675
-18,37512451
-14,15254897
3,320811059
14,79494839
12,51985555
9,995524742
15,22194792
21,44911672
22,67702252
20,6556564
18,88500919
18,36507143
18,84583343
22,8272852
30,55941653
35,54221695
37,52567575
41,00978197
40,74452444
33,47989175
26,96587227
25,20245415
26,93962535
31,1773736
30,16568644
19,90455124
12,39395515
13,38388516
12,12432808
5,115270567
0,106699091
-3,901400016
-12,40904058
-19,16623655
-19,17300204
-20,42935128
-25,43529861
-27,19085852
-29,44604557
-35,45087445
-32,95535994
-23,95951693
-24,71336035
-30,21690526
-28,97016676
-26,97316003
-27,47590029
-23,22840283
-17,230683
-17,98275615
-19,98463771
-17,7363431
-17,73788778
-20,73928724
-19,49055695
-15,7417124
-15,74276907
-16,99374245
-15,744648
-12,74550116
-8,746317356
-6,997111963
-12,24790034
-18,74869778
-15,74951955
-8,000380851
-8,001296824
-14,00228255
-16,25335302
-13,75452318
-11,50580786
-8,007221819
-0,758779727
2,239503859
-3,262385521
-6,264462213
0,983259552
8,230765664
5,228042142
0,975075137
5,72185094
13,96835599
19,46457686
17,9605003
7,706113209
0,951402658
2,196355887
1,690960319
1,685203558
12,9290734
38,67255784
65,66564507
73,4083235
60,90058174
44,89240863
35,88379323
30,87472484
27,865193
30,35518748
32,09469832
24,3337158
28,07223048
102,8102332
301,2977149
540,5346672
506,7710816
23,00695011
-476,257735
-508,7729813
-290,5387957
-177,5551852
-115,0721562
-43,3397149
-35,35786709
-52,87661827
-32,64597358
-9,915937808
-12,9365154
-15,95771041
-9,229526563
-10,75196718
-19,02503523
-12,54873329
7,176936449
17,40197218
13,6263725
11,1001364
13,57326325
7,045752858
-8,482394573
-12,26117843
-0,040597678
13,17934913
21,89866387
24,36734882
16,33540673
8,302840728
10,7696544
13,23585177
8,201437264
2,166415781
-1,869207366
-1,905426421
5,307764812
14,27037296
15,98240511
12,44386875
12,40477184
5,615122767
-19,67506965
-36,46579614
-25,25704702
-12,79881216
-15,091081
-17,88384255
-14,17708538
-8,220797669
-2,264967138
2,940418894
5,145373524
4,599910267
5,304043042
9,507786176
13,46115439
14,41416281
16,36682695
18,3191627
17,02118634
17,97291452
22,42436427
23,62555296
22,07649834
20,77721849
13,97773185
1,928057182
-2,87178642
0,078220458
-2,971902455
-13,77213513
-21,07245724
-21,12284818
-19,42328704
-20,72375268
-28,52422366
-39,82467833
-44,37509478
-40,67545085
-36,4757242
-33,02589225
-28,07593225
-27,62582122
-34,67553605
-40,22505343
-36,77434991
-27,0734019
-21,62218568
-27,17067739
-36,2188531
-42,01668875
-46,81416021
-45,8612433
-32,15791375
-10,70414726
10,75008049
28,70479387
37,41001721
30,61577488
14,5720912
6,278990478
8,486496957
9,694634831
8,15342822
8,612901157
13,82307758
49,78398131
177,245636
411,7080653
578,4212926
375,8853411
-139,6497662
-435,4340063
-307,2173566
-129,9997946
-84,53129812
-39,31184519
2,908585915
-4,369983344
-6,897531801
7,075961416
9,050516875
10,02615482
18,75289517
22,48075748
19,70976098
18,4399245
19,4212665
21,15380505
26,6375578
32,122542
28,60877445
19,59627152
15,83504914
19,82512274
25,0665073
26,3092173
25,80326673
25,79866906
21,54543724
10,54358369
0,793120276
-2,205941678
-3,953591421
-8,699818779
-12,94461416
-14,18796859
-14,17987366
-15,17032163
-20,15930536
-28,39681835
-36,38285475
-47,86740937
-62,60047769
-71,33205587
-73,81214075
-74,54072987
-72,76782146
-70,4934145
-69,96750865
-66,94010432
-59,66120268
-51,88080561
-44,59891577
-37,06553658
-29,78067222
-23,24432766
-18,45650866
-14,91722175
-10,12647428
-3,584274402
2,459368938
5,004445961
5,550946072
8,598857848
11,64816904
10,94886655
9,750936465
10,30436401
9,109133558
5,16522866
2,472631996
3,281325402
6,841289858
10,90250549
13,46495157
13,52860652
14,0934479
19,15945242
23,47659595
20,2948535
13,61419924
11,93460649
15,00604775
17,57849467
20,15191808
21,97628799
18,55157359
9,627743256
-1,79523542
-11,96739565
-17,38877143
-19,80939753
-20,22930947
-7,398543538
29,68286324
78,26487311
108,3474476
105,9305476
78,01413312
40,59816373
19,18259822
20,26739474
21,85251085
14,68790347
1,773528947
-15,89065694
2,695301019
142,5313575
414,8674667
586,9535823
318,0396576
-246,3743549
-500,7885025
-332,9528336
-168,8673964
-129,0322398
-78,94741294
-40,36296521
-38,27894634
-22,44540629
-0,612395253
4,220036364
10,05183799
14,88295891
3,71334829
-4,457044812
3,371728613
9,199617534
6,776570913
10,60253773
23,92746703
34,75130793
36,07400964
29,64552153
20,21579314
15,53477419
17,85241465
21,91866474
29,23347497
38,29679615
38,10857946
32,16877645
29,47733909
27,78421976
26,58937132
24,89274714
22,6943011
23,99398764
22,04176177
12,83757913
6,131395994
1,423169301
-7,287143312
-15,49958349
-23,96419211
-38,93100929
-52,40007435
-52,87142576
-51,84510114
-60,82113724
-63,79956991
-53,03043404
-45,01376361
-44,2495916
-42,48795
-39,72886977
-35,22238084
-26,21851209
-20,71729129
-24,96874512
-26,22289916
-11,22977782
6,260595614
5,748199059
-5,016988397
-10,28498646
-12,80581361
-19,57948709
-27,10602292
-27,63543583
-25,41773929
-24,95294549
-14,99106533
-2,532108387
-8,576082942
-21,62299595
-25,17285303
-24,72565847
-25,78141523
-34,09012489
-42,65178769
-33,21640253
-19,53396694
-23,85447706
-33,6779277
-33,7543123
-25,3336229
-6,915850216
13,99901643
17,16098908
4,570081121
1,226307316
11,12968378
14,03022797
7,177958708
4,572896146
6,465061774
7,104478411
27,2411702
126,8751626
355,2564823
595,6351575
501,0112174
-33,36530725
-471,7443847
-403,1259817
-166,760064
-92,14659591
-66,28554063
-27,92686013
-26,32051521
-14,96646549
13,63533057
10,48491565
-2,167666445
6,677629194
16,02084857
15,11203877
13,2012479
7,788525152
2,373920694
10,70748571
23,53927235
23,11933372
19,94772388
25,77449777
30,34971125
29,67342103
30,24568467
31,31656056
32,38610787
36,20438657
38,77145735
38,08738164
37,90222158
35,21603996
27,27890023
21,84086647
26,40200332
40,96237603
55,27205036
52,33109258
34,13956947
20,69754822
10,25509648
-9,687717712
-22,88082596
-15,82415954
-14,26764941
-33,71122624
-47,6548205
-45,34836241
-48,54178202
-61,23500925
-64,92797389
-52,12060563
-36,56283414
-33,25458907
-35,69580006
-30,63639682
-19,57630916
-10,01546697
-6,953800315
-8,89123945
-10,32771484
-11,01315722
-12,19749759
-14,88066731
-19,56259807
-20,99322198
-19,92247158
-23,60027986
-29,02658033
-32,20130703
-36,12439457
-40,04577819
-40,71539376
-40,13317783
-42,79906767
-46,46300129
-45,12491752
-41,03475597
-38,94245713
-35,59796237
-30,25121401
-30,90215529
-38,80073048
-43,69688485
-43,34056474
-46,7317176
-48,87029198
-35,7562376
-12,38950538
6,729952576
19,10218287
27,72723085
24,60514053
4,735954609
-10,3802856
-3,743540164
8,896229405
15,28906016
22,18498768
29,83404603
59,73626776
190,1416839
456,0503238
662,2122154
454,8773848
-117,7041432
-456,0323459
-318,3572019
-125,4286916
-88,74679725
-54,31150258
-15,12279319
-28,93065642
-39,73508135
-25,03605883
-15,08358149
-11,37764377
-7,668241868
-8,205373829
-12,98903948
-14,26924049
-4,295980304
6,930735767
6,410900613
2,894505297
5,88153906
11,87198932
20,11584169
28,36307996
28,36368611
25,86764034
31,12492104
35,38550483
29,64936656
19,6664793
14,4368144
16,21034146
19,48702837
19,51684131
17,54974478
21,33570163
34,37467303
44,41661856
42,71149618
35,00926227
26,55987165
22,86327762
23,91943197
14,97828502
-4,460214359
-13,64611873
-6,329482026
4,989640454
8,56119209
3,135114969
-3,288650077
-3,710163438
4,120513311
15,70331744
21,78818513
22,37505146
24,71385049
28,0545153
28,14697799
23,74116977
16,08702099
13,68446114
20,28341896
19,13382245
5,485598896
4,588674951
16,19297666
15,54842951
8,904958491
9,012488107
12,87094246
20,73024528
26,59031997
23,70108966
15,56247728
7,424405539
4,786797049
3,149574333
-8,987340117
-25,87402379
-33,51055412
-32,6470084
-32,03346378
-39,1699972
-54,30668533
-65,44360453
-66,83083081
-66,21843976
-66,60650654
-60,9951058
-44,63431162
-24,27419753
-9,664836394
-4,056300383
-11,44866095
-32,34198877
-50,4863537
-54,63182472
-53,0284699
-48,17635639
-38,3255503
-29,72611674
3,371880281
132,2183778
378,0633142
558,6566288
351,4982624
-193,9118431
-516,0737445
-382,2374971
-183,403155
-131,3207706
-85,74039527
-32,16207855
-29,33586863
-30,0118121
-15,43995399
-14,12033773
-14,80300512
-6,987996297
-3,175349698
-2,365102064
0,692711607
0,748058076
-0,449094111
4,851225395
11,64898877
13,69417003
15,98674507
22,52669166
30,31398945
34,34862004
34,38056692
35,65981557
40,93635338
46,96016973
48,48125599
44,99960549
41,76521357
41,02807758
41,78819687
44,29557282
49,05020882
55,80211028
57,05128463
44,29774136
24,54149196
7,282549948
-5,979069127
-10,2433477
-10,26026617
-21,02980295
-33,55193442
-33,07663499
-33,10387706
-37,38363104
-28,66586538
-13,70054659
-10,48763919
-14,0271058
-16,0689071
-19,11300189
-18,90934706
-7,457897647
7,491393178
12,18857406
9,133695466
10,32680964
17,51797059
20,95723407
16,39465756
10,33030021
6,264222841
1,946487919
-0,622840495
3,556303239
10,73398631
13,16027742
15,58524674
16,00896592
-3,318492016
-28,64705263
-27,72664018
-11,05717758
-5,138586495
-8,220787375
-12,30369947
-15,13724087
-13,97132858
-12,30587854
-16,64080565
-29,97602385
-43,06144614
-43,64698463
-39,73255059
-39,3180545
-37,65340608
-38,23851435
-41,07328769
-39,40763385
-36,24146006
-21,57467302
14,84282102
36,26111622
13,43030707
-17,14951162
-23,22824479
-18,30579721
-16,38207347
-16,45697811
-8,780415602
4,897709548
19,32749276
98,25902935
310,9424144
533,1277428
455,8151092
-14,49539219
-452,8036676
-464,6096235
-259,1631671
-145,714206
-98,26264861
-64,05840384
-57,6013814
-42,14149177
-20,17864627
-34,46275712
-58,24373746
-44,02150145
-7,045964283
5,682957729
-23,58465287
-54,84871473
-41,60914779
-1,865873275
18,38118624
13,38210674
3,886962799
6,895827447
34,40877218
62,67586689
42,94717983
-9,77722244
-22,9972751
21,2870849
59,07591879
47,61928593
29,66724379
39,96984788
48,27715174
49,58920689
66,1560628
66,47776683
33,55436424
22,63589812
41,22240937
40,06393665
29,91051641
34,26218278
31,36896761
18,23090041
9,348008331
2,97031614
0,347846211
-0,019381509
-0,631349514
13,01195724
30,41055133
24,06444283
15,22363932
24,38814585
27,05796495
21,98309662
30,6635383
45,84928488
53,2903287
50,48665953
45,68826459
60,14512852
73,60723341
40,82455877
2,547081554
5,774776177
3,757614491
-9,004434188
12,23859692
33,23667207
12,98975302
-12,50220099
-9,739233193
6,778610709
15,30128256
12,07873177
-0,639094668
-26,85225215
-51,06079845
-48,26479368
-43,4643003
-65,65938304
-85,10010893
-80,78654723
-68,96876942
-46,14684916
-14,82086229
-11,99088675
-25,15700256
-10,81929183
-6,72783867
-50,38272917
-78,03405137
-47,68189524
-14,82635258
-20,21751706
-30,35548411
9,509649083
144,3777836
403,498819
644,6226529
471,2491818
-171,8716997
-618,7400983
-479,1061223
-214,969881
-163,0814855
-132,941048
-45,29868171
-22,40450138
-51,50862272
-44,36116252
-12,96223863
-1,311969876
-0,41047599
5,992122411
15,3957039
31,30014629
46,20532668
37,86112154
16,76740671
11,67405752
23,3309488
38,73795497
50,39495007
58,80180783
65,20840171
62,364605
59,27029083
75,67533225
92,07960229
75,23297402
45,88532058
55,28651527
95,1864316
95,58494334
47,98192459
24,8772498
46,2707939
62,91243228
47,80204089
15,43949629
-0,925324285
13,7074571
21,33771916
-12,78465855
-46,90979559
-34,78781059
-13,16882117
-22,80294391
-31,9402943
-10,33098666
3,024865902
-26,62284849
-49,27424038
-19,42941898
4,161507926
-28,751566
-58,41874559
-39,84013414
-11,51583335
8,05405675
15,11943777
-20,31978693
-59,51371222
-37,96243117
-6,666034992
-25,62461302
-46,08825265
-32,05703932
-22,53105646
-31,76038547
-33,99510569
-28,98529435
-30,48102654
-35,48237521
-38,48941108
-29,7522027
-6,270816344
-5,545316012
-43,57576342
-63,61221796
-41,4047367
-19,70337432
-17,25818313
-29,06921307
-49,38651163
-55,7101239
-45,0400925
-37,62645761
-36,21925696
-29,56852577
-9,174296793
15,21339971
23,09453597
10,96908675
-13,41297071
-28,55165664
-14,69698877
-3,098982319
-18,00764999
-16,17300197
24,65495403
83,97621283
207,0407717
454,0986305
640,3997914
386,4442592
-232,267959
-573,9868535
-422,9624123
-208,6946209
-117,9334623
-40,17891747
-15,43096459
-46,43957975
-22,70473662
23,02359341
3,495441265
-28,53915988
-9,580174616
11,87243471
-3,181292085
-14,24131299
4,192416122
21,61994151
9,791311494
-13,04342353
-16,38421116
-6,980996982
-0,333724649
6,307664133
11,44322955
12,32303364
15,19714027
22,81561511
30,42852557
36,78594078
45,63793156
46,98457036
31,32593124
24,91208984
44,49312332
48,56911032
18,39013094
7,456266675
34,7676004
45,32421632
18,37619991
-4,326362093
-1,033381773
3,255229963
-13,71043668
-31,18029043
-16,40423897
9,117810992
-5,364046301
-42,34971571
-38,33910123
0,167893944
14,9213674
6,171417444
13,91814307
31,41164389
32,40202015
27,3893726
33,12380252
37,60541166
25,33430216
9,56057655
11,0343377
21,50568874
20,72473306
6,19157426
-6,593683935
-0,880937666
5,579916989
-13,71101602
-27,75363276
-5,297829357
12,40649796
-11,39054717
-35,9388613
-22,98834122
-5,788883969
-9,840386897
-12,64274771
-8,695864489
-9,999635759
-10,3039605
-4,858738208
-3,413868914
-9,719253237
-20,77479242
-34,83038836
-39,38594365
-29,44136162
-25,99654636
-24,30140277
5,394163406
30,59024557
2,53693619
-35,26567318
-30,06749198
-19,86843065
-42,16840066
-57,71731457
-35,01508601
-9,311629764
1,893138227
76,59930084
312,0569397
630,5161353
666,2269668
144,6895119
-500,0961528
-610,3799521
-335,4118122
-176,4416607
-138,2194266
-81,74504039
-47,51843392
-32,0395406
-10,80829531
-22,07463448
-41,08849604
-19,84981949
-1,358545902
-11,11461794
-9,617979851
4,631422479
13,38364155
23,13872822
24,14673169
12,65769951
18,17167753
42,43870995
42,45883927
8,232106287
-6,741449899
21,78820811
43,57111598
30,8573077
18,1468155
26,18966992
42,48589976
56,03553213
52,3385924
26,39510423
10,70508956
24,76856863
43,58555999
48,40608048
39,48014524
24,30776775
16,13895981
13,47373154
11,56209143
19,65404632
27,74960142
12,09876032
-12,54847497
-19,19210406
-8,83212811
11,03145017
16,89862653
-8,980604803
-26,6062511
-6,728321108
21,65317497
28,28822549
9,1768174
-3,68106375
16,46456622
33,11369017
19,2662896
6,672344764
3,581834613
-6,505263123
-4,588971928
7,330683528
-3,496322578
-15,5700172
-2,640428373
5,542414781
-4,521517879
-11,58225751
-7,639836221
-1,944287088
1,75435592
14,95605796
31,41078333
12,86849554
-29,92084269
-30,45726937
2,259176768
2,228456322
-25,29947075
-39,82464508
-39,0971079
-31,86690096
-17,8840665
4,101352758
31,83931366
36,82977266
-8,677314157
-57,43199101
-49,68430244
-20,18429323
-17,93200838
-25,1774931
-22,67079274
-7,16195276
75,34898126
299,6119637
608,876949
697,6438914
264,4127454
-376,3165345
-552,0439938
-303,7696776
-148,7436311
-125,7158991
-67,43652642
-34,15555733
-45,12303598
-31,83900618
-10,80351139
-19,26659469
-34,22829877
-31,1886659
-25,64773791
-27,35555614
-23,81216145
-16,51759418
-12,72189412
-6,675100498
1,122748026
0,421613407
-11,77854178
-21,22775432
-12,42606034
2,126504707
0,929906063
-10,51589033
-12,4609178
-2,155208943
4,651204379
-1,291708923
-14,98397917
-31,67563591
-43,1167079
-33,55722309
-7,747208631
10,06330913
15,37430468
16,68575331
12,49763116
2,309915184
-11,87741683
-22,31438625
-16,25101363
-9,187318647
-24,62332019
-43,05903628
-37,74448413
-23,42968012
-23,8646398
-33,0493779
-33,48390835
-25,16824425
-19,85239793
-18,03638089
-11,22020389
-0,90387688
3,412590946
1,229191147
3,545916027
12,86275862
18,92971269
19,74677271
20,31393382
22,13119188
25,94854339
25,01598551
11,83351605
0,90113341
5,718836619
11,78662529
7,854499593
3,172460269
5,990508585
12,55864633
14,37687577
7,945199696
-2,486378684
-6,417855701
-1,599227266
-0,030488889
-1,961635697
2,357337542
7,926436407
9,245666793
11,0650349
14,6345472
14,70421043
5,274031576
-10,15598218
-19,08582345
-18,01548466
-11,9449581
2,125764091
23,69668988
34,51782732
25,83918455
9,660769751
-5,517408858
-16,19534305
-18,37302461
-17,55044535
-22,22759713
-30,15447187
-29,58106158
16,74264161
171,3166455
430,3909576
592,9655855
348,5405363
-217,8841827
-527,5585648
-376,7326033
-177,1562919
-122,8296243
-76,75259479
-41,17519777
-57,847428
-60,76928054
-34,44075083
-23,61183461
-27,03252802
-18,45282756
-5,872730123
-5,292232999
-6,961333893
-1,880030932
2,451677324
4,783791874
10,86631326
17,44924158
21,53257644
26,36631698
31,20046186
34,28500925
39,36995682
43,20530174
40,29104068
40,37716978
48,71368469
55,30058052
57,38785189
58,22549287
54,56349702
47,90185736
44,99056642
46,32961616
48,91899806
50,25870305
45,59872155
33,68904347
23,02965818
16,62055456
9,461720989
4,053145324
2,894814935
1,236716701
-0,42116299
-0,828838223
-4,986323562
-7,643634032
0,699214885
11,79220725
13,8853267
12,22855642
15,32187919
21,41527737
25,7587329
27,10222737
27,69574194
27,03925743
21,13275428
10,97621261
5,069612172
8,912932406
13,75615244
10,84925109
4,942206899
-1,215001878
-8,872397249
-12,78000147
-12,68783704
-17,84592668
-30,25429333
-42,16296013
-48,57195039
-50,23128762
-50,14099548
-49,55109778
-48,96161846
-51,87258159
-58,53401135
-62,19593202
-60,85836796
-61,2713436
-65,18488343
-67,349012
-65,51375389
-61,9291337
-60,09517604
-62,26190553
-67,42934676
-71,59752431
-69,26646273
-57,43618651
-41,8567201
-29,02808786
-16,95031408
-5,623422972
-5,547438633
-21,47238505
-35,6482861
-33,32516552
-25,5030469
-22,93195368
-19,86190916
-12,04293644
13,02494154
107,0917021
314,9073225
531,4717807
458,5350544
-12,65287829
-437,592039
-412,782449
-194,4741297
-104,1671017
-62,36138582
-5,307002311
6,996028774
5,297687693
24,59795501
34,39681161
32,19423869
36,9902178
40,03473082
35,82775998
36,86928786
44,15929744
48,69777205
48,7346954
47,27005161
49,05382519
55,83600108
61,11656461
62,64550156
66,17279813
69,19844097
63,9724172
55,74471436
56,2653205
62,28422412
63,55141422
61,56688028
55,08061229
41,59260076
35,60283669
41,11131163
43,61801764
37,62294734
21,3760939
-0,87254899
-9,622987042
-3,625225415
-5,129268694
-19,63512088
-33,89278538
-39,65226503
-39,66356204
-43,42667804
-53,19161402
-56,20837038
-44,7269469
-27,99734272
-17,26955638
-10,79358576
-3,569428117
-2,847080082
-11,37653764
-14,40779612
-4,690850236
4,274305963
2,987679062
-0,050723704
4,159105542
9,617175318
7,073494789
2,028073758
3,230922667
5,182052593
1,631475245
-2,670797038
-5,724751293
-11,78037394
-16,83765078
-14,14656702
-9,957107238
-10,26925545
-11,33299507
-12,64830893
-18,7151793
-30,78358788
-40,10351585
-39,17494381
-37,99785186
-41,57221957
-40,89802601
-38,47524976
-38,05386893
-34,13386115
-29,46520362
-27,54787307
-25,63184586
-30,4670979
-46,80360476
-56,6413416
-44,73028324
-23,82040419
-9,161678603
-2,754080373
-5,847583097
-16,19216012
-28,28778454
-37,38442925
-40,98206694
-43,33067013
-47,68021118
-51,53066231
-44,88199565
-4,484183221
112,162803
327,3089911
485,2044092
283,8490854
-217,0069522
-497,3636756
-374,9710569
-201,8290682
-138,9376817
-72,04686982
-14,90660511
-13,26686032
-12,87760839
-2,738822503
-7,600476089
-4,212542858
17,17500318
28,56218771
26,19903604
26,08557316
27,72182363
28,85781165
32,99356095
37,12909486
40,5144362
46,64960734
53,03463013
58,41952591
65,55431547
71,68901906
74,57365634
77,20824639
79,59280771
81,47735813
83,86191491
82,99649462
79,63111318
78,26578587
75,65052725
72,53535121
73,67027094
72,8052989
64,94044686
54,32572583
40,46114611
23,34671726
12,48244807
10,8683466
9,754420154
1,140675273
-14,72288226
-27,33624744
-27,94941599
-22,56238444
-20,92515006
-20,03771088
-14,65006569
-13,51221407
-19,12415631
-17,48589348
-7,597427392
-1,208760592
-0,069896368
-1,430838736
-4,041592432
-4,152162906
-3,512556314
-8,372779508
-12,23284003
-6,842746082
-2,952506555
-8,312130977
-13,42162952
-12,53101299
-7,890292801
-4,999480974
-11,10859012
-24,96763341
-36,82662458
-37,93557793
-31,04450824
-29,65343084
-35,26236153
-38,87131659
-42,98031276
-50,08936722
-51,19849755
-45,80772177
-44,16705824
-46,7765257
-51,13614324
-60,24593024
-69,35590642
-70,71609175
-61,82650647
-43,43717105
-21,54810616
-0,659332699
18,47912831
29,86725566
25,50502806
7,892424088
-8,97057774
-12,08399896
-4,947861136
-0,312185836
1,823005394
6,957691054
22,34184971
89,97546004
276,1085008
527,990951
547,6227896
117,0039961
-396,3654502
-476,9855694
-265,6063815
-141,977906
-84,85016252
-9,723169844
14,90305337
4,778488927
16,15311904
30,5269264
36,39989415
43,27200596
39,64324602
27,76359909
29,88305049
39,75158615
38,61919265
37,48585722
46,85156774
51,21631284
43,58008184
39,19286485
47,05465272
56,66543713
57,02521056
49,13396634
36,49169869
27,34840267
30,20407431
37,05871051
33,91230918
20,26486915
8,866390283
8,71687342
14,56632045
18,41473429
21,01211894
21,60847947
12,70382203
-1,201846099
-5,608516516
-3,516179688
-7,424824929
-12,33444039
-12,24501305
-16,6565287
-24,31897193
-24,48232615
-23,89657354
-28,81169507
-30,22767047
-27,39447828
-28,06209576
-31,73049897
-33,14966272
-28,81956059
-19,4901649
-12,16144676
-12,08337603
-14,75592133
-13,92905007
-9,852728434
-7,026921385
-10,45159268
-17,87670488
-22,55221936
-24,2280963
-26,90429474
-36,83077254
-54,75748645
-64,93439208
-52,61144392
-30,28859542
-22,21579891
-25,89300569
-26,07016605
-26,24722926
-29,92414359
-37,35085639
-51,52731404
-57,70346205
-46,87924503
-39,80460674
-47,72949015
-53,65383739
-46,57758988
-33,2506883
-17,42307264
-0,844682217
6,734544248
-0,435331368
-16,10424664
-29,02213864
-32,18894396
-27,60459876
-24,76903881
-34,43219953
-50,84401603
-44,50442313
29,58664454
212,6792526
456,0234667
511,8693526
146,2169763
-363,6835963
-486,5822996
-277,2290676
-138,6238348
