-32,76493513
-28,96747967
-26,91863508
-19,11781827
-10,06484979
-12,0095512
-21,20174517
-26,6412556
-27,07790766
-27,01152796
-25,94194461
-24,3689873
-33,54248744
-49,71227822
-44,87819471
-21,54007396
-15,69775509
-27,35107937
-30,99989032
-29,14403379
-30,28335805
-27,16771386
-14,04695457
4,0790638
15,2104825
18,84743994
21,74007168
18,63851027
10,29288524
5,453323031
1,119946895
-5,457123144
-11,52777036
-16,84188136
-14,8993462
-0,450058369
10,00608512
-15,78081631
-85,31066685
-104,0833743
107,4011497
561,1429899
918,8922274
791,3989393
258,4131989
-149,8149243
-144,2853647
3,751939435
25,5470459
-4,649991441
-0,839122668
0,979698193
1,056513161
15,3913603
28,4842737
39,58528351
51,94441593
58,81169321
65,43713368
77,07075175
87,21255793
97,36255885
115,2707573
136,1871522
153,1117388
168,7945083
186,4854485
203,6845432
213,3917728
211,8571139
203,3305396
186,5620193
155,3015191
111,7990017
58,05442615
-2,932251589
-52,66107895
-78,38210658
-88,09538829
-92,55098098
-99,24894462
-107,9393421
-113,1222394
-115,7977052
-116,7158109
-114,3766307
-113,7802416
-119,426723
-127,3161568
-133,4486274
-138,0742216
-138,9430283
-132,3051388
-123,4106465
-121,7596469
-124,1022373
-121,6885171
-117,5185875
-116,8425514
-113,9105134
-106,9725798
-107,7788583
-115,0794581
-111,3744899
-97,91406541
-90,69829785
-88,47730143
-86,7511915
-90,27008437
-90,53409728
-79,04334834
-69,29795641
-71,29804105
-77,54372246
-82,78512139
-79,52235907
-58,75555714
-33,48483758
-20,21032265
-13,43213482
-11,40039666
-24,61523083
-48,32676001
-66,03510677
-70,24039357
-67,19274268
-65,3922761
-64,08911551
-59,03338221
-58,22519705
-93,16468037
-164,3519519
-132,5371309
185,2796642
686,3483156
938,6687065
649,4907207
81,56424303
-221,3608408
-134,784644
-10,45727872
-27,8788561
-46,79948605
-20,96927729
-21,1383373
-28,80677225
-11,224687
6,357815005
16,94063172
29,77366257
38,10680851
45,43997201
55,77305713
60,60596958
66,93861668
83,77090748
100,8527527
114,684065
129,5147585
142,5947494
157,1739557
171,0022972
169,0796957
153,4060748
131,2313602
90,55547941
32,12836208
-20,05006022
-57,97985385
-88,91108314
-109,8438104
-117,2780957
-115,4639972
-112,1515709
-112,5908707
-107,2819484
-92,97485349
-86,91963357
-90,36633399
-87,06499797
-76,26566659
-67,21837879
-60,17317138
-52,63007901
-48,83913423
-51,80036743
-55,2638069
-51,47947882
-46,69740727
-53,91761423
-69,39011963
-77,1149413
-73,59209507
-69,0715947
-68,55345198
-70,03767667
-71,5242766
-71,51325762
-71,00462368
-69,99837683
-63,74451722
-54,2430432
-52,49395127
-59,24723615
-61,00289079
-53,01090645
-47,02127265
-44,53397729
-37,0490066
-33,56634526
-42,83597635
-50,60788147
-43,13204072
-24,15843273
-5,937034757
2,282177326
4,499228977
8,214146942
7,676959217
-2,112304993
-14,40361531
-26,44694024
-40,9922472
-49,78950254
-45,58867165
-40,63971891
-41,94260782
-50,74730099
-100,0537602
-178,3619464
-117,1718198
238,76666
718,2035342
892,3888447
554,3226337
27,0049442
-195,5641803
-87,88469602
-2,206558514
-44,27972307
-66,35414461
-43,92977772
-33,75657669
-24,08449558
-4,913488246
5,756491655
12,9254906
22,59355517
29,26073205
41,42706793
60,84260955
71,25740364
74,92149684
90,58493577
113,4977669
129,6600367
144,3217912
160,9830766
175,3939387
184,054423
180,714575
168,6244397
151,7840619
118,193486
65,1027562
11,51191627
-26,32899041
-51,16992083
-73,2608324
-88,10168294
-87,44243075
-83,28303455
-84,62345355
-81,46364745
-72,55357644
-66,14320123
-61,73248307
-55,82138374
-49,90986555
-46,2478914
-43,33542475
-39,92242964
-36,5088707
-34,09471318
-36,42992293
-42,0144664
-42,09831069
-34,68142352
-28,51377328
-31,09532898
-37,4260603
-40,00593757
-41,83493183
-46,16301475
-48,7401587
-48,81633676
-50,14152268
-51,4656909
-51,03881661
-51,11087567
-50,93184466
-47,2517009
-43,07042242
-44,88798798
-53,45437708
-61,51956996
-61,83354758
-58,39629166
-58,95778468
-60,26800986
-58,07695118
-59,38459336
-65,94092191
-68,24592308
-64,54958391
-61,35189219
-62,65283649
-67,95240614
-70,00059127
-60,29738274
-43,34277225
-34,13675221
-34,67931586
-33,47045718
-31,01017096
-37,79845274
-50,58529884
-54,87070636
-48,40467317
-44,93719792
-48,46828001
-46,99791961
-40,27611765
-40,30287582
-65,07819657
-126,8520831
-136,6245393
89,85443021
546,3348199
880,0666238
740,799835
241,784446
-124,4795515
-117,7421663
-1,003408084
-8,013287055
-48,02181414
-35,7790009
-22,28485953
-26,03940282
-20,79264418
-3,044597623
14,70472228
23,7053004
29,70712105
44,21016802
61,71442459
71,46987353
80,72649716
98,48427731
117,9931954
133,2532324
149,7643689
169,276585
185,0398607
195,8041753
201,3195081
194,8358378
176,6031432
150,3714024
111,3905936
59,6606946
9,181683032
-28,54646362
-58,77376805
-85,50025306
-97,72594161
-95,20085672
-95,92502151
-103,8984591
-108,6211928
-110,3432457
-111,564641
-109,785402
-106,2555517
-101,9751133
-99,44410966
-99,9125638
-97,38049847
-95,09793634
-98,81489991
-96,78141154
-86,74749342
-84,21316753
-89,17845568
-91,14337944
-89,35796017
-85,57221899
-80,78617677
-78,99985412
-80,4632714
-79,92644868
-75,63940577
-70,35216218
-64,81473712
-62,52714951
-66,98941797
-65,70156082
-52,66359605
-46,62554136
-51,58741412
-51,2992314
-47,51100995
-49,47276619
-49,93451626
-43,14627598
-34,85806083
-29,31988602
-29,03176645
-33,99371672
-33,70575113
-23,41788369
-14,63012814
-13,09249794
-13,55500626
-13,51766604
-11,23048992
-5,443490331
-0,656679428
1,879930851
4,4163288
8,202502933
18,73844197
32,27413485
37,05957068
38,84473878
41,37962862
30,41422986
11,69853233
8,232525973
13,76620091
10,0495474
3,082555801
-4,884783379
-21,60247953
-35,32054194
-51,53897978
-104,0078022
-122,727018
78,80336361
508,583334
831,6128843
701,3920058
211,6706899
-162,051072
-164,7732885
-40,99596791
-37,46911881
-76,69274953
-63,41686842
-42,89148375
-39,86660376
-32,09223667
-20,56839061
-11,54507369
2,977706039
21,24994057
35,27162194
44,54274228
49,56329373
55,58326854
74,85265899
106,6214575
133,1396564
144,1572483
147,6742258
156,1905817
170,9563087
178,9713997
171,7358478
155,2496462
130,7627881
91,27526697
40,28707638
-10,70178997
-52,44133817
-79,43157418
-94,92250377
-104,1641325
-111,1564658
-119,1495088
-121,3932665
-115,6377437
-110,8829449
-107,3788744
-102,8755362
-100,3729341
-96,87107177
-89,61995239
-82,36957901
-77,61995435
-74,37108088
-69,37296075
-61,62559583
-56,62898771
-57,63313764
-60,63804659
-62,3937152
-59,90014381
-50,40733243
-40,41528075
-39,17398814
-44,43345364
-46,94367598
-45,70465354
-44,21638439
-39,97886626
-37,74209656
-46,25607238
-57,27079047
-62,78624727
-68,0524389
-71,06936116
-64,08700953
-50,35537919
-40,624465
-42,39426153
-51,41476304
-55,43596352
-50,45785664
-43,73043582
-41,25369418
-41,27762458
-40,30221962
-38,32747163
-42,60337272
-56,37991472
-58,90708924
-32,68488767
-3,963301171
-0,49232069
-0,021936971
13,94785944
13,9170782
-7,86427087
-25,39617776
-27,4286323
-19,21162416
-9,99514283
-9,77917769
-12,81371796
-8,098752733
-10,13427097
-52,42026151
-120,7067131
-73,49361434
248,4690462
722,1812802
925,3930993
608,6045152
71,06553978
-181,223815
-89,76353721
9,946385291
-12,09403538
-24,13478699
0,824142717
1,5327661
-0,258904439
20,19914357
34,15692265
33,11444539
36,07172443
48,77877249
60,98560233
67,44222677
76,3986587
91,60491108
107,8109969
122,2669293
133,2227213
144,1783863
160,6339374
172,8393881
166,2947517
149,7500418
140,455272
124,910456
81,86560736
23,32074008
-33,22413195
-84,76899473
-123,0638341
-144,858636
-158,153386
-167,9480699
-177,492673
-183,5371808
-178,3315788
-168,625852
-163,1699857
-155,4639649
-143,2577746
-135,0513997
-132,0948249
-130,6380349
-127,6810143
-116,7237477
-101,5162196
-92,30841437
-85,85031629
-79,64190967
-76,93317873
-72,22410764
-65,51468056
-63,80488157
-63,34469478
-61,38410425
-60,67309406
-56,46164827
-48,49975099
-45,53738632
-46,32453841
-43,86119148
-37,89732978
-31,43293764
-25,96799948
-23,50249983
-26,5364233
-29,56975464
-25,35247875
-18,13458067
-14,6660456
-14,19685892
-14,72700621
-13,50647327
-8,285246103
-9,063310955
-21,84065433
-24,11726299
-0,893123989
23,33177533
29,55744732
31,533904
37,51115705
33,7392178
16,46809723
-0,552194084
-9,321645935
-9,340248534
-5,357992503
-4,124868894
-4,140869197
-6,155985355
-27,92020977
-90,68353532
-137,6959554
12,54253628
445,7819452
884,0222767
888,2635352
406,755725
-83,50115045
-177,257088
-40,01208519
0,983859998
-41,51925103
-43,77141738
-31,52263873
-31,02291529
-16,52224786
-1,270637748
-3,01808685
-4,764597606
5,739826994
22,7451834
39,00146753
48,75867475
52,51679986
57,27583716
65,53578039
75,79662279
89,80835703
107,5709753
120,5844693
125,5988302
130,3640486
134,3801148
125,8970184
98,66474872
53,68329448
-1,547355978
-50,52721478
-86,0062945
-112,9846081
-131,712169
-139,188991
-137,4150883
-133,6404754
-132,8651674
-132,8391796
-128,8125275
-122,0352273
-117,5072954
-113,2287482
-104,199603
-91,66987684
-81,13958741
-75,35875254
-71,57739035
-67,79551924
-64,26315782
-56,98032499
-45,44703984
-41,91332171
-51,62919014
-61,84466487
-63,55976584
-57,27451319
-46,2389272
-39,20302835
-39,41683727
-40,63037475
-40,59366171
-39,30671923
-34,76956848
-28,48223079
-23,19472758
-19,6570804
-20,11931087
-23,58144073
-23,54349178
-19,25548593
-16,71744513
-16,67939142
-15,39134688
-14,10333366
-15,81537393
-21,27748993
-26,23970391
-17,70203814
5,585485071
17,87284341
8,660014577
4,946976248
13,98370613
10,27018193
-8,943618603
-26,4077177
-38,12213754
-43,58690026
-41,05202795
-35,51754262
-31,73346622
-34,6998206
-64,66662753
-129,6339087
-132,6016856
103,4300203
566,4611877
900,9917954
746,0218224
225,5512479
-144,4199488
-130,8917882
-12,11429048
-14,33747583
-43,56136405
-31,28597477
-29,51132733
-31,48744084
-11,96433411
3,557974307
7,829466201
15,60012366
24,86992911
36,38886532
54,40691542
68,92406294
72,69029177
74,20558622
85,21993102
106,2333113
127,4957128
143,0071215
151,767524
153,5269074
150,7852592
143,2925675
125,798821
95,55400886
54,05812086
2,811147321
-52,18692081
-97,186092
-123,6863741
-135,6877743
-139,9402991
-138,9439545
-135,9487457
-133,9546774
-130,2117533
-121,2199766
-109,7293499
-103,739875
-103,7515528
-100,5143838
-92,52836745
-85,29350277
-77,80978783
-67,57722005
-61,09579605
-67,36551176
-78,38636232
-78,40834215
-69,93144489
-65,45566347
-67,23099005
-69,00741606
-67,28493218
-64,81352836
-65,84319384
-65,3739171
-57,15568594
-51,68848744
-58,22230796
-65,5071332
-63,79294815
-62,07973716
-63,86748388
-59,40617135
-52,69578196
-51,73629747
-48,27769903
-38,56996722
-31,36308202
-29,65702285
-30,20176857
-33,74729754
-39,79358758
-37,34061601
-16,88835969
11,31320499
28,26410209
29,7143561
20,66399189
2,113034734
-18,68848972
-27,74055549
-25,54313626
-25,09620541
-28,64973602
-29,20370092
-25,00807267
-20,81282361
-39,36792587
-99,6733514
-109,979072
112,7149408
558,6587155
877,8522806
722,7956649
217,4888972
-136,0679936
-112,8749786
6,317970934
-4,48911591
-41,54621027
-28,10328328
-22,16030611
-25,21724998
-7,524086213
11,16921379
18,36267852
28,30633635
41,0002155
49,69434404
59,88874991
74,58346082
91,02850434
107,9739078
120,6696983
127,3659029
138,3125481
157,0096603
173,4572658
185,1553904
188,6040598
170,8032992
136,7531338
96,95358809
42,65468664
-16,14354652
-55,44108766
-86,73791338
-123,5340006
-147,8293267
-150,8738694
-148,4176066
-150,9605168
-153,502579
-151,0437722
-147,3340762
-143,123471
-132,4119371
-119,9494555
-116,2360074
-116,0215747
-110,0561396
-101,5896848
-98,37219366
-103,1536497
-105,6840371
-96,2133406
-86,74154526
-86,0186368
-81,79460141
-71,31942581
-67,34309725
-68,61560356
-64,38693308
-58,40707474
-57,92601803
-60,44375304
-62,71027042
-60,72556143
-52,48961793
-47,25243241
-49,51399796
-50,5243083
-44,5333578
-33,79114147
-26,04765496
-27,80289458
-31,80685733
-27,55954085
-17,31094347
-5,061064221
7,190097205
11,4425404
13,69626427
25,20126701
25,4575461
4,215098325
-10,02608026
-8,265994317
-7,004649211
-4,492051041
4,771793378
10,28687651
5,553190095
-22,17927484
-85,16052799
-97,89057976
119,6305587
576,1528756
924,4263585
777,200994
228,4767682
-187,4963334
-183,4683261
-32,68922582
-12,15904924
-43,12781358
-35,84553672
-40,56223719
-50,0279341
-28,74264718
-8,706396759
-6,169203717
2,868910497
18,1579239
30,44781397
49,23855769
70,78013155
81,32251156
87,3656733
97,65959187
111,454242
134,499598
163,2956339
179,8423232
185,1396392
189,4375548
182,9860428
158,5350755
122,0846252
72,63466375
10,68516297
-47,76390555
-87,46257035
-107,1608601
-112,1088036
-110,8064296
-111,253767
-111,9508448
-111,8976918
-115,844337
-116,7908091
-107,7371371
-99,43334943
-97,62947483
-95,07554169
-90,52157829
-86,71761275
-84,41367296
-86,3597866
-86,55598112
-80,25228371
-77,69872126
-77,89532039
-69,09210739
-59,53910822
-61,73634849
-65,93385345
-63,38164797
-60,82975652
-60,27820316
-57,47701153
-56,92620483
-63,37580581
-68,57583678
-65,52631956
-56,47727549
-47,67872542
-46,38068973
-50,33318825
-53,53624033
-58,23986477
-65,19407987
-70,64890338
-72,60435253
-67,56044398
-55,76719388
-45,9746178
-41,18273078
-36,39154729
-31,60108126
-32,31134607
-41,52235452
-54,73411887
-62,94665082
-61,65996152
-56,12406157
-53,088961
-49,5546693
-45,27119542
-60,23854775
-119,4567341
-169,6757619
-29,89563787
393,1336318
834,1620413
854,9395855
385,9662598
-103,2579401
-192,9830177
-46,70897624
-4,935818287
-51,16354596
-45,8921609
-19,12166423
-18,3520566
-14,08333818
1,684491362
10,7014328
17,46748741
29,2326569
41,99694346
54,51034975
69,02287884
85,03453428
100,2953201
115,5552406
133,8143008
156,8225059
181,0798617
201,0863742
214,5920502
217,0968964
207,8509204
192,1041299
163,6065331
113,6081386
50,85895541
-7,641007085
-50,64173913
-76,1432306
-87,39547096
-86,89844933
-82,65215446
-85,15657474
-88,16169822
-81,41751258
-72,17400518
-67,68116302
-66,93897281
-72,69742092
-83,95649339
-88,71617599
-80,97645417
-69,9873131
-65,49873767
-68,5107125
-76,77322195
-86,03625013
-87,54978092
-84,56379796
-90,82828467
-100,5932243
-101,1085998
-99,12439411
-100,8905899
-98,65716964
-92,17411577
-92,19141055
-99,45903612
-102,4769745
-96,2452078
-87,0137178
-81,03248642
-79,30149548
-77,8207268
-74,0901622
-71,10978351
-68,62957262
-62,14951144
-54,41958197
-50,6897663
-46,96004662
-40,48040524
-35,75082463
-33,2712874
-30,04177634
-27,31227446
-26,08276494
-25,10323123
-25,12365702
-26,89402624
-28,91432314
-25,43453224
-9,704638376
11,52537327
25,50551717
32,73580745
33,46625786
21,44688176
2,427692086
-8,591298612
-7,860078223
-3,628635076
-1,896957945
-3,665036065
-5,43285914
-3,700417348
-17,21770135
-75,23470231
-119,2514119
33,7321778
457,4660741
870,9502837
860,4348131
400,9196681
-45,59514615
-117,3596248
7,626236494
29,36244139
-17,15100681
-10,66410537
8,823147974
3,810754995
7,548716978
21,28703474
22,02570862
17,01473852
22,25412389
34,99386374
49,48395669
66,4744009
81,9651942
92,456334
103,9478174
121,939641
144,1818013
165,4242943
181,4171159
186,4102614
178,9037263
168,3975055
156,3915937
130,3859856
85,88067567
28,12565811
-31,62907293
-74,38352342
-96,38769943
-112,3916071
-122,6452526
-121,1486422
-120,9017821
-127,1546786
-127,4073377
-120,6597656
-114,4119684
-110,1639521
-110,1657224
-113,6672851
-111,9186457
-104,6698097
-99,17078227
-93,92156838
-89,17217285
-90,42260022
-90,42285479
-82,67294062
-77,92286148
-79,92262083
-78,67222186
-73,67166745
-72,17096014
-72,92010215
-70,41909537
-64,41794134
-59,66664124
-59,41519592
-59,91360585
-57,16187113
-52,90999151
-50,15796637
-49,40579472
-49,4034752
-48,90100608
-45,39838528
-35,64561034
-25,39267846
-24,88958649
-28,88633091
-28,63290789
-29,37931324
-32,62554249
-33,8715908
-34,61745307
-33,3631239
-28,35859758
-26,10386816
-28,59892943
-27,84377493
-21,08839797
-16,33279165
-21,32694887
-34,07086235
-40,56452463
-33,80792812
-28,55106508
-31,04392766
-29,78650791
-26,02879781
-26,27078925
-26,26247411
-20,00384423
-4,994891426
8,514392449
6,274015523
-0,216014125
3,544311515
1,055000368
-17,18393974
-27,42250113
-20,66067621
-18,89845761
-23,88583809
-21,37281062
-18,85936837
-18,84550475
-16,33121338
-45,31648817
-119,0513233
-101,2857132
194,4803474
678,2468634
931,7638395
664,7812799
127,2991885
-166,682431
-100,9135754
7,605758054
-5,37442813
-23,60413189
-2,833351547
0,187914157
-6,540333914
5,731904686
24,00462999
38,5278416
51,80153872
57,32572011
60,60038412
75,37552866
92,40115123
103,1772489
117,7038184
134,7308558
148,7583571
166,0363177
181,3147326
183,5935963
178,1229031
171,4026469
160,9328211
141,4634188
105,7444327
51,77585509
-8,442321909
-58,16010668
-94,12750789
-122,3445345
-141,8111959
-147,7775016
-143,9934615
-145,2090858
-156,174385
-162,3893699
-156,8540513
-145,5684405
-132,532549
-128,2463885
-141,2099708
-149,9233081
-137,1364127
-121,0992971
-111,8119739
-103,2744561
-98,2367565
-92,6988884
-82,16086507
-78,12269995
-80,83440663
-76,04599878
-65,50749024
-61,96889493
-64,43022687
-63,64150018
-61,1027291
-62,56392793
-61,52511106
-51,73629295
-44,94748815
-46,15871128
-43,61997701
-37,33130008
-34,29269531
-31,25417755
-27,96576171
-29,17746277
-28,88929575
-22,35127572
-18,56341778
-17,77573711
-7,988248904
6,799031585
10,58608907
4,872908213
1,65947365
-0,054230029
-3,518218272
-5,232506562
-5,197110418
-3,412045394
6,372672924
26,65702892
41,94100693
38,9745913
33,0077663
33,04051621
20,32282527
-3,395322283
-12,61394226
-9,08305046
-7,802662711
-4,522794842
1,006537311
0,78531791
-1,186468878
-6,408838877
-46,1318079
-123,1053917
-95,32960616
225,4455331
736,4700103
996,2438099
699,7669162
117,2893137
-188,1890131
-98,91807952
18,85209907
-10,87849252
-47,85986938
-39,3420465
-40,07503873
-40,05886079
-23,54352724
-18,77905249
-31,01545077
-37,00273611
-33,49092238
-26,23002321
-9,470052011
8,288978043
15,29705402
26,55416326
50,81029336
74,06543224
93,06956809
115,5726894
138,0747851
150,8258443
152,0758566
144,8248119
125,8227004
88,56951297
34,5652406
-26,94012517
-81,69659239
-116,7041687
-132,4628611
-135,4726765
-131,2336209
-131,9957002
-138,7589195
-134,5232835
-120,5387965
-114,3054621
-114,8232835
-111,3422632
-103,1124035
-93,38370565
-86,65617076
-86,1797992
-84,95459079
-77,9805448
-73,00765993
-70,0359343
-59,81536547
-48,34595042
-45,87768554
-44,91056667
-38,44458908
-32,97974745
-28,76603592
-22,80344805
-22,84197687
-28,13161482
-26,17235383
-18,96418528
-18,25710001
-20,55108836
-16,34614014
-9,642244647
-8,439390711
-10,48756666
-7,036760357
1,413040799
3,611849853
0,309680286
1,006546
0,702461303
-8,852559103
-19,40850014
-19,21534636
-16,77308199
-23,8316909
-30,64115665
-29,70146252
-28,5125915
-28,32452631
-27,63724942
-28,95074308
-28,01498934
-22,82997004
-18,64566684
-16,96206126
-17,02913466
-16,34686829
-10,9152433
-5,98424075
-7,053841618
-5,374026845
2,305222667
8,983926036
17,91210238
27,33977079
26,76695035
25,69366007
31,61991892
25,29574578
3,471159431
-8,603821438
-6,429178263
-7,254892616
-13,33094621
-20,65732092
-30,98399878
-43,31096201
-74,38819303
-145,7156744
-183,7933891
-10,1213199
427,3005498
844,7222364
835,3937564
369,8151258
-88,76363977
-169,0925246
-49,17151347
-29,75059131
-73,57974334
-63,15895504
-42,23821215
-47,81750063
-44,14680675
-26,97611697
-16,05541806
-7,634696993
3,786058998
14,45686244
25,87772565
41,79866069
63,21967941
86,14079347
101,0620143
111,4833532
129,1548211
149,076429
162,9981876
174,4201074
179,8421988
169,5144722
149,9369376
127,3596051
91,28248461
40,705586
-13,87108097
-67,69750661
-111,7736813
-133,5995954
-136,1752393
-132,2506035
-130,0756784
-131,9004545
-132,4749221
-125,7990717
-113,6228936
-103,446378
-100,0195152
-98,84229523
-92,91470824
-84,73674413
-79,05839272
-70,87964372
-58,70048671
-51,27091115
-50,09090631
-47,66046135
-42,22956524
-37,5482068
-34,11637466
-32,43405729
-36,25124295
-42,56791974
-43,88407554
-41,44969805
-40,76477477
-41,329293
-39,64323982
-35,95660213
-32,76936662
-32,33151979
-33,14304791
-29,45393708
-24,01417319
-24,32374194
-25,63262886
-19,44081926
-9,248298308
-5,055050976
-6,861062079
-6,416316271
-3,470798056
-1,524491794
-0,827381709
-2,879451903
-5,430686361
-3,981068962
-0,280583493
3,670786343
7,623056914
7,576244646
2,280366013
-3,76456248
-7,058524307
-7,101502935
-6,393481839
-7,184444517
-7,224374503
-6,513255383
-9,551070808
-17,33780451
-24,62344033
-24,1579622
-14,44135419
-4,723600526
-3,004685578
-2,284593897
1,436689772
-5,59081952
-27,61710695
-43,14215792
-40,1659581
-39,18849344
-53,70975015
-65,22971475
-61,49837408
-53,51571531
-58,53172595
-107,0463939
-183,3097073
-123,3216549
225,9177743
693,1585908
858,9008049
529,8944262
22,13946388
-195,1140732
-107,3661767
-47,61683886
-95,6160523
-106,6138102
-82,61010617
-83,60493447
-74,59828978
-45,34016736
-32,83056299
-29,819473
-18,3068943
-10,29282431
-2,77726105
18,4897969
43,2583504
62,02839972
82,29994458
103,8229841
119,5975168
132,3735406
151,401053
178,9300507
200,71053
201,7424864
186,775915
166,3108104
139,3471664
98,38497623
41,17423278
-17,03507181
-55,74294592
-75,44939848
-90,65443898
-105,6080775
-111,5603246
-106,0111914
-97,71068952
-92,90883126
-91,60562928
-88,05109683
-79,24524765
-71,43809598
-64,62965659
-54,31994471
-45,75897607
-43,19676687
-42,63333378
-41,56869395
-40,25286498
-35,18586489
-23,6177122
-13,29842582
-14,47802511
-20,90652985
-23,08396023
-28,51033685
-38,18568071
-38,11001322
-28,28335616
-25,7057317
-37,12716238
-49,29767112
-51,71728118
-50,88601621
-50,30390017
-45,7209574
-45,63721255
-54,55269061
-57,46741692
-53,63141709
-51,79471709
-43,20734317
-30,3693219
-29,28068013
-37,69144502
-42,35164399
-39,26130477
-35,42045534
-30,82912396
-17,98733915
-7,645129687
-13,0525246
-20,45955315
-14,36624487
-4,522629492
-6,178736994
-16,83459757
-26,99024162
-27,39569977
-8,301002836
16,79381818
22,88873207
16,73370747
10,57871282
-7,076283579
-31,7313136
-43,13640926
-42,7916027
-41,6969262
-42,10241217
-43,00809311
-42,16400162
-38,32017041
-41,72663224
-82,13341996
-151,7905665
-101,9481047
243,8939324
748,4855119
949,8266007
594,4171658
23,75717441
-227,1534065
-118,3146098
-13,47646817
-39,13901442
-51,80228111
-28,21630073
-29,38110563
-29,796728
-8,96319986
5,369446946
12,20118079
22,53197027
25,61178424
23,19059179
33,01836231
52,34506551
66,92067139
79,49515032
99,06847302
118,8906106
128,7115346
136,2812168
149,5996298
159,4167464
159,2325398
152,546984
136,3600533
102,1717226
51,23196744
-4,959236153
-57,90191148
-102,3460812
-130,7917675
-141,9889916
-143,9377742
-143,8881354
-141,8400944
-136,5436697
-131,4988792
-126,7057399
-118,914268
-109,3744789
-100,8363873
-96,30000688
-92,5153507
-84,23243081
-79,45125846
-80,92184399
-75,39419688
-61,3683257
-53,84423813
-54,32194091
-47,5514399
-36,03273999
-34,26584518
-34,2507585
-27,98748206
-26,22601702
-28,96636359
-26,70852104
-22,45248771
-22,19826095
-23,69583721
-23,19521196
-17,94637976
-10,44933421
-10,95406799
-18,46057285
-19,21883962
-12,47885822
-9,240617658
-8,754106045
-4,269310605
-1,286217687
-1,054812769
2,174919524
1,652995414
-4,370568048
-7,395752995
-8,672540754
-10,70091186
-12,23084609
-14,26232245
-7,045319192
13,17018612
21,88421667
12,09679629
4,807949514
-5,482298485
-34,7739219
-62,81689431
-68,8611887
-67,65677749
-70,95363254
-72,50172516
-77,3010262
-88,85150596
-101,6531343
-141,7058807
-205,759714
-138,064603
220,1294843
705,82258
885,5147165
540,9559267
-0,853756287
-231,9142991
-126,7256682
-41,78782969
-79,60074946
-94,4143933
-71,72872681
-69,54371543
-67,8593245
-52,17551925
-39,49226483
-26,80952634
-9,87726883
3,554542655
14,73594308
28,66696737
42,34765044
55,02802711
73,20813215
99,88800021
127,8176658
148,9971634
165,9265273
182,1057914
192,2849898
194,2141561
189,8933238
172,0725261
135,0017961
84,6811664
28,86066953
-22,20966241
-58,02979757
-79,09970447
-88,66935192
-88,73870914
-89,55774569
-94,62643151
-92,94473695
-85,01263276
-83,83009012
-87,64708065
-85,9635764
-79,02954989
-67,84497411
-53,40982255
-49,97406918
-62,28768846
-67,10065542
-53,66294556
-43,47453497
-47,78540026
-51,34551863
-46,65486782
-44,46342619
-46,27117267
-43,0780868
-37,63414874
-38,43933926
-45,74363978
-56,04703235
-60,34949967
-54,90102513
-53,70159274
-58,50118724
-51,79979401
-37,34739915
-36,89398946
-45,43955246
-43,73407635
-37,2775501
-38,06996337
-39,86130659
-37,15157091
-35,94074824
-34,97883124
-28,26581333
-22,8016887
-26,0864523
-29,87009985
-24,90262784
-12,43403356
4,03568494
19,50652882
27,22849847
24,95159347
12,17581263
-5,098846017
-11,87238523
-8,144808558
-7,916120317
-10,93632561
-9,45543031
-6,473441068
-6,990365296
-23,50621117
-79,77098763
-119,5347044
38,95262823
463,940999
866,6803959
832,4208065
346,6622175
-106,3453853
-164,6020165
-35,60769146
-21,8624263
-69,1162377
-61,869143
-46,37116018
-50,87230782
-48,37260509
-43,87207176
-40,87072815
-27,11859513
-11,36569411
-2,862046993
7,6423238
22,39739538
34,40314441
47,15954711
67,41657926
91,92421627
113,1824332
131,1912046
150,7005049
166,7103081
172,2205879
170,4813178
157,7424708
120,5040201
61,26593836
-1,471801859
-53,95922814
-92,94636822
-122,6832499
-149,4199013
-170,4063502
-173,3926248
-159,6287533
-149,3647637
-149,3506842
-146,8365428
-137,5723676
-128,5581865
-122,5440274
-115,0299181
-104,5158863
-97,25195928
-92,48816448
-81,72452902
-68,2110798
-63,69784353
-67,18484667
-65,17211542
-53,65967572
-44,14755322
-42,63577326
-43,37436086
-43,36334073
-42,1027372
-39,59257428
-37,08287557
-31,5736643
-24,81496331
-25,80679502
-32,29918143
-34,04214412
-29,78570421
-22,52988239
-17,02469886
-17,02017336
-15,26632517
-11,01317304
-17,01073526
-28,0090296
-25,75807331
-16,75788311
-12,00847523
-1,009865323
16,23793148
24,73490059
19,23102799
2,226300219
-13,77929563
-15,03577187
-10,54314026
-12,80141196
-15,31059755
-10,57070701
-5,081749721
-14,84373447
-57,85666941
-116,8705621
-68,13541954
237,098752
695,8319469
913,0641599
626,2953868
96,27562372
-168,2451325
-82,26688431
13,71036644
-20,31338142
-44,33812841
-22,61387438
-21,89061849
-35,16835926
-29,6970945
-12,72682136
0,742463703
5,710764928
3,67808724
3,89443626
15,85981831
35,32424042
49,2877103
61,00023641
79,96182788
100,4224946
118,632247
136,3410966
147,2990552
148,5061356
145,9623512
140,4177162
120,3722454
75,3259544
14,77885948
-39,51902235
-81,56767338
-119,1170752
-148,6672087
-160,9680541
-159,2695908
-152,0717977
-144,8746529
-141,4281338
-139,2322172
-133,2868793
-125,8420955
-118,8978407
-109,9540889
-104,760814
-108,3179887
-110,1255854
-103,6835761
-95,24193174
-87,55062316
-79,10962044
-70,91889316
-65,97841042
-65,28814082
-65,34805247
-61,40811305
-54,2182898
-49,27854954
-47,58885869
-47,1491833
-47,70948909
-47,76974142
-46,82990536
-45,13994569
-41,44982696
-38,25951344
-38,81896923
-40,12815823
-40,68704418
-39,99559069
-29,05376128
-6,611519367
10,33117167
14,52434847
17,96804768
18,41230593
-0,892840243
-30,69735436
-43,00120006
-38,05434113
-35,10674153
-32,90836539
-30,45917709
-43,75914125
-65,80822278
-90,85638687
-139,1535991
-124,9498253
134,2549683
591,2108148
866,9177473
657,1257981
143,0849992
-176,9546181
-128,2430227
-13,5301845
-31,31607358
-61,85066084
-39,38391772
-27,41581633
-30,44632944
-20,72543048
-8,753093596
0,720706347
17,19599376
31,92279228
39,15112482
52,63101345
72,8624795
86,09554346
91,83022499
99,06654292
113,8045152
139,2941591
167,2854907
180,7785254
180,2732777
177,7697613
172,7679888
158,7679719
131,2697215
85,52324758
30,27855912
-14,46433581
-47,20543007
-76,94471746
-98,43219273
-105,9178516
-105,4016906
-100,6337073
-91,61390035
-84,34226911
-81,56881401
-80,7935364
-82,01643855
-82,4875237
-79,20679601
-73,67426058
-65,88992344
-58,60379153
-61,56587273
-70,77617583
-66,48471056
-52,9414875
-53,3965182
-64,84981506
-72,80139139
-82,25126138
-90,94944012
-82,64594353
-66,59078843
-64,0339925
-72,47557424
-81,41555302
-85,85394904
-83,04078331
-79,72607768
-84,1598548
-92,59213811
-97,77295184
-94,95232103
-80,88027146
-61,05682968
-44,98202299
-33,90587942
-23,82842774
-17,24969744
-22,4197187
-35,58852239
-44,75614007
-47,67260396
-47,58794694
-47,00220253
-46,16540484
-41,57758865
-37,23878927
-53,64904265
-109,0583853
-144,2168541
15,1255132
446,4686786
861,0626036
817,9072491
307,2525756
-158,6514569
-207,8048886
-45,9577604
2,639886673
-40,26198889
-47,6634289
-35,56447547
-32,21517103
-17,36555823
3,984320017
15,08442058
23,18470014
33,53511523
40,13562222
48,73617738
65,83673691
82,93725691
97,78769349
119,1380027
141,7381408
155,3380637
168,1877278
186,5370895
198,6361052
199,2347316
197,0829256
189,4306442
158,5278448
101,8744849
42,72052262
-1,684083855
-38,08937585
-71,7453943
-93,4021797
-97,05977212
-91,46821109
-91,37753565
-99,78778429
-107,6989949
-109,6112048
-107,7744507
-103,4387686
-94,85419378
-85,02076092
-82,68850388
-90,60745581
-95,27764904
-84,94911511
-74,12188472
-74,79598773
-72,4714531
-63,89830892
-63,82658235
-71,25629962
-73,687486
-66,3701658
-55,30436232
-54,49009789
-65,92739377
-75,86627024
-79,55674649
-80,99884067
-82,19256985
-86,63795003
-95,83499609
-101,2837218
-92,98413996
-74,68626201
-59,14009844
-50,34565856
-42,05295055
-37,01198146
-47,47275718
-66,43528247
-72,89956095
-70,3655951
-73,83338623
-76,05293455
-67,2742391
-57,24729778
-56,72210739
-72,19866357
-122,6769609
-166,9069926
-30,38875125
383,3777721
813,3925874
831,6557055
378,6671385
-92,07310041
-183,8149971
-48,05853637
-2,803701926
-40,0504765
-40,54884181
-29,54877857
-33,80026652
-24,05328443
-5,307810135
5,686179495
15,42870849
23,91980179
26,40948521
31,89778546
50,13473009
74,37034747
90,1046668
98,58771809
110,0695321
122,8001404
135,0295751
150,7578695
164,735057
167,461172
155,4362497
129,1603255
91,8834359
47,3556176
-0,67309196
-44,20265481
-79,23303249
-107,764186
-123,546076
-122,3286624
-118,6119052
-123,8957634
-128,6801961
-125,7151619
-119,2506189
-110,2865253
-100,5728387
-91,60951657
-82,14651622
-78,68379472
-80,971309
-76,00901588
-63,54687207
-57,83483421
-59,87285892
-55,16090278
-42,44892242
-36,7368745
-41,52471576
-43,56240306
-38,0998934
-32,63714392
-29,174112
-26,71075522
-26,49703143
-26,03289877
-23,31831569
-20,353241
-18,63763389
-18,17145395
-21,70466122
-30,7372162
-34,01907989
-20,05021383
2,6694199
17,88985863
23,36113907
23,83329729
16,30636869
-1,969612013
-21,99461085
-33,51859458
-39,54153076
-43,81338774
-42,08413469
-37,85374164
-38,37217951
-48,13942008
-86,40543609
-147,9202012
-106,9336901
195,5541217
657,0432574
877,2837395
593,0255892
67,51882675
-190,7365287
-99,49045898
-0,492947282
-33,99397774
-64,99353567
-58,99160755
-62,73818102
-58,48324489
-41,47678916
-34,21880504
-34,20928492
-38,44822242
-41,93561239
-29,17145087
-6,15573516
9,111536207
19,88036347
38,15074562
58,42268041
74,19616435
93,72119271
115,7477595
126,7758575
126,0554783
123,3366122
120,3692483
108,6533744
79,68897719
33,22604212
-18,73544658
-57,94550586
-80,40415388
-95,86140993
-104,8172945
-106,5218292
-108,9750368
-110,1769412
-104,6275674
-97,32694145
-89,02509058
-78,472043
-71,41782801
-66,11247592
-56,30601806
-47,49848677
-46,18991534
-46,13033802
-38,81979
-26,00830739
-20,44592718
-26,63268724
-29,06862627
-21,50378381
-15,93820019
-17,87191652
-23,30497467
-23,7374172
-12,66928742
-2,850629259
-8,281487334
-15,71190686
-12,14193364
-4,071614049
2,249005011
1,069876134
-5,609048559
-1,787817392
10,5335209
11,1049172
0,176322029
-5,002314387
3,068957873
21,89008848
39,4610269
43,03172238
36,35212405
23,67218088
1,991841805
-18,43894433
-26,87022868
-29,80206239
-32,73449652
-38,91758207
-51,10136989
-57,03591069
-57,72125495
-93,40745293
-163,8445546
-119,2826096
207,5283326
676,3382233
854,6470139
514,4546563
-21,48889695
-254,4336929
-153,629778
-60,57719793
-89,02599797
-104,2262225
-79,92791539
-74,13111947
-72,83587695
-54,54222915
-41,00021653
-37,9598786
-28,17125396
-13,38438018
-3,349293826
10,68396959
34,96537567
60,49489114
78,77248388
89,29812298
99,07177878
112,8434229
126,6130281
135,1305688
138,3960204
141,65936
139,9205659
117,929618
78,68649766
35,9411877
-8,806327529
-53,80606208
-87,30802843
-96,31223746
-87,31869842
-87,57741889
-99,83840479
-98,35166034
-83,61718805
-77,63498869
-78,40506132
-73,92740319
-67,70200981
-59,97887489
-47,25799035
-42,03934628
-47,07293098
-42,10873092
-27,89673073
-28,4369132
-41,47925931
-42,27374817
-33,07035707
-36,11906146
-45,91983494
-44,7226493
-42,52747448
-53,08427862
-65,14302804
-67,95368725
-65,516219
-57,08058422
-45,39674211
-46,71465011
-61,53426393
-70,10553756
-67,17842332
-65,50287184
-69,3288321
-71,15625147
-67,48507571
-58,56524899
-42,39671398
-22,47941179
-7,313282066
-4,398262995
-20,23429134
-45,07130249
-58,40923047
-61,49800797
-64,08756645
-63,42783609
-62,26874587
-65,11022363
-67,20219608
-81,04458885
-135,3873265
-185,7303328
-64,32353015
324,5831595
751,2398153
806,8965172
397,0533457
-68,28961764
-180,1322909
-55,22459135
-17,56643583
-69,4077406
-71,24842146
-46,58839382
-45,92757269
-41,26587281
-24,35320865
-13,93949448
-4,774644391
8,641427586
20,05880749
31,97758134
47,14783511
61,06965464
72,49312561
87,16833349
107,0953635
124,5243004
134,2052287
138,1382325
139,8233954
140,0108002
134,4505295
119,6426649
95,83728764
64,2844779
25,48431522
-18,31312176
-58,10775533
-84,39950871
-95,93830616
-97,97407299
-95,75673563
-90,78622169
-85,06245999
-79,8353806
-71,85491494
-67,87099576
-76,88355725
-85,14253506
-80,39786633
-72,89948977
-66,89734569
-55,14137606
-43,63152452
-41,86773648
-44,0999591
-42,32814138
-37,05223421
-34,02219035
-36,98796455
-45,94951353
-57,90679605
-60,85977295
-52,30840716
-48,50266379
-49,19251009
-43,87791556
-40,55885195
-38,98529329
-27,90721593
-16,32459857
-17,48742231
-22,89567064
-18,79932948
-10,44838725
-12,59283483
-26,73266564
-39,36787561
-35,24846326
-12,87442969
11,50422143
26,38748377
34,02534838
30,66780367
9,564835372
-20,28357346
-38,62744244
-36,71679392
-29,80165291
-32,63204716
-35,45800713
-29,27956599
-26,84675964
-51,40962668
-115,7182084
-145,772549
34,67730496
457,3813039
805,5893958
705,5515258
226,0176363
-149,2623327
-153,288444
-27,81076303
-19,07935779
-56,09429885
-47,60565934
-29,36351491
-22,36794374
-13,61902647
-5,86684619
-1,861488406
4,396958993
14,40840577
27,92275939
46,18992503
60,95980564
61,98230198
60,75731267
71,53473421
86,31446105
100,3463856
117,3803985
126,6663881
122,7042412
115,2438428
104,2850759
88,32782203
73,37196103
52,16737112
15,21392902
-26,48849003
-60,69001216
-84,89076485
-94,59087686
-94,04047816
-96,73969985
-101,4386741
-95,6375342
-78,58641421
-65,78544917
-66,23477492
-67,68452802
-62,63484571
-59,08586582
-53,78772672
-36,99056721
-22,1945265
-27,39974408
-36,85635971
-26,31451329
-8,524344841
-8,235994376
-18,19960187
-20,41530716
-17,13324991
-14,85356947
-15,07640488
-18,55189474
-21,28017717
-27,01138972
-37,7456693
-36,23315211
-23,22397357
-21,96826826
-32,71616981
-40,71781087
-41,47332302
-36,48283671
-34,49648117
-39,01438437
-31,53667293
-8,313472049
2,155094536
-7,881095354
-17,67216229
-19,71822517
-18,51940114
-21,57580556
-39,38755189
-58,20475168
-54,2775145
-44,60594783
-51,69015706
-57,03024542
-53,37631388
-73,72846114
-133,0867835
-158,4513751
-0,822327185
367,5502711
678,1663333
594,2757757
156,1285171
-208,2755211
-232,4364144
-107,8542358
-72,52905532
-92,46094013
-83,89995443
-69,09615946
-64,04961345
-49,76037153
-31,97848578
-21,20400511
-9,686975275
1,822561184
8,074564962
14,81900003
30,55583364
55,03503642
76,25658231
88,72044866
102,6766162
121,6250692
135,5657953
142,2487855
146,4240345
144,3415405
133,751305
118,4033334
96,54763438
62,68422028
17,06310704
-25,06568586
-49,95213529
-68,59621456
-90,99789335
-101,4071378
-96,07391025
-93,99816971
-91,17987141
-77,86896703
-69,06540465
-68,76912878
-64,73008034
-57,69819671
-52,17341172
-46,15565566
-43,3948553
-45,39093393
-40,14381135
-25,65340392
-20,41962456
-28,6923828
-32,72158476
-25,75713325
-19,79892775
-21,84686446
-20,40083631
-10,96073303
-10,0264412
-15,09784422
-9,424822418
-5,757253068
-15,84501043
-24,18796581
-22,78598759
-20,6389413
-20,49668963
-19,60909253
-26,47600725
-42,59728834
-47,72278782
-36,60235511
-24,48583719
-15,12307861
-14,01392156
-35,40820595
-69,55576945
-87,45644759
-82,36007377
-76,01647942
-81,92549397
-88,336945
-85,75065824
-80,16645773
-87,83416582
-118,7536033
-99,42458934
122,4030581
523,4795227
754,8049892
516,6296435
13,20367288
-270,9727346
-204,3993898
-67,32610269
-42,2526826
-52,42893803
-35,35467689
-26,52970658
-34,70383403
-34,62686583
-23,04860827
-10,21886749
1,612550513
14,19583972
29,03119405
45,11880725
56,20887282
63,55158393
79,64713329
107,7457131
134,597515
146,4527299
144,0615478
142,9241581
154,290749
166,9115077
158,0366202
129,4162716
103,3006452
74,43992312
28,08428607
-16,51608696
-44,86101862
-71,70033332
-97,53385732
-104,8614188
-96,18284807
-90,49797737
-95,05664126
-98,35867658
-87,9039225
-74,69222068
-74,72341528
-78,74735311
-75,7638837
-72,77285932
-74,27413517
-68,51756935
-47,50302304
-31,2303605
-38,69944921
-49,91015989
-45,86236666
-43,55594701
-49,99078198
-50,41675617
-48,58375784
-53,99167896
-56,64041532
-50,27986658
-47,40993632
-58,28053216
-72,39156577
-68,49295298
-42,58461382
-20,16647259
-22,48845795
-36,30050292
-49,852545
-67,8945262
-80,17639309
-82,44809687
-90,70959343
-106,2108434
-121,2018121
-130,1824697
-122,6527915
-107,8627573
-127,3123521
-190,5015659
-160,6803936
164,4011646
686,4931037
924,8454133
574,958078
-37,41892297
-348,5356154
-257,6420303
-102,9882042
-74,8241787
-78,65000066
-51,96572233
-36,77140125
-37,06710028
-22,85288757
-3,128836633
5,104973726
16,84845938
41,85153087
62,11409348
77,63604717
104,1672866
123,4577013
125,5071754
141,5655879
177,3828127
203,9587183
219,5431684
235,6360213
236,2371305
219,3463443
205,7135063
180,5884547
126,2210234
64,11104114
8,758331925
-27,33728486
-35,42599452
-50,00798692
-82,58345644
-96,40260193
-91,71562659
-95,02273792
-98,82414764
-90,62007163
-82,41072981
-87,94634609
-98,22714825
-89,7533679
-69,52524032
-66,04300443
-65,30690264
-46,8171808
-40,07408807
-53,07787679
-51,82880245
-40,32712351
-43,57310131
-53,56699999
-60,80908632
-69,54962963
-71,53890167
-71,2771765
-86,26473036
-94,50184155
-69,23879028
-32,22585861
-16,71333024
-19,20149043
-12,69062586
1,818975527
1,077024619
-16,16676869
-34,41269539
-40,41104718
-33,91211638
-27,91619575
-26,17357836
-29,43455744
-39,69942626
-51,71847793
-98,99200533
-166,2703009
-24,80365654
493,4076366
1052,113288
1067,063009
461,5065108
-171,0564933
-318,6262884
-150,2031586
-62,28738563
-82,87924971
-78,22902884
-48,58699883
-37,70343313
-43,0786027
-35,4627758
-14,85621791
-2,259191543
21,07804389
53,15523222
56,72212069
62,52846009
95,57400487
116,3585133
135,6317477
170,1434744
187,3934639
196,6314914
216,1073363
226,0707827
224,5216197
216,209641
189,6346455
139,2964374
65,19482586
-14,17037428
-64,54934278
-88,44225374
-112,5992755
-145,2705705
-182,4562954
-192,4066005
-154,6216301
-131,3515223
-166,0964087
-205,1064144
-205,1316581
-183,1722519
-164,978301
-149,799904
-132,1371525
-131,2401312
-140,6089179
-133,7435834
-128,1441911
-133,3107974
-133,2434516
-136,6921955
-144,1570638
-138,1380837
-122,385275
-112,1486504
-109,9282147
-119,4739655
-148,0358931
-166,6139798
-136,958201
-88,06852416
-72,69490942
-74,83730938
-66,74566917
-67,91992644
-71,11001137
-62,81584669
-74,53734774
-95,77442245
-88,27697141
-76,04488789
-82,07805787
-106,3763601
-184,1896662
-249,2678406
-35,36074067
570,7817832
1150,909888
1097,273736
400,8734988
-240,5406472
-322,7185183
-123,1599243
-57,61466843
-86,83254762
-76,31335246
-66,05686735
-63,06287057
-26,33113441
5,638574749
-10,90350369
-36,45712464
-21,52203745
18,15201396
41,06529102
46,46806035
57,11059365
72,49316757
94,11606358
131,7295678
160,833971
157,9295683
142,7666591
141,8455468
150,666539
140,7299471
108,2860861
67,08527461
-0,12216542
-84,58590874
-128,305627
-134,0309891
-149,7616608
-162,9973057
-160,7375846
-168,2321561
-169,9806769
-146,2328012
-126,4881821
-125,4964704
-129,0073159
-130,2703668
-124,5352704
-111,0516728
-96,81921954
-84,08755526
-74,10632432
-66,6251707
-60,3937383
-58,911671
-56,17861293
-41,94420856
-25,70810291
-25,46994171
-33,97937154
-28,98604002
-19,73959599
-27,48968962
-41,23597261
-45,97809835
-42,21572207
-32,198501
-19,17609451
-0,148164312
22,63562544
30,92560798
17,22211376
-3,724529669
-4,413997823
22,65403059
36,7298735
13,81384539
-9,593742906
-9,9925843
-10,38237558
-42,26281755
-118,8836152
-167,9944776
15,40488151
547,3147441
1117,235388
1159,667084
555,6101021
-97,43529612
-235,2188527
-45,24031502
21,00056434
-37,99597258
-38,47968914
-7,700354195
-2,407742185
14,14836678
35,96818687
27,80192643
17,89978793
29,51196792
32,88865692
19,78003941
16,68629376
34,85759216
59,2941006
75,74597882
92,71338026
120,696452
143,9453349
144,7101632
141,241065
142,0381616
115,3515682
72,43139324
51,52773892
24,39070079
-36,22963206
-95,08317706
-131,9198581
-157,4896057
-162,0423567
-146,8280545
-148,8466489
-161,0980964
-137,3323596
-100,0494078
-88,49921648
-78,93176759
-64,59704938
-61,74505642
-55,12578952
-36,23925571
-15,08546824
-1,914446453
-4,476215826
-7,020807863
3,951739932
12,69138411
13,94807534
12,72175845
-1,2376275
-25,68014915
-39,6058788
-38,26489431
-35,65727908
-41,53312194
-56,14251708
-69,98556401
-70,81236744
-68,87303725
-74,41768837
-73,69644074
-75,20941917
-91,20675334
-88,43857762
-52,90503108
-25,35625732
-29,29240443
-45,2136249
-55,37007549
-57,01191719
-50,38931507
-49,75243826
-65,60145976
-70,68655643
-46,00790883
-21,81570117
-26,36012118
-71,39136001
-166,4096121
-206,1650753
55,34204972
659,861559
1172,643246
1063,186901
384,4923111
-199,1907377
-260,1124632
-96,02308506
-79,67282545
-139,3119086
-131,4405609
-102,0590106
-93,66748793
-85,51622477
-76,10545473
-68,68541294
-55,25633598
-31,56846176
6,127970589
42,08272078
53,04554753
50,76620863
57,74446104
77,98006103
113,2227642
153,2223258
170,9785005
165,7410426
164,0097065
171,0342461
164,8144157
130,3499692
79,89066109
28,18624591
-33,0135214
-102,9588854
-158,4000902
-186,5873792
-192,2709952
-187,2011799
-181,3781746
-172,0522191
-153,9735526
-138,1424129
-138,5590367
-147,4736593
-147,1365148
-135,0478358
-121,9578533
-114,3667969
-104,2748943
-85,18237188
-75,33945385
-91,4963628
-105,6533193
-88,06054217
-69,71824793
-83,6266512
-97,78596443
-75,44639789
-44,35815963
-43,27145538
-53,43648859
-52,10346029
-53,52256912
-57,44401124
-52,86798032
-51,54466748
-58,97426126
-64,90694757
-58,5929097
-37,78232824
-22,22538104
-21,92224324
-16,37308719
-4,578082433
-8,037395682
-20,0011908
-25,21962878
-29,9428677
-33,42106271
-32,15436606
-39,39292698
-55,13689177
-58,63640371
-49,89160307
-50,90262711
-69,16961002
-120,192683
-202,721974
-150,7576082
258,2002926
889,6516095
1215,346227
869,284032
153,4649155
-249,8612289
-158,4445045
-8,035011352
-35,8828463
-68,9881031
-32,10087234
-10,97124143
-11,5992946
-0,235112937
11,12122568
10,96964654
11,56007811
27,39245204
53,96670317
72,03276952
82,34059231
103,1401159
136,1812879
164,7140591
175,4883834
178,504218
188,7615231
196,0102623
188,7504021
176,9819125
166,9547665
146,6689401
102,1244128
34,57116692
-33,49081185
-79,56153477
-105,64101
-121,9792424
-130,576234
-133,4319835
-133,0464866
-130,1697359
-127,5517208
-125,942428
-121,0918407
-113,4999394
-105,4167015
-96,59210116
-90,27610992
-82,71869613
-68,66982524
-57,12945978
-52,09755934
-47,07408065
-47,05897755
-56,05220104
-63,05369929
-61,06341769
-50,83129885
-37,60728262
-31,89130615
-37,6833039
-54,48320768
-71,04094666
-62,3564474
-40,67963394
-45,76042775
-62,59874783
-56,94451072
-47,29763053
-53,15801898
-59,77558548
-58,40023709
-54,53187864
-55,17041272
-64,81573975
-66,21775801
-43,62636368
-26,04145091
-34,71291182
-44,8906366
-43,32451353
-39,76442902
-32,96026767
-17,66191233
1,380755866
14,41785745
14,94951455
6,225850852
-2,753008442
-11,2369367
-24,22580587
-39,21948659
-48,46784819
-44,97075877
-28,97808526
-17,98969348
-34,75544816
-94,52521305
-172,5488509
-105,3262237
300,3928075
882,8583825
1116,320642
710,279726
46,48577738
-255,8110621
-146,6106497
-50,66284218
-99,21749616
-112,7744678
-75,33361294
-67,89478742
-65,45784682
-49,52264668
-47,33904254
-48,90688995
-28,9760446
2,203637674
17,3823008
18,06008844
31,9871439
61,1636101
74,3396295
69,26534403
88,69089508
142,1164234
181,0420689
179,7179711
161,3942683
149,3210983
148,4985976
137,926902
84,35614631
1,786463974
-55,53201251
-71,59915192
-90,91482427
-143,9789009
-188,0412546
-181,3517595
-157,6602912
-157,2167269
-161,5209455
-151,8228274
-153,8722547
-172,6691113
-158,9632831
-100,7546576
-58,04312434
-57,57857489
-67,3609028
-72,8900037
-76,91577538
-75,9381178
-77,70693319
-77,97212604
-56,4836032
-32,49127391
-41,49504984
-67,24484518
-75,49057662
-65,48216345
-45,96952761
-23,45259368
-11,93128898
-15,15554361
-25,37529046
-35,09046526
-35,05100667
-31,75685625
-41,20795853
-45,90426108
-20,59571448
10,21772757
6,036108301
-18,39053225
-12,8121572
19,2712671
23,60977109
-8,796618097
-33,6978766
-22,59398387
2,515077277
-1,620679326
-13,00124323
26,62339261
72,25323183
41,88827461
-22,97148228
-36,57604554
-4,925425358
9,730364644
-18,35869265
-47,94261783
-34,02143498
-2,345171639
-8,663858835
-69,97753106
-148,5362263
-113,0899859
195,6111452
701,3171188
1002,027883
758,9933833
178,4635606
-173,5616467
-132,0823036
-45,09847858
-86,36024338
-107,3676729
-69,62084524
-56,36984171
-60,36474673
-44,1056478
-21,09263546
-7,575803256
-3,055247694
-6,531068173
-0,253366948
35,27775093
73,81217765
82,09980275
78,39051309
87,934193
105,2307243
126,7799863
156,8318561
188,6362083
211,9429154
214,2518476
186,8128732
148,8758583
120,6906672
83,75716212
16,57520371
-54,85534918
-85,78463934
-81,21281109
-82,14001021
-96,56638389
-103,4920806
-98,66724995
-92,34204283
-87,51661105
-83,69110739
-77,86568551
-64,04049984
-53,21570548
-58,89145814
-65,81791403
-56,99522976
-43,92356228
-38,85306877
-35,78390654
-33,71623298
-37,40020541
-40,58598104
-32,52371686
-13,96356954
-0,655695374
-3,100250151
-10,54738909
-12,74726676
-18,20003696
-33,15585267
-42,36486593
-33,8272278
-27,29308821
-38,51259595
-45,73589853
-36,46314214
-32,94447153
-44,18002996
-52,9199591
-53,914399
-56,16348793
-61,91736239
-66,17615699
-57,19000438
-35,95903519
-28,23337797
-44,2631591
-66,29850273
-78,83953072
-75,63636258
-62,18911539
-57,74790376
-68,56283977
-75,13403287
-65,7115899
-56,79561498
-64,38620946
-76,9834719
-76,33749798
-70,94838049
-80,56620928
-98,69107117
-96,82304997
-84,9622264
-131,1086781
-213,5124794
-121,9237017
282,407587
768,9813219
907,5474416
537,3558879
8,406605827
-198,550456
-102,7653456
-52,48810775
-94,21878367
-87,95741114
-61,70402452
-63,45865466
-59,22132893
-48,49207119
-45,02090182
-34,30783765
-14,10289201
3,843925304
14,03260801
24,46315337
47,13556215
73,04983866
89,20599069
106,8540296
133,4939701
154,6258306
165,9996329
174,1154021
178,723167
187,8229596
196,9148156
174,2487737
119,3248762
64,39316877
13,95370026
-36,74347715
-69,94830801
-82,91073368
-96,63069232
-116,8581189
-121,3429455
-94,33510072
-66,0845105
-70,59109761
-87,10478194
-83,62548045
-71,15310725
-75,18757365
-84,72878823
-72,77665684
-60,3310827
-82,14196644
-109,7092061
-105,5326974
-92,61233349
-97,4480052
-110,0396011
-121,8870075
-126,2401086
-110,0987864
-86,96292101
-84,8323905
-104,457071
-115,836837
-94,4715611
-65,86111418
-71,00536566
-95,40418335
-98,30743366
-80,71498159
-64,87669089
-56,29242404
-55,46204244
-53,88540639
-41,56237524
-34,24280741
-41,92656054
-46,11349151
-37,80345654
-26,99631128
-22,69191089
-24,14011011
-15,34076334
12,70627525
36,75115171
35,04401213
22,08500266
20,37426935
27,91195812
24,94821468
6,233184429
-8,73298761
-13,45015686
-17,66817927
-12,13691139
8,643789557
12,42406561
-37,54594202
-114,016093
-74,23624795
235,7937315
712,0739826
956,6046415
692,3858431
152,417721
-161,2995925
-113,0159664
-3,981271372
-12,94537944
-33,65816422
-7,61950094
13,92073349
20,71266047
27,75639962
32,80206875
43,34978386
62,649659
71,45180634
63,50633604
56,81335627
60,12297316
69,43529076
80,500411
89,8184337
110,6394565
148,4635748
169,2908819
160,3714687
158,705424
172,7928342
166,3837834
132,2283535
94,82662406
55,4286721
3,28457247
-48,60560241
-82,99178249
-100,6239001
-107,25189
-112,1256892
-123,4952374
-130,3604764
-123,2213505
-113,8278065
-111,1797934
-112,2772629
-116,3701689
-117,7084676
-103,2921177
-81,87108038
-76,44531901
-84,26479942
-89,32948977
-91,38936056
-93,44438463
-91,24453713
-85,53979553
-82,08013958
-79,86555132
-74,39601505
-67,17151731
-65,69204688
-70,20759477
-68,21815416
-59,47372042
-57,97429109
-61,96986584
-60,96044647
-54,94603686
-44,67664301
-33,40227293
-29,6229367
-32,3386464
-34,29941609
-32,00526182
-25,95620156
-20,6522552
-20,34344454
-21,27979322
-19,21132673
-20,63807239
-27,31005927
-26,72731824
-13,63988186
0,202215573
3,798938117
-3,099751827
-15,24389347
-25,63352759
-33,26869655
-45,6494442
-56,02581588
-48,14785841
-35,01562001
-37,62915029
-50,98850023
-71,59372212
-117,4448695
-170,7919973
-91,63516143
264,2755808
744,6901711
917,85855
555,2806569
-11,79356972
-255,3641924
-133,9312746
-18,99488074
-45,30507612
-66,36192684
-42,91549978
-32,21586258
-31,0130836
-23,80723184
-13,34837695
3,863410869
20,82806086
29,04550177
35,5156619
44,73846915
56,96385105
75,1917348
99,67204733
125,9047153
147,1396653
163,3768237
178,3661166
185,1074704
182,8508112
190,8460652
207,0931586
194,592018
142,8425699
82,84474104
27,59845842
-29,39635065
-71,38975855
-82,88183727
-78,62265841
-77,36229313
-84,85081207
-93,83828537
-92,07478258
-82,81037268
-81,79512396
-88,02910408
-84,76237996
-76,49501778
-81,97708295
-94,95864004
-99,68975281
-97,42048412
-91,40089593
-82,38104928
-77,11100423
-78,84081985
-81,57055423
-79,30026438
-74,28000628
-75,25983482
-81,73980377
-79,71996581
-67,45037244
-58,68107405
-55,6621198
-55,64355771
-67,12543457
-85,10779596
-85,59068624
-70,57414854
-64,80822473
-69,79295545
-76,77838005
-85,51453666
-89,00146211
-84,23919198
-77,22776057
-69,46720091
-67,70754477
-75,94882264
-76,19106375
-60,18429607
-47,9285463
-46,67383992
-45,92020114
-44,16765293
-38,91621705
-32,91591404
-41,16676322
-54,16878272
-51,17198948
-42,92639928
-44,18202672
-48,93888528
-49,94698729
-62,45634395
-119,9669654
-159,9788607
29,50796233
516,9934966
942,7277364
850,2106767
307,1923138
-134,0773553
-169,5983324
-53,87061856
-45,89421376
-60,91911716
-18,445327
-3,472840649
-31,00165465
-27,28176469
13,43683435
42,40414836
40,62018403
25,58494878
20,54845078
33,0106989
55,47170273
76,93147251
94,64001913
112,0973542
128,3034897
142,7584386
161,7122142
188,1648304
214,8663015
229,8166427
223,0158693
197,4639974
165,4110434
126,6070242
74,05195709
14,7458599
-37,56124924
-71,8693518
-83,67842887
-81,4884612
-77,0494292
-83,11131298
-102,1740923
-106,9877468
-85,80225562
-75,86759783
-93,6837522
-107,2506973
-106,5684116
-107,1368731
-108,4560601
-114,2759503
-137,5965215
-167,4177514
-165,7396177
-118,0620977
-76,38516888
-83,45880871
-103,2829945
-103,3577037
-98,43291355
-96,50860157
-96,08474518
-99,91132188
-101,7383093
-97,06568504
-90,14342698
-79,72151302
-65,54992123
-57,12862984
-54,70761727
-48,53686212
-43,6163432
-46,19603956
-46,27593048
-46,85599549
-55,4362144
-49,5165673
-22,34703457
-1,177596924
12,24176462
21,4110687
5,580333595
-22,50042277
-31,83118283
-31,91192944
-35,49264581
-33,07331558
-24,65392279
-18,2344519
-14,3148878
-21,14521582
-62,97542172
-119,0554917
-50,88541249
285,0348289
762,4552448
963,6258472
629,2966476
63,2176571
-200,6111138
-98,93965492
10,23204336
-14,59600974
-33,92380546
-8,501335504
-3,328592001
-8,405567522
7,267744934
21,19135195
19,36525969
17,53947394
19,96400005
24,13884304
38,06400752
60,48949777
73,66531772
76,09147098
86,01796082
109,1947902
140,121962
168,5494784
178,7273418
179,905554
189,0841169
183,013032
141,4423007
86,87192423
38,55190366
-8,767760027
-55,83706593
-86,40601325
-91,97460122
-89,29282912
-92,61069623
-95,42820182
-92,24534514
-88,56212538
-87,12854165
-83,69459298
-77,01027828
-72,57559631
-72,39054569
-69,45512485
-61,76933205
-63,5831653
-84,14662238
-102,7097008
-94,77239795
-77,58471066
-80,64663564
-92,95816924
-97,01930744
-100,3300459
-104,3903798
-101,9503042
-98,00981342
-96,31890157
-88,37756229
-77,93578877
-76,99357375
-77,05090953
-67,8577879
-56,9142002
-51,47013727
-51,02558944
-53,08054656
-55,38499795
-59,43893241
-63,74233825
-56,5452032
-37,84751452
-23,39925888
-11,95042247
1,999009106
5,199050746
-3,350282101
-10,89897345
-21,19700678
-39,24436505
-53,79103066
-53,8369855
-37,63221095
-19,17668785
-22,97039651
-48,26331678
-88,55542795
-146,5967089
-122,6371378
157,8233073
634,0346492
905,7469109
650,710116
85,92428841
-240,8605473
-170,8943663
-44,92714337
-59,70885272
-86,98946829
-67,7689636
-58,0473118
-46,32448566
-16,10045763
-0,375199815
-1,398683981
6,579118397
23,55823615
36,28869838
41,77053446
44,75377403
51,98844695
67,22458331
88,4622134
110,2013677
127,6920769
139,9343718
152,1782834
166,6738427
174,671081
167,4200296
142,9207198
107,1731831
65,92745082
15,18355459
-38,30847416
-74,54860395
-93,28680334
-113,023041
-129,0072855
-115,2395058
-84,2196707
-74,69774927
-80,67371071
-78,14752441
-77,11915992
-86,08858707
-88,05577588
-71,77069667
-50,73332004
-44,69361688
-50,90155845
-50,85711635
-40,31026255
-33,51096944
-41,20920985
-51,40495704
-49,59818476
-45,28886728
-48,47697937
-53,91249637
-57,84539421
-60,7756494
-61,9532391
-59,62814113
-55,55033398
-51,71979684
-44,63650967
-36,55045317
-36,46160881
-46,11995891
-57,77548659
-64,42817588
-71,57801165
-87,72497973
-95,86906686
-69,26026078
-28,64855018
-21,03392481
-38,41637543
-39,54589388
-29,92247308
-35,54610707
-44,41679103
-45,28452128
-53,64929534
-67,26111192
-72,36997094
-69,97587358
-70,82882228
-108,1788208
-171,025874
-95,36998838
267,2888285
724,7005676
845,8652185
473,2827695
-41,29679252
-244,1234821
-136,4473153
-44,5183093
-65,08648306
-71,4018568
-44,71445221
-31,77429245
-12,83140214
15,36419265
21,06246437
19,51338399
35,21692104
50,17304356
55,13171811
65,59290982
86,55658233
113,0226978
138,7412171
153,9620993
158,9353025
170,9107829
194,8884957
210,1183945
207,3504314
202,8345574
198,0707218
173,8088729
129,7989575
75,54092095
13,78470756
-37,71973977
-67,72247937
-88,22357079
-97,47307481
-90,72105338
-89,96756959
-101,9626877
-104,2064731
-92,9489922
-83,44031249
-76,68050251
-61,16963178
-48,4077708
-62,39499101
-82,38136473
-74,86696522
-57,35186652
-54,33614353
-54,06987193
-44,05312813
-32,78598927
-33,51853317
-44,25083831
-48,98298377
-42,46504923
-39,6971149
-49,17926151
-57,91157026
-55,1441228
-46,37700118
-43,86028782
-56,34406547
-80,5784172
-100,8134263
-111,5491764
-119,7857511
-112,7732343
-81,76171009
-54,7512625
-49,74197568
-49,73393374
-45,2272208
-49,97192091
-65,71811801
-74,71589589
-76,2153382
-80,96652836
-83,21954955
-82,22448467
-84,98141629
-88,49042665
-115,0015976
-171,2650105
-112,7807464
234,4511144
724,1804918
914,6573065
571,1314798
7,352933441
-257,6784099
-155,462627
-36,99979397
-54,78998592
-76,58327733
-49,62974176
-28,42945194
-22,23247965
-11,03889575
5,651229885
21,08782839
33,52083193
46,95017376
62,12578823
73,79761083
84,96557823
102,3796283
122,7897001
141,695734
162,3476716
188,7454559
209,6390312
206,0283432
193,4133389
202,5439669
209,9201772
175,5419211
114,9091517
53,77182345
-7,120107605
-59,01668383
-94,91794599
-122,8239332
-145,7346831
-157,9002314
-155,3206122
-150,7458581
-157,4259997
-158,1110662
-144,5510846
-138,9960805
-140,6960777
-135,1510979
-129,3611614
-123,3262864
-111,5464893
-100,521785
-87,75218601
-72,48770347
-71,22834643
-80,97412216
-77,97503606
-68,98109165
-71,99229064
-68,00863283
-44,2801162
-31,55673686
-46,33848905
-63,6253652
-67,16735587
-63,7144498
-58,76663389
-57,57389324
-61,88621113
-54,70356905
-28,77594668
-8,603321959
-3,685671045
1,227031643
1,634813416
-12,4622967
-29,56426798
-38,92106802
-43,28266275
-49,89901648
-64,27009186
-82,39584997
-82,0262503
-52,66125077
-51,05080779
-127,4448762
-154,3434095
92,00364052
579,5963233
916,4346898
747,7687923
207,8486845
-191,5755786
-193,7539406
-56,18634392
-39,1227297
-72,56303782
-61,75720697
-47,70517469
-39,90687733
-17,11225016
-1,571227347
3,716257999
17,0002738
24,28088898
19,80817344
23,082198
33,85303443
41,12075536
54,88543427
86,89714549
117,6559641
122,161966
115,9152278
127,9158269
156,1638411
179,4093492
177,1524303
142,3931644
91,13163187
42,61791357
-0,897909068
-40,41575414
-69,43553933
-89,45718189
-107,2305987
-118,5057064
-117,5324211
-108,5606588
-99,59033516
-94,37136563
-91,15366548
-86,68714978
-82,22173348
-76,75733143
-63,54385837
-51,33122901
-52,11935805
-51,65816018
-41,69755014
-37,73744274
-40,52775287
-42,06839559
-47,10928606
-42,65033968
-16,69147205
-1,482598987
-16,52363663
-31,56450138
-31,10511001
-30,89537962
-31,93522773
-25,97457226
-18,76333158
-20,30142456
-31,58877053
-37,37528941
-18,91090162
11,80447177
22,52090913
16,23848815
14,70728587
4,677378622
-22,85115798
-40,12824908
-35,65382058
-29,9277992
-34,45011246
-41,97068876
-48,98945736
-62,00634842
-97,02129302
-161,2842232
-165,5450719
67,69622679
526,439738
848,1855255
675,4336525
130,9341805
-274,0628295
-275,5573179
-126,0492264
-94,53849745
-124,025075
-108,008904
-78,98993065
-73,21810246
-70,44336807
-61,66567741
-57,63498167
-51,85123332
-34,56438612
-14,52439513
2,018783255
21,81519133
45,86487005
67,16785901
82,72419645
96,28391925
114,3470629
134,1636615
147,2337479
155,0573532
161,6345075
162,7152393
153,5495757
127,8875423
74,97916342
5,074461962
-46,32654068
-64,97382452
-74,11737096
-88,50716287
-97,39318451
-99,0254216
-100,9038612
-98,27849199
-89,14930381
-84,76628806
-82,62943755
-69,23874645
-55,34421035
-55,69582625
-58,29359252
-54,63750892
-57,72757657
-65,81379797
-58,64617698
-37,47471879
-21,04942997
-16,12031837
-18,68739319
-23,50066493
-27,56014538
-30,61584763
-32,66778602
-35,96597616
-42,7604349
-48,30118032
-44,58823172
-34,6216096
-30,90133561
-30,42743262
-11,69992462
21,78116329
34,01580485
21,25397274
13,99563855
9,740772816
-6,260654951
-18,75867626
-23,00332363
-30,74463051
-37,48263133
-39,21736144
-42,69885707
-50,42715536
-81,15229428
-156,3743126
-179,09325
58,94085324
561,9779559
944,7680163
803,5609917
235,1068391
-221,0944856
-249,7930265
-97,48882891
-60,68193826
-95,12240064
-95,56026263
-84,74557124
-79,67837392
-65,60871851
-49,03665318
-34,46222646
-20,63548716
-10,80648435
-0,225267313
14,60811445
30,69361129
48,53117344
69,87075102
93,46229411
115,8057528
135,401077
155,248217
172,3471229
176,9477451
169,8000338
161,6539398
150,0094139
117,1164071
58,47487084
-6,415243227
-56,3039831
-88,1913964
-107,5775303
-115,7124316
-118,0961466
-123,978721
-131,1102002
-129,9906288
-122,1200509
-115,24851
-108,3760489
-97,50270987
-86,8785343
-81,50356292
-75,87783573
-67,25139193
-63,37426992
-62,49650729
-56,86814077
-51,98920622
-51,35973863
-48,22977207
-43,84933969
-41,71847367
-39,08720527
-41,45556475
-52,82358137
-59,44128338
-53,30869804
-45,17585154
-44,54276905
-50,65947465
-53,5259914
-40,64234124
-21,00854506
-17,87462263
-26,99059265
-30,3564727
-37,47227926
-59,33802769
-78,70373224
-81,56940606
-71,43506117
-54,05070848
-45,41635776
-56,28201771
-77,89769588
-129,7633987
-203,1291316
-121,7448988
285,6392966
814,7734525
975,1575679
564,7916428
-18,32432149
-242,9403229
-119,0563581
-25,92242284
-60,78851184
-73,65461876
-51,5207363
-50,88685616
-48,25296908
-33,61906483
-29,23513224
-28,35115925
-20,96713284
-8,833039145
7,301136601
20,43541001
29,06979751
43,70431639
65,58898468
86,97382122
106,6088456
124,4940781
136,1295398
141,0152524
144,9012382
148,0375203
141,9241222
117,0610682
69,19838312
9,336092158
-43,52577883
-82,38720354
-108,9981552
-123,1086067
-126,7185304
-127,0778984
-125,4366824
-115,5448538
-99,9023837
-90,00924307
-87,86540254
-85,4708326
-80,8255036
-76,17938575
-68,2824492
-56,38466403
-49,48600031
-53,08642812
-59,4359176
-61,03443898
-60,3819626
-60,22845897
-58,32389877
-52,16825293
-45,26149263
-49,85358936
-63,69451494
-66,03424155
-55,6227418
-49,45998874
-51,79595588
-54,13061727
-53,96394751
-52,54592178
-44,37651589
-29,70570631
-19,2834702
-14,60978547
-5,684630778
1,242014405
-8,329830223
-22,15014584
-26,96891451
-31,78611926
-33,35174407
-24,16577392
-18,72819483
-21,53899389
-25,59815927
-60,40568028
-141,7115474
-141,5157522
135,6817125
632,1308524
942,5816724
728,0341758
173,4883646
-186,0557605
-151,5982001
-29,63895614
-37,42803216
-66,71543295
-48,00116479
-37,78523543
-39,31765407
-27,34843141
-14,87757965
-8,655112529
0,568954712
11,04460527
16,7718208
20,00058139
30,48086555
53,21265021
75,44591074
81,93062088
85,1667528
109,6542771
147,6431627
172,8833769
179,8748856
174,6176529
157,3616414
129,856812
92,35312413
41,35053552
-15,40099759
-62,90152058
-93,65108038
-109,6497255
-119,3975059
-123,3944733
-117,1406807
-111,8861828
-117,1310356
-123,8752968
-124,3690254
-116,612282
-100,8551286
-90,34762851
-98,83984654
-112,5818489
-107,573703
-92,81547793
-90,05724374
-91,54907197
-87,04103541
-87,28320808
-94,02566523
-97,26848332
-92,76173999
-74,00551402
-48,99988533
-45,2449349
-59,4907448
-61,48739814
-50,23497902
-45,48357251
-47,73326463
-49,98414231
-56,23629336
-61,23980642
-43,49477094
-5,751277135
16,24058404
16,48072092
21,21904122
22,20545199
2,189859721
-12,32782963
-6,097710611
-6,619878234
-21,64442792
-26,17145546
-15,45105698
-9,733328872
-25,01836779
-80,05627055
-152,5971341
-84,14105562
287,8118679
809,2615393
1023,707861
670,1507375
76,59007057
-199,7242359
-100,2922783
1,635847361
-24,68995458
-40,51977939
-25,10372184
-26,94187618
-20,78433608
0,618805438
9,267456041
12,41152415
26,550919
38,43555069
37,56533023
41,94016963
66,30998194
92,4246813
99,28418299
104,6384035
133,4872607
165,0806736
171,6685627
168,0008499
170,5774587
175,6483141
176,4633427
149,7724726
81,57563398
0,872758516
-62,58622019
-105,0513667
-134,7727435
-162,5004112
-179,9844285
-174,9748518
-164,7217353
-165,7251313
-168,9850897
-164,7516581
-155,0248818
-147,0548037
-146,3414644
-148,134902
-141,435152
-127,9922475
-117,8062191
-108,3770945
-93,95489904
-81,28965533
-78,88138323
-82,9800999
-85,33581975
-86,69855437
-91,06831259
-91,94510037
-81,32892083
-68,71977423
-67,11765791
-69,02256632
-66,684491
-66,85342052
-66,27934054
-56,96223374
-44,15207983
-31,09885558
-16,30253474
-3,263088128
5,769516454
4,295314166
-14,93565685
-36,42335548
-39,16773764
-28,41875629
-21,67636144
-22,44050014
-23,46111653
-25,73815183
-44,02154435
-100,8112295
-159,8571399
-42,65920527
389,0326476
903,9684945
1018,648414
569,572488
-13,0091998
-215,3465623
-82,93951014
2,462048983
-44,89179021
-69,50093038
-50,36527166
-46,23471169
-45,35914564
-35,48846626
-36,62256395
-43,01132673
-32,40464037
-13,55238835
-5,45445198
3,639289597
24,22895935
40,81468229
52,89658547
76,72479786
103,7994503
114,3706757
114,4386084
122,2533847
133,3151427
130,1240218
114,1801632
84,4837095
26,03480482
-45,91640539
-96,86977438
-123,0751541
-143,5323954
-170,241348
-188,9518604
-177,9137804
-155,3769546
-147,341229
-144,8064486
-142,7724579
-141,9891007
-126,2062202
-104,1736592
-102,1412599
-106,8588643
-95,3263143
-76,79345133
-67,76011685
-66,47615228
-58,69139907
-45,40569877
-40,86889317
-40,33082431
-35,79133458
-37,00026681
-44,95746434
-44,16277108
-34,11603163
-32,81709132
-38,76579628
-30,71199356
-13,65553118
-14,5962582
-28,78402482
-29,71868243
-22,90008371
-19,32808268
-0,502534789
27,82670301
33,15977219
21,24681259
16,58796232
18,68335771
15,78313323
4,137421451
-5,503647082
-3,889943858
-1,271342492
-6,147718783
-13,26895078
-38,88491883
-107,4955057
-127,3505964
106,0499213
597,7061572
975,8682187
851,0362103
303,460234
-149,1096112
-180,4232288
-33,48052525
-16,28140997
-68,07579517
-75,36359608
-76,89473091
-78,66912091
-51,18669042
-21,94736685
-11,20108076
-7,697765883
-10,93735912
-15,9198006
-8,145033689
10,38699499
24,17633552
31,97303471
54,77713604
93,33867966
117,9077024
125,7342377
139,3183157
158,6599632
165,0092035
148,8660565
126,7305391
109,6026643
72,48244221
6,369879219
-57,23502146
-94,08226001
-103,4218399
-98,00376812
-96,07805469
-100,8947131
-101,7037602
-97,00521588
-96,29910348
-100,0854495
-96,61428357
-84,88563864
-75,39955072
-74,65605898
-81,90520566
-80,89703612
-64,38159872
-55,10894484
-54,57912883
-40,042208
-21,24824252
-18,19729546
-24,63943271
-31,07472294
-34,75323756
-34,9250507
-33,09023913
-27,99888226
-22,40106204
-25,54686298
-34,68637203
-32,5696786
-18,69687445
-15,31805368
-26,93331268
-35,54275004
-32,39646653
-18,99456506
-7,837150554
-21,42432999
-47,50621226
-42,08290817
-14,40453035
-18,72119322
-47,03301288
-50,59010713
-37,64259533
-38,69059838
-45,23423867
-44,02363996
-44,55892739
-71,34022736
-144,8676675
-200,3913765
-62,16148434
347,0718782
781,3085793
836,0484863
417,2914655
-71,46261711
-207,2138966
-82,21250858
-23,20858904
-63,4522746
-72,94370221
-50,43300918
-42,92033309
-40,65581169
-28,13958288
-15,87178459
-14,10255477
-13,33203124
-4,310351712
10,71234636
32,73592581
54,26024982
63,78518202
76,81058653
110,586328
142,6122719
153,1382841
164,1642315
180,1899817
176,2154032
162,4903657
158,0147396
136,5383965
79,0612094
12,33305221
-39,1461997
-73,87666967
-97,60847961
-112,34175
-110,0765997
-98,31314615
-96,801505
-100,5417903
-97,28411424
-89,52858738
-82,52531832
-82,27441378
-90,02597853
-95,03011537
-88,28692503
-73,29650618
-64,80895534
-71,57436689
-81,59283299
-84,61444353
-81,63928615
-77,16744616
-78,94900653
-82,73404782
-81,27264821
-81,06488341
-82,61082667
-80,66054877
-79,21411794
-78,52159988
-73,33305774
-69,1485521
-70,71814091
-68,04187955
-61,86982075
-66,20201463
-73,53850863
-60,87934758
-32,97457362
-15,82422623
-10,17834222
-5,286955747
-10,90009827
-29,0177986
-38,39008288
-32,51697456
-31,14849448
-44,03466079
-49,42548902
-30,32099207
-16,22118021
-44,62606112
-122,7856399
-202,6999189
-106,3688983
322,2074247
857,7790551
989,0960005
538,6582711
-47,78412051
-251,4811595
-129,6828283
-51,88910728
-82,34997425
-84,06540476
-63,03537208
-68,25984721
-63,98879889
-36,47219369
-21,95999601
-21,20216813
-10,9486702
4,800539664
18,79550537
39,7862728
66,52288982
82,00540616
84,48387344
94,9583451
118,6788764
139,1455242
156,6083472
175,8174058
181,2727619
171,2244789
159,1726219
134,6172574
82,05845316
14,99627861
-46,81919567
-94,38789777
-119,9597546
-127,2846917
-130,6126338
-134,1935043
-138,5272256
-144,6137191
-144,2029054
-133,044704
-117,3890339
-105,735813
-105,8349587
-114,6863875
-116,7900156
-104,6457583
-90,50353066
-86,36324716
-85,47482189
-79,0881686
-69,20320076
-60,56983159
-59,68797412
-67,55754126
-72,92844584
-67,80060066
-57,17391855
-49,29831245
-46,17369539
-42,54998064
-36,67708167
-33,05491226
-32,43338654
-35,06241904
-40,69192472
-39,07181906
-21,70201805
0,167561669
9,287002861
12,15638757
23,52579712
27,64531204
8,515012021
-9,365024103
-7,494718424
-3,873993992
-6,002774858
-1,880986114
4,991446066
3,61459439
-15,01146959
-77,38667551
-151,0109542
-42,38423791
395,4935401
918,872445
1037,252541
587,3838897
-6,983446876
-226,8494093
-106,4639393
-23,82698032
-59,18847697
-67,04837558
-45,40662398
-46,51317157
-48,3679693
-41,72096974
-33,82212705
-13,92139699
8,981263015
16,88589394
18,54253509
33,45122414
60,8619971
78,52488832
81,93993048
94,60715462
120,7765901
143,1982646
158,8722042
169,0484332
168,9769745
157,907849
134,0910762
94,02667404
39,96465858
-22,34495554
-82,15215535
-124,7069294
-150,259268
-167,8091627
-171,3566069
-157,9015954
-143,9441246
-140,9841921
-140,5217973
-129,0569411
-109,5896255
-99,86985419
-103,6476322
-103,1729659
-88,69586298
-72,71633261
-66,48438512
-65,50003219
-64,51328675
-62,77416297
-57,78267623
-51,03884309
-46,29268129
-41,29420967
-36,79344822
-35,04041798
-33,28514106
-33,77764059
-36,76794069
-35,00606647
-29,49204397
-26,97590015
-27,70766286
-31,43736077
-38,66502344
-42,89068117
-39,61436506
-34,08610693
-24,05593933
-0,273895473
23,00999078
24,79568495
19,33315196
20,62235618
11,66326148
-7,04416881
-14,99997179
-15,20418501
-15,15684641
-8,107994305
-2,557667363
-13,00590455
-37,7027451
-87,8982285
-138,0923945
-27,28528289
373,7730662
860,8326127
988,1433162
566,9551365
-18,98196669
-241,1680338
-126,1031051
-62,53722075
-118,970421
-136,4027458
-118,834235
-112,7649284
-90,44486526
-68,3740849
-72,30262624
-71,4805279
-54,65782819
-43,58456504
-37,01077601
-19,93649824
5,138231591
26,96337725
46,538903
70,61477365
95,19095453
115,7674115
135,5941112
153,9210206
164,9981075
163,8253403
147,4026882
116,4801209
74,30760906
23,38512383
-32,5373627
-82,45987772
-112,8824476
-121,8050979
-121,2278534
-124,900738
-138,8237748
-151,7469858
-140,1703925
-110,0940151
-94,76787334
-98,19198564
-98,61636975
-89,2910424
-77,71601944
-70,39131574
-67,81694526
-65,49292101
-61,91925505
-57,09595851
-49,02304156
-43,20051343
-47,87838241
-54,05665585
-46,23534018
-30,91444088
-23,5939625
-24,2739087
-27,20428222
-30,13508488
-28,81631764
-22,49798055
-19,43007282
-24,36259277
-29,0455379
-22,22890487
-11,16268953
-15,84688692
-30,5314913
-28,96649616
-8,901894251
10,91232243
23,97616259
31,28963563
22,10275162
-5,334478701
-27,27204397
-31,95993221
-34,64813086
-43,58662676
-57,02540625
-71,96445511
-77,15375863
-76,59330164
-102,5330685
-149,7230431
-96,16320907
202,8964505
652,7059529
873,2653155
590,3245562
42,63369313
-242,0572553
-145,2482705
-27,43933372
-61,88042588
-94,57152786
-75,26262038
-74,45368406
-77,39469942
-54,08564693
-33,02650704
-32,46726016
-31,90788675
-17,09836728
-0,288682299
8,521187564
15,83126157
32,14155886
60,70209841
91,01289901
112,3239793
129,6353576
147,4470521
162,7590808
176,8214611
185,1342103
175,1973456
144,2608835
99,57484024
47,63923178
-5,295926405
-45,73061922
-63,91483202
-73,09855061
-89,03176127
-102,9644507
-103,3966063
-97,07821567
-91,00926721
-83,18974977
-75,61965276
-76,29896617
-81,9776806
-75,15578723
-54,08327787
-38,51014496
-35,6863816
-36,36198151
-38,03693911
-38,96124949
-32,63490841
-26,55791236
-29,73025853
-30,90194482
-24,57296987
-23,74333306
-29,66303452
-33,33207511
-36,5004565
-39,91818107
-40,08525204
-40,50167337
-40,66744981
-33,58258694
-27,9970911
-38,66096944
-54,82422995
-59,48688139
-56,89893334
-58,06039623
-61,72128126
-54,38160048
-30,04136675
-3,950593734
3,890704064
-0,267488664
1,824811959
-7,832411004
-44,7391753
-66,89549947
-52,55140287
-44,95690563
-55,6120287
-51,51679378
-44,67122336
-75,32534069
-142,2291698
-161,1327354
29,463937
466,8108211
856,1578901
796,5051163
291,3524714
-172,8000737
-236,4525485
-92,60498337
-44,00740926
-66,90985767
-57,31236074
-40,96495115
-36,61766217
-23,77052757
-13,17358165
-13,0768592
-6,480395477
5,115773819
10,71161256
23,05708423
49,90215193
71,24677842
78,59092611
93,18455717
122,5276334
148,3701166
166,2119679
186,3031488
201,6436202
200,4833431
191,8222783
180,9103867
150,7476288
93,33396559
28,91935765
-21,24623418
-58,16284901
-86,58052585
-102,4993035
-107,9192208
-114,590316
-130,5126276
-142,1861933
-131,1110509
-107,0372377
-90,96479078
-87,8937466
-90,82414136
-89,50601078
-80,43939008
-70,874314
-65,8108167
-61,24893183
-59,18869239
-66,13013079
-72,07327878
-64,26816746
-53,46482718
-55,16328762
-63,36357766
-69,06572545
-71,26975831
-69,47570275
-72,43358443
-77,64342816
-66,85525785
-51,06909651
-50,28496623
-51,50288813
-43,47288241
-39,69496825
-46,91916385
-51,89548639
-44,62395205
-28,10457592
-8,087372077
10,6776465
22,9404679
16,95108132
-11,04052297
-38,28435354
-47,28041788
-48,02872232
-50,52927205
-52,28207113
-51,03712245
-47,29442774
-50,05398757
-92,31580133
-166,5798673
-115,8461824
228,6352574
720,6144575
922,0914243
585,3161655
18,03868998
-243,9909922
-132,7728698
-18,55693037
-48,09316043
-73,63154517
-55,42206867
-53,96471385
-55,75946245
-46,05629508
-48,60519118
-43,40612908
-1,459085942
46,23596216
65,67904029
65,3701746
63,80939235
69,74672188
84,43219259
101,1158349
114,0476805
127,2277617
140,9061122
143,3327666
125,7577604
100,6811301
102,3529132
127,7731482
105,6918744
16,359132
-62,22503783
-97,31059311
-125,397491
-149,2356879
-155,5751393
-161,1658001
-167,2576242
-152,1005649
-122,9445749
-107,7896061
-113,8856097
-124,2325365
-117,5803365
-95,17895912
-79,52835338
-79,12846773
-78,72925011
-68,83064806
-55,93260866
-48,78507863
-50,13800432
-50,99133179
-44,34500676
-39,44897474
-42,053181
-43,40757062
-39,26208854
-37,61667957
-42,72128844
-42,82585985
-31,68033846
-21,284669
-15,38879621
-8,742664976
-6,346220289
-14,44940732
-28,05217146
-36,65445834
-33,00621385
-15,60738424
10,29208391
30,94224362
36,34314748
34,99484763
34,89739569
30,55084275
19,45523933
5,860635346
-7,482919933
-19,57537791
-26,41669069
-27,75681114
-32,84569287
-41,43329034
-42,01955879
-48,10445439
-95,68793417
-145,2699561
-27,1004791
355,5705369
771,993131
813,9173412
383,5932046
-103,7292431
-220,0499671
-82,61893365
-34,68611035
-83,0014659
-86,8149702
-69,37659437
-72,93631077
-65,99409302
-44,549916
-28,35375588
-13,15559014
2,294602444
8,996841749
11,70114633
23,65753339
46,11601877
71,07661696
91,28934106
100,5042028
106,7212125
125,6903792
149,4117104
158,3852122
158,6108895
160,8387457
150,5687827
119,5510011
81,2854002
40,02197772
-9,989269862
-60,99834748
-97,50526145
-107,5100194
-93,76263046
-86,0131049
-98,51145448
-102,5076922
-86,50183248
-72,49389092
-67,73388449
-64,72183142
-60,95775121
-58,1916646
-56,92359357
-53,40356134
-43,6315923
-32,10771206
-29,83194737
-36,55432615
-39,52487746
-33,99363146
-26,21061942
-19,67587367
-15,88942761
-20,60131566
-32,81157328
-37,52023689
-31,22734391
-26,4329327
-24,13704253
-20,58971358
-21,04098694
-27,99090452
-33,93950906
-33,38684415
-32,83295412
-36,27788409
-40,97167989
-42,91438807
-35,10605587
-23,54673118
-20,98646253
-21,42529904
-21,86329042
-37,05048694
-63,73693938
-80,92269903
-83,60781765
-78,29234744
-71,97634101
-75,40985137
-88,09293189
-107,2756363
-157,2080185
-209,8901329
-96,07203396
301,7462236
760,5645848
848,3829945
424,9513976
-113,4802613
-289,1620375
-148,3439866
-48,7761639
-69,70862491
-76,891425
-54,32461946
-48,0082635
-47,19241217
-39,62712035
-29,31244275
-8,498433826
22,06485223
40,37736149
39,93904038
45,99983564
66,05969442
82,11856426
99,17639316
126,2331296
146,7887224
157,8431213
172,6462761
182,6981376
181,7486569
180,0477861
167,0954776
133,3916848
93,93636157
50,22946277
-1,479056076
-44,93923861
-72,40112763
-91,11476508
-97,830192
-92,79744853
-95,01657386
-105,7376062
-102,7105829
-93,93554002
-109,9125129
-127,8915357
-96,87264138
-43,35586203
-24,84122851
-28,32877054
-31,81851674
-44,56049451
-55,55473012
-53,8012486
-53,3000738
-55,80122831
-49,55473351
-42,81060951
-51,81887516
-70,07954805
-76,84264445
-67,10817938
-59,37616653
-65,8966183
-78,66954575
-87,94495865
-90,47286544
-89,00327321
-85,03618775
-75,57161349
-61,35955354
-48,15000969
-39,19298237
-32,7384707
-26,53647245
-18,33698409
-12,39000074
-18,69551622
-35,00352304
-47,81401238
-49,12697414
-42,94239693
-41,76026807
-49,3305736
-54,4032983
-60,22842568
-101,805938
-181,3858164
-161,4680406
148,1974108
671,3605603
981,2714317
729,9300499
129,8364411
-235,7593676
-177,8573477
-49,95746989
-63,30970354
-87,66401702
-65,27037766
-58,87875173
-61,23910448
-44,35140015
-26,215602
-16,58167232
-4,449572463
5,68073717
7,809297069
15,68614862
32,56133407
49,93489652
72,3068799
98,92732895
118,7962892
133,1638069
148,279929
163,6447034
173,5081785
170,8704033
160,2314276
144,3413018
106,450077
45,80780461
-8,585463179
-45,97967371
-77,62477381
-99,52070983
-105,4174277
-108,5648728
-115,2129902
-115,3617246
-108,2610204
-98,66082135
-87,81107129
-83,71171357
-88,11269133
-87,76394749
-77,41542477
-65,81706571
-62,46881272
-69,12060809
-77,272394
-77,42411261
-70,82570601
-66,2271163
-64,37828562
-62,02915612
-63,92967008
-68,32976986
-64,97939795
-54,37849703
-44,27700996
-37,67487982
-36,57204997
-40,468464
-42,36406586
-40,50879981
-41,15261048
-49,04544289
-60,18724249
-60,57795518
-42,46752732
-16,35590579
2,256961988
13,12112806
21,73664388
16,10356028
-8,528072541
-26,90820503
-23,53678834
-14,66377432
-17,53911556
-31,41276542
-44,28467801
-48,15480827
-60,52311196
-118,1395457
-187,2540669
-86,61663396
321,0227939
817,1642564
939,8077925
525,70344
-13,39876396
-192,9987836
-82,84658389
-27,69213096
-61,03539189
-56,87633486
-38,96492906
-49,55114478
-54,38495338
-44,7163273
-38,79524009
-24,12166639
8,554418052
31,98303636
32,66421053
39,34796146
64,78430891
83,72327148
91,66486668
109,1091108
130,8060192
139,2556058
140,9578837
146,4128646
150,1205592
142,8309771
121,5441267
89,76001532
46,4786492
-7,049966581
-53,32582803
-85,34893225
-113,3692774
-134,8868628
-138,6516887
-130,9137566
-128,4230688
-129,4296289
-121,9334414
-110,9345118
-107,4328466
-107,1784534
-101,1713407
-90,16151804
-82,1489958
-79,63378539
-72,36589913
-59,34535026
-57,82215294
-68,04632218
-68,01787389
-53,48682483
-39,2031926
-32,66699565
-34,87825321
-43,08698531
-50,29321279
-51,74695722
-43,94824093
-32,89708697
-33,59351911
-42,03756182
-44,22924024
-42,41858017
-36,85560806
-20,04035096
-0,472836558
9,596906889
18,66885055
28,49296505
21,31922047
1,397586395
-10,2719681
-15,1894744
-22,35496434
-26,51847022
-26,43002473
-27,58966094
-29,74741233
-54,65331271
-125,3073962
-128,4596974
150,3897492
669,9909083
995,5937447
754,698223
142,5543074
-258,338038
-213,9788493
-52,11816272
-38,50601453
-73,64244121
-57,27747929
-37,66116535
-34,79353601
-21,92462791
-10,80447769
-18,43312195
-22,31059727
-8,186940136
8,937813033
26,81362594
49,9404624
64,31828639
70,44706206
86,07675373
108,9573259
127,8387434
141,2209712
145,6039746
136,4877191
124,3721705
120,257295
107,1430592
61,77942979
-4,333625969
-62,19614051
-103,5581459
-133,6696737
-155,2807551
-172,641421
-187,2517016
-193,3616269
-188,2212262
-175,8305284
-161,1895621
-148,2983552
-136,6569352
-124,5153289
-115,8735629
-111,981663
-107,5896547
-100,9475627
-91,80541146
-80,16322473
-74,02102576
-77,37883727
-78,48668143
-70,09457988
-62,20255371
-61,56062349
-62,66880924
-61,27713046
-56,88560611
-48,99425464
-40,35309397
-35,21214151
-36,82141416
-43,43092831
-43,54069988
-31,90074428
-17,01107645
-0,371710861
21,01733849
35,65605806
29,04443473
7,182455835
-6,679890875
-2,792617233
5,844265332
6,480745784
2,366813467
3,252458098
5,887669753
-12,22756114
-82,34324383
-160,7093872
-54,82599992
370,5569098
883,4393339
1010,821265
580,4526946
5,083616627
-201,5359763
-83,90609091
-14,52673366
-59,14791084
-70,01962853
-48,89189261
-53,26470878
-57,63808258
-46,51201937
-42,63652438
-42,01160266
-29,63725917
-13,01349872
1,109673998
12,23225438
21,35423795
37,72562028
62,09639706
83,46656405
95,83611705
103,9550519
116,8233647
130,9410512
133,5581075
121,6745297
100,0403138
69,15545591
24,76995211
-29,11620149
-74,75300878
-101,8904737
-117,0286001
-124,667392
-124,0568533
-119,9469879
-118,5878
-119,4792936
-116,1214727
-107,5143415
-102,1579042
-98,30216516
-85,44712856
-68,84279885
-59,98918048
-55,13627799
-50,034096
-46,68263922
-43,08191244
-43,73192054
-46,63266852
-36,78416146
-21,93640457
-21,83940314
-27,99316261
-25,3976885
-22,30298649
-24,95906236
-25,61592202
-23,52357154
-23,93201709
-25,84126501
-28,25132176
-32,16219394
-32,57388834
-24,73641184
-11,14977153
3,686025393
16,52097154
16,60505939
-6,561718766
-38,22937077
-50,39790464
-39,31732855
-31,23765084
-38,40888003
-41,83102478
-37,00409391
-44,67809642
-91,35304147
-175,5289384
-170,9557966
109,6163743
596,6875644
894,2577639
697,3269626
185,8951504
-148,7876831
-122,9715484
-19,90645619
-39,34241715
-83,27944217
-84,71754226
-81,4067285
-76,0970121
-59,03840437
-45,98091669
-38,67456054
-25,86934745
-13,56528904
-7,262396981
5,03931701
25,83984117
46,38916372
67,93727283
88,73415668
100,5298034
108,8242013
125,8673385
146,9092031
152,9497836
141,2390681
126,2770451
109,313703
78,09903032
28,38301569
-26,58435216
-64,05308439
-77,77319206
-83,49468605
-87,7175771
-87,19187582
-91,91759262
-102,8947377
-103,1233212
-92,85335285
-85,33484234
-80,81779905
-74,05223216
-66,28815058
-60,02556299
-52,51447779
-44,25490311
-42,49684681
-46,49031644
-45,73531927
-38,48186224
-32,479952
-27,72959486
-23,4807968
-30,23356347
-47,73790017
-56,49381185
-51,00130311
-47,51037818
-51,27104092
-55,53329482
-62,547143
-71,31258819
-73,07963274
-68,34827859
-60,11852732
-44,89038008
-29,41383765
-25,68890038
-25,71556825
-24,49384079
-35,77371716
-56,0551961
-68,58827592
-69,37295455
-59,90922949
-49,19709782
-45,73655623
-47,02760097
-53,57022791
-70,11443248
-114,4102097
-155,9575542
-20,50646021
399,4430785
824,3910686
812,087517
339,0324311
-117,2741811
-187,3323116
-43,89195155
2,796907932
-32,76572369
-31,07983661
-18,1454206
-28,21246508
-28,28095904
-6,850891129
13,32775042
15,75497775
4,680803357
6,855240146
34,02830137
60,20000067
66,37035203
64,53936981
74,20706874
102,1234639
137,2885707
159,7024049
161,3649826
157,5263203
161,1864348
162,3453432
147,003063
110,4096119
57,31500801
1,969269743
-45,12758421
-81,22553484
-102,5745629
-110,1746487
-112,7757725
-116,6279141
-120,9810531
-121,085169
-118,6902407
-119,7962472
-120,6531671
-114,7609788
-104,3696605
-97,22919031
-96,83954593
-96,45070503
-92,8126451
-93,92534345
-95,78877725
-89,90292354
-87,76775925
-90,8832612
-84,24940611
-74,61617065
-75,98353138
-82,85146487
-86,9699476
-86,33895607
-81,20846675
-76,07845616
-78,69890081
-89,81977727
-95,44106217
-82,81273221
-60,68476421
-44,05713506
-32,67982181
-31,05280163
-46,92605188
-59,04955007
-48,42327391
-34,54720134
-33,9213105
-36,04557979
-34,41998788
-32,7945137
-42,41913647
-100,7938357
-193,1685914
-123,2933836
301,3318071
874,2069997
1065,832213
634,2074652
-5,417225776
-255,7918425
-104,4163679
19,20921446
-17,41507918
-39,78923323
-11,91323252
-6,037062415
-12,16070874
-1,284157858
17,59260336
36,21958751
53,34680666
61,72427232
64,85199547
75,22998652
86,85825533
96,48681119
118,1156628
144,7448184
155,6242854
159,004071
171,3841815
184,5146227
186,3954
175,526518
146,6579808
92,7897919
23,42195427
-37,69552976
-78,81265838
-112,1794304
-146,0458452
-164,4119026
-164,2776032
-163,892948
-160,2579387
-149,8725773
-149,2368666
-150,1008098
-137,4644107
-132,5776736
-139,9406034
-130,3032053
-109,9154852
-107,7774496
-113,3891051
-106,7504592
-97,61151976
-89,97229498
-75,83279364
-66,44302496
-71,30299861
-75,4127247
-64,27221374
-47,63147671
-48,24052498
-65,5993703
-77,95802486
-80,31650119
-76,42481222
-60,03297123
-32,39099186
-8,24888808
1,143325793
3,535635141
10,42802503
8,570480241
-15,28701474
-37,89447568
-38,00191862
-30,85935983
-28,71681582
-24,57430329
-14,18183917
-6,289440568
-35,89712475
-128,0049092
-176,8628113
48,279151
588,1709601
1056,312598
976,4540468
386,0952884
-132,5136951
-193,1229219
-47,73240993
-21,59217735
-54,20224213
-35,8126222
-21,67333543
-32,53439959
-25,3958323
-8,757651079
-4,119873251
6,267484033
28,90440383
45,29086943
49,42686438
52,81237247
65,94737782
85,33186485
103,9658183
127,5992234
151,4820656
155,6143307
149,7460052
155,1270759
155,7575301
135,3873555
100,0165404
42,39507363
-34,72705535
-97,09985659
-130,9733395
-153,0975129
-172,2223848
-185,5979629
-187,4742538
-176,6012636
-167,4789978
-171,857461
-174,9866569
-160,6165888
-140,9972588
-131,3786686
-125,7608188
-115,6437091
-102,5273387
-93,41170553
-93,54680695
-95,43263927
-88,31919795
-78,70647753
-79,59447164
-85,98317295
-80,87257322
-64,01266325
-53,40343289
-53,29487103
-50,68696559
-44,07970352
-43,72307079
-51,36705239
-59,01163234
-56,65679366
-41,30251839
-19,94878757
-0,095581266
10,50712146
7,359342522
1,71110483
2,562432275
-3,086650265
-19,73611693
-29,13594089
-25,03609434
-17,1865485
-12,83727362
-12,23823901
-12,38941301
-46,29076302
-141,9422555
-158,093856
141,504471
704,6027616
1088,451053
900,7993839
290,6477927
-155,5036805
-152,4049949
-13,05610885
-7,456979886
-36,85756465
-23,25781897
-21,15769787
-27,30715554
-17,70614539
-14,85462004
-18,00253134
-8,399830398
-0,546467554
-0,442392433
12,91244606
37,01809971
55,62462101
68,7320631
72,09047977
70,69992547
90,81045525
124,9221248
140,0349903
143,6491085
152,014537
141,8813334
99,74955618
49,36926425
0,490516902
-54,38662609
-103,7621045
-136,3858579
-156,0078251
-166,8779449
-171,2461558
-166,6123957
-152,7266024
-139,5887136
-133,1986666
-127,3063986
-118,1618465
-112,0149473
-107,8656377
-101,4638545
-99,30953426
-100,1526138
-93,2430297
-82,08071885
-77,91561809
-83,24766442
-92,82679504
-97,15294732
-91,47605891
-79,54606771
-68,61291195
-66,17653021
-72,73686146
-77,04384512
-71,84742106
-63,39752968
-57,19411191
-54,2371093
-60,52646401
-70,81211887
-57,34401744
-20,87210403
-1,896323736
-3,166622496
5,817052873
13,05475464
-2,453465898
-16,45755843
-9,957473682
-4,953163482
-19,19458076
-37,68167963
-45,41441537
-45,89274454
-48,61662494
-81,33601572
-156,0508774
-156,5111718
112,5331378
619,0820865
972,6357081
795,1940348
218,2570973
-196,6750756
-180,8524563
-41,27501909
-34,69274003
-55,35559675
-29,0135687
-21,1666371
-28,56478497
-16,20799718
-0,846260428
7,770436684
17,64210366
27,01874809
39,90037561
60,53698988
74,67859261
78,57518349
90,97676021
115,6333184
136,5448517
149,9613517
167,1328079
188,0592076
197,2405363
185,6767771
162,8679113
134,5639178
86,51477369
20,47045369
-34,56906946
-68,85382513
-95,38384485
-114,4091622
-121,679813
-124,9458349
-131,2072681
-134,2141543
-121,9665379
-103,964465
-101,9579838
-106,6971447
-98,1820001
-85,66260438
-80,139014
-77,36128743
-77,07948514
-76,29366958
-67,00390515
-53,21025825
-42,91279715
-37,6115921
-39,80671518
-46,49824039
-47,43624358
-44,37080239
-45,80199631
-46,7299066
-40,40461627
-32,32621007
-31,24477445
-35,66039754
-36,57316913
-33,73318062
-25,64052501
-15,04529686
-27,94759225
-62,59750876
-73,99514546
-53,64060281
-39,0339827
-40,67538838
-39,8149244
-31,70269661
-18,58881214
-11,97337928
-26,85650754
-42,48830754
-39,118891
-30,74837068
-26,12686036
-31,25447478
-48,88132962
-55,7575414
-42,13322751
-45,00850611
-107,8834961
-184,008317
-86,63308921
313,4920666
808,617029
967,2416761
610,8658856
82,23953482
-142,3874993
-59,51534007
1,60588892
-41,27393606
-56,90493889
-31,0372435
-16,92097384
-20,30625382
-25,69320726
-11,83195782
12,02737106
14,8846562
5,739774733
10,34260421
31,19302259
55,04090836
67,63614054
73,7285988
89,81816345
117,4047156
141,488137
149,0683104
149,3951195
162,9684488
182,0381839
174,1042114
132,1664194
75,22469662
10,77893351
-51,42097841
-90,12514619
-109,5836755
-126,2966704
-138,0142337
-143,7364664
-142,4634679
-129,695336
-116,6821667
-113,6740543
-114,4210912
-106,4233681
-85,68097344
-75,693994
-89,46251444
-91,23661738
-69,51638335
-65,30189075
-82,3432158
-84,14043254
-69,44361275
-64,00282591
-77,81813923
-92,63961753
-82,21732331
-63,55131661
-71,14165507
-85,73839386
-77,59158569
-60,95128072
-49,81752662
-39,94036848
-36,56984885
-48,95600768
-71,09888231
-81,24850748
-77,40491528
-82,81813519
-93,738194
-90,41511587
-75,09892227
-53,03963202
-31,48726124
-21,6918234
-18,65332924
-24,12178686
-44,59720167
-54,32957638
-41,31891105
-39,31520306
-53,81844713
-54,32863532
-42,59575705
-37,36979908
-63,40074559
-148,9385781
-186,2332755
63,9651857
609,6568319
1039,841692
919,7697965
333,4411801
-147,3941211
-184,7360685
-53,83462072
-47,18973413
-76,30136265
-53,41945781
-48,0439688
-64,92484245
-56,06202333
-32,95545369
-18,10507357
-3,010820748
15,07736914
28,90956265
34,23582843
32,80623726
46,62086194
83,67977733
110,9830602
119,7807895
141,3230458
177,1099117
203,1414716
212,6678118
202,6890204
174,205187
138,466403
90,22276161
23,72435741
-38,27871332
-78,03635283
-102,2984619
-118,5649398
-129,8356844
-139,6105925
-145,3895592
-140,4224787
-129,7092436
-128,4997458
-137,2938757
-136,0915228
-117,6425758
-102,4469219
-99,00444797
-90,31503963
-76,62858183
-78,94495873
-92,26405382
-91,33574988
-78,15992911
-68,23647317
-61,06526321
-60,14617994
-70,97910366
-77,06391437
-60,90049177
-36,98871531
-32,57846432
-42,66961796
-44,01205537
-35,85565566
-24,20029799
-8,795861627
-7,392225995
-28,48927073
-35,33687575
-14,18492127
-7,283287897
-24,63185667
-31,73050912
-24,32912729
-26,42759385
-38,27579208
-36,12360599
-13,22092032
11,93237939
26,58640674
35,24127443
38,64709423
26,30397688
2,212032085
-13,37863154
-15,46790651
-14,55568657
-14,89186665
-11,72634297
-8,559013075
-20,88977587
-64,46853165
-140,2951822
-145,6196306
117,0582182
629,4884581
997,171181
835,3564777
266,2944368
-162,2648545
-171,5713107
-45,87484822
-41,92538504
-67,47284109
-55,26713808
-61,3081996
-64,59595109
-41,13031988
-38,41123523
-56,93862834
-50,46243236
-28,2325824
-22,99901556
-19,01167095
3,729510328
30,22458513
48,97360828
70,72663259
100,7337088
120,2448855
122,5102095
132,2797252
152,8034751
158,0814997
148,6138373
139,6505242
116,9415946
64,73708059
0,287012344
-52,65858215
-86,09967692
-103,286248
-117,9682736
-125,8957337
-108,5686106
-91,98688832
-104,9005531
-114,5595931
-94,21399848
-69,3637612
-62,50887534
-58,89933686
-45,53514361
-45,16629536
-67,29279377
-69,91464235
-37,03184645
-19,89441327
-37,25235179
-44,85567281
-29,70438887
-24,29851428
-36,38806507
-38,72305897
-21,30351541
-6,879455454
-11,70090183
-26,51787889
-32,83041254
-24,13853029
-17,94226118
-27,24163578
-32,78668614
-19,3274458
-3,613949745
-3,14623436
-12,92433745
-15,94829816
-12,71815702
-25,48395583
-43,99573772
-38,75354706
-33,25742946
-52,00743175
-56,25360192
-28,74598912
-13,98464366
-24,96961689
-32,95096128
-37,67873032
-49,6529785
-58,62376133
-65,84113524
-81,55515761
-94,2658867
-85,97338164
-62,92770242
-55,37890981
-78,07706538
-127,0222314
-208,464471
-239,4038477
-16,34042609
482,725729
906,0445519
851,3659764
348,439936
-114,7336366
-192,4048091
-78,32364956
-53,49022644
-83,65460864
-75,06686537
-59,97706616
-60,6352808
-53,79157934
-34,69603203
-13,84870931
3,250318231
15,35097991
24,95320495
36,55692251
50,16206177
66,76855189
86,37632211
96,23530172
102,3454201
131,456607
171,8187919
191,681905
194,2958763
196,9106364
201,276116
192,1422464
149,5089588
78,37618535
11,74385821
-32,38808981
-65,51972544
-89,40111492
-95,28232391
-92,66341752
-99,04446024
-113,675516
-114,3066479
-96,68791858
-83,56938982
-74,45112274
-58,58317768
-57,46561418
-74,34849102
-73,48186613
-57,61579661
-58,00033867
-63,63554766
-59,77147802
-60,40818326
-61,04571595
-48,93412771
-38,07346919
-40,46379004
-50,10513894
-62,74756351
-71,14111038
-62,53582513
-48,9317523
-57,07893535
-71,97741671
-59,8772377
-41,27843858
-50,43105852
-67,83513558
-66,24070676
-59,39780792
-65,55647383
-76,46673816
-84,62863347
-91,2921912
-85,7074417
-69,6244142
-65,54313682
-69,96363659
-63,38593943
-52,31007016
-50,73605252
-57,16390914
-65,59366158
-69,27533032
-60,95893476
-39,64449325
-12,58202305
6,478459605
10,28693953
4,84340259
-4,352164338
-16,54977335
-23,99943552
-20,45116093
-16,15495867
-19,61083683
-20,06880254
-11,02886196
-21,24102028
-88,20528175
-162,4216497
-61,39012646
332,3892865
808,9165886
952,1917802
593,9648626
72,48583788
-141,9952909
-50,97851977
15,78615592
-21,20125819
-36,44075562
-20,18232909
-14,17597045
-10,42167074
-8,419420177
-13,16920815
-12,67102326
5,32514672
38,0693148
66,06149478
83,05170126
94,53994962
96,52625601
100,2606374
120,7431114
140,2236966
143,9524122
148,1792782
160,9043153
172,877545
180,8489897
175,5686722
142,0366164
86,50284664
27,96738825
-27,31973286
-76,35849001
-110,6488558
-130,9408021
-139,4843001
-133,7793202
-121,8258322
-110,8738051
-98,67320724
-94,97400626
-106,5261691
-113,3296621
-102,1344509
-86,19050031
-74,24777468
-65,05623763
-65,61585215
-75,92658059
-81,98838466
-76,05122549
-62,86506358
-53,92985884
-55,9955706
-65,81215763
-77,62957813
-80,94778976
-69,51674965
-61,33641444
-72,40674023
-85,22768267
-80,04919693
-67,37123772
-61,94375935
-61,51671569
-65,09006022
-70,41374606
-68,73772594
-64,31195231
-63,38637725
-61,46095259
-60,03562988
-60,61036041
-59,43509526
-57,75978531
-50,83438124
-40,15883363
-47,98309287
-69,0571093
-67,13083315
-41,20421461
-17,27720386
-4,599751039
-2,671806356
-0,24332005
14,93575755
21,61547603
1,295884811
-15,27296682
-6,591029774
1,341744835
-9,724594354
-26,78999896
-32,85442091
-26,91781241
-25,23012606
-57,7913148
-128,601332
-112,9101313
175,532333
665,9761062
951,6712333
721,1177584
188,0657254
-136,2348224
-111,5338426
-36,58129288
-64,37713203
-80,67131924
-54,96381443
-49,7545782
-54,54357186
-40,58075746
-19,36609777
1,35044366
18,8189025
26,53931364
30,26171114
34,98612824
43,96259733
68,44114996
101,9218168
124,4046276
139,6396113
154,8767959
155,6162084
147,6078749
160,8518207
181,09807
171,346646
144,8475711
118,6008666
73,85655279
14,36464907
-33,87482623
-65,11185578
-82,59642327
-97,32851341
-119,5581119
-131,0352056
-123,5097822
-116,4818307
-110,2013408
-98,66830369
-96,38271125
-101,8445566
-95,3038339
-81,26053837
-79,9646663
-88,91621508
-90,11518318
-82,31157013
-75,25537658
-71,94660425
-75,38525597
-82,07133567
-80,25484837
-74,6858002
-76,3641984
-76,2900513
-65,46336836
-55,13416017
-58,55243839
-72,46821583
-80,38150641
-72,29232519
-57,45068832
-48,8566131
-52,51011794
-65,91122239
-73,30994711
-68,95631392
-65,10034572
-64,49206659
-66,1315017
-77,01867737
-89,15362102
-83,03636124
-60,16692769
-41,2953512
-35,17166369
-31,5458982
-25,41808888
-23,53827101
-28,90648096
-34,77275618
-38,13713524
-48,9996578
-62,36036457
-55,46929736
-34,07649904
-24,93201351
-48,28588576
-126,1381618
-188,9888886
-14,3381142
481,8141123
958,467741
948,1227208
441,2789998
-53,06347486
-150,154757
-32,49490126
-9,083963267
-48,92199945
-37,7590671
-22,5952243
-30,93052996
-16,76504374
10,40117395
16,06806196
15,98555847
25,65360097
34,32212633
47,9910708
77,41037006
104,3299592
112,4997729
120,1697452
142,3398098
164,2598999
181,1799485
200,849888
214,0196506
215,9391683
212,3583727
196,2771954
159,9455676
106,3634207
42,03068555
-16,05270662
-51,1368248
-70,9717379
-85,05751476
-86,14422411
-79,48193453
-82,07071442
-91,41063193
-95,50175495
-95,34415105
-95,18788745
-93,78303099
-89,12964807
-81,22780461
-77,82756604
-85,92899723
-93,53216247
-86,38712543
-73,7439491
-74,1026958
-86,9634271
-92,82620379
-86,69108587
-82,80813251
-79,177402
-69,7989517
-67,17283808
-76,29911659
-89,42784173
-99,05906693
-96,94284459
-88,329226
-86,71826136
-89,10999972
-87,50448896
-82,40177578
-78,80190566
-83,70492285
-93,36087034
-94,51978984
-88,93172178
-91,09670524
-102,514778
-107,4359764
-91,86033566
-62,5378893
-41,46866962
-33,40270748
-22,84003233
-16,03067217
-29,97465355
-48,17200159
-51,87273993
-50,57689074
-48,53447472
-39,99551109
-33,96001756
-39,92801036
-70,64950423
-143,8745124
-175,1030466
31,664883
502,4292676
909,1901001
855,6973748
367,9510874
-60,29876472
-105,3021827
-1,809166232
-14,0697135
-53,58382117
-34,35148444
-26,622697
-35,14745108
-19,92573742
-1,707545292
9,257137493
23,96832458
31,17603106
33,38027347
46,83106977
65,77843935
84,472403
106,6629829
122,8502027
126,0340873
126,7146631
132,6419578
144,8160003
165,4868211
180,6544519
167,8189256
135,4802766
102,6385403
61,79375358
6,195954468
-49,15481776
-87,75852264
-106,3651185
-115,4745625
-126,5868107
-130,451818
-114,8195381
-99,68992368
-107,5629265
-123,938497
-127,0665848
-118,9471384
-109,5801054
-100,4654325
-89,1030654
-78,2429488
-74,38502669
-78,27924214
-85,42553742
-90,07385401
-87,72413262
-85,12631322
-90,03033509
-93,18613683
-83,84365641
-70,50283117
-71,4135979
-82,3258928
-79,48965159
-67,90480951
-67,07130133
-64,73906142
-54,65802378
-57,82812203
-66,99928952
-55,6714593
-40,59456418
-47,51853678
-59,44330953
-59,61881474
-50,5449846
-29,47175127
-2,399046856
18,67319653
26,99504672
11,56657148
-12,86216155
-15,79108487
-11,72013116
-18,14923332
-14,57832451
-3,757338156
-7,686208018
-16,3648682
-30,2932532
-88,47129793
-150,8989377
-27,82610845
393,9972536
874,0712115
963,3958277
517,7211644
-40,70271732
-217,8757567
-90,54789367
-26,96906906
-65,63922427
-65,30830151
-43,22624376
-44,64299479
-41,05849922
-30,72270249
-32,13555091
-31,2969917
-14,45697294
8,634556325
24,22764614
31,82234558
46,41870276
75,01676481
104,6165778
127,718187
145,8216363
156,9269688
167,0342266
181,6434505
191,2546805
187,8679554
167,4833129
128,3507896
78,47042104
22,09224169
-37,28371515
-80,90741725
-99,77883352
-108,897934
-117,5146897
-120,8790731
-118,4910574
-113,6006171
-105,207728
-97,31236682
-94,41451136
-89,26414069
-78,86123495
-68,4557754
-58,29774442
-48,63712554
-45,72390336
-50,05806362
-52,38959317
-50,46847997
-47,54471307
-39,86828264
-30,18917993
-29,00739729
-34,07292816
-40,88576705
-53,19590957
-66,00335239
-71,30809324
-71,36013093
-68,40946533
-63,95609733
-62,00002891
-63,29126307
-67,07980382
-75,11565624
-87,14882641
-88,92932142
-66,70714938
-33,9823194
-15,25484157
-16,024727
-25,04198773
-37,55663682
-57,56868827
-74,07815703
-72,83505902
-68,08941108
-77,59123099
-93,34053746
-101,5873501
-100,3316894
-120,3235768
-197,5630346
-225,3000859
25,9652452
550,2329339
941,5029543
794,2752801
221,2998838
-211,4232627
-208,1441885
-65,61292314
-57,82949721
-88,54394195
-69,25628933
-52,46657204
-48,1748235
-37,88107778
-27,58536966
-11,53773455
11,26179148
27,56317176
37,616369
46,17134534
56,22806233
75,28648099
102,5965618
129,9082648
152,9715494
170,5363746
183,3526991
195,1704809
209,4896779
218,0602473
204,6321463
173,2053313
133,7797589
77,60538508
11,18216559
-41,48994401
-72,66098838
-84,58101241
-90,00006114
-104,9181798
-112,3354136
-97,75180816
-88,91740885
-96,58226126
-97,24641098
-85,40990362
-68,32278474
-46,98509989
-33,39689454
-37,55821407
-46,21910374
-47,87960868
-46,53977388
-41,69964411
-33,10926397
-27,51867781
-19,92792974
-11,8370636
-20,99612292
-35,65515094
-37,56419056
-40,97328431
-46,63247436
-44,79180247
-43,70130999
-43,61103785
-46,52102652
-59,18131598
-66,34194574
-66,75295482
-80,91438168
-99,32626426
-100,48864
-87,1515456
-67,81501738
-50,97909096
-50,39380134
-62,55918291
-68,72526941
-69,89209394
-78,55968892
-86,7280861
-82,64731653
-76,81741056
-79,23839784
-81,41030729
-85,3331671
-122,0070047
-187,9318468
-137,6077193
204,9653526
709,7873445
929,6082328
609,6779947
65,49660818
-189,685948
-108,8696941
-26,80464995
-55,24083413
-68,67826463
-52,36695855
-52,80693216
-49,74820088
-34,19077928
-22,6346811
-10,32991922
6,723494339
17,27554842
22,32623271
35,62553777
59,42345502
86,96997675
113,0150961
130,5588071
138,6011046
150,8919845
175,4314432
197,9694783
205,7560881
201,0412719
185,3250297
156,6073625
112,1382719
50,16776071
-18,55416765
-74,27750887
-105,5022578
-114,9784084
-112,9559538
-107,9348865
-105,415198
-107,896879
-114,6299195
-122,6143086
-126,8500346
-124,3370853
-115,8254473
-104,8151069
-96,3060493
-95,04825918
-99,29172044
-99,28641627
-94,28232921
-90,52944108
-84,77773307
-77,52718571
-77,52777892
-81,52949199
-77,03230363
-65,28619196
-61,54113454
-65,0471084
-60,30409003
-51,81205545
-53,57098016
-61,33083921
-58,09160721
-40,60325835
-31,11576641
-40,87910481
-51,14324659
-42,40816448
-17,92383086
-1,690217868
-3,207297336
-1,975040872
6,006580144
-1,512405475
-26,53196874
-49,5520805
-55,8227115
-48,59383236
-48,86541363
-57,13742579
-53,65983929
-56,68262459
-108,9557521
-178,4791924
-97,2529159
279,9731067
777,9489047
945,6745072
568,3999434
10,87524194
-206,8995684
-89,42445914
-7,449402072
-46,72436918
-57,74933273
-39,77426525
-49,04913959
-54,57392888
-41,59860661
-29,87314662
-13,64752309
11,0782894
30,55431589
42,28058101
51,00710895
60,23392349
77,21104795
101,9385052
124,9163176
145,1445072
168,3730952
190,1021026
203,3315499
206,311457
198,2918431
181,7727271
149,5041273
88,73606144
18,96854667
-27,79840039
-60,5647637
-102,8305278
-141,5956777
-154,8601992
-149,8740785
-138,8873025
-127,8998586
-127,9117349
-133,4229199
-128,183403
-119,1931739
-120,2022231
-123,2105416
-114,9681211
-99,22495367
-89,98103229
-86,48635036
-75,99090191
-62,9946816
-58,74768465
-59,74990692
-62,00134484
-66,75199545
-68,00185639
-59,00092587
-46,24920271
-38,99668631
-35,99337667
-35,98927437
-37,98438054
-35,72869692
-31,97222581
-34,7149701
-40,2069332
-38,69811912
-28,93853242
-15,1781782
2,58293789
19,34480965
17,85743036
-4,62920725
-19,11511096
-9,850289056
-7,084750361
-28,31850418
-43,80156033
-38,53392909
-29,51562124
-29,99664802
-63,47702115
-144,9567528
-171,1858555
61,83565764
572,6077732
1000,380477
899,9037556
303,1775935
-203,048024
-224,7731123
-52,99768724
-40,72176488
-93,94536166
-76,66849431
-55,64117988
-60,3634357
-54,08527937
-48,05672876
-50,02780195
-40,74851729
-18,21889332
12,06105123
32,34129743
22,1218262
12,90261831
40,93365439
79,71491497
106,9963805
132,7780312
148,0598475
153,5918095
166,6238974
172,6560915
154,6883719
121,2207188
75,75311249
16,78553321
-40,68203867
-83,89962267
-115,1172383
-135,0849047
-143,0526413
-143,520467
-143,9884007
-142,956461
-130,9246665
-113,1430354
-105,8615857
-109,0803353
-106,0493016
-91,51850198
-80,73795332
-77,70767232
-67,92767535
-52,89797843
-47,11859726
-51,33954719
-57,81084321
-60,28249992
-55,50453157
-50,47695198
-54,44977461
-57,92301247
-47,64667818
-36,3707839
-38,34534139
-45,57036194
-49,79585638
-48,52183511
-39,24830804
-24,72528461
-15,7027738
-23,93078409
-40,65932348
-41,38839946
-24,11801905
-6,598188734
7,671085484
23,18979812
31,2079442
20,22551927
-2,507480597
-12,49105883
-5,225218306
-2,709961397
-6,945289933
-9,431205221
-20,41770803
-36,90479861
-60,39247665
-126,6307413
-175,3695913
6,890975405
490,4009612
944,660369
915,1692024
384,4274654
-125,5648373
-208,8077006
-73,55111886
-56,54508584
-111,5395948
-104,5346383
-83,53020871
-89,27629751
-85,52289581
-70,51999415
-59,76758255
-43,51565046
-22,26418681
-5,263180001
11,7373821
29,98751217
46,23722341
64,98652953
86,48544481
106,733984
129,2321625
153,479996
171,7275008
185,224694
194,2215927
181,718215
139,214579
83,46070386
26,70660878
-33,29768634
-86,05216115
-114,3067948
-124,8115661
-134,0664532
-140,0714338
-139,8264854
-141,5815847
-137,5867082
-117,0918319
-100,5969314
-100,6019819
-96,10695813
-85,36183443
-84,86658481
-82,3711829
-67,87560195
-57,87981488
-55,88379426
-53,88751234
-50,89094107
-41,89405211
-29,89681682
-26,3992063
-25,15119143
-21,40274281
-26,90383086
-34,90442577
-28,65449757
-21,65401612
-29,65295111
-37,15127213
-30,39894864
-20,14595003
-17,14224558
-18,88780455
-25,13259616
-37,37658961
-48,86975412
-54,36205893
-52,60347333
-41,09396669
-29,33350847
-29,57206824
-25,30961571
-3,04612075
9,718446594
-6,515883929
-31,24908279
-45,23112072
-47,21196869
-40,44159798
-36,16998019
-42,39708723
-47,87289138
-43,09736528
-56,820482
-130,292215
-180,5125382
12,01857413
489,801147
902,5852052
829,6207728
309,9078734
-138,5534699
-182,2632347
-62,22139916
-60,4279419
-99,63284234
-83,83608049
-69,78763702
-71,48749327
-59,68563129
-45,38203382
-35,57668434
-22,76956706
-12,46066693
-0,899969675
21,66253821
41,22686944
51,04303593
68,86104879
95,93091831
119,0026539
139,5762643
160,4017572
176,9791394
187,5584172
188,1395955
178,2226788
162,5576705
131,1445729
73,48338789
7,324116036
-44,08324281
-80,73868975
-105,3922268
-113,0438569
-112,1935839
-112,8414126
-109,7373486
-101,6313987
-96,27357028
-96,16387197
-95,80231314
-88,68890416
-76,3236563
-62,45658179
-49,58769378
-46,46700634
-52,5945345
-51,22029419
-39,84430228
-37,21657657
-47,08713577
-51,95599952
-46,82318838
-39,93872383
-35,55262825
-41,41492495
-55,27563812
-58,13479289
-51,24241525
-48,84853211
-45,70317126
-37,55636139
-34,90813205
-40,75851369
-51,1075376
-62,70523595
-60,05164179
-41,39678898
-40,49071225
-57,33344718
-51,67503014
-34,51549835
-35,60488986
-34,94324349
-27,53059887
-38,36699644
-52,20247739
-38,03708368
-8,120858047
8,046156048
12,4639144
18,38237208
11,80148344
-12,27879783
-24,35851876
-18,68772703
-26,26647099
-50,8447996
-58,92276248
-40,50040982
-29,57779243
-52,40496167
-108,9819695
-157,0588683
-40,88571107
367,2874487
851,2105571
946,3835596
499,3064016
-59,02097226
-231,0986176
-86,67659037
-5,504946893
-54,0837438
-71,663038
-40,99288666
-29,32334719
-32,1544772
-22,48633447
-7,818976931
-2,152462646
5,263150243
26,67780353
51,84143899
69,75399838
82,9154235
99,57565621
121,4846385
141,6423124
158,0486201
173,4535042
188,6069072
204,0087722
207,6590422
185,3076609
154,204572
129,84972
86,24304944
12,88450556
-51,47596603
-87,83841914
-119,202907
-149,5694825
-159,4381974
-152,8091034
-150,182251
-151,8076904
-144,9354708
-131,8156408
-122,9482479
-113,0833391
-97,97096049
-95,11115704
-108,503973
-116,1494516
-108,0476352
-92,19856509
-79,85228146
-74,75882359
-68,91822964
-61,08053669
-59,24578071
-66,41399654
-76,33521787
-76,75947722
-68,18680592
-60,11723412
-51,55079072
-43,7375034
-43,4273986
-49,87050149
-58,06683596
-62,01642462
-56,71928878
-43,42544845
-32,38492233
-36,84772778
-50,56388083
-56,7833962
-58,25628723
-57,73256595
-47,46224302
-27,69532774
-3,431828065
10,5782494
-2,165100589
-30,16188191
-50,16209709
-55,66574731
-52,67283239
-47,6833508
-39,69729967
-34,71467479
-41,48547061
-48,50968025
-73,28729552
-151,8183069
-169,6027035
108,3595267
656,3183972
1030,023923
821,9761192
211,425004
-196,8794045
-162,9370865
-30,2480209
-46,06218558
-84,37955708
-65,45011076
-54,02382078
-56,85066014
-54,18060068
-52,76361305
-40,09966681
-13,93873036
2,719228988
6,874245035
12,52635266
27,6755878
49,57198746
71,21558967
96,10643349
124,744559
145,1300072
157,0128202
171,1430409
185,7707133
189,1458822
176,2685934
148,8888935
106,2568301
47,12245147
-19,26419312
-75,15305367
-109,7940793
-124,9372185
-129,8324189
-129,4796273
-122,87879
-114,2798524
-105,9327594
-100,087455
-103,7438829
-103,4019858
-84,56170619
-66,22298569
-62,88576552
-60,04998636
-51,21558836
-45,38251122
-41,05069417
-34,97007603
-29,8905952
-21,0621897
-10,73479721
-10,15835508
-15,08280034
-17,00806978
-14,9340999
-8,110827004
-3,538187197
-8,466116411
-15,64455044
-16,32342496
-11,25267557
-7,932237807
-11,61204718
-17,0420392
-19,7221494
-22,65231337
-26,08246679
-29,76254547
-38,19248532
-47,62222246
-52,80169319
-62,23083406
-74,65958185
-76,83787365
-70,76564685
-67,9428392
-78,1193888
-99,29523417
-107,4703142
-88,39456842
-61,31793658
-43,4903591
-32,41177691
-29,58213151
-39,25136495
-53,91941994
-60,3362398
-56,25176853
-54,41595081
-60,07873203
-57,99005833
-44,89987659
-45,80813447
-88,96478044
-168,1197638
-151,5230346
156,325456
679,4257563
981,5279135
729,1319739
156,237983
-174,4040149
-110,7939762
-1,431858382
-28,3176199
-56,2012202
-36,33261974
-29,21177998
-27,08866341
-12,21323355
-3,085454973
7,294706717
33,92728486
56,31231173
59,94981857
62,33983552
77,98239169
103,8775151
126,2752327
136,6755704
149,3285531
175,9842045
203,3925473
218,5536031
221,9673927
215,6339354
203,5532499
184,7253536
144,900263
79,57799342
10,25855935
-38,30802584
-62,12174974
-74,68260093
-90,740569
-109,5456445
-116,8478188
-105,8970845
-92,44343499
-97,98686449
-115,2773683
-119,5649425
-105,3495842
-86,63129128
-75,16006255
-76,68589769
-90,9587972
-101,7287624
-93,9957956
-80,25989969
-80,77107854
-90,02933676
-89,53467977
-77,28711376
-68,7866457
-71,7832833
-75,02703505
-76,76791017
-90,25591862
-107,4910711
-107,473379
-97,95285445
-94,92951028
-89,40336003
-76,87441791
-71,59269884
-75,80821841
-78,27099289
-75,98103924
-72,93837506
-71,64301863
-70,3449889
-64,29430545
-56,49098854
-52,68505907
-49,8765386
-47,8154493
-50,25181404
-52,68565628
-47,11700015
-33,04587041
-18,47229245
-6,896292319
3,682103328
6,762867189
1,59597133
-5,068612809
-15,73091442
-24,14096333
-22,79878998
-25,70442544
-35,35790141
-32,7592502
-23,40850476
-44,30569865
-111,950866
-139,8440417
55,01473898
505,37544
894,7380247
823,8524559
320,7186958
-112,413294
-145,2935524
-15,92211908
-11,54903412
-55,92433823
-40,29807268
-22,67027929
-24,79100043
-9,910279024
2,221841496
-6,394682837
0,990103499
32,12615552
51,76342776
52,65187424
55,29144856
70,68210382
91,07379268
103,4664674
112,6100797
128,5045811
143,8999225
155,5460547
168,4429277
175,3404916
168,7386959
146,3874899
107,0368225
57,1866424
4,336897958
-46,26246268
-83,86149162
-104,2102412
-117,5587639
-121,1571125
-110,7553399
-103,853499
-101,2016431
-90,79982547
-85,64809947
-94,49651858
-98,09513632
-85,94400626
-71,54318201
-66,64271718
-70,99266538
-75,84308017
-73,94401511
-69,54552365
-63,14765922
-50,2504751
-46,3540245
-62,45836049
-73,56353599
-65,66960377
-60,77661643
-65,38462636
-63,74368576
-58,85384661
-61,46516065
-62,32767936
-45,19145395
-19,80653539
-21,1729743
-50,04082103
-65,41012559
-61,28093767
-62,4033066
-62,02728134
-45,6529105
-30,28024229
-38,90932451
-61,54020456
-69,42292941
-58,3075456
-41,44409922
-23,08263589
-5,223200766
3,384161477
-5,260593334
-24,65750887
-37,05662827
-39,95799417
-47,36164864
-55,01763321
-51,17598883
-48,83675589
-48,74997419
-52,16568292
-104,5839207
-159,5047254
0,321865533
468,3958155
927,4670884
901,785649
352,8514625
-172,585505
-233,2752867
-57,9679153
-24,6634225
-78,61183938
-58,56319625
-19,01752262
-29,22484724
-55,68519805
-56,14860216
-27,36508587
8,165325368
34,44260696
49,96673518
53,7376872
58,50544107
79,01997576
106,2812712
133,0393082
161,7940685
182,0455351
191,0436915
207,2885225
225,030014
217,2681527
196,5029264
186,7343241
160,7123357
93,18695218
18,15816572
-31,12403045
-66,65964198
-99,1986734
-116,2411281
-115,7870083
-114,586315
-121,8890482
-125,6952065
-116,0047876
-103,8177877
-98,38420189
-95,95402415
-90,02724715
-78,10386235
-73,18385999
-85,76722907
-96,85395735
-87,44403136
-66,53743638
-49,38415646
-45,98417439
-62,83747174
-88,69402882
-97,05382472
-81,41683728
-65,03304313
-65,90241766
-79,52493504
-89,65056825
-90,27928904
-88,161068
-78,29587449
-65,68367674
-73,5744418
-91,21813556
-94,11472279
-91,76416713
-93,41643112
-94,8214762
-99,72926275
-102,8897501
-91,05289645
-69,71865912
-55,38699436
-53,80785743
-60,23120266
-65,15698341
-66,83515215
-75,76566047
-82,19845905
-67,13349777
-46,82072566
-43,26009096
-60,20154116
-117,645023
-200,8404825
-149,0378649
220,512885
776,0618233
1046,609007
717,9044919
90,19833713
-224,7593996
-113,7186595
7,820616737
-32,64151133
-58,60498357
-32,56973953
-35,28571836
-41,75285892
-22,72109973
-7,690379063
1,839365073
18,11819488
28,89617277
33,42336128
47,19982314
72,47562114
99,50081818
121,7754772
139,7996612
157,8234332
175,8468561
190,8699928
208,3929062
225,165659
221,6883139
198,2109333
164,7335795
110,0063146
35,52920042
-30,94770131
-77,17432927
-105,1506224
-110,12652
-102,3519615
-101,8268871
-107,051237
-110,5249519
-110,7479731
-104,2202421
-94,69170119
-83,41229285
-68,13196023
-61,35064699
-65,06829737
-60,28485617
-46,0002688
-41,96448129
-52,42744032
-62,38909324
-64,59938807
-64,80827354
-65,01569912
-64,22161501
-69,67597218
-83,87872237
-96,07981813
-103,0292129
-109,7268608
-112,1727169
-107,6167372
-100,0588786
-92,74909874
-93,93735638
-100,8736111
-96,55782359
-86,73995533
-92,16996891
-104,3478279
-96,52349697
-67,94694168
-43,61812876
-35,78702598
-28,95360217
-17,86782727
-28,27967232
-61,93910947
-74,596112
-51,25065434
-30,90271203
-35,5522618
-47,44928152
-51,09375024
-50,48564816
-78,37495669
-156,0116584
-152,1457371
156,2228223
710,3440337
1054,21791
807,0944617
188,9737
-186,6443662
-122,2597292
9,627617922
-17,48231943
-60,58953685
-37,69403116
-14,29580031
-7,644843398
1,508839319
7,415246473
12,82437558
25,73622304
38,40078418
47,81805326
62,23802346
85,91068693
112,0860348
133,5140572
151,1947433
168,6280812
189,0640581
210,2526605
222,9438736
224,6376821
217,3340695
198,5330189
166,2345121
118,1885306
54,39505477
-11,89593548
-63,93446106
-96,22054352
-115,504205
-133,2854684
-146,5643569
-147,8408946
-143,8651059
-137,8870156
-126,4066492
-115,4240325
-113,4391917
-116,9521535
-113,2129446
-95,97159231
-77,97812421
-73,48256802
-75,2349517
-72,23530344
-70,23365155
-74,73002449
-75,22445082
-65,71695917
-57,95757821
-57,19633666
-57,68326318
-60,16838644
-63,40173501
-61,6333374
-60,863222
-65,09141705
-63,31795063
-57,79285065
-59,51614479
-59,9878605
-59,45802499
-70,67666518
-82,8938077
-84,60947886
-82,57370463
-76,28651063
-60,49792211
-40,95796393
-26,91666052
-22,12403591
-24,33011369
-29,03491697
-33,98846842
-40,69079021
-46,64190401
-44,091831
-38,04059182
-37,98820659
-39,68469488
-50,13007571
-104,0743675
-178,2675883
-95,45975517
298,349115
811,6590061
983,9699027
604,7817898
45,59465301
-167,3415212
-52,77674606
6,788966094
-52,1443966
-65,82684535
-53,0083907
-70,93904259
-63,61881031
-29,54770254
-22,2257273
-30,65289198
-27,57920336
-18,00466757
-5,179290112
13,39692412
31,22397085
43,30184645
58,63054787
83,71007267
109,040419
128,6215857
144,203572
153,2863779
152,1200039
140,204451
122,5397208
97,62581551
53,46273777
-5,449509216
-60,61092175
-103,7714956
-130,6812262
-138,5901083
-140,4981363
-147,1553041
-140,8116055
-119,7170333
-117,1215805
-128,7752394
-120,178002
-97,82986001
-87,73080477
-93,38082738
-96,27991866
-75,92806914
-52,82526914
-58,22150879
-65,616778
-50,51106653
-42,404364
-50,54665992
-51,68794371
-44,5782047
-36,71743221
-30,60561553
-32,99274397
-34,62880685
-22,26379359
-10,64769368
-13,53049674
-19,91219252
-18,54277097
-12,4222222
-13,55053659
-23,67770475
-26,05371759
-21,92856632
-32,05224249
-43,67473804
-30,04604527
-5,666156923
4,964933804
8,847233246
8,230747232
-9,384518939
-29,99856053
-35,36137337
-35,72295391
-39,83329924
-42,19240709
-44,55027587
-53,65690471
-70,26229345
-105,3664427
-166,4693538
-154,571029
122,5785289
636,729316
967,1313276
730,5345582
127,4390016
-249,6553498
-196,998504
-63,3404702
-75,93125848
-106,0208799
-81,8593464
-70,94667101
-73,78286767
-55,61795133
-35,45193794
-32,78484447
-29,61668887
-9,197490146
18,97273171
39,64395567
51,31615969
61,2393207
82,16341462
118,3384163
151,5142997
169,1910377
178,8686021
186,5469638
194,2260927
199,1559577
188,3365266
158,2677666
117,6996436
65,88212267
1,31516802
-56,75125711
-84,56719035
-88,88267021
-94,19773606
-98,76242809
-88,32678734
-78,14085564
-84,45467558
-90,51829054
-85,33174462
-79,14508263
-73,20835007
-64,27159312
-58,83485858
-55,14819389
-45,21164706
-36,52526667
-34,08910184
-28,65320218
-21,71761781
-22,53239927
-26,09759756
-23,66326403
-20,97945044
-21,79620884
-14,36359163
-2,181651442
-4,250441174
-14,82001393
-14,640423
-5,961721814
-2,783963926
-8,107202974
-17,68149265
-28,50688667
-39,33343875
-48,16120253
-48,49023162
-38,82057951
-28,40229952
-19,48544485
-9,570068473
-17,40622312
-54,74396128
-86,58333513
-85,67439652
-79,26719694
-89,86178749
-96,20821886
-85,05654126
-79,40680444
-101,2590576
-164,6133495
-224,7197282
-92,07824121
356,0610646
849,948143
906,5829485
417,2154362
-132,1544378
-256,026717
-97,65144367
-42,52865961
-89,40840557
-84,2907215
-63,17564642
-70,06321841
-64,45347462
-46,09645122
-32,24218336
-12,64070519
2,7079502
1,053750771
2,396665581
20,23666479
44,5737197
66,90780273
82,73888747
96,81694871
118,1419624
134,2139058
139,5327572
152,3484963
165,4111041
153,2205626
121,7768554
92,5799672
61,629884
9,676593181
-57,2799166
-104,7396554
-114,2026318
-107,6688532
-112,8883256
-123,8610537
-118,0870408
-98,56628893
-86,54879866
-88,53456931
-96,52359882
-100,7658838
-94,01141954
-77,76019997
-61,26221772
-51,76746409
-55,02592909
-70,7876014
-80,80246844
-80,32051635
-87,09172999
-88,36609298
-72,8935877
-72,92419531
-88,45789577
-81,99466782
-60,53448909
-57,577336
-71,87318387
-78,1720069
-67,47377821
-51,77846984
-47,83605281
-59,89649709
-66,45977167
-56,77584457
-52,09468288
-54,16625274
-39,74051943
-11,81744735
9,352999926
22,52085964
21,68616981
-5,651030806
-31,74070272
-28,83280577
-22,17729912
-27,2741413
-27,62329026
-26,97470338
-36,57833748
-51,68414889
-85,54209348
-151,9021266
-137,7642034
159,8717217
678,0056944
959,6377607
668,267967
89,89635998
-210,2270136
-137,3521066
-34,97887177
-47,60726176
-58,73722903
-39,86872598
-31,75170494
-21,13611819
-4,271918007
-0,659056685
-4,297486548
6,062840012
31,42197052
48,77995238
51,63683289
68,49265915
98,84747811
105,4513365
103,8042809
129,1563575
148,7576125
135,8580914
133,7078398
163,8069029
183,6553253
170,2531517
141,100426
95,94719198
31,29349299
-20,61062808
-45,26512872
-70,66996688
-100,5751009
-115,7304898
-120,6360926
-121,2918693
-109,4477802
-90,10378591
-86,50984785
-106,1659278
-121,5719881
-108,9779916
-80,63390168
-61,78968237
-58,69529815
-60,1007141
-66,75589587
-83,41080966
-85,31542228
-65,4697011
-59,12361409
-64,52712982
-58,18021742
-52,83284667
-47,2349879
-34,63661208
-39,78769077
-53,43819615
-45,088101
-35,98737873
-47,13600333
-52,28394944
-37,1811923
-27,57770776
-35,7234723
-36,61846299
-20,51265753
-6,656034243
2,451427957
14,55974954
20,66895035
13,77904966
-1,859933894
-17,74798225
-23,13507797
-16,02120418
-6,406344621
-11,2904836
-32,67360603
-46,80569736
-67,43674366
-137,0667315
-150,6956481
116,9265188
616,049781
898,1741496
635,2996353
84,92624823
-216,946002
-153,0671064
-51,18705619
-68,30584344
-82,67346049
-64,28990021
-64,40515595
-59,51922152
-38,88209115
-24,99375955
-9,354221847
6,286526424
9,678489302
22,82167043
43,46607306
37,36170007
29,50855396
59,90663687
95,05595061
103,9564966
115,8582761
137,0112897
136,1655382
124,5710215
128,2277398
125,6356927
99,54487953
59,95529947
4,366951427
-56,97016592
-94,30605412
-109,8907149
-127,9741503
-148,5563625
-152,3873537
-141,2171265
-140,7956837
-149,1230279
-137,4491623
-113,7740899
-105,3478142
-101,9203383
-89,74166599
-83,56180079
-81,13074648
-64,94850694
-54,26508613
-66,3304881
-74,39471701
-63,20777709
-42,51967267
-24,08040814
-26,63998797
-43,19841673
-45,00569903
-34,81183956
-27,11684307
-22,9207144
-27,22345842
-32,02508009
-25,07558442
-26,12497649
-40,17326144
-40,47044447
-36,51653085
-48,81152589
-49,35543501
-19,39826364
12,80998268
27,26929837
29,47967777
17,69111515
-12,59639528
-37,88285938
-31,16828311
-6,202672468
7,263966444
3,481627461
-6,049695664
-8,580009259
-15,60931973
-72,63763357
-148,4149574
-55,19129773
332,0333386
796,5089447
902,7355137
489,7130387
-55,30848752
-247,829072
-120,0987222
-26,86744519
-64,13524858
-91,90213982
-70,41812651
-56,68321632
-56,197417
-46,96073638
-38,97318235
-36,2347629
-22,24548607
1,744640014
18,73560718
22,97740719
29,72003172
52,71347243
75,20772091
86,70276868
112,1986072
149,9452281
164,9426225
166,190782
183,4396979
195,4393616
166,6897642
105,4408972
44,94275179
-0,554680748
-42,30140914
-87,5474421
-120,2927884
-122,7874566
-110,0314556
-109,7747939
-116,2674802
-118,7595232
-130,5009313
-140,4917133
-127,7318775
-112,9714324
-112,2103865
-107,1987481
-94,43652554
-83,92372707
-68,16036087
-51,3964351
-51,8819578
-58,36693699
-55,10138059
-52,08529648
-48,56869243
-41,80157617
-47,28395534
-58,26583751
-52,74723017
-34,47814074
-20,95857656
-17,93854488
-17,66805291
-14,89710774
-20,37571642
-42,60388591
-59,3316231
-41,5589348
-7,535827764
4,487691345
3,261615916
12,28593941
16,56065536
-0,164242655
-20,88876097
-29,11290588
-32,83668361
-41,06010033
-44,28316216
-38,00587517
-37,97824536
-54,45027871
-103,6719811
-182,8933585
-142,1144167
216,1648386
759,1944015
1000,224266
644,7544276
23,53487938
-268,9343838
-152,1533675
-36,12207733
-76,84051878
-101,0586973
-76,27661849
-76,24428764
-73,71171022
-48,4288916
-34,14583715
-28,86255221
-10,07904208
11,95468796
19,48863264
22,77278673
33,05714501
45,59170231
59,62645345
76,91139331
100,1965168
130,4818188
156,5172943
167,0529382
166,0887456
163,6247114
152,4108308
115,9470989
57,23351078
-6,479938427
-64,69325349
-108,9064392
-128,8695003
-131,8324414
-133,5452673
-132,0079825
-123,9705917
-121,6830994
-122,8955101
-107,3578283
-86,82005838
-91,28220484
-105,244272
-96,45626417
-75,91818566
-69,88004071
-76,09183356
-74,30356837
-58,51524931
-46,22688049
-44,18846599
-39,40000988
-33,86151618
-32,5729889
-28,53443201
-27,24584947
-34,20724521
-36,66862315
-28,87998718
-23,84134118
-25,55268902
-23,76403456
-26,22538164
-41,93673412
-53,39809582
-49,85947058
-31,57086224
-3,282274642
12,00628838
13,04482297
21,58332527
22,37179141
-6,089782493
-32,80140033
-27,51306601
-15,47478347
-21,93655665
-32,64838952
-36,36028607
-37,07225029
