17,44842957
226,2007433
640,9546535
1033,961193
1015,971113
567,4851604
124,7540819
44,52862059
163,8095164
184,5975061
136,8933226
139,1976946
153,2613467
149,3349984
158,1693644
173,2651538
179,6230701
188,7438108
199,878067
203,7765231
210,6898568
225,1187382
232,3138302
230,7757877
236,0052577
253,0028786
273,5192804
291,5550841
302,3609016
303,9373355
304,2849786
304,1544139
290,0462146
252,9609431
195,8991518
132,6113819
76,59816403
30,61001758
-4,102549354
-23,78904014
-30,9489698
-33,83186515
-35,43726496
-34,01472012
-29,06379377
-22,08406142
-18,57511109
-20,78654341
-22,96797177
-20,86902237
-12,23933434
2,671440169
11,11363592
4,337574495
-4,906435735
-6,868099695
-7,547135646
-7,443275223
0,443736526
8,364141114
4,318166595
-1,693972446
-3,422074902
-9,11595314
-10,525433
-1,15035375
1,759431884
-10,5459422
-21,81635549
-18,30170075
-10,50188407
-12,4168247
-18,54645509
-19,89072074
-20,44958018
-25,72300484
-29,96097903
-27,66349978
-29,33057678
-47,71223227
-69,30850092
-72,11942972
-63,39507787
-59,63551663
-60,59082923
-66,76111069
-83,64646769
-93,99701846
-73,56289258
-44,59423086
-42,84118515
-53,05391823
-49,48260358
-44,62742524
-53,48857765
-68,56626544
-82,36070326
-91,87211559
-93,60073656
-92,04680975
-89,710588
-82,5923332
-76,6923161
-92,51081609
-152,548121
-197,5545269
-38,03033794
407,2741341
842,6085696
825,4726418
328,1160166
-155,4616468
-237,0106961
-97,03148553
-53,02437533
-87,23973195
-81,42792758
-63,33933999
-64,22435229
-57,0833527
-43,41673429
-37,2248948
-30,25823638
-19,51716535
-8,75209197
1,286569758
10,84840237
29,18298514
61,78989431
89,91870337
100,8189832
111,4903023
131,1822273
151,1443226
168,6261512
180,8772745
182,1472529
167,4356456
131,9920111
82,56590739
27,40689206
-29,98547741
-74,86164347
-101,9720483
-123,3171335
-135,6473401
-134,2131081
-132,7648766
-137,3030832
-137,0781641
-124,8405539
-111,0906854
-109,3289891
-109,5558935
-100,2718247
-95,22720623
-99,67245886
-98,85800049
-89,53424596
-78,70160692
-73,86049163
-83,26130488
-98,90444776
-102,2903176
-95,41930778
-90,7918076
-88,40820217
-88,0188723
-93,12419431
-98,72454
-95,82027648
-87,66176607
-87,24936622
-94,58342936
-96,66430286
-90,74232893
-84,81784447
-81,39118107
-77,71266488
-73,53261653
-70,85135111
-71,16917804
-70,73640105
-64,80331809
-61,8702213
-66,68739697
-65,00512543
-56,82368107
-58,8933323
-62,71434146
-47,03696482
-19,36145259
-0,688048826
4,233008558
0,401487799
-6,682836685
-12,52018429
-20,11076822
-31,20479548
-36,05246687
-31,903977
-29,25951428
-31,36926094
-31,98339304
-26,60208046
-27,47548696
-70,10377016
-137,9870816
-73,12556668
276,9806352
761,8313906
957,4265722
626,0160586
71,8497343
-183,3225103
-79,00077911
23,31483005
-9,875775089
-29,82268103
-7,275968606
-3,485713059
-0,201984054
19,07515425
32,34564313
39,3594293
51,11646477
65,11670685
75,61011807
81,59666612
91,57632377
110,2990688
123,7648841
127,7237572
140,6756806
166,3706516
189,0586722
201,9897489
205,9138928
202,0811195
191,4914489
167,3949054
124,2915174
67,68131777
6,314343194
-49,3093655
-86,93976357
-102,8268024
-105,7204297
-109,8705895
-120,2772219
-127,690264
-126,359649
-122,0353071
-118,467165
-112,9051464
-104,8491716
-98,79915834
-97,50502107
-98,4666716
-97,68401893
-93,90696944
-89,13542694
-84,11929277
-78,35846588
-73,60284295
-71,85231847
-71,8567848
-68,36613231
-61,13024945
-58,64902282
-61,17233732
-60,45007619
-58,48212113
-58,51835238
-52,55864883
-41,85288809
-40,1509466
-44,95269974
-43,00802187
-37,56678649
-35,87886626
-33,44413317
-30,51245857
-30,0837133
-27,65776774
-24,73449195
-23,81375574
-19,64542876
-12,97938056
-10,81548075
-12,903599
-12,9936052
-10,5853695
-9,428762448
-8,273654998
-3,36991866
1,532574447
1,433951507
3,834338923
9,233862247
5,382646091
-4,469185942
-8,821511339
-7,674208748
-4,027158053
-1,630240444
-6,733338487
-11,8363362
-3,439119094
12,95842572
22,6064095
24,2549418
24,15413041
17,30408131
0,704898577
-12,14331562
-16,9904611
-24,83643974
-33,43115548
-31,2745144
-23,36642475
-23,20679702
-30,04554395
-50,13258056
-107,4678242
-147,3011947
7,367385821
427,5379928
845,7106993
856,6355756
410,3126897
-50,25789287
-145,5761093
-34,14189935
-10,20520523
-45,51597185
-36,5741467
-22,3796799
-24,43252419
-12,23263492
6,720029887
14,67550961
21,38384098
32,84505811
40,55919248
45,27627295
56,74632579
73,96937466
88,19544065
98,92454226
110,9066955
125,1419137
139,3802078
150,8715863
159,1160551
166,3636177
171,3642752
167,1180262
145,3748671
102,3847918
46,89779203
-8,08614282
-57,06702561
-96,0448714
-120,7696974
-133,991523
-140,7103697
-140,1762611
-135,6392226
-131,8492818
-122,8064683
-110,0108134
-104,4623506
-100,9111147
-92,85714292
-87,30047374
-84,99114756
-84,67920643
-88,864694
-88,5476555
-77,97813771
-72,65618891
-79,83185884
-84,75519864
-82,92626085
-82,09509931
-82,01176918
-82,17632685
-81,58882994
-76,99933722
-77,65790859
-88,06460507
-91,71948868
-81,3726225
-72,52407055
-70,42389779
-65,3221701
-61,71895417
-64,11431757
-60,75832862
-50,15105639
-43,29257068
-41,93294197
-41,82224136
-40,46054058
-37,34791195
-35,4844283
-34,87016301
-29,5051899
-19,13958328
-12,27341784
-10,90676867
-9,539711218
-8,172321254
-8,054674844
-3,686848317
4,181081756
5,549038599
0,416945255
-1,215275388
1,402299437
0,269592398
-2,613473908
1,253023074
9,869005881
13,48439706
9,849119202
7,713094946
18,07624703
43,43849831
65,54977177
65,90999057
55,01907806
45,8769578
33,98355362
19,58878958
9,192590066
4,294879774
5,645583746
11,9946274
16,34193655
14,43743743
8,53105673
-7,127278377
-54,28764023
-108,9501006
-26,86473079
314,9683986
744,2992174
861,3776564
501,7036467
4,027120227
-184,4019903
-91,08375152
-46,76822925
-102,4554885
-106,6455935
-72,83860759
-71,28459322
-74,23361196
-67,93572441
-70,39099023
-63,84946808
-39,56121558
-20,02628934
-8,994744862
2,533363442
12,30798229
24,57905957
47,09654433
73,36038684
94,62053862
111,6269524
126,3795823
141,6283837
163,3733133
183,3643291
179,3513906
151,3344588
119,3134959
79,78846564
16,25933336
-53,27393422
-94,81136881
-112,3530006
-130,6488582
-145,9489686
-141,2533572
-126,5620479
-124,6250627
-129,6924223
-119,0141455
-99,59024938
-92,92074942
-91,5056594
-80,59499133
-67,68875551
-63,03696049
-66,63961308
-72,74671832
-67,60827947
-46,47429805
-28,09477378
-27,46970459
-38,59908666
-47,98291436
-42,12118027
-24,76387519
-16,41098813
-22,31250635
-33,96841528
-39,37869861
-32,29333826
-28,46231437
-34,63560534
-33,81318783
-27,49503676
-31,93112532
-39,87142499
-34,56590556
-20,26453513
-13,71728012
-20,9241053
-34,38497382
-40,84984719
-32,81868532
-23,54144654
-29,76808763
-39,9985638
-38,23282878
-35,47083477
-38,7125325
-38,45787128
-34,70679896
-27,70926201
-20,71520552
-28,22457322
-36,73730756
-20,50334965
5,227360647
18,95488469
28,42928506
33,40062551
22,11897096
1,334387412
-18,45305801
-35,99329713
-47,28626077
-48,08187872
-42,88007983
-39,680792
-38,23394224
-52,03945667
-111,8472606
-153,6572785
18,78056594
462,4663497
856,6501507
790,0820472
291,5121184
-152,559556
-209,8828957
-75,45781984
-39,28424694
-70,36209512
-59,941282
-44,27172473
-46,60334007
-27,93604439
0,480246313
0,145616356
-18,68984963
-16,77606675
15,88705015
47,29958644
58,46162769
68,87325964
85,03456817
90,44563928
89,35655906
101,5174137
130,9282893
164,0892723
179,7504488
174,6619049
173,073727
178,736001
154,648813
88,81224884
22,9763943
-19,35866504
-55,19284375
-88,27605661
-111,8582186
-133,1892449
-147,5190511
-140,0975529
-123,9246664
-121,0003079
-129,324394
-137,646842
-134,7175691
-120,0364932
-110,1035325
-105,1686056
-94,48163157
-84,54252998
-78,10122082
-66,65762458
-54,21166227
-51,01325542
-59,8123261
-75,35879697
-74,65259122
-47,69363267
-28,48184574
-31,76715545
-29,54948749
-20,07876821
-20,8549246
-21,37788437
-15,39757592
-18,16392837
-22,17687156
-8,686336105
3,057746647
-9,944555443
-27,6931753
-23,43804666
-7,179104054
-16,16628287
-56,89951932
-81,62875049
-65,35391431
-24,0749496
31,20820392
66,99560564
62,53731403
51,33338665
43,63388009
30,43885005
25,99835123
32,81243739
42,13116132
48,70457482
48,28272872
48,61567285
49,95345604
36,54612612
13,64372989
-6,253686853
-22,89607933
-22,78340378
-8,165617507
-4,792678807
-10,41454703
-11,78118257
-22,39254685
-65,49860233
-114,0993125
-32,19464198
299,2154437
710,3809779
796,801993
419,7285202
-46,08941023
-200,151769
-111,958528
-56,75966006
-76,05513898
-79,09493967
-70,62903802
-82,90741094
-88,93003633
-70,6968931
-53,20796114
-47,71322135
-43,4626556
-34,20624671
-15,19397851
9,574164235
23,34819581
24,62812953
33,41397781
49,95575209
58,50346292
74,30711991
105,8667318
120,6823063
114,7538505
120,8313703
138,1648709
136,0043566
101,8498307
46,95129594
-8,441246085
-47,82779448
-73,70834922
-94,8329111
-107,4514817
-112,8140636
-120,9206599
-124,0212748
-110,1159131
-96,45458047
-102,0372834
-106,6140292
-87,93482578
-67,74968212
-70,55860781
-83,61161324
-84,65870961
-74,1999089
-71,73522386
-80,51466803
-83,03825571
-79,30600202
-78,81792284
-65,32403485
-35,82435549
-33,06890304
-62,05769653
-70,29075582
-52,26810156
-39,23975521
-31,70573905
-29,66607617
-34,87079049
-31,31990677
-21,7634506
-24,7014484
-31,63392748
-26,06091597
-18,98244289
-20,14853813
-17,55923247
-13,46455758
-21,61454602
-28,75923128
-23,64864774
-23,28283073
-28,16181652
-20,28564231
-2,904346256
9,232032516
10,37345391
3,269876858
-5,57874071
-14,17244186
-20,26127064
-20,34527215
-25,42449249
-35,49897878
-27,3187792
-8,133942945
-2,94452028
-5,000562518
-15,55212203
-56,84925226
-81,64200772
51,31955602
394,7853823
721,7554133
694,7295903
294,7078534
-90,55985853
-151,5736075
-30,58345668
8,660529644
-24,34171387
-24,59025367
-10,58515726
-9,326493246
-1,064331302
4,951257829
-5,279797664
-13,25757065
-4,732135061
9,796434139
15,07806094
15,6126683
30,90017815
56,94051143
70,73358806
75,02932697
88,32764614
112,6284625
135,1816922
144,2372503
143,0450509
143,6050073
142,6670319
123,4810362
83,29693082
36,61462549
-5,315970808
-42,49494994
-76,17240457
-96,84842812
-97,27311479
-97,44655951
-112,8688579
-122,5401064
-116,9604019
-112,8798421
-108,7985254
-95,46655072
-82,38401755
-74,80102601
-63,21767675
-46,88407095
-42,80031033
-56,71649705
-61,13273375
-42,54912354
-35,21576991
-55,63277677
-73,05024839
-67,71828941
-51,38700478
-42,30649977
-50,22687991
-69,39825103
-79,57071917
-72,99439057
-64,16937169
-59,59576915
-56,77368969
-60,95324021
-70,88452767
-76,06765913
-72,00274169
-62,93988246
-61,87918859
-76,07076716
-89,26472525
-81,46116984
-54,41020782
-27,86194597
-18,31649093
-17,27394915
-14,23442692
-24,19803027
-43,16486502
-43,6350367
-37,10865057
-46,08581153
-55,56662417
-50,05119267
-35,28962085
-23,03201206
-35,02846922
-91,27909475
-124,5339906
42,45674193
468,193002
864,4246893
820,1517044
328,8739484
-123,4086771
-180,1962695
-36,23892553
6,213258755
-27,58981178
-21,89823146
-3,462093723
-7,28149111
-7,106515211
6,56274336
21,726195
34,88375114
43,2853243
48,68082811
63,57017734
86,95328794
101,8300771
109,4504632
125,064366
144,4217064
161,272407
183,6163914
204,2035848
213,0339139
218,6073069
217,4236935
195,2330048
155,5351737
104,5801348
40,36782418
-25,10182033
-76,57885913
-117,0633509
-145,5553524
-158,0549187
-164,3121029
-163,3269563
-149,8495283
-144,3798661
-155,6680153
-159,4640191
-150,7679189
-145,8297541
-140,8995617
-128,7273769
-119,3132326
-115,9071596
-110,2591864
-104,6193394
-106,9876428
-110,6141185
-104,2487861
-93,14166295
-86,54276417
-83,45210246
-79,61968827
-74,54552965
-69,72963235
-61,92199974
-53,87263279
-53,08153014
-54,29868801
-52,02410024
-50,25775826
-50,2496511
-50,24976539
-52,00808535
-54,27459281
-47,79926715
-28,3320854
-11,12302213
-8,172049554
-7,479137474
-3,794253304
-12,11736208
-31,94842646
-40,78740673
-31,63426084
-21,98894437
-23,8514106
-27,22161044
-21,34949255
-17,23500324
-48,12808659
-121,7786844
-118,1867362
148,1478207
624,2250511
924,0450222
719,3578032
179,1634655
-171,7879175
-126,4962699
0,038485763
-19,6835706
-60,91235721
-44,89779023
-38,13978385
-42,38825029
-27,39309984
-15,65424089
-17,67157994
-14,94502164
-9,22446883
-6,509822538
6,449017956
28,15215511
42,09969307
51,54173768
67,97839638
91,15977825
116,3359939
138,0071555
152,4233768
159,8347728
159,4914602
150,8935568
134,0411821
103,6844566
55,32350222
-3,79155783
-56,66059921
-90,7834964
-111,1601228
-127,2903505
-133,174051
-125,0610943
-118,7013498
-119,8446859
-115,9909699
-108,1400686
-102,2918479
-93,69617291
-83,35290807
-75,51191719
-71,1730635
-70,33620966
-67,75121783
-61,91794972
-59,08626662
-57,50602949
-52,42709895
-50,84933539
-55,02259897
-55,44674973
-50,87164756
-50,79715233
-55,72312389
-54,39942214
-47,8259071
-45,75243892
-44,92887796
-41,85508487
-41,78092057
-43,95624637
-41,88092399
-35,80481563
-31,477784
-31,89969239
-36,57040474
-41,73978564
-39,15770043
-23,32401526
-1,738597077
13,34868625
20,43796591
21,77937212
12,62303402
-8,530920318
-25,93236398
-24,58117126
-20,72721767
-33,12038003
-47,5105365
-49,14756663
-45,78135139
-54,41177326
-101,7887162
-160,4120658
-68,03170919
295,6024648
726,9905656
814,632701
422,028977
-72,82050227
-223,4156346
-96,75631944
-33,84245842
-70,17395499
-66,25071462
-43,07264482
-47,88965515
-42,20165725
-22,25856491
-12,81029402
-0,35676268
18,85210883
27,566398
33,78618009
50,51152806
68,74251262
82,72920216
96,47166272
109,469958
122,9741494
141,4842959
164,0004541
183,2726782
191,30102
186,8355287
176,3762515
157,9232327
119,9765145
68,53613646
18,6021357
-28,07545305
-66,24659756
-85,41126802
-91,56943713
-94,97108001
-92,61617425
-86,50469989
-85,88663943
-85,76197781
-78,63070239
-72,242803
-68,09827186
-57,94710364
-48,28929538
-46,37484656
-43,95375901
-38,52603697
-37,34168703
-38,15071813
-33,45314156
-26,74897092
-25,03822215
-25,32091344
-23,59706532
-21,61670053
-19,62984409
-19,63652325
-27,63676745
-42,38060834
-52,61807976
-56,09921767
-61,5740602
-68,04264757
-72,75502213
-82,46122826
-93,16131243
-91,85532312
-83,54331082
-82,22532801
-88,40142915
-95,8216706
-98,73611066
-88,64480951
-68,79782921
-54,19523364
-42,58708851
-30,97346131
-40,10442128
-65,23003942
-76,10038841
-79,71554262
-82,82557808
-72,68057242
-67,28060489
-70,62575626
-61,46610888
-58,55174657
-93,63275463
-149,9592198
-113,7812302
165,6511246
607,8377538
834,7785652
582,4734653
78,17235961
-199,6248479
-132,4182542
-23,20795755
-37,74405713
-56,77665329
-29,30584736
-17,58174166
-19,10443946
-5,624044903
8,609336987
20,59560037
40,33463863
53,32634442
52,82060968
56,31732572
69,31638321
82,56767228
92,57108252
102,5765031
116,0838226
133,8429294
155,6037114
176,1160563
185,8798514
185,394984
179,6613411
162,9288096
132,1972763
92,21662801
44,48675165
-4,242465907
-43,72113762
-70,9493763
-87,67729453
-97,40500465
-99,6326187
-90,61024834
-79,83800486
-80,3159991
-81,29434141
-73,2731416
-67,75250891
-66,23255196
-62,46337867
-63,9450963
-68,4278113
-60,16162935
-49,1466553
-50,38299308
-52,37074573
-54,8600153
-65,10090286
-69,34350839
-63,08793085
-58,83426801
-58,08261654
-55,33307188
-53,08572824
-52,84067857
-51,84801453
-51,60782643
-49,87020322
-41,13523244
-36,40300023
-45,42359124
-47,69708866
-33,97357413
-31,50312779
-45,28582817
-44,82175225
-20,86097534
2,846428838
5,300388264
-8,499167413
-20,30230684
-30,85909693
-44,66960286
-48,23388804
-43,30201412
-44,87404093
-50,70002652
-53,78002711
-54,36409706
-57,45228893
-79,54465339
-125,8912393
-117,7420935
80,65273891
445,5432147
688,4292927
538,3109335
114,6880996
-169,4392446
-140,5711326
-31,20759615
-29,34866513
-58,24436741
-49,14472897
-42,54977388
-47,20952429
-38,12400047
-21,29322077
-12,71720163
-11,39595763
-4,579501434
11,98215615
27,28900619
39,34104161
53,1382572
64,18064956
73,96821715
88,00096023
101,5288809
110,5519829
113,5702719
110,8337554
109,8424425
111,5963439
105,3454724
80,83984204
33,3294689
-24,18562948
-65,70543387
-86,72992343
-102,0090757
-116,5428668
-125,3312711
-124,6242616
-115,6718096
-105,4738852
-99,53045685
-94,84149168
-87,65695536
-80,97681224
-75,55102529
-67,8795562
-60,71236534
-56,79941186
-51,89065367
-45,23604748
-37,83554885
-28,43911218
-22,04669081
-21,90823697
-20,77370188
-16,39303573
-20,26618777
-36,64310628
-44,52373866
-29,40803142
-9,045930244
1,06262
1,167675203
-6,230708004
-9,632472291
-3,787559659
-2,195911478
-8,35746852
-12,52217099
-10,18995858
2,889229542
23,21545464
32,03877843
22,859263
6,426970808
-12,75803536
-29,44569243
-35,63593707
-37,5787057
-43,02393457
-45,72155975
-41,92151716
-38,37374266
-39,078172
-50,7847409
-89,49338506
-131,7040402
-60,91664207
225,8688735
595,1525705
707,4345131
405,9647649
-30,25661047
-205,4795495
-112,4539889
-33,42986587
-55,4071176
-67,63568168
-46,36549601
-36,5964988
-39,32862861
-36,06182435
-22,29602532
-4,781171222
10,73279784
22,74594132
30,50831825
38,76998719
50,03100624
62,29143303
79,55132469
100,8107378
117,8197286
132,8283526
150,3366649
161,84472
164,6025719
169,1102742
168,8678796
144,8754406
100,8830089
52,64063574
4,898371813
-36,0937328
-63,58562858
-84,32726658
-99,56859841
-101,3095762
-97,05015286
-93,04028156
-80,27991625
-67,26901137
-72,00752196
-81,99540357
-75,23261236
-56,469105
-42,95483874
-43,68977137
-51,4238612
-52,40706711
-47,63934849
-44,12066528
-41,85097792
-39,0802474
-37,5584352
-39,5355033
-41,51141423
-39,98613097
-34,70961702
-29,93183636
-33,15275345
-38,87233324
-36,09054114
-32,05734304
-35,52270528
-37,73659466
-37,69897843
-45,15982429
-50,61910038
-38,82677528
-17,032818
-0,737197973
2,060114942
-12,14084953
-34,59006209
-49,78749382
-59,23311624
-69,92690126
-75,61882117
-74,55884868
-77,99695687
-87,93311922
-94,61730958
-113,0495022
-173,9796717
-211,907793
-35,58384161
414,9922069
827,8203763
776,6506903
264,4831719
-204,182156
-259,0952708
-107,7561506
-67,16477354
-96,82111821
-81,47516355
-66,37688884
-75,27627372
-62,42329816
-30,06794247
-15,46018732
-16,8500137
-8,73740295
11,87766325
31,9952029
47,61523363
60,98777276
76,11283727
96,99044379
117,3706086
133,7533478
151,3886768
164,776611
163,1671655
155,8103547
154,206193
140,6046943
104,0058723
57,15974013
3,566310813
-48,2744031
-83,36238938
-105,9476361
-121,5301318
-128,3598652
-130,9368255
-130,0110022
-119,8323852
-103,9009647
-91,96673127
-87,52967598
-87,5897901
-83,39706536
-71,45149384
-60,50306802
-51,30178076
-40,59762531
-36,64059531
-37,93068482
-32,4678883
-22,7522006
-17,53361702
-17,56213325
-20,83774545
-22,61045017
-19,13024443
-13,64712568
-9,911091834
-12,42214126
-23,4302728
-34,93548575
-38,1877799
-33,43715553
-29,68361339
-33,42715475
-33,91778138
-17,90549556
4,609699908
14,3778017
11,89880595
7,672708276
-3,300496279
-27,0208132
-45,73824855
-45,20280894
-40,91450156
-48,12333416
-59,82931508
-64,03245327
-61,98275823
-79,43024008
-145,3749095
-189,5667779
-20,00585717
417,8078402
824,874301
799,4435114
322,7654572
-142,6598769
-221,0825063
-91,50244747
-62,4197172
-96,58433307
-81,74631323
-65,4056765
-69,81244229
-55,21663068
-33,86826234
-29,0173586
-22,66394139
-6,058033287
6,550342531
16,91116226
34,77440147
55,14003515
71,25803765
86,62838273
108,5010436
133,8759927
151,0032022
157,3826434
162,2642871
170,8981037
171,2840627
149,6721335
113,3122845
71,45448392
20,5986992
-32,75510261
-70,856955
-89,95689197
-100,554948
-107,4011581
-107,7455577
-100,3381827
-90,92906944
-86,01825483
-81,6057761
-74,69167092
-71,02597741
-70,85873406
-66,43997979
-57,01975389
-48,84809602
-45,67504621
-49,75064486
-56,32493268
-54,89795076
-47,96974047
-45,29034351
-46,1098019
-48,42815792
-52,74545415
-55,56173345
-57,12703893
-57,69141394
-52,75490209
-46,31754722
-45,87939337
-48,69048482
-50,50086602
-50,56058163
-46,11967649
-40,42819561
-42,23618413
-50,04368739
-54,10075084
-53,90742006
-52,96374075
-41,51975873
-15,07551991
6,868929697
10,56354402
9,008276905
7,453082145
-5,352086519
-21,65727538
-26,21253075
-26,51789898
-30,5734264
-29,87915934
-26,68514412
-31,24142703
-46,04805432
-90,10507217
-149,1625267
-76,97046402
263,97107
708,9120294
850,8523684
505,7920416
6,481003258
-182,3307918
-78,14338882
-15,95683274
-57,27116837
-64,58644028
-40,90269284
-36,46997016
-31,53831613
-17,35777434
-7,428388132
1,749799479
11,67674577
15,10240835
20,27674517
36,69971453
56,62127512
72,041386
83,96000665
98,62709696
119,2926173
138,2065283
149,3687914
155,2793682
153,688221
143,3453125
132,500606
117,4040653
80,5556547
23,70533924
-32,64691559
-76,50114363
-107,6073782
-126,4656518
-132,5759964
-132,4384435
-134,0530235
-134,9197666
-133,5387018
-134,6598579
-134,2832627
-123,1589432
-106,7869258
-98,9172362
-97,04989923
-91,43493899
-84,8223788
-81,7122412
-77,10454794
-68,74931998
-62,64657746
-59,79633971
-55,19862527
-49,85345183
-48,51083627
-48,67079465
-43,83334218
-36,49849326
-33,91626144
-32,58665945
-27,75969916
-25,18539162
-25,11374704
-20,2947748
-13,47848344
-10,91488067
-10,85397337
-10,29576757
-9,240268526
-10,43748062
-14,38740746
-14,84005181
-10,04541563
-7,503500111
-7,464305604
-2,177831692
7,605922831
16,38695995
23,16528242
27,94089377
25,96379827
9,484000956
-14,74849241
-26,23367531
-23,72154051
-22,46208008
-24,45528534
-27,45114693
-34,9496548
-43,9507982
-60,95456572
-106,7109453
-125,9699241
47,01851111
462,2543745
836,9876807
786,4684449
315,1966831
-115,0775881
-171,1043518
-51,13359018
-39,665285
-86,1994174
-78,23596799
-58,27491681
-62,31624333
-68,35992652
-65,90594481
-52,45427609
-36,75489776
-29,55778671
-18,61291931
0,82972852
15,27018137
21,9584643
31,64460281
51,0786229
75,51055098
96,69041393
111,618239
124,2940541
137,7178871
145,6397667
143,059722
128,7277821
96,89397684
50,80833638
4,720891179
-34,6183279
-68,45928967
-97,80196256
-119,1463147
-125,7423139
-119,0899275
-110,6891228
-106,5398666
-101,1421254
-90,49586552
-81,601053
-79,20765355
-75,81563266
-69,42495556
-65,53558728
-61,1474926
-54,51063611
-48,87498217
-42,24049498
-34,60713855
-30,22487674
-28,59367324
-27,2134916
-26,08429524
-25,20604749
-24,82871153
-23,7022505
-19,57662743
-15,9518053
-17,57774703
-19,45441552
-14,83177363
-7,709784216
-6,088410152
-9,217614321
-9,847359642
-6,227609086
-1,608325684
1,010527452
-2,121012881
-10,50290999
-17,13512732
-18,01762843
-17,15037704
-24,53333705
-41,16647252
-47,54974772
-36,18312711
-29,5665754
-33,95005752
-28,58353867
-17,46698429
-24,10036012
-44,48363219
-60,61676684
-70,24973071
-75,88249079
-75,26501443
-71,64726929
-70,77922345
-70,91084533
-77,79210378
-120,672968
-178,0534077
-87,18339288
287,9371059
753,0581178
871,6796713
478,8017946
-37,32548458
-199,4521391
-70,57814216
-10,45346759
-56,57808961
-58,70198298
-34,57512296
-35,1974853
-30,5690463
-14,93978273
-5,309671914
4,821308325
20,45317963
34,83596313
46,96967941
61,10434855
76,2399901
88,12662306
98,76426595
115,6529367
138,2926528
157,9334312
171,0752883
178,4682399
179,6123015
174,257488
160,1538136
134,5512924
98,44993751
52,59976199
-0,249221825
-45,84700203
-71,9435672
-83,78890638
-89,1330091
-89,97586535
-91,81746556
-95,90780064
-97,24686194
-96,83464124
-95,1711308
-91,75632328
-93,09021177
-99,17278981
-98,50405134
-86,58399072
-71,91260275
-63,4898826
-65,31582587
-76,39042856
-83,71368706
-77,28559818
-69,60615908
-67,67536737
-62,243221
-58,80971835
-64,37485814
-65,18863953
-56,75106202
-54,06212552
-58,87183033
-57,9301771
-51,98716692
-49,54280122
-49,59708185
-52,15001102
-56,70159136
-59,75182588
-61,30071798
-59,59827148
-55,64449056
-55,18937985
-57,73294435
-57,7751895
-52,81612114
-45,35574551
-41,14406929
-41,43109959
-42,21684393
-44,00131026
-47,53450699
-48,56644294
-47,09712738
-41,62657005
-24,1547811
1,318228843
20,0424487
26,76786693
24,49447155
14,72225008
2,951189615
-4,068723252
-9,08750238
-13,1051621
-11,62171722
-8,137183008
-8,901575214
-14,16491005
-33,6772042
-82,93847483
-107,6987395
49,04198359
449,283676
831,5263187
799,2698923
331,5143769
-101,240248
-148,7440029
-20,24690918
-6,748988391
-46,75026255
-32,00075409
-17,00048582
-25,24948094
-15,49776301
5,004644041
13,50771594
20,76142807
29,76575551
30,52067303
32,0261551
46,53217591
65,78870941
81,04572927
97,55320898
112,3111218
119,0694407
128,0781387
141,5871884
149,5965625
151,3562335
146,6161736
132,6263553
111,1367508
77,64733222
28,40807184
-23,83105816
-64,82008555
-89,80903805
-100,5479433
-106,7868289
-114,0257222
-115,0146506
-106,5036412
-96,24272107
-90,73191688
-88,22125523
-83,71076245
-76,45046458
-71,1903874
-71,93055638
-73,17099669
-68,66173313
-62,65279015
-57,39419183
-51,88596186
-54,87812349
-66,37069955
-68,11371245
-57,85718409
-51,85113592
-53,59558888
-54,59056343
-50,83607946
-47,33215635
-49,32881295
-52,3260675
-50,8239377
-48,32244067
-51,57159291
-62,57141033
-72,32190823
-67,57310128
-53,07500354
-45,8276284
-48,83098863
-53,08509635
-50,58996302
-38,34559944
-25,60201576
-25,60922146
-31,61722533
-26,12603552
-14,63565949
-15,14610403
-25,40737525
-35,1694786
-38,93241885
-30,4462001
-14,46082576
0,773701409
14,00737931
16,99020653
4,222182296
-13,04669349
-27,31642029
-41,83699691
-51,35842149
-47,13069156
-36,90380401
-36,92775508
-45,95254041
-54,22815501
-83,75459328
-143,781849
-114,8099154
169,4112149
624,38155
865,3510984
612,5698692
87,53787207
-201,4948826
-125,2783841
-14,31262106
-35,34758154
-50,63325314
-22,66962291
-23,95667738
-30,49440258
-9,282784037
6,928193219
9,388544644
20,34828617
42,30743422
66,01600565
81,22401779
81,18148843
84,63843578
110,0948785
138,0508357
147,7563269
150,7113719
158,6659912
164,8702054
167,3240356
163,5275034
144,9806306
121,1834394
96,38595236
49,58819252
-15,7098169
-64,2580523
-89,80648976
-110,855105
-124,9038736
-127,9527706
-130,5017709
-133,0508492
-131,8499798
-131,3991368
-131,6982942
-128,7474254
-122,5465041
-112,0955033
-100,6443962
-94,69315561
-88,74175424
-78,79016466
-71,83835929
-68,38631046
-67,18399036
-68,23137113
-65,27842482
-60,07512343
-59,62143893
-60,91734326
-59,71280837
-56,75780622
-53,0523088
-51,59628816
-53,38971642
-55,93256579
-60,97480859
-65,51641727
-63,80736444
-59,34762287
-54,38716552
-53,92596557
-62,46399642
-65,50123172
-56,53764542
-50,57321173
-50,60790519
-51,89170068
-59,17457343
-65,70649904
-54,73745352
-28,7674133
-5,796355231
6,42574337
11,89890471
9,873150484
-5,401498101
-22,42502039
-19,44739629
-4,21860625
-2,238631335
-13,7574532
-20,52505414
-17,54141705
-18,80652552
-53,07036379
-124,3329168
-111,0941701
166,3958899
642,3872762
924,1300011
685,8740759
127,1195114
-193,6336823
-109,8854961
12,86407838
-16,13495115
-37,88257785
-7,878795652
-13,3735993
-32,61698431
-15,35894703
17,9005154
42,41140504
56,17372315
61,18747018
63,95264578
71,46924881
85,48727732
100,0067286
114,5275991
136,5498846
156,0735799
165,0986793
178,6251762
195,9030632
200,6823323
195,4629747
185,7449808
163,0283405
121,8130428
67,59907619
9,136428304
-43,07491374
-81,53496349
-109,7437352
-128,7012435
-131,657504
-127,6125327
-132,316346
-143,268961
-156,2203956
-167,9206677
-162,3697962
-138,5678002
-119,5146992
-111,9605136
-108,9052638
-115,0989708
-124,041656
-115,2333412
-93,67404867
-82,61380088
-84,05262076
-88,99053155
-93,92755684
-89,36372048
-75,54904666
-70,23355983
-76,41728471
-78,60024628
-71,28246974
-64,71398054
-63,89480433
-63,32496698
-66,00449453
-74,9334132
-76,36174938
-64,78952963
-53,21678063
-46,3935292
-40,31980229
-40,24562695
-45,67103035
-42,59603972
-31,0206824
-26,69498578
-33,86897734
-37,54268459
-28,21613508
-13,38935641
4,687623795
26,51477791
35,8420783
24,4194973
9,997007308
1,574580697
-6,347810112
-8,520192664
-3,442594459
-1,615042943
-2,787565495
-4,460189426
-21,38294196
-69,30585023
-106,2289413
14,09775798
386,1742207
793,2504203
830,0763302
408,901924
-49,2728245
-143,4479414
-10,62345247
22,45061652
-35,97575987
-41,15260689
-16,07994957
-15,50781271
-15,43622085
-5,615198271
-4,294768977
-3,474956689
8,844215168
19,66272348
27,48054546
46,54765866
67,86404096
76,92967062
84,49452627
103,5585869
127,871832
142,9342412
146,995795
149,5564739
148,616259
141,925132
136,9830749
120,0400702
70,84610099
5,151150752
-49,79479645
-86,24175606
-105,939743
-117,3887715
-132,0888555
-147,2900081
-146,4922421
-129,9455695
-121,4000019
-123,35555
-118,5622243
-113,5200343
-117,7289893
-119,1890977
-110,1503673
-95,36280541
-82,07641857
-78,5412128
-81,25719343
-78,2243652
-75,44273221
-79,41229792
-78,13306518
-73,60503621
-75,82821261
-70,30259536
-52,52818483
-45,50498078
-49,23298238
-49,21218818
-53,44259616
-61,92420372
-59,40700767
-45,89100429
-32,37618926
-26,36255775
-27,60010439
-29,83882329
-34,07870804
-42,06975174
-42,561947
-34,55528597
-30,29976033
-27,29536133
-19,54207978
-10,53990608
0,961169764
14,21115813
15,96006977
0,707915784
-18,04529241
-27,54954306
-28,80482411
-32,56112323
-39,81842783
-36,07672505
-29,83600182
-47,84624484
-93,10744061
-132,8695755
-46,63263554
291,6033931
720,8385247
823,0727733
428,3061533
-94,71132076
-270,4796346
-126,4987735
-22,01872309
-47,53946869
-58,06099575
-34,0832897
-28,60633599
-24,13012014
-7,154627682
5,570155755
13,04424447
14,26765268
13,49039447
35,21248384
73,43393465
97,15476061
108,6249753
121,3445921
132,3136243
144,2820849
161,2499869
175,4673428
182,1841652
185,1504663
183,3662581
168,0815525
139,2963611
104,0106951
54,97456575
-10,06201622
-60,59904019
-77,88649585
-85,92437314
-100,4626623
-113,5013538
-118,5404384
-107,0799072
-86,11975154
-81,40996306
-90,20053368
-88,99145565
-78,53272149
-74,32432405
-77,11625647
-69,90851219
-48,201085
-37,99396896
-51,53715846
-63,83064824
-62,62443331
-63,16850904
-67,46287112
-69,50751555
-77,55243869
-90,59763719
-93,14310807
-82,18884868
-69,98485669
-65,03113012
-63,32766734
-63,87446705
-72,17152829
-80,46885048
-78,26643334
-75,31427699
-82,86238185
-91,41074873
-92,70937878
-91,25827351
-79,80743477
-51,1068648
-28,40656615
-31,70654178
-39,75679496
-35,55732935
-38,60814896
-54,40925814
-56,96066163
-40,7623645
-32,31437218
-40,61669045
-45,91932545
-43,47228367
-61,52557192
-122,5791974
-148,8831676
51,06250965
518,5078261
915,2027734
814,1473425
256,5915245
-203,9646902
-206,5213114
-24,82834895
1,114186681
-49,19371509
-33,50206515
-6,810874625
-10,62015492
-7,679917671
8,259825261
23,44906179
40,88777963
56,57596628
61,51360908
68,9506952
92,63721164
114,3231453
122,0084828
135,9432109
163,377316
183,3107847
189,7436033
200,6757581
214,1072354
210,7880215
192,9681028
164,3974654
117,5760958
62,25398033
11,68110545
-35,64254229
-75,96697621
-104,2922095
-125,1182553
-129,4451265
-113,0228358
-105,8513958
-120,4308187
-133,7611167
-139,3423016
-140,174385
-132,2573781
-126,091292
-124,4261374
-107,7619245
-82,09866344
-78,68636377
-89,52503479
-82,36468537
-64,70532396
-61,29695862
-69,13959696
-71,23324616
-66,07791293
-67,92360353
-77,02032372
-76,61807881
-65,21687356
-58,56671227
-66,91759871
-80,5195361
-78,87252717
-65,97657409
-66,08167848
-77,68784143
-79,04506345
-71,1533445
-74,01268399
-86,62308074
-86,23453299
-67,84703844
-49,21059418
-42,07519673
-36,94084204
-18,80752547
-5,925241782
-24,29398519
-50,16374929
-57,53452713
-54,40631114
-44,27909321
-34,90286461
-38,77761608
-56,40333775
-107,0300192
-166,1576494
-62,28621679
339,0842907
821,4538859
922,8225819
480,1903926
-66,19266775
-208,0765841
-56,71134112
-0,846922774
-47,48331255
-44,3704934
-29,75844774
-36,64715747
-15,53660396
13,57323194
14,68236988
16,29083002
30,14863304
40,00580012
52,86235291
68,96831358
78,3237048
89,67854968
106,5328719
119,1366955
129,490045
144,3429456
160,1954227
169,5475023
163,6492108
144,0005751
126,3516227
106,2023811
61,05287873
-3,596855812
-60,74679342
-98,14690456
-118,2971593
-126,4475272
-130,0979776
-134,4984792
-132,1490004
-115,2995092
-101,1999733
-108,1003598
-117,2506356
-104,6507671
-84,30072052
-79,20046148
-78,09995538
-56,99916727
-33,64806183
-41,79660343
-58,44475611
-44,5924836
-17,73974931
-14,13651638
-26,53274764
-24,17840565
-22,57345273
-54,21785091
-80,86156198
-51,50454753
2,353231103
26,71181279
18,57123658
-5,568458278
-31,20723236
-40,8450461
-34,48185976
-31,8676335
-44,00232735
-59,63590121
-62,26831493
-48,64952827
-28,77950091
-14,65819251
-9,03556269
-9,911571052
-18,7861772
-31,65934075
-41,28102137
-50,90117873
-65,01977262
-73,88676286
-65,7521094
-51,86577229
-55,9777117
-89,83788795
-138,6962615
-108,3027931
144,0925565
572,4898262
832,1390548
624,0402806
122,9435419
-185,1511233
-140,4936775
-38,33408314
-67,92230336
-109,5083014
-87,342041
-64,6734861
-60,75260115
-43,32935096
-21,90370074
-22,97561614
-28,54506325
-14,1120086
5,323580782
13,76173742
23,20249331
39,39587997
51,09192837
58,54066896
71,74213163
89,94634571
105,15334
123,8631426
152,5757811
163,5412826
140,7596733
112,7309789
85,95522461
41,43243475
-7,087366908
-38,60415728
-62,36791398
-87,62861531
-106,1362403
-111,3907686
-105,8921808
-100,140458
-105,1355821
-111,1275359
-95,36630269
-63,85186683
-51,83421327
-62,81332781
-59,03919703
-34,76180833
-22,73114993
-28,19721085
-29,40998095
-22,11945093
-16,57561234
-19,02845758
-29,9779799
-35,92417344
-23,61703318
-11,30655501
-19,74273571
-30,67557293
-24,60506524
-15,2812121
-13,20401391
-10,12347196
-5,789588486
-0,202366636
7,138189496
5,232074882
-3,920716453
-5,570191431
6,033642072
24,39077522
32,00119823
18,61490034
-2,768130174
-17,147906
-28,52444082
-41,14774925
-48,76784693
-56,63475043
-70,49847735
-79,35904622
-81,21647659
-88,07078897
-109,6720049
-125,7701467
-40,36523804
231,0426968
558,2036323
628,3675422
315,534399
-87,54582546
-219,1231606
-115,9476366
-43,01928467
-58,83813699
-68,65422667
-62,96758773
-62,02825517
-46,08626489
-24,64165372
-21,1944594
-26,24472059
-23,54247683
-7,587768568
13,11936289
23,57887535
27,54072577
38,75487025
61,47126405
88,43986162
105,6606166
116,1334817
132,1084091
144,08535
145,5642549
141,7950735
126,0277549
100,7622472
72,99849822
29,48645468
-25,52393713
-60,53273167
-68,78998401
-72,29574985
-85,8000855
-106,3030479
-115,0546944
-101,0550832
-79,80427267
-67,55232201
-66,04929077
-75,79523899
-91,04022718
-90,28431629
-63,0275677
-36,77004317
-36,51180485
-40,75291526
-31,49343723
-25,73343395
-26,72296887
-21,46210574
-13,70090855
-12,68944153
-19,17776913
-27,66595597
-29,90406687
-27,89216677
-27,63032074
-24,61859397
-22,85705172
-33,59575929
-46,83478205
-48,32418536
-39,06403457
-19,55439502
4,45466804
21,21308941
29,470804
27,97774685
16,73385315
6,739058248
2,743297704
-3,753492712
-12,00137698
-8,000418831
-3,500681678
-29,25222864
-70,00512248
-79,00942562
-59,01520007
-53,52250745
-26,28140893
153,2080348
474,6957635
656,4317174
456,6658374
42,89806484
-184,3716583
-119,6433895
-15,91718548
-29,69310244
-68,22119581
-65,25152034
-60,53413006
-64,56907823
-59,35641733
-47,64619905
-33,43847422
-20,98329285
-14,78070407
-7,330756105
5,616503752
24,06102914
45,00277467
54,94169594
58,12774958
75,81089322
103,9910856
123,6682865
132,3424567
135,0135584
132,6815546
129,0964097
120,0080891
86,66655954
33,3217889
-15,02625367
-53,8775978
-77,48227181
-74,34030278
-67,20171645
-78,31653728
-90,68478838
-89,55649151
-82,9316671
-76,31033418
-66,19251042
-56,57821211
-61,71745411
-77,61024989
-80,7566115
-67,65654957
-57,06007328
-57,46719038
-59,87790719
-58,54222856
-57,21015791
-51,63169719
-38,80684691
-35,73560611
-49,66797238
-62,60394185
-68,04350922
-71,73666772
-67,93340912
-58,63372378
-55,83760061
-61,54502707
-70,50598924
-66,22047174
-33,93845782
3,090070694
12,36513335
5,636751064
4,154946131
-5,080257817
-31,06883581
-49,31076154
-45,05600743
-35,80454457
-35,8063428
-42,06137069
-47,0695956
-48,83098363
-66,09549971
-108,8631076
-77,38376979
187,3425522
602,065898
777,7863086
479,2538256
-17,78150804
-256,5696483
-170,6105504
-52,65416833
-51,95045529
-71,24936351
-57,05084432
-45,60484819
-39,41132471
-26,2202227
-13,03149016
-0,095074334
10,33907826
11,27102183
14,70081122
34,12850196
58,80415017
75,72781256
89,39954642
102,8194095
113,4874602
127,9037572
150,3183596
166,7313272
159,3927198
133,5525977
112,2110216
94,61805227
54,27375091
-7,32182118
-58,91860249
-86,51653138
-97,36554609
-103,4655848
-119,0665856
-139,6684865
-142,2712259
-132,1247417
-131,7289723
-132,5838561
-121,1893316
-107,2953375
-97,65181287
-91,25869686
-86,61592898
-76,47344906
-62,83119726
-57,43911417
-57,54714077
-54,9052185
-51,01328931
-48,62129563
-47,97918049
-45,08688747
-40,94436078
-42,80154528
-46,4083865
-47,0148307
-49,12082485
-48,72631673
-43,83125489
-45,18558873
-52,03926851
-50,39224537
-32,99447136
-9,345899502
4,553516244
8,703820903
8,605058483
0,007271942
-8,589496828
-0,935207034
9,220181003
-4,123294176
-28,46559519
-31,05668585
-17,64653113
-15,73509727
-36,8223517
-84,90826314
-94,74280154
95,42406184
512,8423545
857,0121025
763,4333307
282,6060627
-109,4696795
-124,793875
3,133495754
13,81245072
-22,75699332
-15,07482099
-9,89101832
-18,95557268
-17,01847284
-12,32970893
-5,639272464
7,802843668
16,74664521
26,44213654
42,88932069
51,8381993
62,0387727
84,74103986
92,19499843
82,40064473
89,60797379
109,5669793
119,7776538
124,4899882
122,2039727
97,9195958
59,38684495
24,10570639
-10,67383487
-50,20179495
-84,97819118
-102,753042
-108,7763669
-122,2981867
-141,818523
-149,8373987
-146,8548375
-142,3708644
-135,6355051
-126,1487864
-121,4107362
-119,671383
-108,6807565
-90,438887
-81,44580589
-86,70154524
-91,95613796
-86,20961773
-75,21201896
-69,21337681
-68,46372712
-62,96310639
-50,21155177
-41,70910105
-43,45579257
-44,70166525
-40,69675857
-42,69111248
-47,93476743
-40,42776434
-25,92014454
-23,66194976
-29,15322212
-27,89400408
-21,8843384
-8,374268165
16,6361633
36,64691243
39,65793544
29,16918837
8,430627118
-14,05779256
-24,29611501
-19,28438463
-10,27264587
-7,260943187
-9,999321039
-15,48782383
-34,97649591
-84,2153815
-99,70452473
79,30603043
482,8162402
819,076061
732,5854496
270,3443627
-105,6472423
-113,3894079
11,36782379
8,62441099
-38,11968761
-29,36451293
-18,36010542
-17,85650505
-11,10375128
-15,85188304
-14,1009387
6,399043965
15,64802779
14,64597625
18,14285347
14,88862429
12,63325422
28,62670955
44,86895729
47,60996526
56,09970207
73,33813715
81,82524079
86,56098413
93,29533922
84,778279
57,25977734
27,48980904
-4,031650106
-48,30462336
-92,82913297
-117,3552002
-129,6328452
-142,6620873
-147,4429444
-141,7254338
-140,0095714
-142,0453722
-138,3328498
-132,3720172
-123,4128858
-103,4554661
-82,74976758
-76,29579841
-74,09356572
-62,64307547
-55,19433251
-62,74734053
-65,30210209
-51,85861861
-46,91689037
-57,97691653
-61,7886951
-57,60222298
-55,66749593
-46,98450861
-36,05325456
-35,12372621
-33,69591493
-30,76981097
-35,59540351
-35,6726807
-30,25162958
-34,58223621
-31,66448558
-7,498361675
12,4161525
16,57907496
15,99042465
7,650221497
-8,69151364
-17,28475898
-12,62949186
-4,975688696
1,676674937
8,827624319
9,727185559
0,625385578
-26,97774792
-87,58218645
-103,1879008
102,455139
524,5969636
812,4876044
627,8770934
117,2654631
-217,597253
-171,2110211
-35,3258067
-37,94157487
-69,05829
-40,42591604
-22,54441642
-45,66375412
-57,78389166
-30,40479114
2,223585736
5,10127766
-1,771676326
12,60476316
35,73063582
46,10598164
51,48084089
64,10525408
82,22926196
104,1029055
123,9762258
133,3492642
141,2220622
153,3446613
152,4671032
128,5894296
94,46168249
62,08390362
24,20613491
-27,92158174
-80,54920448
-112,1766915
-120,8040009
-122,6810911
-127,5579204
-127,6844475
-119,8106308
-114,4364293
-112,3118018
-105,1867077
-96,81110615
-91,68495691
-82,55821979
-71,93085492
-73,05282272
-76,1740839
-63,04459951
-46,16433091
-40,78323984
-39,65128841
-39,01843912
-37,88465487
-31,499899
-29,86413527
-37,72732793
-37,08944167
-25,70044169
-22,3102937
-26,6689639
-25,02641907
-20,38262651
-28,73755409
-52,34117026
-62,19344407
-36,29434518
-3,143843839
5,25808904
-0,838518087
-12,43363742
-35,02724182
-54,61930483
-55,95980069
-46,29870432
-39,13599135
-37,47163813
-40,55562175
-49,63791999
-64,2185114
-93,79737526
-112,3744916
13,80015874
369,7265943
736,9048327
738,0848908
320,5167849
-100,5494698
-166,3638585
-30,17636758
6,513016146
-34,79569509
-24,35248978
2,342642809
-5,710287367
-15,01127111
-7,310299983
3,642633685
15,34753682
30,55441559
49,51327544
61,72412107
53,68695643
43,90178479
60,86860869
92,33742997
111,0582498
117,2810685
122,2558861
126,9827015
126,9615134
122,1923194
114,1751169
97,65990235
68,64667186
29,63542079
-15,62385604
-59,13116434
-87,1365104
-97,13990104
-103,8913436
-112,6408459
-116,3884163
-119,8840636
-122,627797
-109,3696263
-88,10956168
-80,09761364
-83,33379318
-89,06811166
-92,30058081
-86,03121273
-73,01001986
-62,98701496
-61,46221113
-67,43562174
-71,15726048
-64,1271413
-51,3452784
-45,56168624
-52,77637952
-64,98937315
-69,20068225
-61,91032212
-51,11830828
-46,82465639
-50,77938227
-59,23250191
-69,1840314
-74,133987
-66,83238504
-47,27924197
-28,22457434
-20,16839877
-12,86073196
-4,301590655
-8,240991678
-18,42895188
-27,61548814
-46,30061737
-60,73435649
-48,16672245
-30,09773216
-31,77740256
-39,45575055
-55,382793
-97,30854675
-80,98302862
156,0937446
578,6717563
833,2509898
617,3314285
117,663056
-173,0041442
-108,4201884
4,914907209
-11,2488735
-35,66154654
-15,5731278
-11,73363304
-15,64307792
-5,051477948
-0,708848491
2,884795218
22,4794381
41,57506522
48,92166181
54,26921327
60,36770515
66,71712318
76,56745328
88,66868152
101,5207942
110,3737777
108,2276187
105,0823041
109,1878208
105,7941562
89,15129752
67,25923249
34,86794891
-11,77256521
-58,16232164
-91,05133196
-113,1896076
-129,5771596
-136,7139991
-137,1001367
-139,4855832
-139,3703488
-133,7544439
-130,6378783
-123,270662
-107,4028045
-97,53431547
-95,66520408
-97,29547952
-102,9251508
-98,05422668
-79,68271592
-73,06062706
-81,18796851
-81,81474859
-72,94097547
-67,31665724
-68,94180188
-71,3164173
-65,69051131
-57,06409168
-57,43716609
-62,80974221
-60,43182765
-52,30343
-49,67455684
-55,04521576
-61,16541434
-55,78516019
-34,40446095
-11,77332431
-1,891758028
4,990230096
17,37263216
18,25544019
-0,361353923
-17,97775837
-19,8437815
-13,70943177
-10,57471781
-12,18964839
-15,55423247
-18,41847918
-34,28239784
-78,89599799
-72,75928934
159,6277181
612,0150143
921,6525887
730,7904306
194,6785292
-150,6831266
-107,2945485
5,844252104
-18,51673695
-53,37752788
-29,73813322
-14,5985658
-18,70883874
-14,31896547
-3,678959687
8,211164586
19,85139304
26,49171106
35,13210374
48,77255586
56,16305191
59,80357608
72,19411225
92,58464404
110,9751547
120,6156274
126,0060447
131,6463891
131,7866428
125,1767877
114,5668055
90,70667748
45,8463848
-4,76409165
-44,62477125
-78,48567359
-110,0968185
-130,7082261
-138,0699165
-142,1819103
-145,7942281
-142,1568907
-135,7699193
-132,383335
-126,2471592
-119,6114133
-119,4761192
-118,0912986
-108,2069734
-96,32316563
-88,18989756
-82,55719142
-77,17506957
-72,79355447
-70,66266862
-67,53243463
-63,65287512
-62,2740128
-60,14587039
-55,01847066
-47,64183637
-40,26599032
-37,89095529
-37,26675408
-32,14340944
-30,77094413
-38,64938083
-43,27874223
-40,65905092
-43,04032945
-44,67260029
-26,30588585
-3,190208421
-0,825590207
-2,712053302
4,150380321
-2,988311185
-23,62814953
-29,51915626
-23,91135278
-25,80476033
-26,44939994
-16,59529249
-8,992458632
-12,89091882
-36,79069327
-94,19180199
-113,8442647
86,50189903
547,09667
943,4400294
862,0319584
345,6224386
-79,78854781
-98,95101873
24,38500853
14,71951693
-35,69751018
-27,61608908
-21,03623566
-29,20796541
-18,13129339
-6,556234264
-8,232802214
-0,661010989
21,90912613
43,72759636
51,04438739
43,60948743
36,4228852
42,73456996
58,54453152
72,60276022
82,90924701
88,96398338
87,26696143
82,56817388
79,61761403
72,41527582
54,21115384
20,50524329
-29,70245993
-79,91195931
-110,6232576
-127,086357
-141,5512588
-149,5179639
-148,9864722
-146,9567831
-143,1788951
-138,9028063
-134,6285137
-123,8560139
-112,3353025
-109,8163747
-108,0492246
-99,53384579
-93,52023118
-95,50837282
-96,7482621
-88,73988966
-75,98324546
-69,22831869
-68,97509788
-63,72357083
-52,72372464
-53,22554573
-63,22901982
-57,98413196
-41,24086654
-40,24920727
-49,50913724
-43,27063887
-26,03369398
-21,04828375
-31,5643888
-42,8319891
-44,1010641
-33,12159266
-14,8935531
0,833076807
7,308319777
9,032199045
12,25473833
-1,524038191
-35,55410588
-37,33543967
0,881985932
15,09819679
1,063219186
-0,47292027
1,239805394
-18,54857653
-70,08803844
-109,1285525
28,32990957
437,787376
865,2438756
882,4494371
426,4040896
-45,39213783
-142,6892157
-32,98711451
-18,03580471
-60,58525657
-53,38544031
-43,68632609
-55,98788401
-58,54008419
-49,34289672
-33,64629169
-14,95023927
-6,004709644
-5,559673077
-0,615099924
11,57903936
24,27277418
32,96613382
42,65914741
61,10184387
81,79425198
90,48640026
90,92831704
93,87003039
89,06156813
70,2529578
53,19422666
35,88540166
0,326509403
-44,48242381
-78,04137205
-99,60030975
-112,9092117
-114,2180532
-108,7768099
-111,8354577
-121,6439732
-120,9523335
-110,0105158
-95,56849813
-75,12625895
-62,18377717
-65,49103225
-65,04800422
-55,10467364
-49,91102163
-51,71702994
-54,02268086
-50,82795732
-46,13284287
-48,18732168
-46,99137858
-33,79499905
-22,34816924
-24,15087597
-31,95310677
-32,50484987
-23,0560942
-12,35682942
-8,657045927
-15,95673486
-28,75588811
-32,30449833
-25,60255893
-20,65006411
-16,44700887
-3,993388957
9,960799037
11,91555774
11,12088896
21,82679369
27,28327211
11,49032357
-7,302053414
-17,09386115
-28,13510278
-38,92578228
-40,71590447
-34,255475
-24,79450035
-27,83298786
-62,12094567
-93,40838279
3,30469098
315,518265
669,7323277
712,946867
351,9118696
-67,37267823
-189,6567913
-83,69048507
-19,97377579
-42,00668051
-45,28921701
-27,07140386
-28,85326035
-40,88480647
-46,91606297
-43,44705128
-25,9777935
-2,758312434
7,711368483
7,681225167
17,40123291
37,37136641
51,09159976
61,8119065
82,53225962
102,2526316
105,4729943
104,6933192
116,6635774
128,3837393
119,8537752
95,82365464
70,79334706
46,51282143
14,23204641
-30,04900963
-75,83037862
-103,6120927
-107,3941844
-107,4266863
-113,9596311
-110,7430518
-96,27698152
-90,31145344
-91,34650082
-78,88215697
-60,66845523
-52,95542894
-45,24311141
-40,0315359
-49,8207356
-57,11074356
-46,15159273
-28,44331588
-19,23594562
-23,52951433
-32,07405416
-30,86959698
-26,66617442
-29,71381774
-29,26255791
-26,5624255
-40,11345073
-60,16566338
-61,96909281
-53,52376791
-54,07971709
-59,88696827
-57,94554881
-43,50548556
-24,81680476
-10,37953206
-2,193692505
-12,0093105
-41,57640977
-62,89501338
-58,71514368
-43,53682232
-33,36007017
-30,93490737
-30,26135327
-27,83942642
-43,66914457
-94,0005246
-100,0835826
112,3316663
549,2452078
845,9070285
648,8171159
140,4754585
-184,6179543
-176,2131322
-78,81008382
-55,90881677
-48,25933776
-12,11165241
0,534234648
-16,57168016
-7,429399363
17,71107558
8,099744269
-18,2633926
-19,12833327
3,754925162
33,88638666
55,76605631
59,39394034
63,52004608
80,644382
91,0169577
85,88778391
78,25687253
72,62423657
60,9898902
46,85384874
50,21612865
68,82674753
67,43572415
21,54307838
-48,35116874
-95,99699503
-106,6443772
-99,79329087
-93,94371045
-101,0956093
-115,7489597
-119,4037328
-111,0598986
-105,7174262
-109,1262834
-112,5364373
-116,9478535
-125,6104971
-112,5243317
-81,93932021
-75,85542451
-66,77260549
-33,94082312
-41,86003645
-83,28020362
-90,70128191
-77,37322773
-68,79599668
-55,71954351
-49,89382224
-57,56878606
-59,49438749
-50,92057829
-40,84730956
-36,77453174
-45,95219463
-51,63024745
-26,80863881
3,512683175
2,583770946
-5,595322593
-5,024544079
-21,45383973
-42,38315536
-32,31243643
-4,491628077
2,579324866
-18,84952217
-41,02811351
-43,7063933
-46,63430549
-61,31179392
-11,2388023
218,3347257
567,9088465
722,9836165
450,0590921
-15,61467045
-219,5376149
-101,4596851
24,61917495
13,44902096
-16,47009148
-0,888107032
13,94502937
13,02937247
12,3649767
12,95189613
18,29018443
29,12989485
30,2210802
24,56379284
33,90808459
52,50400678
61,10161015
59,70094489
53,80206059
60,4050062
98,75983001
138,8665796
137,725302
115,0860434
110,9488492
116,5637641
97,68083204
52,30009612
12,17159862
-9,954619021
-34,07851624
-65,95005336
-84,81919158
-93,18589305
-110,3001208
-120,4118389
-109,7710123
-100,8776071
-100,98159
-97,08292927
-92,68159374
-92,27755352
-89,37077971
-85,21124446
-82,79892104
-80,88378376
-82,71580806
-83,04497049
-76,1212487
-71,9446215
-78,01506881
-86,58257171
-77,89711244
-54,20867439
-52,01724212
-70,82280138
-65,37533908
-35,67484335
-22,97130348
-23,01470996
-4,055054493
21,90767002
29,62346948
23,59234857
13,81431077
-1,460641638
-19,7325076
-28,75128726
-28,01698197
-27,27959428
-26,03912797
-23,29558799
-22,29898051
-22,79931286
-35,5465936
-50,29083244
30,71795973
296,2297708
610,7445877
663,5123958
351,0331798
-32,19307706
-156,1663925
-61,1367855
8,645724041
-13,818885
-36,28063477
-24,73954849
-15,19565044
-18,89896591
-11,34952123
15,70265627
32,75753829
25,81509554
23,87529778
36,93811384
42,00351163
38,32145817
43,89191959
58,46486116
68,29024733
71,1180417
78,44820711
89,28070559
90,61549843
83,45254619
77,54180871
74,13324515
63,976814
37,8224731
-6,579820325
-60,98010964
-102,3784388
-117,7748523
-121,9193952
-128,0621129
-135,4530516
-142,5922576
-141,7297779
-124,6156597
-103,7499508
-98,88269927
-107,5139534
-113,893762
-111,022174
-100,1492387
-87,7750056
-81,89952446
-83,77284521
-87,39501796
-81,266093
-61,13612072
-41,50515164
-37,62323636
-44,74042554
-47,60676991
-46,2223202
-46,58712715
-37,20124148
-13,31471386
5,072405074
8,710064795
9,348214865
8,486804969
-0,374215064
-13,23489524
-23,5952854
-28,20543516
-25,56539393
-20,17521087
-16,0349349
-10,89461464
-6,754298435
-16,86403429
-45,9738699
-40,33385259
113,8059707
433,9455533
680,8348492
559,7238125
144,612398
-158,9994391
-149,8617433
-31,47455841
-11,83792777
-39,70189422
-26,81650005
-8,181786981
-5,547796156
9,085431873
23,71785717
21,34944041
20,98014294
31,35992674
40,23875447
44,61658948
51,74339583
61,11913827
69,24378232
79,86729421
92,73964096
101,8607903
106,7307109
109,0993721
111,4667439
116,3327975
112,9475047
88,31083807
50,6727712
13,78327847
-20,60766486
-54,25008262
-86,64399779
-115,0394324
-134,1864077
-140,0849438
-137,23506
-131,1367748
-121,0401056
-115,945069
-125,1016804
-131,7599546
-116,9199052
-97,33154505
-96,74488581
-102,1599384
-97,32671264
-91,24521752
-90,41546103
-89,08745019
-82,76119111
-74,68668894
-69,8639479
-67,29297127
-67,2237614
-66,65631972
-53,34064676
-34,02674211
-31,46460447
-36,65423166
-23,34562059
-10,03876731
-25,233667
-43,43031397
-43,3787017
-45,82882282
-50,03066916
-41,2342317
-38,43950065
-49,89646542
-60,85511465
-92,31543622
-135,7774173
-43,99104416
309,0436974
731,8268224
800,1083467
374,6382865
-132,833341
-265,5565182
-109,0312268
-17,50744775
-49,23516159
-59,9643482
-24,44498689
7,322943542
24,83946487
33,10459937
32,61836981
26,13079944
21,89191199
29,65173164
46,91028299
65,66759106
82,92368129
93,92857949
98,68231183
105,9349048
117,6863854
128,6867807
140,6861182
154,1844257
153,1817312
129,428063
101,4234498
77,16792012
39,41150308
-13,5957722
-60,3538764
-89,11278003
-103,3724535
-110,6328669
-120,8939906
-131,9057944
-127,6682485
-111,1813226
-101,4449866
-101,4592103
-105,2239636
-110,7392162
-113,7549379
-109,0210986
-97,03766823
-85,55461665
-82,57191392
-84,33953015
-82,10743557
-76,62560053
-71,89399551
-68,66259114
-64,43135823
-57,70026775
-50,9692909
-42,48839905
-31,50756382
-28,52675707
-37,04595091
-44,8151177
-45,5842301
-40,35326107
-33,62218384
-34,39097201
-42,40959947
-51,42804049
-56,44626966
-52,96426197
-49,23199277
-76,24943782
-144,5165733
-139,0333757
132,950178
619,9341103
907,1684433
665,6531988
111,638398
-224,8759383
-168,8897899
-27,15313693
-19,66596009
-44,67824055
-24,68995997
-18,45110056
-32,71164498
-24,72157645
-1,730878686
12,01046406
15,50246703
14,24514491
19,73851188
41,73258158
72,22736712
95,47288106
102,2191355
102,2161418
118,2139111
147,4624537
162,4617796
158,2118981
150,4628181
143,2145478
131,7170952
109,2204674
67,22467118
13,7297128
-31,26440205
-67,00766816
-97,25008081
-108,2416358
-102,2323295
-99,72215857
-103,7111204
-110,1992127
-119,4364337
-119,4227822
-101,1582573
-81,6428587
-81,87658652
-94,10944131
-95,09142411
-84,57253638
-79,80278003
-83,53215741
-87,0106713
-88,9883249
-91,96512184
-94,19106617
-96,41616234
-100,6404152
-100,8638301
-87,33641257
-64,55816879
-54,77910517
-58,49922856
-54,46854618
-52,68706563
-67,40479489
-80,12174231
-82,33791658
-84,55332679
-83,51798237
-73,73189309
-69,44506909
-85,40752084
-131,1192592
-189,3302952
-130,0406405
199,7496933
674,5406938
880,8323488
573,1246453
37,91757045
-216,5388893
-123,9947476
-27,45001836
-53,40471592
-63,3588548
-39,31244983
-46,51551611
-54,468069
-29,42012414
-1,121697382
9,427195133
11,22653705
17,02631176
32,57650246
49,62709209
60,17806343
73,229399
94,78108117
113,5830921
124,8854138
137,6880281
148,7409166
150,0440609
149,5974423
146,6510421
125,9548413
89,25882111
45,31296229
-5,632754309
-51,82834795
-79,02383797
-89,71924376
-91,66458478
-94,10988049
-101,3051504
-102,0004141
-93,44569098
-88,89100067
-88,83636264
-84,28179636
-75,47732126
-67,67295672
-65,36872204
-66,06463646
-62,26071912
-54,70698907
-47,90346524
-41,85016643
-40,54711132
-48,99431843
-61,19180612
-67,13959259
-64,08769584
-60,53613369
-61,48492375
-53,9340834
-32,13362981
-11,58357988
-8,033950296
-22,73475744
-42,18601744
-54,88774613
-60,08995903
-56,04267138
-47,49589807
-49,44965366
-60,40395238
-68,35880808
-90,06423425
-130,270244
-77,22685008
219,0659352
658,6081
846,8996328
539,4405225
21,98075853
-214,4796692
-114,6907704
-15,15255427
-49,11502947
-75,07820424
-48,04208624
-29,25668266
-21,22200011
-12,18804471
-6,654821977
6,877663098
19,65940611
16,44040324
21,22065124
45,00014748
63,77888993
74,05687717
87,08410842
94,61058352
95,13630295
105,4112678
127,43548
146,9589418
149,9816564
131,2536276
104,5248598
78,29535826
32,06512866
-33,41582241
-78,64748776
-97,87985948
-118,362929
-134,0966869
-128,0811233
-117,0662275
-117,051988
-116,5383927
-108,5254289
-104,263083
-105,7513409
-101,4901876
-88,22960757
-74,71958459
-73,96010172
-81,95114134
-75,44268521
-55,18471442
-46,17720939
-50,67014995
-53,91351526
-53,9072839
-49,65143382
-34,89594239
-21,1407864
-27,63594207
-42,88138509
-47,12709058
-52,12303317
-59,11918698
-45,11552563
-24,1120223
-27,60864968
-44,85538006
-50,60218532
-46,84903692
-46,09590599
-43,09276327
-30,83957921
-22,83632394
-30,83296729
-46,82947885
-59,07582799
-66,32198383
-86,56791535
-129,0635913
-104,0589804
141,1959488
564,2012279
825,7068885
631,7129621
137,9694805
-185,2735248
-159,7660223
-58,25798029
-66,99936756
-85,99015282
-65,98030495
-62,96979307
-70,45858645
-58,94665466
-43,93396749
-40,92049505
-37,40620778
-24,14107645
-13,12507221
-5,108166638
16,65966827
49,42846007
73,94823581
86,21902202
97,24084472
113,0137293
128,7877007
138,5627831
142,0889999
136,6163743
117,3949283
88,42468346
49,9556605
-3,762120605
-55,72864068
-80,19388138
-89,15782517
-110,8704554
-137,8317564
-138,2917132
-103,5003119
-61,70753952
-44,91338415
-55,36783475
-69,07088133
-64,52251495
-49,97272771
-47,1715128
-52,61886448
-50,31477812
-39,25925024
-26,45227848
-18,64386163
-13,83399968
-6,522693781
-6,959946306
-13,39576083
-6,58014217
-1,013096365
-16,19463072
-29,6247538
-21,05347543
0,269193265
7,59323988
-15,33134929
-40,00458925
-34,92649632
-14,84708814
-10,76638366
-30,18440316
-43,85116824
-20,51670185
11,81897177
9,405827015
-10,75616303
-19,1670266
-19,57679327
-18,48549392
-12,64316075
5,200172737
22,04447174
6,889700164
-28,51417937
-40,66720552
-33,06941819
-38,72085855
-50,12156898
-49,5215931
-45,92097574
-42,8197629
-47,71800175
-81,11574063
-133,763029
-143,4099174
12,69354246
402,2972979
803,6512952
816,2554795
373,6097952
-99,03581457
-227,6814074
-130,5770418
-76,47277716
-69,36867377
-30,51479265
1,33880439
-5,307945197
-11,70510465
6,147262138
28,74909064
38,60031575
33,95087183
25,55069273
40,64971183
71,49786209
74,59507612
63,94128617
83,0364242
114,1304219
127,4732109
134,8147224
148,4048878
166,7436383
185,5809049
186,416619
155,5007118
109,0831146
66,41375924
22,24257734
-31,18049897
-79,1055373
-102,0326049
-102,2117686
-98,64309471
-99,07664917
-92,76249724
-79,95070362
-78,89133238
-94,83444685
-107,0301096
-92,4783826
-67,6793267
-72,38300206
-95,58946787
-97,79878236
-90,51100275
-95,47618521
-89,19438484
-69,41565558
-72,64005021
-91,61762033
-96,59841625
-102,082487
-122,5698804
-136,0606427
-120,304819
-88,55245278
-81,30358622
-99,55825994
-100,5665131
-85,32838315
-88,59390623
-102,6131167
-98,88604739
-78,66272941
-62,19319225
-59,2274637
-59,76556983
-58,05753497
-57,10338173
-41,9031309
-11,45680154
2,985589148
-8,075974264
-29,39150535
-48,21101585
-52,03451564
-38,86201275
-20,6935133
-15,77902156
-36,11853989
-58,46206877
-52,80960674
-60,41115048
-122,7666947
-114,3762323
152,7602459
606,3927509
881,7712955
696,6458947
199,7665652
-153,8666743
-154,5038033
-40,89479917
-22,53963763
-28,68829233
-5,590735106
-0,746935873
0,843137311
24,92951826
37,51224265
36,091348
48,16687366
61,98886084
64,80735251
67,62239349
76,68403036
97,99231148
125,047287
136,8490087
143,3975302
169,4429068
201,9851955
212,0244548
193,8107452
163,8441285
137,1246683
103,9024296
51,42747909
-6,050114958
-49,78028287
-88,26295344
-131,498054
-162,7355105
-171,2252474
-163,4671878
-149,9612537
-153,9573653
-176,455442
-176,7054017
-147,4571611
-125,9606358
-118,9657403
-115,4723879
-116,7304908
-111,4899602
-96,00070641
-87,26263871
-84,77566546
-77,53969419
-74,05463158
-78,07038356
-75,33685528
-63,10395125
-49,6215753
-42,13963068
-47,65802008
-56,42664569
-54,44540927
-50,46421213
-48,48295526
-38,50153935
-28,76986481
-27,78783187
-25,80534062
-22,32229102
-21,33858303
-18,60411658
-19,86879169
-27,88250848
-28,14516726
-17,65666856
-7,166913167
-0,675802236
-0,433237291
-5,189120305
-4,193353746
5,554159361
9,80351539
1,554810051
1,05813834
20,31359449
34,0712719
27,5812631
24,84365972
38,60855236
47,12603063
36,89618305
22,16909699
12,19485866
0,223553035
-11,2447362
-10,70992668
-3,921937406
-9,130688821
-36,33610282
-92,7881028
-138,7366137
-21,68156217
367,6271237
817,939514
897,2556771
470,3256797
-54,10041335
-226,272539
-121,6906362
-67,10464557
-102,7645098
-106,1701736
-88,32158354
-87,21868828
-71,11143854
-43,99978711
-39,88368887
-42,51310085
-29,88798223
-17,25829435
-7,624000764
16,76493278
47,15853829
63,55684552
75,70988197
97,36767285
116,5302411
122,9476073
128,8697898
147,7968045
171,4786652
176,9153831
160,1069671
133,3034239
87,5047578
15,21097063
-53,32793805
-96,36197103
-126,6411335
-148,9154329
-156,6848792
-147,6994845
-123,2092635
-103,4642329
-105,714412
-110,2098223
-101,7004876
-95,93643412
-102,4176901
-111,1442864
-99,36625578
-58,08363349
-21,79645692
-18,00476567
-28,70860154
-38,9080085
-48,10303268
-48,79372234
-48,73012787
-57,16230171
-54,59029842
-35,01417457
-17,93398875
-12,84980157
-20,7616756
-30,66967533
-31,82386719
-35,22431948
-37,37110236
-27,51428781
-26,15394963
-32,79016334
-12,92300622
18,19744278
14,32110302
-10,55210775
-17,92227335
-15,78947919
-21,40381216
-25,01536063
-23,37421444
-27,98046477
-33,5842042
-21,1855266
7,465472893
23,8686979
11,02405088
-9,06856685
-16,15925508
-24,24811461
-39,08524727
-47,42075582
-48,5047439
-46,58731604
-42,16857754
-46,74863443
-87,82759348
-166,4055621
-175,2326481
61,69103976
544,6153927
945,7903012
868,7156555
331,3913457
-152,1827388
-211,0067084
-84,5806737
-89,6547455
-128,2290346
-62,80365154
3,871292942
-6,954311549
-28,03057521
-13,35760796
8,564480653
18,48558147
18,15558583
11,0743856
19,24187325
55,90794192
97,32248548
117,4853986
112,6465768
104,8059165
128,713315
175,868671
192,5218839
166,4228545
147,0714846
159,4676777
164,6113383
121,0023723
40,14068735
-26,72380758
-52,59120189
-67,96158331
-100,3350379
-134,7116499
-147,8415017
-131,224674
-102,6112454
-90,25129259
-93,14489023
-93,79211088
-84,94302499
-71,34770082
-67,75620443
-75,91859959
-80,58494779
-73,00530812
-60,92973732
-62,35828969
-67,54101703
-47,47796867
-20,16919138
-23,11472936
-47,31462421
-63,76891489
-61,4776377
-54,69082625
-65,15851144
-80,63072145
-85,60748167
-90,58881476
-87,07474055
-70,31527609
-66,56043561
-71,81023051
-63,56466933
-64,82375779
-97,08749874
-119,3558922
-97,87893529
-63,15662232
-39,6889447
-27,97589102
-37,517447
-55,81359555
-58,36431671
-46,91958772
-37,47938303
-43,79367426
-61,36243028
-64,4356172
-47,51319836
-34,59513443
-27,43138333
-10,77190034
-1,616638087
-15,46554657
-25,3185732
-13,42566283
-5,786757772
-19,40179784
-29,2707204
-23,89346037
-28,76995027
-45,15012028
-42,28389827
-21,9212098
-29,81197822
-87,20612468
-136,8535682
-64,00422558
221,8419883
640,9351606
877,5253805
661,6127392
167,1973295
-137,2207537
-107,6414138
-19,06455256
-28,74006995
-43,91786436
-27,59783262
-17,77987
-11,46387033
-1,649725996
5,662671962
12,72343382
19,2826711
26,84049655
41,64702403
53,7023685
57,25664596
73,55997338
104,3624687
125,4142505
136,2154386
148,2661531
157,3165151
157,1166462
145,9166685
129,2167049
123,2668785
129,0673127
120,6181317
75,6694594
3,721420358
-58,97586091
-93,92225976
-118,1176515
-139,0619114
-141,254915
-123,1965378
-103,8866555
-95,07514421
-97,76188027
-106,9467404
-105,3796019
-92,06034229
-93,48884001
-106,6649739
-94,33862366
-67,00966958
-72,42799288
-95,84347564
-95,50600088
-86,91545262
-89,07171597
-88,22467715
-84,87422358
-88,02024392
-91,16262818
-91,8012677
-89,93605529
-76,06688525
-53,69365343
-41,5662573
-42,18459603
-47,29857049
-57,40808337
-67,76303923
-71,36334452
-67,95890765
-56,0496391
-43,88545139
-40,21625922
-34,29197944
-27,11253119
-35,6778359
-49,23781733
-47,54240169
-37,8415176
-26,88509622
-9,673071256
3,794620992
3,51804157
4,497248832
12,48229839
5,973243096
-12,77986705
-18,77698487
-15,01806612
-14,50306947
-15,23195657
-20,70469205
-31,67124361
-37,63158198
-56,83568103
-98,5335177
-47,4750721
241,0896725
658,4107296
832,7381095
535,3218194
26,911863
-218,241759
-135,8890493
-40,28001379
-47,91466181
-48,29300584
-31,41506172
-33,53084855
-27,39038876
-9,743708046
2,409164595
20,06819689
42,73335329
54,404595
57,08187996
61,76516289
75,95439529
99,14952547
116,3504986
123,8072566
141,7697384
171,9878797
192,7116133
199,9408688
209,4255728
222,6656492
215,6610186
175,911599
121,4173054
69,67805008
20,44374244
-27,78571073
-68,26040531
-92,98043984
-98,69591539
-92,65693556
-88,86360642
-91,31603642
-92,76433638
-90,20861938
-89,39900076
-91,33559803
-90,76853078
-87,69792067
-78,12389133
-62,04656833
-55,71607906
-58,63255272
-58,79612021
-63,20691409
-70,11506851
-64,77071911
-54,17400299
-51,57505861
-52,47402574
-55,12104536
-59,01625963
-49,15981178
-29,55184604
-26,19250759
-39,08194248
-47,47029753
-43,35772029
-30,99435895
-22,63036226
-29,51587947
-46,90106026
-64,03605463
-69,17101286
-53,30608545
-31,19142299
-26,57717615
-39,46349555
-53,60053173
-61,73843505
-67,87735564
-63,76744329
-33,15884745
-2,551717056
-12,69620056
-33,09244578
-22,99059989
-17,14080931
-42,54321965
-64,94797565
-66,10522111
-64,76509879
-66,6777504
-63,34331649
-55,2619364
-51,93374819
-81,35888858
-148,7874929
-129,969695
156,0943728
640,9045798
924,9607968
694,0128966
147,0607534
-201,8957565
-170,3567549
-47,57236199
-42,04269558
-61,76787165
-43,24800405
-32,73320444
-31,97358233
-23,21924496
-11,47029725
7,023158177
25,01102112
28,99319381
30,46958094
40,19008972
54,15462995
73,36311399
97,56545686
120,2615762
142,9513925
164,3848289
175,3118112
176,2322682
174,8961313
175,0533351
174,4538169
161,0975167
122,2343778
61,11434616
-8,512629049
-72,64659582
-119,7875991
-147,1856808
-155,5908799
-145,5032322
-133,1727706
-136,8495247
-147,2835213
-147,974784
-142,4233335
-139,1291872
-137,0923596
-139,5628622
-148,0407032
-145,5258881
-127,5184192
-118,5182957
-126,275514
-131,0400674
-127,3119463
-125,5911381
-123,8776273
-117,6713957
-115,2224218
-118,2806817
-118,8461485
-112,9187925
-102,2485813
-95,58547977
-91,92945014
-81,28045198
-77,88844227
-90,00337542
-94,87520335
-87,75387548
-82,38933884
-77,78153803
-70,18041536
-63,33591084
-56,74796223
-51,66650511
-52,34147294
-47,52279707
-26,46040684
-6,154229589
-3,354190749
-0,310213873
16,7277793
22,50986879
5,036136337
-10,94333469
-12,92845933
-8,419151054
-0,665321886
6,333117593
7,576258165
-0,685808075
-46,70298777
-123,4751864
-67,25230818
300,9657436
827,1790668
1050,38776
715,8419236
127,0416575
-183,7629365
-104,5717563
25,36530103
11,54833916
-28,27253772
-18,3472248
0,824383252
20,49239224
40,15690842
44,81803841
47,4758892
62,13056807
85,53218257
105,4308405
105,0766497
102,2197183
129,8601546
162,4980668
163,3835631
160,2667519
178,6477414
198,0266397
211,9035551
229,7785954
235,1518684
210,7734818
168,3935428
117,5121587
52,12943629
-22,00451783
-89,38959741
-138,2756966
-157,9127097
-152,5505317
-144,4390578
-148,0781838
-155,9678057
-152,1078201
-140,2481241
-136,3886155
-136,7791921
-136,4197529
-140,3101969
-130,4504239
-97,34033444
-80,47982943
-100,6188105
-114,7571799
-96,39484057
-82,78169604
-93,91765058
-96,80260913
-81,18647735
-72,81916159
-73,45056896
-70,83060732
-74,95918525
-85,33621215
-82,46159816
-70,33525425
-64,70709217
-63,82702451
-63,9449647
-66,81082698
-67,92452647
-68,03597916
-76,64510192
-85,00181249
-79,60602955
-70,45767265
-61,0566623
-39,90291993
-12,74636792
3,913070371
3,075470648
-6,259092387
-12,84054502
-21,41881453
-27,99382921
-15,56551839
0,116187579
-8,948642691
-17,75994165
2,432357203
2,128319284
-71,42199106
-134,7185106
8,238822896
423,9500704
845,9152919
866,6345462
421,607891
-66,66461721
-202,4329229
-88,19697195
-28,45671115
-52,46208861
-42,46305354
-15,20955635
-29,95154863
-56,43898315
-50,67181387
-27,64999596
-16,62348577
-10,84224086
6,193779986
19,98461679
16,28030834
16,58089222
38,38640478
65,69688116
84,26235523
98,58285968
111,1584259
125,2390842
146,5748634
159,6657912
150,2618942
134,8631975
113,9697252
65,83149982
2,448543005
-50,67912509
-93,0514855
-121,1685205
-125,7802137
-126,3865499
-142,2375151
-150,8330967
-142,6732834
-138,2580649
-121,5874325
-88,4113785
-86,47989666
-105,7929819
-94,60063054
-69,40284002
-59,19960918
-57,49093811
-61,02682818
-59,05728206
-41,33230369
-18,35189833
-6,616072532
-20,62483413
-42,87819227
-38,6261574
-23,36874127
-26,85595696
-32,83781883
-32,81434258
-46,78554521
-63,75144504
-65,71206172
-70,16741622
-78,11753082
-64,06242914
-41,25213614
-44,68667808
-64,11608258
-70,04037856
-55,4595963
-23,8737674
-7,282924793
-37,68710274
-64,58633683
-42,730664
-29,1201225
-50,7547519
-53,63459311
-39,50968833
-55,88008112
-86,74581632
-91,35694008
-80,71349985
-93,81554438
-146,4131237
-174,5062892
-1,595093296
463,32041
939,4901657
941,6641174
388,5922075
-179,4756227
-287,0394333
-122,5992853
-57,90524126
-76,45736454
-45,00571985
-9,050372947
-17,84139071
-29,87884111
-16,41279315
12,30668309
33,27951653
35,50563508
40,48496571
63,21743441
88,70296627
110,4414855
133,6829154
154,9271784
170,9241963
185,17389
207,4261796
239,4309846
258,9382237
255,4478152
246,7096764
228,7237245
182,7398757
120,5080459
56,5281507
-10,69989501
-72,9261766
-116,6507798
-137,6237907
-139,3452955
-129,8153809
-119,5341336
-117,5016405
-122,2179886
-122,9332651
-115,1475571
-105,1109516
-98,82353588
-93,53539679
-84,24662122
-76,20729587
-72,6675072
-62,62734145
-46,58688456
-42,29622211
-52,50543934
-60,46462107
-54,92385166
-43,633215
-39,34279443
-42,30267273
-47,01293209
-52,22365405
-58,43491945
-64,64680847
-69,85940048
-70,82277412
-64,28700717
-60,25217659
-69,21835843
-79,43562783
-71,904059
-49,62372515
-36,59469848
-39,56705015
-43,04085027
-52,51616784
-75,74307073
-87,22162566
-78,95189819
-77,93395267
-85,91785221
-85,9036587
-87,14143274
-95,88123363
-119,1231194
-184,3671466
-203,1133707
45,38815441
566,1373762
960,1342436
817,3787068
241,1207176
-213,1397709
-233,152804
-86,41842568
-63,68667824
-95,2076026
-74,98123812
-47,75762267
-45,78679257
-46,06878259
-39,60362597
-33,89135439
-26,43199799
-10,22558532
10,22785663
27,92830243
40,62572822
47,32011173
56,51143226
79,19967067
104,3848094
117,3168325
132,7457255
159,9214756
174,8440715
170,7635034
164,9297633
149,8428443
109,5027415
51,65945124
-11,18702851
-67,0366983
-95,13955718
-95,74560272
-96,35483101
-103,9672367
-105,3328129
-104,4515514
-107,5734426
-106,9484753
-103,0766372
-102,9579143
-102,0922917
-91,72975271
-73,37027963
-58,51385337
-52,4104536
-49,06005875
-47,71264603
-50,86819147
-49,52666991
-42,68805507
-48,10231954
-62,51943484
-64,18937141
-55,61209867
-48,78758501
-42,71579789
-35,64670378
-34,33026825
-42,01645599
-47,45523083
-45,39655578
-43,34039306
-39,78670411
-30,23544966
-21,18658977
-16,39008379
-15,09589047
-17,30396797
-11,76427388
3,523234745
8,058601331
5,841869768
16,87308437
24,15228985
7,679531277
-13,54514597
-22,7716962
-34,50007348
-51,98023164
-52,46212434
-37,44570505
-34,68092715
-49,9177439
-79,90610851
-142,6459742
-200,887294
-88,63002134
316,1258907
814,1304886
969,1338189
587,385928
21,13686215
-220,6133328
-125,6146111
-47,61692718
-77,62023593
-79,87449245
-52,37965221
-41,635671
-24,64250505
-7,900110955
-11,15844576
-6,167466958
18,32286749
36,56259914
47,55176901
61,04041761
64,2785849
62,51631028
82,50363255
109,2405899
109,72722
107,2135597
126,6996455
139,4355129
136,921197
147,9067321
161,3921518
139,377489
83,86277609
21,34804439
-36,16667528
-84,68135292
-118,6959593
-134,4604658
-135,4748448
-136,9890692
-148,0031129
-157,5169505
-156,2805573
-142,0439095
-114,8069842
-91,31975891
-79,3322124
-68,594324
-69,60607392
-84,86744318
-91,3784136
-92,13896785
-94,64908941
-77,90876256
-44,91797244
-29,926705
-38,68494702
-50,94268609
-59,19991065
-61,45660996
-57,21277408
-53,21839394
-46,22346125
-33,97796856
-31,23190925
-36,73527749
-35,23806831
-33,99027749
-37,49190168
-32,24293831
-26,2433856
-29,74324259
-22,9925091
-2,241185758
16,01072604
30,51322412
34,26630552
17,51996651
-3,225797375
-10,22099138
-8,965621503
-9,459694454
-11,9532177
-13,69619941
-15,93864849
-35,68057454
-103,9219879
-186,4128994
-109,4033209
275,8567354
792,1172565
984,8782287
625,3896379
53,90146914
-207,8362931
-116,5736648
-28,06066258
-73,54730374
-103,783606
-81,51958767
-80,25526753
-84,99066492
-55,47579965
-24,21069199
-20,6953627
-12,17983293
17,58587569
26,10174116
7,867741076
11,63385267
34,15005281
41,16631803
43,43262455
51,94894828
72,21526487
123,7315497
176,7477778
185,7639242
167,0299635
139,5458702
99,81161863
64,57718298
23,34253728
-58,39234457
-141,8774887
-166,6129215
-155,0986692
-154,5847582
-162,5712149
-154,0580656
-125,7953369
-109,7830551
-134,7712466
-162,7599375
-136,9991543
-81,73892284
-57,47926932
-68,4702196
-69,96179945
-44,70403449
-41,19695019
-72,94057182
-71,68492449
-34,68003308
-34,17592227
-61,92261652
-65,17014002
-51,91851674
-38,66777036
-16,1679243
1,830998299
-6,671025394
-25,92401791
-33,42800147
-35,18299795
-37,43902892
-33,69611559
-26,45427882
-20,96353911
-7,9739166
20,76456896
49,75189819
46,48805212
19,22301214
20,45676009
31,18927819
-2,829450908
-27,59944413
1,629282013
10,85671148
-32,66717137
-66,69238168
-54,46893418
-18,99684313
-18,77612232
-98,05678506
-178,0888442
-55,87231212
349,3427993
787,5564788
874,0187153
490,4794985
-31,56118153
-223,1033341
-85,64696799
-14,69209165
-95,73871284
-116,5368388
-66,08647635
-54,63763159
-67,6903102
-61,74451726
-56,05025731
-59,10753432
-35,41635171
11,77328769
31,21138162
20,3979284
17,83292692
25,01637667
23,94827774
29,37863081
71,05743714
143,2346986
196,6604178
187,0845977
131,257242
98,17835517
118,0979421
128,5160083
66,43256014
-30,90239567
-78,23885164
-62,07679965
-59,16623097
-120,2571362
-174,8495054
-144,6933279
-101,2885924
-127,885287
-150,7333991
-116,3329156
-101,9338225
-113,5361055
-77,38974936
-32,24473845
-43,10105639
-64,20868618
-55,56761021
-40,92781026
-29,0392675
-17,65196245
-23,26587508
-43,88098472
-55,24727011
-48,61470943
-23,23328024
6,397040454
3,776276214
-18,84554883
-17,21841
-12,09228206
-36,71713927
-58,09295533
-44,71970343
-23,59735627
-26,22588603
-38,35526441
-33,98546264
-20,11645146
-6,498201187
13,36931833
13,48613768
-22,89771216
-38,78219977
-17,66729334
-24,55296068
-54,68916922
-50,07588606
-33,7130779
-46,10071115
-70,48875188
-110,8771659
-169,5159185
-122,1549751
184,4556995
650,5661406
895,4263838
649,286465
123,14642
-205,9937147
-187,6339029
-75,02410792
-46,41429301
-55,30442128
-58,44445569
-67,08435908
-73,97409418
-67,36362363
-52,25290999
-33,14191573
-13,28060329
2,081064939
15,44312661
22,55561939
15,66858093
20,7820489
60,14606092
99,76065461
114,8758675
129,2417371
148,3583008
154,225596
153,0936599
157,9625296
160,8322421
141,2028342
88,07434279
22,19680428
-28,42974492
-64,30526863
-89,42973087
-97,55309587
-98,67532809
-106,7963922
-115,1662533
-113,5348764
-106,9022272
-104,5182714
-101,3829751
-87,74630487
-75,10822734
-77,7187097
-78,82771942
-61,43522438
-45,79119285
-51,3955935
-63,24839543
-69,59956818
-77,94908174
-79,54690656
-62,89301358
-51,73737426
-62,07996053
-73,42074489
-79,25970036
-82,34680053
-72,43201955
-60,51533219
-62,8467138
-68,92614036
-71,50358849
-71,57903544
-58,40245917
-31,22383827
-11,04315207
-9,860380591
-16,17550458
-19,23850553
-24,04936568
-31,60806806
-30,16459644
-22,96893544
-26,52107044
-35,07098768
-32,6186742
-25,66411791
-35,95730758
-86,49823282
-153,0368842
-76,82325298
296,1426684
779,3608868
918,5814081
536,8042371
0,279378039
-217,4931662
-121,2633933
-47,78130233
-84,04689294
-87,81016591
-49,82112298
-40,07976684
-45,58610117
-35,34013063
-17,09186083
-6,091298411
-2,838450949
3,41667298
19,17406382
42,68371104
70,44560314
92,95972763
99,22607107
100,994619
119,7653562
146,0382661
158,8133316
161,8405345
162,6198555
159,1512747
153,1847709
134,9703224
88,00790622
27,79749876
-21,41092457
-63,36738923
-99,57192149
-123,0245485
-140,9752983
-156,4241996
-159,371282
-147,0665758
-128,7601124
-116,2019236
-115,642042
-122,080501
-123,7673349
-114,7025783
-100,6362669
-91,56843669
-85,24912457
-73,42836797
-60,60620496
-58,03267419
-64,20781489
-64,63166687
-54,05427047
-39,47566653
-29,14589643
-29,065002
-34,98302558
-37,4000099
-35,56599815
-35,98103393
-38,89516119
-37,80842428
-29,47086787
-12,88253696
5,206523154
12,79626688
16,38664839
26,72762162
28,06914026
8,661157853
-12,49637226
-20,90349686
-23,81026288
-25,46671733
-22,87290731
-19,77887996
-22,43468247
-45,34036203
-108,9959658
-143,4015409
36,19286555
478,2872066
885,3814355
847,4755054
342,8193697
-144,8370179
-223,7437035
-78,65073304
-34,05815224
-64,96600644
-57,37434069
-45,7831997
-45,69262782
-31,102669
-25,5133668
-34,67476433
-27,33690421
-8,999828594
-0,413579128
7,671803098
22,50627755
34,83980429
45,67234397
62,00385792
80,58430808
96,66365711
111,7418684
126,3189059
131,3947346
121,71932
112,0426286
109,8646275
92,93528484
47,75456947
-7,677548811
-58,36109933
-103,2961105
-134,4826098
-142,9206238
-139,360178
-140,551297
-144,7440045
-144,1883229
-139,884274
-134,8318782
-129,781155
-122,4821228
-109,184799
-95,13919979
-90,84534044
-90,80323501
-84,26289649
-77,47433674
-74,68756652
-68,40259547
-60,36943209
-57,33808377
-56,80855675
-53,28085616
-46,50498597
-42,23094904
-41,20874708
-38,68838069
-36,66984933
-37,90315132
-40,3882839
-41,62524315
-34,11402407
-12,60462054
7,902974634
9,408769762
4,412774219
9,914998454
9,415453978
-6,83584665
-18,33888983
-17,84366092
-17,35014429
-21,60832329
-31,11818027
-43,62969662
-51,64285276
-74,15762817
-135,6740014
-140,44195
101,7885492
568,7675204
895,9949886
745,7209798
240,4455205
-137,5813615
-144,8596381
-26,63928014
-20,4202577
-49,95254021
-34,23609634
-19,52089405
-15,80690064
-4,344082723
0,367593719
-6,92183667
-10,46233864
-5,003876379
2,453586516
11,66008697
21,11566242
20,32035081
19,77419056
37,47722053
59,17948004
71,13100877
86,33184685
107,0320347
119,2316132
122,9306233
119,1291066
95,07710472
49,27465958
-5,528186648
-58,0813916
-98,63491272
-125,1887073
-146,2427326
-160,2969455
-154,1013032
-132,9057625
-119,4602802
-120,0148134
-123,8193188
-122,6237534
-111,1780743
-94,48223838
-84,03620298
-76,58992541
-65,64336318
-56,94647397
-55,2492157
-58,0515465
-58,85342479
-53,90480927
-51,45565894
-53,25593317
-47,05559166
-35,60459451
-35,15290225
-42,45047581
-41,2472766
-36,54326653
-40,33840799
-45,88266392
-45,42599779
-38,21837366
-20,00975621
3,199889294
13,16059693
13,1224001
18,33533155
18,2994233
0,764706655
-17,51878783
-18,80103036
-12,33199191
-12,36164426
-13,38996001
-8,666912581
-8,192476247
-35,21662614
-109,4893383
-160,5105895
7,719642281
465,4513784
910,9346393
917,4194443
442,1558119
-63,85624031
-190,3666959
-67,37553915
-23,63275555
-61,63833145
-52,6422542
-25,64451217
-25,14509472
-26,8939922
-26,14119598
-29,88669842
-24,63049289
-8,622573763
4,88706359
18,64842279
39,91150646
56,42631622
59,94285272
66,4611156
88,48110352
115,5028142
130,7762443
133,0513896
133,5782449
130,106804
115,1370599
93,41900457
61,70262901
15,98792338
-32,47512306
-78,43652196
-118,8962858
-138,1044281
-135,5609629
-136,7659055
-146,9692716
-147,4210781
-140,6213425
-136,820083
-130,7673189
-122,9630699
-116,9073566
-105,8502005
-92,29162347
-89,23164841
-91,67029874
-81,60759858
-65,79357273
-65,47824662
-71,41164633
-63,84379854
-52,77473053
-52,20447017
-54,63304589
-52,06048669
-46,98682209
-43,16208215
-43,58629743
-49,50949897
-56,18171832
-53,85298745
-38,02333879
-18,44280522
-3,861420003
6,470783188
9,053770299
7,387506912
10,47195826
7,057089246
-9,10713555
-18,77075184
-20,43379562
-31,34630317
-41,25831099
-33,41985583
-23,58097466
-39,49170463
-101,4020831
-166,8121476
-60,47193573
332,1185147
775,2091657
851,2999795
456,3909178
-27,76805738
-182,9269842
-75,83590099
-23,99484578
-64,90385679
-68,56297215
-44,22222993
-35,63166815
-19,79132469
-0,201237376
4,138556144
8,47801835
20,5671119
31,40579963
39,99404462
49,83181013
62,9190597
77,00575713
89,59186651
100,6773522
107,512179
111,8463119
116,9297164
120,5123583
121,0942037
114,6752193
97,75537229
72,83463006
36,41296066
-17,25966742
-70,18328516
-99,85792303
-118,033611
-135,4603783
-138,3882538
-132,3172658
-135,9974417
-141,9288085
-135,1113926
-120,5452196
-109,4803146
-103,1667019
-96,35440517
-86,79344728
-78,73385051
-75,92563635
-75,36882559
-70,06343825
-61,50949361
-57,20701018
-52,4060057
-44,35649713
-42,30850066
-45,76203167
-47,46710474
-46,92373367
-44,13193142
-40,59171016
-40,30308123
-38,76605517
-29,73064167
-20,94684961
-23,41468704
-29,88416118
-22,60527842
-2,078044337
11,94753635
9,721459726
0,243722721
-11,73567692
-32,96674062
-56,69946898
-60,43386179
-45,41991801
-38,9076358
-41,89701249
-35,13804463
-32,13072795
-63,37505738
-127,8710271
-146,1186304
32,88214014
435,3812927
788,8788362
741,8747804
306,3691359
-90,88808611
-145,6468737
-37,40721398
-24,1690936
-60,93249833
-50,44741324
-33,46382271
-32,4817104
-21,25105928
-4,771851618
6,205930976
17,68230758
29,40729795
37,38092247
43,8532022
51,57415882
58,29381466
66,76219267
83,2293164
99,69521003
107,9098983
113,8734066
121,3357608
125,0469874
122,5071135
116,9661667
106,1741751
80,1311674
34,33717272
-19,95777923
-66,00365826
-97,80043372
-115,8480745
-120,896549
-119,6958251
-119,4958705
-117,7966523
-109,598137
-98,65029116
-91,95308059
-88,5064709
-86,0604273
-83,61491469
-73,66989763
-57,72534038
-51,28120693
-56,08746096
-62,64406593
-72,20098505
-80,5081813
-75,81561747
-65,12325615
-60,43105976
-61,2389906
-67,7970108
-75,1050824
-73,66316734
-69,47122749
-67,52922467
-62,08712066
-58,64487722
-63,20245613
-66,25981919
-60,56692824
-50,3737452
-36,68023208
-17,23635098
-3,292064144
-5,847333969
-18,65212302
-30,20639405
-34,01011002
-35,31323415
-42,61572989
-48,66756096
-44,9686914
-35,51908554
-27,81870807
-43,867524
-106,6654987
-149,7125981
-1,508788242
391,4459642
768,151692
763,3584278
349,0662035
-62,22494954
-125,7650002
-5,303918204
10,9083264
-35,37823712
-28,16358003
-13,4476742
-19,98049212
-8,512006882
17,45780778
31,92897748
36,15152719
40,37548119
47,60086309
56,82769582
72,05600159
92,03580191
101,7671176
101,7499686
107,2343743
118,2203533
134,7079235
155,4471018
159,6879045
143,6803473
125,9244448
107,170211
74,41765919
25,16680164
-27,83234999
-69,07978491
-96,07549312
-114,0694654
-121,8116934
-118,0521695
-112,0408869
-110,7778397
-113,0130227
-120,2464316
-125,2280629
-114,4579139
-97,43598272
-91,16226828
-97,13677035
-112,3594895
-122,0804272
-113,0495856
-103,5169678
-105,9825776
-104,6964197
-93,65849959
-83,86882363
-79,82739893
-78,78423345
-83,98933594
-92,69271598
-85,39438396
-60,84435108
-47,04262934
-53,73923156
-62,18417136
-65,12746315
-68,81912215
-65,75916438
-48,69760664
-26,88446652
-8,569762421
1,996486509
5,06426032
6,383538296
-0,045701049
-16,47347996
-29,39982146
-35,57474929
-32,99828797
-17,42046274
-8,091299592
-18,51082522
-46,92906705
-106,5960532
-128,5118126
82,07362541
549,9102305
916,4979717
800,3368177
299,6767361
-91,48230576
-108,6403415
7,202594959
3,296468842
-41,60875508
-26,51311263
-9,416640204
-17,56937474
-5,221353703
26,37738493
37,97680269
32,07686062
38,17751931
60,02873889
77,13047907
74,23269917
65,83535808
81,18841434
111,7918262
131,8955514
147,7495475
158,1037719
147,7081814
133,8127329
126,1673827
102,0220872
60,12680248
11,73148444
-41,91391113
-90,05942859
-132,9551124
-171,8510071
-184,4971573
-180,6436076
-188,0404027
-188,1875873
-172,8352061
-169,4833035
-174,1319243
-163,7811129
-140,6809136
-118,0813707
-108,2325284
-110,3844305
-108,7871208
-100,690643
-95,09504035
-89,00035604
-71,15663295
-55,81391368
-69,72224057
-90,63165564
-79,04220061
-50,70391685
-44,61684538
-53,03102686
-39,69650156
-20,86330935
-34,7814897
-55,20108165
-52,62212378
-50,79465424
-54,2187107
-32,64433033
11,17845017
27,99959463
-1,180932604
-16,11316665
13,20285792
18,0171071
-23,42045253
-40,35985383
-20,80112904
-12,2443098
-10,18942711
2,613488645
4,164407735
-33,28669891
-119,4898597
-160,1951023
46,59754616
528,1380595
950,426412
903,7125788
402,2465358
-50,97174031
-107,4422722
4,58491822
1,359810004
-44,61761714
-35,59738264
-18,82950512
-8,564002363
5,449108687
2,45981195
-4,78190779
10,97393513
34,47732726
41,72825606
39,97670988
52,72267802
81,46615069
99,95711904
96,19557519
92,43151222
104,1649242
123,145806
144,3741538
152,0999646
122,8232364
80,2939681
59,51215987
30,22781275
-38,30907116
-103,5984887
-132,3904357
-155,434907
-189,7318962
-207,531396
-194,083398
-168,3878927
-150,6948697
-145,2543173
-147,8162229
-147,3805728
-137,1973521
-131,2665451
-141,0881349
-142,4121034
-105,7384318
-63,06709996
-67,89808677
-88,98137013
-69,81692689
-45,40473289
-59,49476293
-72,08699084
-55,68138944
-47,27793057
-61,12658511
-70,72732296
-60,3301131
-40,93492357
-34,29172147
-35,40047303
-24,51114356
-12,37369752
-14,2380985
-20,35430925
-24,22229172
-26,34200702
-14,7134155
13,91352326
37,28885044
38,66260795
25,03483838
4,905585046
-18,2251081
-34,60719644
-38,99063473
-32,62537714
-22,51137725
-25,64858807
-37,28696208
-36,17645124
-56,06700703
-124,4585804
-88,601122
240,5054181
708,8610903
878,9659451
547,5700336
41,17340716
-166,9738825
-75,12178354
-17,52024357
-60,66921016
-61,56863057
-34,46845187
-41,36862095
-44,51908453
-28,16978919
-19,82068137
-13,97170744
2,877186344
19,97605376
27,32494864
33,17392485
54,77303623
88,62233661
106,7218798
106,0717196
111,4219096
129,5225034
151,3735544
166,9751161
164,0772416
144,179984
122,033396
95,13753044
45,24243962
-22,65182422
-79,54520912
-110,4376634
-123,8291356
-134,4695747
-145,1089298
-141,4971506
-121,8841868
-107,7699887
-108,6545069
-119,2876925
-130,1694968
-121,0498717
-95,42876946
-83,30614285
-80,93194505
-64,55612975
-47,92865114
-54,2994639
-68,41852327
-65,53578503
-48,6512055
-36,01474158
-41,62635077
-57,98599115
-58,59362143
-41,94920095
-34,30268969
-41,40404828
-45,50323806
-35,850221
-23,94495981
-26,78741789
-36,1275594
-39,21534919
-39,80075291
-34,13373693
-18,96426845
-2,792315407
14,88215343
34,30916847
39,48875934
21,17095478
-9,144217291
-34,70672981
-41,51655659
-29,57367231
-21,87805256
-35,17967381
-51,47851343
-44,77454971
-30,81776188
-59,85813007
-142,1456354
-161,6802598
76,78801367
560,0092011
898,7333176
718,7103773
182,6903934
-177,3266219
-156,8406575
-40,85170298
-42,10974922
-67,36478793
-43,36681183
-23,61581463
-28,36179105
-25,85473679
-4,594648538
14,91847603
16,68463824
13,70383843
21,97607595
34,25134917
44,27965547
64,81099127
96,59535198
121,6327321
136,923125
150,4665233
161,0129186
171,3123014
181,3646614
168,6699872
132,4782668
105,7894868
77,85363313
10,67069085
-72,75935605
-125,4365244
-149,860832
-164,5322975
-168,7009405
-166,6167815
-162,0298417
-150,4401434
-140,0977096
-135,0025644
-120,4047325
-94,55423965
-79,45111228
-88,84537777
-99,98706432
-85,87620094
-66,01281749
-63,64694464
-58,77861387
-40,65785747
-30,78470857
-32,90920106
-24,28136965
-4,151249847
-10,76887794
-53,13429101
-76,99752693
-56,35862432
-29,96762262
-17,07456202
-9,929483485
-23,03242874
-52,88344029
-61,48256138
-43,82983604
-32,17530903
-35,51902589
-32,61103288
-17,20137704
-13,04010612
-28,62726865
-35,46291387
-20,04709177
-7,129853066
-11,96124921
-20,54133237
-19,62015546
-7,697772071
1,975763451
-18,84960393
-48,42392995
-27,24727107
17,43031559
26,6087722
21,28804025
24,46806055
21,64877327
11,58011788
3,76203322
6,944457493
14,37732826
6,060582444
-10,75584362
-5,072014206
22,61200581
28,29615098
4,73035531
5,414552226
29,34867464
13,78265494
-30,533575
-42,60008378
-27,41694046
-19,98421458
-20,30197607
-23,12029531
-27,68924303
-26,75889035
-52,32930873
-147,1505699
-199,722746
36,95409061
579,3798675
1016,554512
908,7279503
334,1501103
-157,1790818
-220,7596991
-79,34181526
-32,92550359
-58,51083758
-54,84789065
-37,43673613
-38,52744726
-48,12009715
-31,71475869
20,1884954
55,08959268
39,238461
19,13502854
35,27922385
61,17097591
70,31021412
80,19686841
104,8308692
129,9621476
143,3406351
151,2162641
161,8389677
172,9586794
179,075334
171,9388667
146,5492138
111,9063125
66,76010078
0,110517843
-68,54249619
-112,4490001
-136,1090515
-148,2727069
-153,4400217
-161,8610498
-165,785844
-156,7144558
-151,6469353
-153,3333312
-147,2736907
-136,2180597
-127,4164825
-121,8690018
-120,0756589
-114,5364935
-100,5015434
-87,2208451
-77,69443318
-70,9223406
-72,40459857
-75,89123653
-75,88228213
-82,12776122
-78,8776978
-43,38211405
-11,39103025
-15,65446479
-28,42243419
-33,44495301
-41,97203389
-50,50368753
-51,78992267
-47,58074608
-39,87616255
-28,92617488
-21,48078391
-24,03998845
-29,10378534
-30,92216941
-33,74513347
-38,07266837
-38,40476292
-32,99140398
-32,33257638
-41,42826298
-45,77844467
-36,88310036
-22,99220699
-8,605739565
6,276328858
14,15402715
4,527386089
-23,60356164
-45,73878146
-35,37823694
-14,27188981
-15,41969993
-24,82162539
-27,72762246
-39,13764566
-56,30164773
-81,96957972
-157,141391
-214,5670291
-29,24644014
456,0704315
911,6336432
912,4432536
416,749323
-104,9480865
-217,8989118
-78,10308788
-34,31054863
-71,27122637
-67,4850521
-65,20195546
-80,42186483
-67,64470726
-44,37040862
-41,59889352
-45,58008544
-43,8139067
-33,55027851
-1,789121046
39,71964659
54,22610628
59,73034085
103,4824341
154,2324707
160,4805361
149,4767166
159,7210995
178,7137724
186,2048241
179,1943437
159,432421
128,1691466
84,65461137
27,88890684
-31,627875
-70,89564174
-84,16430058
-90,43375835
-96,2039216
-90,72469656
-78,24598928
-74,01770558
-76,78975114
-75,81203155
-72,8344523
-75,3569189
-76,12933683
-63,65161168
-47,17364909
-42,19535488
-43,71663506
-38,48739586
-30,75754378
-32,77698566
-38,54562869
-35,81338046
-29,33014903
-29,59584294
-37,36037127
-43,1236437
-39,63557053
-33,39606271
-36,65503196
-54,16239071
-73,91805224
-76,17193064
-58,67394094
-40,67399909
-36,67202202
-42,4179277
-51,91163518
-62,40306461
-68,64213732
-71,37877584
-73,36290395
-76,59444672
-83,57333055
-81,79948323
-66,77283396
-56,7433134
-49,71085371
-39,17538859
-43,63685333
-57,09518482
-53,05032163
-40,50220402
-38,20077396
-37,64597522
-30,58775335
-25,52605575
-25,71083168
-23,39203232
-16,31961077
-7,243522102
-1,163723374
-5,080173672
-10,24283413
-1,901667955
15,44335955
30,54228095
40,39512669
44,50192503
41,11270206
28,72748167
10,34628553
-3,780866916
-5,653958453
2,72702587
12,11209874
13,2512706
9,894549578
6,791941559
-20,30654987
-93,6509234
-134,74118
35,67267708
460,3406423
855,7627079
843,1888639
406,1190978
-20,44660473
-97,25826053
0,68411144
6,630490043
-29,91914805
-14,9648283
3,743421684
2,455572205
7,171591485
18,1414457
27,36509899
35,84251354
44,32364955
52,05846532
58,04691723
65,53895985
76,03454593
84,53362643
93,53615062
108,542066
121,3013186
127,0638527
132,079611
135,5985349
137,8705641
137,1456371
124,4236909
98,45466136
54,73848291
-4,224911106
-51,68558851
-84,39361822
-130,5990702
-176,8020153
-178,5025255
-150,7006734
-144,1465325
-156,8401772
-159,5316823
-150,7211236
-139,9085771
-132,3441196
-129,2778283
-125,9597807
-119,1400548
-107,8187287
-94,24588108
-86,92159042
-84,34593552
-77,01899523
-69,69084839
-69,86157382
-73,03125022
-74,19995615
-72,11776998
-62,03476981
-45,45103344
-39,8666383
-47,78166141
-48,44617936
-45,86026819
-53,02400342
-46,18745993
-22,85071198
-21,01383312
-32,17689615
-24,33997311
-14,50313519
-15,6664527
-11,32999508
-5,743830773
-11,65802725
-20,07265096
-17,48776727
-5,653440454
2,930266359
4,763291209
4,845573341
3,677053241
5,507672662
14,83737466
22,41610361
25,49380526
28,57042673
25,14591656
28,97022471
49,04330261
37,36510317
-14,56441919
-39,49530853
-31,42760737
-32,61135666
-29,29659576
-12,48336244
-11,92169285
-27,86162152
-49,05318133
-93,74640349
-141,6913176
-67,88795139
235,1636688
632,7135186
779,7615751
496,3078174
46,10222609
-156,1052165
-88,31452609
-36,02571698
-71,73880152
-73,95379039
-48,67069254
-55,13951515
-61,61026369
-45,3329419
-38,80755178
-48,5340936
-48,51256593
-35,49296561
-21,22528778
-7,959525893
2,054328303
15,31628472
42,07635495
68,83455223
81,09089143
92,84538905
116,8480632
138,8489336
146,0980215
147,8453498
148,8409429
131,0848265
86,0770282
34,31757676
-15,44349746
-70,95616275
-114,2203859
-127,4861325
-130,2533667
-140,0220511
-143,2921474
-129,3136159
-117,5864155
-118,8605042
-108,3858385
-83,91237408
-76,44006531
-86,4688656
-90,49872733
-86,02960186
-83,31143963
-81,34419016
-73,8778021
-65,41222326
-63,69740069
-66,23328066
-66,26980875
-62,55692989
-55,84458837
-45,13272793
-36,42129175
-35,46022254
-32,99946259
-25,53895378
-24,32863763
-32,86845538
-44,408348
-49,44825628
-49,98812083
-55,77788214
-52,06748065
-33,85685679
-35,895951
-59,9347038
-62,97305586
-42,76094798
-30,54832122
-22,08511687
-10,62127655
-16,15674223
-23,44145629
-9,975361539
-2,258401295
-0,7905194
15,67833972
12,89823103
-24,13079119
-45,40867333
-33,93536254
-18,21080676
-8,984954742
-3,507756086
2,470838702
10,45087819
4,432409995
-42,83451928
-124,0998641
-114,1135798
163,3743769
649,8640484
965,6054759
776,5986994
228,0937577
-149,9093117
-112,1604722
30,34031109
19,84307213
-19,15215659
7,604656189
19,36354036
2,874524503
3,38763584
8,402900238
11,9203422
35,93998484
65,71184992
76,73595779
76,76232743
81,0409764
92,07192091
102,1051758
112,6407544
139,9286687
170,9689295
178,261546
180,0565261
196,6038763
208,9036018
203,4557065
174,7601929
113,3170622
34,37631434
-34,31205215
-83,2480399
-118,4316528
-154,1128962
-195,0417762
-222,2183007
-220,6424784
-202,3143192
-187,2338342
-179,9010358
-170,5659374
-159,4785532
-157,388899
-156,0469912
-140,4528475
-119,8564864
-108,7579276
-100,9071915
-89,05429962
-84,44927437
-88,842139
-85,98291762
-80,6216352
-84,75831752
-80,39299114
-58,02568341
-45,9064224
-55,28523691
-57,41215644
-40,78721115
-29,16043185
-39,53184998
-59,40149759
-62,26940728
-44,13561223
-32,00014613
-34,86304318
-28,47433808
-12,33406596
-12,94226242
-27,04896345
-33,65420544
-31,00802514
-27,61045967
-25,46154645
-12,5613232
8,840172076
16,24290111
13,14682541
14,55190627
7,70810479
-15,13461808
-33,22630157
-36,81698498
-39,90670777
-45,24550945
-44,33342957
-39,92050777
-39,25678364
-63,84229682
-141,6770869
-181,5111934
42,65534425
559,3224866
985,2401945
889,6584287
331,3271503
-146,7536795
-190,5840992
-39,6641473
-3,243861812
-29,82328063
-19,40244133
-14,23138116
-21,81013707
-7,138745645
17,78275689
32,45433469
39,87595235
46,79757485
47,71916764
41,14069665
48,56212827
73,23342941
94,15456749
110,5755105
128,996227
146,416686
164,3368573
184,0067111
196,9262185
192,0953509
172,0140807
150,1823806
126,6002244
83,5175863
11,43444127
-74,89923496
-145,4834659
-182,3182745
-197,4036827
-198,4897118
-179,3263823
-161,9137142
-171,0017262
-183,8404366
-173,1798629
-161,7700216
-167,6109285
-159,7025988
-131,7950466
-118,8882854
-125,2323278
-128,5771858
-118,1728703
-96,01939167
-81,11675948
-86,71498247
-93,31406864
-87,66402524
-85,76485879
-94,61657507
-99,46917917
-87,57267545
-69,42706759
-65,03235859
-67,88855082
-58,74564597
-43,10364513
-43,21254877
-60,32235679
-68,18306851
-54,2946827
-38,15719761
-29,77061099
-16,38492011
-5,750121752
-10,3662123
-13,23318771
-14,85104354
-31,21977501
-42,58937696
-29,45984397
-8,081170293
8,796650073
24,17362336
31,79975601
29,92505466
23,2995261
6,673177253
-15,70398485
-29,3319531
-28,21072032
-15,34027931
-4,720622856
-11,60174377
-29,73363491
-47,36628917
-88,24969958
-163,6338592
-146,0187614
156,5956006
678,459233
1014,072142
812,1843341
231,7958145
-160,593411
-125,7333373
-5,623959359
-32,26527256
-62,15727256
-35,54995538
-30,94331737
-33,83735524
-14,23206609
-1,37744738
1,226503007
13,5797868
32,43240532
49,28435946
66,88564969
83,48627603
89,83623809
93,18553502
109,0341655
130,8821279
149,9794199
172,5760389
197,4219818
214,0172451
219,1118247
214,2057164
194,798915
155,3914154
98,73321169
33,07429776
-30,33533306
-78,24568782
-103,406774
-112,5685995
-117,2311725
-116,8945019
-109,0585966
-101,4734661
-102,1391203
-110,3055693
-115,9728238
-109,8908946
-96,05979303
-87,4795306
-86,65011925
-84,57157119
-82,74389896
-82,91711536
-72,09123352
-57,0162668
-56,94222887
-62,36913364
-64,79699528
-71,72582818
-76,405647
-73,33646661
-72,51830209
-74,20116875
-72,88508209
-77,57005781
-91,5061118
-96,44326013
-83,63151907
-71,32090501
-72,51143456
-78,20312445
-79,39599158
-74,840053
-65,7853259
-58,98182759
-59,17957555
-61,87858736
-64,57888074
-66,78047353
-63,23338368
-55,68762927
-50,14322848
-44,60019959
-36,30856102
-27,76833124
-23,97952886
-29,44217258
-42,15628118
-52,37187353
-51,0889686
-35,80758543
-16,27774316
-6,749460993
-3,972758207
0,302345844
-3,174168259
-18,15232
-28,38212892
-29,11361461
-31,59679672
-33,83169495
-28,31832902
-18,80671869
-14,54688377
-36,78884405
-106,2826194
-163,0282296
-26,27569447
403,2249661
880,9737324
970,4705845
543,2155029
5,958467687
-170,0505406
-56,31154166
-8,074554836
-53,33959955
-47,60669506
-23,1258605
-29,89711487
-21,92047701
7,304034406
22,52640088
28,74660414
43,9646261
61,43044895
70,39405509
72,60542724
79,31454838
99,02140181
128,7259712
155,9282404
173,128194
187,8258165
209,5210932
234,2140097
246,904552
243,8427067
232,2784607
204,7118017
147,1427177
62,5711973
-22,75277015
-78,82919486
-108,4080863
-132,2394535
-147,5733045
-148,1596469
-149,4984875
-154,5898323
-152,1836868
-146,0300554
-139,3789419
-134,7303493
-138,5842797
-140,4407345
-131,2997139
-124,6612177
-127,2752445
-128,1417921
-127,2608573
-129,3824361
-122,2565235
-104,6331134
-97,76219906
-106,8937725
-118,0278248
-122,9143462
-118,8033258
-106,4447517
-87,58861118
-68,73489024
-67,38357404
-85,78464669
-101,1880913
-96,09388991
-77,0020236
-66,41247241
-76,57521538
-89,24023052
-75,65749487
-44,57698445
-33,49867426
-43,92253837
-53,59854982
-61,02668071
-61,95690214
-47,1391843
-28,3234964
-13,75980674
5,301917318
21,36170932
24,1696037
25,22563578
22,02984177
3,582258713
-9,367075495
-1,81812213
2,229158345
-11,22519374
-19,93113726
-5,388630352
12,15236962
-21,30809399
-128,2699771
-187,4832349
28,05217793
548,3363076
1017,619201
987,4009052
434,9314685
-120,5390607
-235,5106331
-93,98319905
-52,45670826
-79,43110995
-54,90635282
-36,88238508
-44,35915449
-34,33660834
-21,31469348
-14,79335636
0,977456983
14,7478009
18,01773011
26,78729968
52,056565
84,57558178
103,3444061
102,8630941
107,6317026
138,4002882
178,168908
200,9376193
212,4564797
226,9755466
229,744878
204,5145319
161,5345663
105,0550396
32,32600995
-33,40246412
-72,88032415
-98,85751159
-118,8339679
-127,0596344
-131,5344526
-136,5083638
-130,2313097
-118,9532316
-118,9240711
-121,3937701
-113,8622702
-102,8295135
-97,54544193
-99,25999788
-102,4731238
-93,93476232
-75,64485641
-71,60334923
-79,56018425
-75,76530523
-66,46865627
-67,17018183
-69,86982673
-68,3175362
-65,5132559
-60,95693194
-58,14851091
-60,0879399
-63,77516654
-66,460139
-61,39280605
-49,32311708
-50,5010221
-68,4264718
-76,59941757
-68,76981152
-64,68760652
-64,10275624
-58,51521512
-56,1749385
-55,33188254
-50,98600434
-55,38726191
-65,03561424
-67,18102129
-75,82344407
-90,21284461
-80,59918604
-53,98243259
-42,61254963
-39,98950371
-26,11326254
-14,48379509
-20,10107156
-29,46506342
-35,07574348
-44,18308584
-47,28706596
-37,13766071
-32,48484834
-42,82860852
-49,9189224
-50,50577257
-89,33914313
-168,6690197
-126,2453894
217,931759
739,3624354
1012,296648
742,2344027
165,4257053
-168,3794414
-106,9310355
1,520922983
-28,77356766
-59,06451069
-38,60191108
-30,88577551
-26,6661123
-4,19293149
13,5337552
18,51393436
25,24759088
34,48470798
40,72526718
56,46924832
87,96662957
112,9673874
120,2214967
129,2289307
149,9896608
167,7536571
182,2708878
207,7913196
227,3149177
221,0916457
210,8714655
205,1543376
169,9402211
97,47907335
25,02085045
-25,43449301
-61,13700386
-86,33673033
-102,783722
-119,4780298
-126,9197059
-108,3588038
-90,04537833
-101,2294854
-120,6611822
-126,3405271
-123,7675794
-114,1923997
-103,1150496
-108,7855917
-123,4540896
-121,6206078
-103,5352118
-83,19796788
-74,85894332
-83,51820606
-87,67582488
-81,58186927
-87,23640941
-96,88951617
-84,791261
-64,69171597
-64,59095366
-73,23904717
-67,13607008
-52,78209636
-48,17720041
-59,07145696
-76,21494105
-77,357728
-57,74989336
-48,64151287
-61,28266243
-63,92341807
-51,56385588
-49,204052
-53,59408255
-52,98402365
-46,12395132
-27,01394145
-9,654069812
-9,044411956
-4,185043216
8,173961347
7,532526978
5,140579269
3,998044194
-17,14515185
-36,78908201
-24,93381894
-9,079434743
-15,22600097
-23,12358854
-22,52226775
-40,4221082
-101,5731788
-150,9755476
-2,379281936
457,4655516
951,3088875
990,400661
490,2408082
-55,92073351
-198,8340261
-68,49913017
-8,416105493
-43,0850106
-44,50590288
-23,17883855
-23,60387262
-26,53105882
-23,21044962
-18,89209615
3,423951779
33,73764577
40,54893882
38,35778537
52,41414134
70,21796415
77,76921274
80,06784762
89,11383089
118,6571262
157,697699
171,4855163
163,5205466
171,5527605
193,58213
193,608629
151,6322333
77,40292016
7,42066892
-40,56453935
-91,30272173
-145,0438935
-168,5380679
-168,5352564
-176,0354688
-193,0387125
-204,5449935
-194,3043155
-166,3166805
-152,8320886
-164,8505377
-175,8720241
-165,1465421
-143,9240838
-134,2046398
-126,9881984
-104,7747463
-90,81426817
-105,1067467
-119,6521629
-111,2004957
-98,00172226
-94,55581803
-90,61275649
-84,42250936
-81,48504659
-76,55033637
-66,36834513
-57,93903763
-59,01237691
-65,08832438
-61,66683979
-47,7478813
-38,08140553
-38,91736751
-44,0057208
-46,0964175
-43,68940823
-41,03464226
-38,63206748
-31,48163045
-18,08327645
-1,186949524
11,95740749
8,099852903
-9,759553833
-18,87075221
-18,23368067
-24,34827669
-29,21447679
-24,5822166
-26,20143088
-34,32205362
-48,444018
-111,0672565
-198,191701
-107,5672827
317,0560679
859,9284205
1050,549846
667,670414
56,04019693
-231,8407341
-135,2223073
-33,85445052
-64,73709147
-78,37015772
-55,25357671
-56,1372758
-49,52118233
-24,90522369
-18,03932729
-13,92342068
7,442568463
23,30871226
31,17508259
51,04175109
73,15878905
87,02626743
107,8942568
134,0128272
153,1320485
172,7519896
195,6227193
212,7443055
220,1168158
216,9903169
205,3648748
182,740555
135,1174221
64,49554007
-0,125028144
-47,74422027
-88,86197496
-117,2282317
-123,3429311
-114,2060143
-106,5674239
-109,9271032
-113,5349967
-110,3910497
-107,9952089
-100,3474218
-78,94763728
-61,79580521
-60,89187666
-58,48580389
-49,32754038
-51,91704083
-63,00426118
-59,58915865
-48,17169173
-53,50182023
-71,07950526
-78,40470927
-75,47739607
-76,79753083
-78,1150801
-71,68001182
-66,99229536
-66,30190149
-63,10880242
-61,41297182
-62,2143848
-60,51301795
-61,30884932
-69,10185848
-73,64202647
-63,92933585
-49,46377068
-49,49531655
-61,27396058
-65,7996914
-56,82249921
-44,09237573
-36,60931422
-30,87330949
-24,13435791
-29,6424574
-50,39760741
-62,64980897
-58,39906463
-57,8953785
-67,13875625
-68,87920506
-56,61673368
-47,60135235
-55,58307287
-91,81190855
-169,0378742
-193,7609861
43,01873793
553,0512786
967,8366152
882,1247255
344,1655858
-123,5408288
-168,9945449
-35,69559031
-25,89399426
-65,08978733
-49,53300145
-34,47366985
-33,91182705
-15,09750884
7,469247746
15,28840445
19,60992183
32,68375927
50,00987501
63,58822618
78,91876885
97,251458
105,0862476
107,4230907
125,2619393
154,6027444
178,1954564
194,0400245
206,8863973
215,9845226
213,5843473
192,4358177
151,2888795
93,14347765
28,24955644
-30,14294028
-76,53406923
-107,4238876
-115,0624531
-105,6998237
-103,5860579
-113,2212144
-113,1053523
-100,9885309
-95,62080968
-98,50224834
-97,88290669
-89,01284465
-73,39212219
-62,52079928
-64,89893589
-67,77659194
-65,15382722
-67,28070143
-69,40727407
-65,03360444
-68,15975161
-83,78577437
-93,6617312
-88,78768022
-83,41367921
-88,0397855
-93,166056
-90,79254715
-88,91931487
-95,04641456
-101,423901
-95,30182856
-81,43025073
-77,30922054
-83,43879027
-84,56901153
-78,9499352
-76,58161141
-78,46408952
-78,84741808
-77,23164486
-72,11681676
-56,25297985
-33,14017929
-21,02845937
-24,16786346
-18,558434
0,049787522
0,156760589
-22,98755434
-39,13319583
-36,53020139
-30,67860755
-33,82844978
-42,72976251
-49,1325791
-52,53693185
-81,19285195
-162,6003695
-182,7595136
75,07968804
574,1672085
923,5030222
783,3371046
269,1694325
-128,0000165
-137,6712632
-17,34432766
-26,01922843
-71,94598304
-56,87460779
-31,3051178
-17,73752696
-4,421848004
-0,108092415
3,703729516
21,26360872
37,07153734
41,62750876
50,18151757
70,23355959
94,03363189
112,0817328
118,6278617
122,4220195
142,2142081
172,7544308
189,042692
190,3289975
189,8633541
182,64577
159,6762547
120,7048188
68,73147412
14,00623375
-33,22088798
-77,94987556
-121,1807122
-144,6633801
-145,8978599
-144,6341314
-142,3721731
-130,8619621
-116,6034746
-104,8466856
-97,09156885
-97,33809693
-96,33624137
-82,83597255
-70,33725972
-74,84007103
-84,34437355
-76,10013328
-53,10731516
-42,11588305
-48,37579984
-49,13702737
-43,64952648
-50,91325706
-64,92817802
-69,69424735
-67,21142211
-62,47965847
-59,99891171
-63,51913627
-65,29028576
-63,06231298
-63,83516994
-66,60880789
-67,13317736
-65,65822817
-64,18390944
-63,71016965
-61,73695666
-57,76421771
-57,79189948
-61,8199481
-63,0983092
-57,3769279
-42,1557489
-22,93471642
-10,21377434
-2,742866149
2,228065006
-8,050923729
-32,32977493
-41,60843094
-28,63683387
-18,41492566
-18,69264812
-18,46994291
-18,49675162
-21,77301578
-39,04867689
-100,8236765
-172,097956
-76,12145723
324,1058783
833,5841086
1001,063292
611,5434858
27,52474812
-211,4928639
-99,00929301
-13,77448251
-44,78837585
-51,8009169
-42,56204989
-53,57171944
-36,07987063
-3,336448963
-4,591400438
-11,34467155
8,153790684
26,90403869
27,90612433
31,66009887
47,66601296
64,67391662
83,68385919
109,9458894
136,4600551
161,9764037
186,9949817
197,2658348
187,5390081
173,0645457
157,3424911
131,1228869
92,15577469
36,1911955
-34,52081071
-96,48020482
-129,1869486
-139,3910047
-143,3423369
-142,7909096
-138,2366884
-138,1796399
-140,8697314
-135,8069316
-125,4912099
-120,6725368
-118,600884
-104,7762241
-76,94853071
-55,36777866
-59,2839438
-79,44700309
-82,3569346
-53,51371753
-24,4173322
-22,31776011
-32,46498388
-37,85898733
-40,99975544
-46,3872744
-53,27153159
-54,40251561
-46,03021628
-39,90462467
-42,77573307
-43,64353505
-41,50802543
-49,86920031
-66,22705708
-71,83159443
-61,93281234
-53,0307121
-57,12529635
-64,21656903
-56,80453544
-40,38920221
-31,72057735
-21,04867019
-3,623491475
-6,445053295
-37,51336913
-64,82845386
-65,64032374
-56,19899643
-51,75449098
-46,05682788
-45,85602899
-60,6521176
-77,69511841
-114,9850576
-197,0219626
-183,3058624
147,4132126
700,6352306
1017,360159
760,8379616
149,8186038
-239,4479521
-198,4617452
-68,22281552
-73,73120476
-90,4869559
-62,24011332
-57,74072276
-56,48883132
-15,23448744
18,5222591
9,531357171
3,792754365
23,55639695
40,82222993
52,59019701
69,36024065
83,38230208
96,65632129
122,4322371
154,959987
178,2395076
194,7707341
213,3036007
225,5880404
223,8739852
209,661366
177,9501127
124,2401541
57,53141815
-7,426168305
-58,13267929
-92,08818975
-114,5427755
-121,2465133
-112,9494807
-106,6517559
-105,8534181
-97,30454726
-85,00522383
-84,70552914
-91,65554513
-93,60535437
-85,30504004
-61,7546859
-35,20437623
-27,65419586
-33,35423006
-34,0545646
-36,00528563
-49,45647972
-53,15823381
-31,36063513
-18,81377126
-38,26773003
-54,47259951
-54,17846797
-72,6354239
-97,09355589
-66,80295268
-5,763703114
-12,22589606
-82,43962045
-97,15496521
-38,37201922
-50,34087132
-175,0616103
-259,7843247
-260,0091031
-273,7360338
-227,465205
-31,69670444
98,56938015
0,082961458
-113,4060476
-61,3977336
16,10781703
-8,139481594
-50,63971496
-45,64296811
-39,39932559
-54,65887145
-61,42168919
-51,43786173
-49,20747144
-44,2306
-18,7573285
-21,78773732
-61,82190611
-77,85991383
-105,6518386
-171,4477579
-73,99774819
353,1981148
878,6397563
1044,327102
675,2600801
142,1886174
-77,63735661
-30,9679119
-28,30311738
-67,39304082
-42,7377489
-32,33730712
-62,69177981
-48,55123007
-2,665719754
0,964690568
-15,16005836
12,20997554
57,82473575
69,18416713
70,03821601
93,13683017
119,4799589
130,0675531
136,649565
157,7259488
187,5466601
202,8616561
206,6708958
218,9743401
231,2719513
219,0636937
173,3495335
107,1294385
43,9033785
-5,328674695
-46,31674748
-87,81086425
-126,8110474
-147,5673173
-146,8296924
-143,8481889
-154,1228211
-165,6536009
-160,9405385
-148,7336415
-138,2829156
-123,0883643
-109,1499888
-106,2177881
-106,2917589
-99,12189564
-86,45819066
-77,30063382
-73,64921276
-70,2539128
-65,86471695
-61,23160588
-61,10455793
-68,23354913
-69,61855314
-59,75954129
-54,65648256
-62,05934362
-73,71808875
-84,13267994
-89,55307682
-85,97923671
-80,16111459
-79,34866317
-77,79183283
-71,24057167
-64,69482553
-62,90453799
-64,36965036
-64,09010177
-65,31582912
-72,04676711
-73,53284831
-60,77400313
-39,77015986
-24,52124471
-20,5271818
-9,787893245
9,94670087
7,176682433
-16,59786472
-28,37685483
-27,66020027
-25,69781156
-17,4895974
-7,785464724
-6,085318715
-8,889062867
-31,94659901
-106,0078273
-148,0726465
50,60904644
524,2873559
948,7123877
928,6342491
441,5530489
-63,78110315
-186,8680957
-79,4578163
-56,05015133
-85,14498598
-65,99220441
-67,5916897
-101,193324
-86,29698837
-27,40256321
-3,259927904
-29,86896111
-47,22954075
-33,59154405
-22,20484759
-14,06932739
12,81514108
41,6986828
46,83142322
51,46348811
88,8450036
130,9760961
145,8568921
159,4875185
176,118102
164,2487696
129,8796481
88,7608645
36,1425454
-17,7251826
-59,34219319
-95,95836029
-126,5735582
-134,6876616
-126,5505455
-125,9120856
-130,022158
-125,3806395
-120,7374075
-121,8423402
-114,4453164
-91,29621593
-65,14491934
-53,9913082
-59,83526504
-57,17667345
-33,26541808
-17,85138476
-21,9344605
-19,26453359
-8,591493608
-1,665231488
8,514360414
13,94738828
5,133956795
-1,425830945
-9,231873443
-29,03407087
-27,3323251
4,623460215
15,08337962
-9,452474179
-33,23401041
-47,01114022
-48,03377677
-25,55183526
-8,065232946
-19,57388924
-36,32772569
-41,32666609
-36,82063644
-29,80956504
-36,04338254
-55,77202191
-73,99541853
-84,46351024
-79,67623729
-54,38354248
-28,83537111
-21,03167104
-20,47239272
-17,65748921
-21,58691622
-37,01063211
-50,42859794
-52,84077746
-52,49713717
-55,1476463
-57,04227686
-58,43100361
-64,56380413
-75,9406588
-106,0615508
-168,6764662
-163,7853937
102,6116749
609,2647451
968,1738195
805,588898
262,5099774
-121,062948
-115,129887
-18,94085108
-43,24585465
-61,79491483
-23,33805155
-16,37528754
-27,65664826
-10,43216194
6,048140502
10,28422541
24,77605649
42,27359475
53,77679863
73,28562391
101,3000239
119,0699492
126,3453481
145,1261664
169,6623473
178,9538318
193,5005584
223,8024635
235,3594809
224,4215426
212,238578
186,0605146
130,1372778
59,218791
1,054975418
-35,35424949
-70,25896621
-114,159259
-143,8052141
-146,1969192
-140,0844638
-141,217939
-149,3474376
-149,4730536
-130,5948827
-113,2130218
-111,8275693
-103,1886248
-78,04628907
-66,65066408
-80,25185286
-85,3499595
-68,19508903
-61,53734741
-68,87684145
-52,21367876
-20,29796767
-20,87981717
-47,7093369
-56,03663703
-47,61182821
-57,93502156
-85,25632856
-95,575861
-82,14373096
-71,2100507
-77,27493264
-88,08848928
-94,40083318
-102,9620769
-105,2723328
-88,58171324
-74,6403304
-81,19829618
-94,75572219
-105,5627197
-108,6193997
-92,92587248
-61,48224814
-32,78863607
-17,8451451
-16,40188347
-28,45895868
-52,26647755
-74,5745461
-72,63326955
-45,19275225
-24,00309764
-25,56440823
-31,37678553
-32,94033001
-45,00514109
-89,57131706
-180,6389551
-206,4581511
65,72100017
618,3984052
1015,073972
854,4976094
276,4192281
-159,4112598
-172,4939411
-53,07890083
-65,16622274
-104,2559889
-83,59827981
-69,44317445
-57,54075013
-16,39108249
9,00575448
10,89968853
23,79064914
34,42856755
34,06337679
43,94501172
64,82340903
85,69850725
104,0702468
119,1885701
131,3034214
149,6647468
187,5224946
226,626615
230,97706
211,0737839
194,9167429
172,5058953
130,3412013
70,17262346
0,500126201
-52,17632389
-79,60675811
-104,0412057
-122,2296936
-121,1722468
-116,8688882
-114,3196384
-105,7745158
-103,7335369
-109,1967159
-105,1640648
-97,13559363
-96,86131011
-91,09121991
-72,82532652
-66,06363133
-78,55613361
-82,3028305
-70,30371706
-63,80878622
-66,56802888
-70,58143383
-77,09898784
-80,12067564
-71,64647992
-68,6763814
-83,4603588
-92,9983889
-86,79044653
-83,0865046
-84,38653415
-81,94050434
-75,4983825
-68,31013415
-65,87572303
-65,44511112
-61,76825869
-63,8451243
-74,17566488
-75,50983573
-60,34759054
-47,93888147
-52,53365914
-61,8818727
-62,48346986
-53,8383969
-37,94659877
-17,55801905
1,577399943
14,20971716
14,08899274
-0,534711979
-16,41133457
-19,04081148
-11,92307816
-6,558069018
-7,945717526
-19,08595623
-33,72871682
-35,62393013
-48,27152622
-118,4214344
-170,5735833
-2,977900865
441,1156856
882,9572493
922,296864
492,884604
16,22054393
-110,195241
-17,86267528
-8,031683152
-59,7021885
-57,87411497
-43,04738601
-49,22192488
-45,14765473
-32,57449861
-29,75237952
-23,93122043
-2,110944341
20,4585257
30,02726656
40,59535497
63,4128675
82,72988054
91,04647026
106,6127125
135,678683
162,994457
179,3101093
187,1257146
185,6913471
175,0070803
165,0729875
149,1391416
102,7056145
32,02247812
-28,16019662
-65,84233923
-93,27387988
-109,7047494
-112,1348793
-117,3142019
-129,24265
-130,6701574
-121,5966586
-113,0220888
-103,9463843
-96,11948199
-90,54131968
-79,21183614
-66,130971
-62,54866487
-65,71485927
-67,62949672
-64,29252075
-55,45387588
-44,1135077
-35,27136283
-40,17738897
-58,33153494
-71,23375065
-73,38398716
-72,28219668
-69,1783326
-63,32234948
-59,9642031
-63,10385048
-64,49124987
-57,37636077
-52,00914398
-57,13956158
-61,01757697
-53,14315487
-45,26626136
-46,63686386
-47,50493116
-41,62043346
-36,23334235
-37,34363085
-42,20127339
-45,55624586
-46,4085256
-43,50809142
-28,85492362
-6,199003989
3,459684192
-0,128843884
3,03542546
10,20250437
0,122403434
-25,20486828
-41,02930328
-40,85089562
-38,41964093
-38,48553642
-36,29858086
-32,3587746
-32,91611959
-48,47061934
-104,272279
-187,3211051
-152,1171061
162,3397082
650,5493264
924,2617355
696,726921
176,4448665
-132,3344454
-102,3610341
-39,13492029
-72,65612639
-84,9246762
-69,69059506
-75,20390982
-61,71464881
-23,47284181
-9,478520085
-16,98171631
-9,232464599
11,51919956
21,27323927
28,02961629
54,78829104
82,04922263
84,56236886
92,07768628
121,8451302
144,1146546
152,1362125
162,9097556
178,1852344
188,9625985
186,4917963
168,272775
133,8054812
77,33986004
3,125856081
-61,08658722
-89,54752724
-90,50702221
-87,71513116
-88,67191392
-93,12743105
-100,0817438
-100,0349141
-89,98700463
-79,68807842
-69,88819926
-57,33743138
-51,28583952
-50,98348886
-42,93044498
-33,37677383
-36,57254171
-45,0178152
-45,46266113
-40,90714656
-37,85133871
-33,79530497
-34,23911282
-46,18282979
-56,37652347
-56,82026142
-57,51411115
-64,4581401
-70,65241559
-66,84700478
-61,04197463
-64,4873919
-70,43332306
-69,12983428
-59,57699142
-48,27485996
-43,97350498
-51,17299112
-64,62338255
-73,07474296
-77,27713549
-76,73062272
-57,68526662
-38,64112856
-56,09826922
-83,80674861
-75,51662602
-51,97795998
-40,94080827
-25,15522783
-6,871274784
-8,589004397
-20,05847104
-26,77972816
-35,25282827
-43,72782292
-47,45476266
-49,18369701
-41,66467445
-24,64774241
-15,1329472
-28,62033403
-86,10994696
-170,1018289
-125,5960215
217,9074346
727,4085003
973,4071375
683,1533094
122,6469806
-170,861883
-94,62331425
-1,887344591
-35,90400409
-49,92332143
-20,69532387
-20,72003725
-27,99748597
-14,52769295
-3,560679632
0,653534033
15,11492961
42,57349019
70,02920042
85,73204648
91,68201614
96,87909875
105,3232853
117,0145682
129,7029418
142,3884018
167,3209456
204,2505724
218,1772828
196,3510794
172,0219661
152,4399488
108,8550348
43,51723323
-8,823445037
-42,41698754
-89,5133801
-147,1126068
-173,7146502
-172,8194909
-175,4271081
-177,2874791
-172,4005796
-171,2663837
-166,6348638
-152,2559905
-140,8797331
-132,0060588
-117,6349337
-108,5163219
-110,1501861
-111,5364874
-107,1751852
-96,5662376
-85,45960105
-87,60523052
-99,50307952
-104,1531001
-101,8052429
-104,2094571
-107,3656906
-95,77388996
-74,43400033
-68,09596565
-81,50972858
-92,42523059
-86,34241194
-69,26121175
-57,68156802
-60,10341769
-64,02669664
-61,70133976
-60,37728098
-61,0544533
-64,48278884
-71,16221888
-66,59267391
-40,52408366
-8,956377145
6,860517291
8,42667192
4,4921596
-5,94294628
-20,12857184
-27,81464275
-24,50108428
-19,68782137
-23,37477861
-27,81188037
-20,74905078
-13,18621381
-39,37329328
-114,310213
-153,2468966
29,8167321
499,1307493
973,4452312
1001,760254
500,0758926
-28,85777657
-135,0406785
-6,722738259
7,346118792
-53,83403314
-47,26312027
-16,4410693
-23,86780744
-38,54326244
-25,46736265
-0,640037059
7,938784713
5,269172329
13,35119473
33,93492009
53,52041579
66,85774838
76,44698356
87,03818613
105,63142
131,2267481
156,0742324
175,9239338
187,7759124
192,380227
187,9869354
165,8460944
125,7077596
71,57198549
13,43882531
-31,69166879
-72,06944587
-122,1944562
-152,0666514
-135,4359841
-113,8024084
-121,4158797
-124,5263546
-110,383791
-110,2381482
-116,3393868
-100,6874687
-75,03235732
-67,12401726
-76,46241463
-77,29751688
-67,62929288
-74,4577129
-88,53274861
-78,85437315
-65,42256104
-72,48728826
-75,54853224
-67,35627184
-69,41048738
-75,46116062
-73,0082748
-67,55181462
-61,34176622
-56,37811722
-53,91085672
-49,18997527
-45,71546489
-48,73731907
-50,00553275
-42,27010237
-35,03102579
-36,78830236
-39,29193288
-37,54191959
-43,53826618
-59,28097781
-64,02006103
-50,50552387
-28,48737574
-1,715627492
13,30970862
1,838618942
-14,37891156
-22,84289931
-40,55336209
-56,51031903
-49,21379064
-35,9137987
-35,86036636
-42,30351804
-43,49327944
-42,17967756
-67,86274061
-143,7924981
-182,4689806
19,10777996
502,4377505
927,0208969
870,3571838
365,6965748
-78,21096768
-137,6154821
-40,26700819
-44,16558644
-76,06125848
-57,70406684
-43,34405497
-39,73126723
-23,61574883
-11,2475458
-4,626704998
13,74672597
36,62269876
45,25116431
46,38207292
58,01537424
78,90101732
101,7889506
123,4291222
137,5714794
147,9659694
165,6125386
190,0111335
209,6616997
213,0641831
201,2185288
183,6246819
154,2825875
98,44219029
29,3534349
-23,48373405
-57,81937197
-87,65353429
-111,4862764
-119,8176535
-113,6477209
-107,2265334
-105,804146
-96,38061313
-80,95598912
-80,28032793
-93,1036832
-96,17610817
-86,49765569
-81,31837814
-78,63832742
-67,20755492
-62,27611149
-73,84404738
-82,16141226
-80,72825515
-83,5446244
-91,36056768
-97,67613194
-102,4913634
-97,55630742
-83,37100872
-86,6855111
-108,7498575
-117,3140902
-109,8782503
-107,9423782
-112,7565134
-110,3206944
-97,13495884
-86,94934326
-86,76388334
-85,32861377
-79,14356824
-80,70877942
-91,024279
-91,34009763
-71,15626494
-43,97280953
-27,28975899
-19,10713983
-11,92497755
-16,49329661
-37,81212041
-57,13147132
-61,70137067
-56,02183874
-50,34289479
-51,41455703
-52,48684266
-46,30976785
-54,63334774
-113,4575965
-162,5325272
-10,60815206
415,8155178
845,2384722
870,910702
431,3321988
-34,49704461
-129,5770346
-11,90777658
6,760724868
-42,82153386
-40,90455551
-19,73834195
-12,32289418
-3,408212352
7,2557042
15,16885697
19,58124826
16,99288114
14,65375947
31,06388787
63,72327168
83,38191698
89,28983056
111,1970199
141,1034931
151,759259
155,9143271
173,8187074
195,2224106
204,3754479
198,2778311
173,9295727
129,5806856
75,23118304
19,63107906
-31,969612
-71,07087531
-105,6726956
-141,2750572
-149,1279441
-127,7313397
-122,0852274
-127,93959
-111,0444101
-98,39966993
-115,5053516
-127,8614368
-116,9679071
-108,3247439
-106,9319284
-95,03944164
-81,39726449
-78,25537778
-74,86376223
-69,7223985
-67,83126724
-62,94034907
-57,29962464
-58,90907463
-64,2686798
-68,62842099
-70,48827917
-69,09823544
-70,20827107
-73,81836752
-71,67850649
-68,2886699
-70,64883994
-71,00899911
-65,86913021
-62,2292164
-60,33924121
-56,44918855
-53,30904277
-53,41878865
-55,27841144
-58,63789688
-57,49723124
-42,1064013
-16,71539444
2,925801421
11,06719772
12,20880529
3,850634301
-11,75730573
-20,36500598
-20,22245834
-21,57965541
-25,43659054
-27,04325785
-26,89965222
-26,75576932
-38,36160564
-91,21715848
-157,572426
-67,42740709
320,2178983
807,3634896
950,0093652
576,4055226
63,05195855
-122,8013312
-30,6543519
7,242890574
-44,10961077
-40,71186378
-1,313877195
-0,66566068
-20,0172248
-23,36858101
-11,4697417
3,929279891
18,5784696
30,72781238
31,37729234
27,2768927
42,67659582
71,07638321
90,97623558
109,8761328
133,5260539
149,4259771
156,32588
164,4757392
179,1255307
189,5252298
175,6748111
140,5742482
97,72351451
42,62258245
-19,72857608
-67,82998979
-95,93168799
-111,0337005
-117,1360578
-119,4887908
-120,0919309
-115,19551
-106,5495604
-102,1541149
-100,0092066
-91,6148691
-82,22113622
-75,07804216
-61,43562141
-48,29390872
-49,65293911
-59,26274779
-67,12337018
-68,48484187
-63,84719859
-66,71047621
-69,82471067
-47,939938
-26,30619427
-43,92351558
-70,29193802
-67,66149767
-57,53223056
-61,65417266
-63,02735985
-54,40182789
-56,52761241
-66,6547489
-64,53327267
-63,66321884
-72,0446223
-68,17751775
-57,06193961
-53,19792203
-44,0854989
-28,72470379
-26,11556996
-35,25813034
-30,90241749
-11,79846364
-14,69630061
-47,84595984
-73,49747237
-74,40086882
-68,30617937
-69,46343374
-77,87266124
-93,03389066
-114,1971504
-148,1124682
-203,2798714
-167,949387
161,8789588
694,4551403
932,529132
566,6009094
-30,3295518
-266,5122751
-129,1972836
-27,88459964
-70,57424521
-83,26624155
-46,96060935
-47,15736871
-63,1065391
-45,30813939
-15,01218783
-2,218702055
2,572300942
17,11080479
39,14679377
51,93025278
55,46116738
68,73952378
97,51530885
133,0385101
162,8091157
175,0771145
176,342496
179,8552505
181,6153686
178,3728421
168,627663
136,6298244
81,37931963
24,1261431
-25,6297103
-70,63824494
-101,8994645
-110,413372
-115,1799696
-131,6992591
-136,2212414
-114,2459167
-94,02328441
-89,80334354
-83,08609217
-74,62152779
-76,15964716
-75,95044637
-67,24392081
-60,29006521
-59,08887358
-60,39033927
-49,69445497
-27,25121265
-24,81060364
-34,62261858
-20,68724747
-4,254479624
-14,5743037
-25,3967077
-18,72167899
-16,04920428
-21,87926963
-21,96186048
-20,04696162
-24,13455724
-25,97463089
-18,31716551
-12,91214343
-16,50954638
-15,35935551
-3,96155135
2,433886136
-5,673022438
-15,28225589
-20,14379246
-34,50760986
-53,62368522
-59,74199516
-62,61251573
-73,23522248
-78,61009043
-72,23709408
-65,11620744
-67,74740399
-97,63065675
-172,2659382
-214,9032205
-31,04247508
426,8163269
821,1732148
731,0282183
216,6313679
-193,0173059
-199,417772
-62,06999878
-48,72395429
-82,37960619
-69,28692168
-54,69586759
-49,60641035
