-26,07998068
-35,45091943
112,6748058
505,7960759
959,6628814
1060,025215
622,3830736
29,48645389
-202,1646432
-114,5702146
-74,98025496
-121,6447564
-116,5637086
-97,98709873
-111,9149116
-112,5971296
-95,28373264
-85,72469831
-78,42000181
-67,36961597
-59,32351127
-57,28165591
-57,24401579
-51,96055452
-43,43123352
-40,15601196
-43,63484687
-52,6176931
-67,10450343
-81,09522853
-87,83981707
-85,58821568
-71,84036907
-50,09622001
-34,35570941
-32,36877635
-35,88535811
-37,15539027
-41,92880668
-52,95553958
-60,48551962
-58,51867589
-50,55493603
-42,84422622
-38,63647128
-34,43159471
-28,97951875
-26,53016441
-25,33345159
-21,63929906
-18,69762458
-20,25834495
-23,57137603
-26,63663284
-30,70402963
-27,5234799
-7,594896493
12,83180836
10,25672296
-4,320063894
-10,39846301
-12,97838483
-16,05973949
-12,39243691
-7,22638684
-15,31149891
-31,64768271
30,26515215
315,927096
784,838239
1069,498671
818,6584822
195,8177616
-219,7734017
-187,614919
-56,70670221
-71,79866369
-95,89071645
-67,73277417
-65,82475119
-76,16656264
-65,75812445
-57,3493534
-53,1901672
-44,78048451
-44,120225
-46,4593094
-35,54765954
-18,13519839
-6,221850129
-2,557540159
-9,892195158
-20,97574312
-26,05811341
-31,88923677
-41,71904538
-44,0474729
-34,87445447
-20,94992679
-7,773828122
-1,096098316
-5,916678867
-19,48551292
-35,55254532
-49,6177226
-57,43099304
-57,9923067
-56,05161538
-53,60887273
-49,66403418
-45,71705701
-41,01790038
-34,3165253
-29,86289466
-31,15697326
-32,6987278
-30,2381269
-29,52514112
-34,55974292
-35,84190675
-22,87160894
-6,148827817
-6,173543631
-21,19573858
-30,46539682
-28,48250443
-24,74704944
-22,25902181
-19,76841342
-25,27521808
-49,77943151
-46,78105129
122,4699231
530,7234902
956,4796469
989,9883881
510,9997069
-51,23640539
-219,2199592
-99,95096678
-59,67944211
-106,1554009
-98,62886051
-75,09984001
-80,3183601
-80,28444309
-70,74811288
-70,20939493
-74,9183162
-73,12490519
-65,32919183
-58,03120749
-46,98098493
-30,92855828
-24,87396299
-32,81723582
-40,50841476
-42,94753903
-49,63464903
-63,3197863
-75,25299348
-80,18431428
-73,61379343
-53,54147664
-34,71741058
-29,89164282
-35,81422177
-51,23519668
-71,15461759
-77,32253525
-66,73900112
-57,40406732
-55,06778657
-53,23021216
-52,3913979
-53,30139811
-53,21026752
-51,61806126
-50,52483484
-51,43064405
-52,83554498
-53,98959392
-55,89284737
-54,54536194
-40,44719437
-18,59840145
-13,74903998
-29,39916672
-40,0488384
-36,9481116
-31,09704278
-26,24568819
-22,89410387
-30,54234556
-57,1904687
-51,5885284
126,7634207
546,6153242
978,7171284
1006,31878
518,1702262
-37,97858518
-196,6277056
-89,77718611
-69,67707682
-120,0774272
-108,7282861
-85,62970139
-89,03172018
-82,93438873
-73,83775242
-77,4918557
-76,39674205
-65,30245401
-56,45903307
-50,8665197
-43,52495331
-37,4343722
-35,59481358
-36,75631349
-40,41890683
-47,58262729
-59,49750737
-74,66357832
-89,08087015
-92,9994116
-77,66923012
-54,59035186
-42,51280163
-40,68660294
-39,36177791
-37,28834733
-36,4663306
-37,14574573
-39,07660935
-40,25893668
-40,94274153
-43,87803629
-46,56483193
-45,253138
-42,9429626
-43,13431241
-45,57719268
-50,77160723
-54,71755844
-55,91504724
-61,61407318
-64,56463433
-47,76672738
-23,2203476
-21,42548885
-39,13214358
-48,84030288
-47,54995642
-45,01109255
-40,22369822
-36,18775905
-44,15325935
-69,37018209
-65,33850893
101,1917797
506,7207048
939,9982883
990,0245537
522,2995256
-40,17677034
-215,4043071
-108,1330566
-77,61298962
-123,0940758
-112,5762838
-94,05958112
-101,5439342
-92,77930862
-74,01566882
-68,25297837
-68,24119989
-67,23029511
-64,97022489
-57,71094923
-47,20242734
-40,94461763
-39,68747778
-40,43096474
-43,67503476
-49,66964347
-57,91474583
-69,41029626
-79,90624859
-76,40255614
-53,89917176
-28,14604782
-15,1431363
-12,14038878
-12,3877565
-16,8851904
-21,88264113
-19,88005912
-14,62739459
-13,37459761
-16,6216181
-23,36840593
-28,86491088
-26,36108274
-19,60687131
-17,35222645
-22,84709814
-35,34143647
-48,08519171
-55,07831435
-59,3207551
-58,31246499
-43,55339533
-25,54349783
-25,78272454
-41,02102799
-50,75836113
-49,49467744
-46,22993091
-45,46407612
-44,44706823
-49,42886306
-68,65941706
-49,63868741
143,883368
562,9067904
960,4316205
934,2078978
421,7356613
-101,485051
-210,7042022
-91,17175605
-79,13767747
-124,6019323
-107,8144874
-90,02531065
-97,48437109
-89,19163876
-72,39708487
-65,60068173
-58,80240285
-49,00222288
-45,45011769
-46,14606437
-42,34004125
-36,7820279
-34,97200516
-32,40995517
-29,84586137
-35,2797085
-48,71148264
-63,39117122
-70,568763
-63,49424813
-45,1676181
-24,08886581
-5,757985542
4,075027027
2,410174815
-4,502540671
-10,41311934
-13,57156251
-12,47787294
-9,382054787
-6,784113652
-0,434056552
8,918108069
12,02237035
10,37871899
11,2371413
8,84762315
1,960149024
0,574701988
-2,308736283
-15,4401855
-19,56966676
-4,19720253
3,927183369
-14,69653424
-38,31838187
-41,93838737
-35,05657988
-36,67298985
-44,53764902
-48,9005904
-56,76184822
-75,12145798
-38,22945637
195,9141187
639,5592282
991,9558318
864,1038882
287,253355
-201,0958116
-245,443656
-116,540224
-118,6355623
-156,7297186
-133,3227416
-118,4146808
-122,7555869
-111,0955113
-98,43450628
-93,02262494
-82,10992126
-69,44644997
-58,78226654
-50,86742718
-50,70198878
-49,53600893
-40,8695458
-38,7026582
-46,53540551
-54,11784764
-62,95004504
-73,03205861
-75,36394972
-65,44578015
-45,02761208
-22,35950803
-7,191530865
-2,273743728
-7,606210034
-20,68899343
-31,77215775
-34,60576702
-32,18988538
-27,27457709
-20,60990649
-13,94593794
-8,28273584
-2,370364554
2,291111595
0,451628365
-5,138878377
-7,480472622
-9,073218193
-14,16717871
-18,01241757
-12,85899789
-1,206982536
1,693565981
-11,65741452
-27,75998585
-33,6142094
-33,97014614
-38,57785658
-48,93740075
-60,04883815
-73,66222774
-78,52762793
23,60490348
356,2353093
809,613533
988,9895187
623,6132113
-2,26544382
-313,3965002
-215,5300109
-110,916028
-147,0546028
-155,1957859
-122,3396268
-124,2361744
-128,3854765
-111,78758
-100,192531
-92,6003744
-79,01115433
-67,42491382
-58,59169491
-46,7615386
-35,68448484
-30,11057251
-31,28983941
-38,72232223
-46,65805656
-53,09707687
-62,03941646
-68,7351075
-62,68418099
-42,63666675
-18,3425934
-2,551988371
-1,764877892
-10,23128696
-19,45123935
-28,4247576
-35,65186299
-36,88257558
-33,86691415
-30,85489622
-26,59653804
-19,3418546
-11,34085959
-4,093565425
0,650016751
-0,610122906
-5,12399295
-7,641600647
-11,66295197
-17,68805159
-12,21690289
8,000492037
20,21413239
8,67401868
-11,61984732
-23,41746253
-28,71882259
-30,52392185
-27,83275339
-28,14530901
-43,96157924
-69,78155334
-25,10521929
234,3174361
703,4864275
1056,901771
906,0634822
314,2215808
-164,1239143
-200,4729824
-90,57560157
-118,4317488
-162,2913997
-134,1545289
-119,7711098
-124,6411146
-113,7645142
-110,8912787
-117,7713768
-109,4047761
-93,54144327
-84,68134366
-76,82444168
-68,47070063
-65,37008273
-63,77254919
-60,42806019
-63,08657487
-76,99805139
-96,16244692
-110,8297177
-111,2498189
-92,92270491
-66,09832912
-46,27664402
-36,70760122
-32,14115148
-29,32724471
-28,76582998
-32,45685556
-36,90026893
-36,09601679
-31,54404511
-27,24429911
-21,1967233
-12,90126152
-6,357856917
-1,566452006
-0,026988669
-3,489408183
-5,453651241
-6,169657973
-13,13736797
-17,60672029
-3,827653523
17,19989425
18,22598537
-0,249317357
-15,22595074
-20,4538512
-23,18295477
-23,91319717
-23,89451377
-33,12683967
-57,61010966
-42,5942583
154,1707801
588,1850714
1004,448682
983,2116774
454,4741247
-93,26390974
-218,0023593
-100,4911574
-85,98023703
-132,7195315
-119,2089739
-101,9484974
-106,1880351
-96,92752026
-87,66688613
-91,90606603
-90,89499338
-81,13360175
-71,8718248
-62,35959639
-57,84685051
-63,58352139
-66,81954344
-62,30485132
-63,78937993
-73,77306443
-83,7558403
-94,7376433
-104,7184095
-100,9480754
-80,17657768
-55,90385359
-41,12984067
-37,1044769
-38,07770068
-38,29945086
-37,76966676
-39,23828817
-39,95525539
-37,67050921
-36,13399097
-34,59564254
-26,30540636
-14,26322544
-7,969043382
-6,422804391
-6,374453293
-8,323935546
-11,02119726
-16,21618519
-21,4088468
-13,5991302
7,713015768
18,52764157
5,594796933
-12,08546914
-18,2631084
-20,43807336
-25,11031728
-27,77979424
-30,44645906
-47,61026738
-63,52117567
34,32085884
371,915878
840,763923
1049,865034
716,9692505
104,576611
-222,3128469
-156,4490863
-75,33207112
-118,2117664
-127,5881379
-97,46115228
-102,0807771
-106,6969807
-89,80973259
-79,66900285
-72,27476264
-57,12698398
-46,22563978
-42,57070387
-39,16215095
-38,24995664
-43,08409748
-46,1645509
-44,49129521
-46,81430966
-57,63357438
-75,44907041
-94,01077969
-98,31868507
-83,12277027
-62,67301994
-49,46941961
-44,5119557
-45,55061553
-46,0853873
-41,8662601
-41,39322391
-48,16626959
-52,43538887
-49,45057437
-43,46181956
-36,7191188
-27,97246731
-18,72186115
-12,21729728
-10,70877347
-11,94628837
-9,929841465
-8,659433073
-17,88506436
-29,60673731
-24,07445475
-2,038220315
12,00196153
2,546085536
-16,65585439
-25,1038651
-26,29795427
-31,23813035
-35,67440258
-38,10678095
-53,03527626
-68,70990004
21,86933542
350,4524171
825,2893311
1057,380063
739,9745977
113,0729189
-240,5749898
-178,7191459
-84,10956746
-124,9962732
-142,3792827
-110,2586159
-102,1342937
-101,0063375
-90,87476935
-85,23961204
-77,85088891
-69,20862393
-64,8128417
-53,16356744
-36,51082694
-30,35464659
-27,19505339
-18,78207487
-19,11573916
-30,19607495
-39,27311146
-49,34687846
-61,41740628
-60,23472575
-41,79886824
-18,85986562
-9,917750281
-23,72255511
-42,02431348
-47,57305926
-50,3688268
-56,66165092
-58,2015669
-62,23861051
-76,02281793
-81,05422583
-68,5828713
-54,60879188
-47,88202553
-45,40261065
-44,67058605
-43,18599097
-39,69886503
-38,70924829
-43,4671812
-48,72270458
-45,22585968
-28,4766881
-12,47523183
-18,72153325
-39,71563509
-51,20758045
-53,44741279
-57,43517593
-58,92091402
-55,15467157
-62,38649344
-83,11642478
-30,84451111
244,6792017
719,2046677
1038,48184
826,7606725
206,2911177
-240,6768717
-233,1433433
-104,8583449
-119,0719248
-147,2841313
-117,7450132
-106,9546194
-110,4129992
-97,12020178
-84,32627695
-75,03127451
-62,23524454
-51,6882373
-42,14030323
-30,84149297
-22,04185733
-14,49144728
-6,190313927
-3,388508541
-7,336082512
-13,78308736
-23,2295747
-32,42559627
-32,12120388
-18,56644941
2,988615165
20,04393785
20,84946659
9,155149299
-0,289066113
-4,233231749
-8,6773997
-14,37162203
-18,81595079
-19,76043794
-15,95513541
-8,400095039
-0,09536858
5,958992328
5,012936162
-2,433588461
-7,880632772
-9,328247838
-10,52648454
-14,22539356
-24,92502537
-37,62543021
-33,82665806
-15,77875865
-13,48178143
-33,18577555
-48,64078983
-51,34687279
-53,55407257
-55,76243696
-52,47201337
-54,68284879
-80,39498981
-83,10848257
90,17662723
527,7102944
998,9924741
1059,023122
564,5521952
-36,17035038
-232,394557
-126,8704666
-96,84812071
-146,07756
-133,5588248
-110,7919544
-120,2769879
-114,5139632
-95,25291797
-88,24388886
-82,23691191
-70,98202237
-64,22925476
-59,22864279
-50,48021939
-43,98401669
-41,99006597
-39,9983977
-42,00904149
-52,0220261
-64,5373794
-76,05512838
-83,32529914
-77,84791687
-58,62300584
-37,1505894
-23,43068997
-17,213329
-16,49852702
-21,7863036
-29,57667733
-34,36966584
-35,41528579
-33,96355286
-30,01448175
-24,31808617
-18,12437885
-14,18337152
-13,74507495
-11,8094989
-8,37665213
-10,69654245
-17,51917665
-23,84456057
-35,92269905
-54,00359597
-56,58725424
-35,92367579
-18,01286162
-25,85481177
-52,19952533
-75,29700048
-83,89723444
-81,75022356
-77,35596324
-76,21444804
-88,32567159
-116,6896267
-87,05630522
153,5743017
622,7022038
1013,327412
916,6999366
342,8197908
-168,8130128
-238,6984607
-123,3365383
-131,9772307
-172,120522
-147,0163957
-132,9148348
-138,8158215
-124,2193373
-107,8753633
-103,03388
-93,94486725
-82,35830441
-75,52417034
-68,69244341
-59,86310153
-50,03612217
-40,96148237
-38,88915879
-45,56912772
-55,00136512
-64,6858466
-74,12254751
-76,3114429
-64,75250761
-42,69571623
-21,14104319
-8,588462711
-3,787948914
-4,239475783
-11,94301721
-20,89854704
-23,35603906
-24,06546706
-24,77680482
-19,24002617
-9,20510501
-1,922015317
2,10926882
5,888773175
9,166523362
10,44254481
8,716862744
4,489502157
0,760487789
-0,470155894
-4,202404723
-12,18623485
-9,671622755
8,591454708
18,35302031
5,113096441
-11,37829495
-15,12113234
-13,11539466
-13,61106129
-19,85811212
-31,60652753
-51,35628842
-72,1073762
0,140227145
314,8865391
817,8815766
1120,625356
858,8678929
218,6092026
-194,4007003
-169,9118021
-77,67408926
-123,1875492
-153,4521699
-126,7179399
-121,9848484
-121,5028853
-102,7720412
-94,79230725
-95,06367522
-83,33613762
-66,1096876
-56,63431893
-53,41002606
-48,43680408
-40,96464872
-34,74355636
-32,27352402
-37,30454934
-49,33663061
-62,11976672
-71,15395722
-70,43920222
-56,22550247
-38,0128593
-22,30127463
-6,090750962
2,368708628
-3,172899489
-10,9655795
-14,50933611
-18,3041746
-20,35010071
-16,89712072
-11,94524141
-6,994470026
0,205185722
5,653717656
4,351117162
-1,202624805
-5,5075177
-6,813571383
-8,120796094
-11,17920245
-14,73880141
-23,2996043
-39,86162273
-48,42486867
-33,23935433
-12,05509223
-11,62209515
-26,9403761
-41,00994833
-47,83082529
-46,15302064
-41,97654821
-41,30142199
-48,87765611
-72,20526484
-56,03426255
150,8853363
599,8035171
1012,720265
956,3855664
379,7994055
-186,038232
-289,8773608
-154,4679955
-141,8101507
-187,403841
-165,4990809
-145,5958848
-153,1942669
-139,7942414
-114,6458224
-105,4990237
-102,6038591
-93,21034212
-80,81848605
-72,42830407
-66,03980909
-50,9030138
-31,76793063
-28,13457177
-39,25294913
-48,37307431
-54,74495867
-64,86861321
-70,49404865
-61,12127537
-42,00030342
-24,63114249
-14,01380193
-12,39829073
-21,53461749
-36,17279045
-45,81281746
-48,95470596
-48,09846302
-40,99409527
-33,14160896
-32,0410099
-29,94230349
-19,8454947
-12,00058806
-12,15758768
-11,81649721
-9,727319883
-12,39005847
-17,80471528
-23,72129221
-32,38979067
-38,31021163
-34,9825556
-22,40682262
-7,33301229
-5,511123739
-20,19115563
-31,37310618
-29,80697312
-26,99275374
-26,43044486
-24,12004281
-28,06154351
-48,75494237
-45,20023436
116,852586
530,4035247
991,4525882
1053,749783
545,5451174
-82,16140169
-278,8697658
-140,829966
-89,29199338
-149,0058381
-151,2214902
-125,438939
-123,9081736
-115,3791826
-100,3519539
-94,07647528
-86,55273391
-73,78071652
-60,51040942
-48,74179845
-39,22486902
-31,45960608
-25,44599415
-21,43401731
-19,4236592
-22,914903
-33,40773148
-45,65212696
-52,64807133
-49,14554604
-32,89453212
-11,89501016
-1,896960332
-5,900362371
-15,65519559
-25,41143889
-30,66907072
-32,42806915
-36,4384118
-38,95007589
-34,71303822
-29,97727517
-27,24276272
-22,75947644
-19,52739147
-20,54648258
-21,3167241
-19,08808999
-18,86055377
-24,63408858
-32,15866718
-36,6842619
-40,21084468
-43,73838709
-39,76686026
-25,29623499
-16,32648162
-23,85757015
-34,38947017
-36,42215089
-34,20558111
-32,23972926
-31,0245634
-36,06005116
-59,59615981
-82,88285624
8,329893055
354,042122
861,7538648
1124,715156
817,1760312
176,6365252
-200,9033259
-159,6934859
-77,98391821
-122,5245859
-137,5654515
-105,8564772
-105,8976251
-116,4388564
-110,7301322
-103,0214133
-96,81265983
-87,10383176
-76,39488856
-72,43578933
-77,22649278
-77,51695722
-66,05714057
-56,59700034
-56,38649369
-59,17557734
-66,21420764
-79,75234055
-91,28993164
-92,07693609
-79,11330869
-55,14900383
-31,18397555
-16,96817749
-13,50156289
-17,53408464
-23,56569525
-27,34634684
-29,1259912
-28,90457971
-25,18206342
-19,20839301
-15,7335188
-17,50739077
-20,27995856
-20,30117146
-20,57097843
-21,58932811
-21,1061688
-23,12144849
-28,88511487
-32,6471153
-35,40739688
-39,66590637
-35,6725903
-16,17739488
3,569733925
1,818850415
-16,17999086
-26,17673509
-24,42132726
-24,4137121
-25,90383415
-23,14163771
-29,87706691
-59,36006568
-51,84057778
142,6814532
588,4560838
1036,733371
1047,513371
518,0461414
-56,66826094
-199,1297789
-83,58835512
-71,04393233
-120,9964531
-106,19586
-85,89209563
-89,83510239
-81,52482283
-70,21119947
-67,39417484
-60,82369153
-52,99969219
-48,92211954
-43,09091639
-35,25602566
-29,9173904
-31,32495382
-42,22865927
-56,87845029
-68,77427066
-80,66606433
-95,80377555
-109,4373488
-111,3167289
-95,44186085
-71,56269018
-57,67916266
-57,79122446
-61,64882217
-64,75190281
-69,60041387
-73,44430331
-71,78351961
-66,11801179
-62,44772945
-62,77262277
-62,84264256
-62,15774029
-61,71786811
-58,27297887
-52,82302619
-50,36796444
-52,40774882
-56,69233535
-59,47168091
-59,49574331
-60,26448127
-63,27785448
-60,03582362
-42,28835042
-23,53539766
-25,52692921
-42,76291009
-53,24330646
-52,4680857
-49,18721638
-44,90066837
-38,85841282
-43,8104222
-65,75667036
-33,94713252
199,3682147
655,6893931
1035,766423
933,0993236
364,938112
-127,717196
-183,8665864
-69,01004658
-77,89756576
-115,0291348
-92,15474642
-80,0243949
-85,88807646
-74,49578906
-59,84753254
-53,44330859
-45,2831208
-36,61697467
-30,94487764
-24,51683914
-17,08287055
-9,642985301
-3,197198826
-4,245528625
-18,78799427
-41,82461741
-62,35542184
-73,63043344
-72,64968027
-60,16319252
-45,42100257
-40,42314501
-45,66965658
-51,41057629
-52,39594534
-52,12580717
-54,60020748
-58,5691942
-61,03281754
-59,49112996
-54,6941862
-52,64204328
-53,08476046
-49,77239933
-45,95502371
-46,38269973
-44,80549577
-38,72348251
-35,13673286
-34,29532202
-32,69932742
-34,59882874
-42,74390792
-49,13464907
-39,77113855
-16,40346491
-5,78171886
-18,90599329
-31,77638322
-29,89298582
-23,50590032
-19,61522807
-17,22107244
-18,57353887
-32,17273476
-42,01876952
54,38824553
386,0481971
861,9609702
1086,376448
755,0445109
129,9650393
-203,3620894
-127,9369992
-34,0098157
-74,58066607
-88,14967909
-59,46698505
-63,5327157
-68,09700418
-49,40998503
-35,47179409
-27,03256845
-15,59244643
-9,65156748
-8,710072163
-1,768102069
9,674200227
12,86669123
8,559226591
7,501661153
5,193849029
-5,864356341
-17,92310213
-27,23253604
-34,79280628
-30,60406143
-13,16645046
0,01987741
-0,795227246
-7,861914005
-18,43033251
-33,75063241
-45,32296328
-50,89747456
-55,47431548
-57,55363497
-58,38558165
-63,97030366
-70,8079487
-69,89866387
-60,99259564
-50,08988977
-43,94069124
-46,54514417
-52,40339176
-54,51557622
-56,6318387
-63,50231918
-69,62715647
-65,00648809
-48,3904502
-37,27917756
-46,17280344
-59,82145956
-60,47527601
-57,38438121
-60,04890181
-58,71896264
-51,89468666
-59,07619487
-74,01360626
5,042962255
314,3433959
778,1375821
1019,42541
722,7067731
101,4815642
-262,7503192
-196,238978
-79,98451033
-110,4870118
-129,9965752
-99,26329092
-94,78724638
-96,31852629
-80,35721248
-72,90338392
-72,20711662
-63,26848363
-52,83755499
-44,66439765
-34,9990755
-25,34164927
-17,69217655
-12,55071171
-10,66730588
-13,04200696
-21,67485952
-35,06590484
-45,71518084
-46,6227221
-36,28855978
-22,46272166
-16,89523208
-20,83611196
-26,03537874
-28,49304642
-31,70912552
-37,68362306
-47,66654259
-62,65788415
-74,15764429
-76,41581607
-75,18238906
-70,7073493
-61,49067938
-58,53235839
-68,33236196
-76,39066226
-72,70722799
-68,53202444
-71,11501347
-78,70615355
-87,55539974
-83,16270379
-61,27801408
-46,90127569
-54,53243042
-64,67141681
-63,81817019
-60,22262268
-58,13470326
-54,55433777
-53,48144899
-67,91595661
-92,85777736
-40,05682498
234,7369897
700,7737588
1014,803577
821,0765424
235,3427551
-191,3976818
-190,3946624
-77,14807853
-98,90781923
-128,6737712
-100,4458186
-93,47384345
-99,75772521
-81,29734121
-63,34256661
-59,14327439
-51,9493355
-43,76061887
-41,82699151
-37,89831852
-28,47446322
-19,55528719
-13,89065032
-12,73041089
-16,82442565
-24,92254987
-36,02463742
-46,13054085
-45,99011144
-31,10319927
-11,96965333
-1,339321523
1,287949184
0,662312744
-2,216076066
-5,347061714
-9,230487986
-15,36619806
-18,25403458
-15,39383974
-14,53545533
-19,17872284
-25,07348351
-30,46957844
-33,36684861
-31,76513501
-31,41427867
-35,06412075
-37,46450262
-40,86526592
-49,01625264
-49,1673052
-29,3182665
-7,968979998
-11,1192898
-31,5190407
-46,91807827
-52,31624894
-52,21340002
-48,35937983
-42,0040377
-44,14722409
-71,78879064
-82,17859022
65,683523
457,7976935
901,4140642
991,0327768
559,6539712
-3,972214242
-203,8456428
-105,4661794
-68,08369085
-112,4480458
-103,0591148
-83,16677031
-92,77088668
-87,12134042
-69,46801013
-63,0607765
-56,39952246
-45,73413312
-40,31449591
-36,64050055
-30,21203915
-25,52900621
-23,34129867
-21,89881597
-24,20146005
-31,74913541
-41,54174916
-49,07921103
-51,86143338
-47,13833129
-32,15982255
-13,17582769
-1,93627002
-0,941075651
-3,690173517
-8,183495404
-15,67097596
-21,40255275
-22,37816621
-21,34775974
-20,06127968
-19,01867531
-18,21989893
-19,16490578
-22,35365414
-23,53610528
-21,7122235
-22,63197614
-27,79533356
-36,20226916
-50,10275939
-57,74678375
-41,13432478
-15,01536808
-15,13990229
-42,75791909
-65,11941321
-66,97438241
-61,32282748
-58,41475222
-55,75016346
-58,82907102
-80,1514877
-82,46742929
60,72308546
435,6700349
860,3733943
931,8331363
484,2992303
-79,47835691
-257,2496614
-134,7647223
-88,27358121
-135,7762828
-131,7728742
-110,2634056
-113,4979296
-104,7265016
-85,69917951
-76,91602404
-70,3770983
-62,58246798
-58,78220125
-54,97636876
-47,16504357
-38,59830112
-33,0262192
-29,9488779
-28,61635956
-32,27874874
-40,68613221
-48,33859882
-51,23623954
-44,37914737
-24,7674173
-0,901146275
13,96956686
15,34462143
7,973914933
-1,642656862
-9,255199891
-14,11382174
-17,21863157
-17,56974011
-15,41725955
-12,76130353
-8,35198706
-3,439426461
-3,77373933
-8,355044468
-11,93346183
-14,75911245
-20,08211841
-29,15260276
-37,47068947
-33,53650336
-13,85017005
0,838184104
-9,971567914
-31,02955375
-36,33590159
-30,14074012
-26,94419844
-26,74640602
-28,29749263
-40,09758828
-59,39682316
-5,195327566
264,5067682
720,2093337
1011,662239
783,8653532
183,3185472
-221,7283089
-195,7753445
-77,82268838
-100,6204691
-134,6688145
-119,217852
-120,5177083
-126,5685094
-109,6203805
-93,42344592
-88,47782926
-82,78365303
-74,59103876
-68,15010688
-61,21097673
-50,27376641
-39,33859281
-34,90557148
-37,22481663
-42,54644103
-49,62055598
-59,69727124
-68,026695
-64,35893379
-47,19409247
-25,53227414
-8,123580125
1,03189011
3,43403898
0,58277084
-7,772007967
-18,63038907
-26,49246203
-26,35831428
-19,47803109
-13,85169555
-12,97938849
-11,61118846
-7,247171707
-4,637412115
-4,53198118
-4,43094798
-8,084379136
-18,99233878
-32,90488854
-39,07208748
-31,24399211
-22,67065633
-29,85213142
-45,53846603
-53,22970612
-52,42589497
-51,12707315
-50,58327852
-50,54454617
-62,26090847
-87,23239498
-51,2090325
188,559155
640,0721462
990,3299228
842,3324693
246,3297728
-236,6781766
-255,941386
-106,4598596
-102,7335989
-142,7626025
-126,7968662
-120,0863831
-125,1311434
-112,4311343
-102,2363405
-101,7967439
-100,6123234
-96,93305544
-90,50891356
-85,5898686
-80,92588874
-68,76693947
-58,6129836
-59,96398134
-61,81989028
-61,93066543
-71,04625925
-83,66662167
-83,29170012
-65,42143958
-41,05578259
-24,19466931
-18,08803752
-17,73582269
-18,887958
-22,04437439
-30,20500058
-37,61976314
-37,78858653
-35,71139309
-32,88810318
-26,31863513
-21,00290537
-19,1908284
-16,8823169
-13,57728175
-10,0256321
-9,477275393
-14,68211743
-17,89006244
-10,10101311
2,435129344
2,968465142
-12,50090414
-28,7228756
-36,1973451
-40,67420728
-42,15335566
-35,63468265
-32,11807967
-54,60343714
-79,59064459
21,67040931
372,1798367
839,4377504
1020,944264
658,1994914
43,20354753
-261,2934525
-172,541393
-80,54015813
-119,0396315
-129,0396965
-102,0402365
-103,2911345
-103,0422735
-87,29353654
-78,5448067
-70,79596706
-58,29690092
-52,04749178
-46,79762339
-34,04717984
-24,04604559
-22,79410554
-23,79124509
-28,78735016
-42,28230729
-55,27600367
-62,0183272
-65,75916651
-61,24841108
-46,48595123
-32,97167819
-23,95548415
-16,43726234
-17,166907
-26,64431352
-34,11937842
-36,09199943
-35,31207551
-31,52950692
-24,99419526
-17,95604347
-13,41495595
-14,12083852
-16,5735985
-15,52314477
-11,71938774
-9,662239452
-14,60161359
-23,0374255
-18,96959226
3,101967349
19,42733274
7,256581546
-18,66021044
-33,07296927
-36,73162289
-38,88610115
-39,03633581
-40,18226061
-59,32381124
-91,4609254
-36,59354279
254,5283949
739,1549438
1058,536158
856,4220901
261,5627895
-169,7916955
-173,8913193
-67,73603809
-93,82581027
-123,9105964
-95,49035912
-87,31506325
-92,88467571
-79,44916557
-67,75850401
-64,81266437
-57,11162211
-45,1553548
-35,44384217
-29,72706603
-25,25501031
-21,52766104
-22,79500634
-29,80703643
-38,06374356
-47,81512208
-62,31116837
-74,30188082
-72,28725987
-56,51730794
-38,24202945
-28,46143078
-26,67552025
-24,63430813
-22,08780658
-22,28602967
-24,22899333
-30,16671533
-39,09921529
-40,2765146
-32,19863645
-27,11560578
-28,27744926
-28,93419525
-30,33587382
-36,98251665
-45,12415707
-51,01083
-54,64257193
-51,01942088
-35,14141639
-19,00859948
-21,12101262
-36,72869969
-47,08170599
-49,68007814
-53,27386412
-57,11311319
-57,94787587
-70,02820394
-100,1041503
-69,92576921
171,0068842
628,6937535
996,3847813
888,079909
330,5290773
-154,0177743
-212,5607071
-103,0997835
-118,6350666
-157,4166203
-127,6945095
-112,2187996
-119,7395569
-107,5068484
-92,27074167
-87,28130499
-79,28860722
-68,79271775
-61,29370653
-54,541644
-48,28660106
-43,52864905
-40,0178597
-40,50430511
-48,98805772
-64,96919027
-82,19777578
-92,42388749
-88,39759888
-68,61898361
-40,58811546
-17,30506837
-6,019916348
-0,732733486
4,556406099
7,347428277
5,640258939
0,934824018
-7,268950479
-17,47113845
-20,17181366
-12,87104974
-6,318920137
-5,265498102
-7,460856666
-15,40506861
-25,59820646
-28,79034243
-30,23154843
-36,17189605
-34,1114565
-18,05030064
-8,738498897
-21,67612132
-39,36323749
-43,79991655
-43,98622717
-49,17223752
-53,85801526
-59,04362752
-79,22914091
-96,91462144
-0,100134583
336,2142548
801,2784825
998,0924848
654,1561988
53,21956209
-247,717487
-171,9050094
-98,34306556
-146,031715
-156,4710166
-127,6610285
-127,3518082
-124,5434124
-105,9858969
-96,42931694
-90,62372687
-80,31918027
-71,76572993
-63,71342782
-54,4123251
-49,11247212
-48,06391839
-46,76671259
-45,97090256
-50,92653527
-63,88365686
-79,84231259
-88,30254688
-81,26440325
-59,47792437
-32,69315201
-14,41012707
-8,878889561
-9,599478596
-10,3219324
-9,546288313
-8,272582756
-6,250851264
-3,481128465
-0,713448082
2,052157067
5,31565507
11,07701493
19,33620654
25,09320074
24,09796924
19,35048468
17,10072061
16,0986515
11,59425272
9,087500548
19,82837218
37,56684573
36,30290021
12,78651554
-2,732327447
-1,503646999
-5,527460472
-20,80378431
-33,33263405
-42,86402432
-66,64796886
-72,9344805
72,27642884
463,9847481
908,9404672
989,3935769
539,8440689
-45,20806441
-259,2628294
-155,3202319
-108,1302765
-157,4429673
-154,0083071
-127,0762982
-128,1469418
-121,9702382
-107,296187
-104,6247868
-100,2060354
-86,78992966
-75,87646565
-68,21563856
-61,05744274
-56,65187169
-52,24891807
-47,84857369
-52,45082955
-66,05567582
-78,41310184
-87,27309615
-92,63564648
-83,50073976
-56,36836213
-29,23849893
-15,86113475
-10,98625339
-7,113837904
-5,493870583
-7,876332985
-11,51120593
-14,14846952
-13,28810315
-8,430085501
-2,324394569
3,778992325
8,13009853
10,72894805
14,57556553
18,41997625
17,7622061
11,60228158
3,940229762
-0,72392168
-2,640144528
0,191589983
14,27131115
26,84904879
14,17483321
-15,2513048
-34,17933396
-38,35922258
-37,54093851
-35,97444918
-37,15972165
-51,09672257
-76,78541825
-43,22577465
189,5822426
637,8886681
998,4435369
863,7468842
264,2987455
-239,6508437
-284,3518474
-154,5542294
-159,5079537
-195,7129837
-168,1692831
-154,1268152
-160,5855434
-149,045431
-135,2564412
-128,4685373
-115,6816825
-100,6458402
-90,86097376
-80,82704665
-69,79402245
-63,0118649
-57,48053789
-51,45000548
-51,92023198
-61,89118192
-77,11282009
-90,33511158
-89,80802179
-69,78151648
-41,50556174
-22,23012408
-17,45517044
-19,43066818
-22,40658514
-27,13288966
-31,8595506
-33,58653738
-34,31381997
-33,29136897
-26,51915558
-18,49715167
-13,22532976
-6,703663103
0,817874346
4,839307876
6,110662004
8,881960452
15,40322612
21,67448107
17,6957465
1,967042721
-7,761610868
4,259804213
24,03130549
25,30290952
6,074631891
-16,40351284
-29,13151112
-29,10935045
-23,58701936
-24,81450749
-40,54180553
-65,01890529
-28,49579969
212,0275172
666,3010503
1020,324803
884,0987783
303,8729772
-182,3526002
-227,8279547
-101,5530886
-105,0280053
-144,2527093
-124,7272066
-119,951504
-134,4256098
-123,1495334
-104,1232855
-96,09687783
-87,57032348
-79,29363669
-76,51683289
-71,23992871
-59,21294198
-47,68589169
-42,40879802
-41,3816823
-45,60456702
-57,57747583
-72,30043349
-83,52346589
-85,99660003
-72,71986399
-45,44328695
-20,16689913
-8,890731805
-9,364817275
-13,33918885
-12,81388082
-8,788928452
-8,014367954
-7,240236458
-1,966571994
2,30658653
4,829199357
11,35122591
19,3726248
25,64335388
30,91337027
31,43263036
28,70108986
28,46870385
25,98542677
15,25121247
1,766014277
-2,220215035
12,04247684
34,55404176
38,06443117
12,57359614
-20,16851261
-36,16194465
-34,4067498
-29,90297812
-32,90067986
-44,39990537
-68,90070515
-82,90312974
37,59277032
423,5869445
930,3293423
1119,069913
725,5586076
79,04537488
-231,9698345
-142,4870701
-61,25638102
-111,527816
-123,3014235
-95,32725142
-99,85534711
-103,6357575
-87,16852873
-76,45370656
-78,99133591
-82,53146102
-75,57412535
-63,36937158
-56,91724152
-54,96777611
-58,27101535
-69,32699826
-80,13576286
-87,19734613
-97,76178394
-114,5791111
-130,8993611
-134,2225664
-115,0487581
-83,8779662
-63,2102192
-57,29554438
-55,88396762
-56,97551339
-61,07020477
-61,66806333
-56,51910921
-51,37336099
-47,98083575
-45,09154898
-43,9555146
-42,32274492
-33,94325061
-20,06704072
-12,94412261
-16,07450194
-19,95818271
-23,84516718
-31,23545587
-37,37904758
-41,52593935
-42,17612644
-31,57960236
-20,98635883
-30,39638579
-52,05967136
-69,22620191
-82,14596197
-89,56893431
-85,24509986
-75,67443778
-78,85692542
-92,54253835
-27,98125033
267,8269666
771,8821423
1118,934308
913,4834978
255,279746
-259,6769104
-277,6364329
-117,3487813
-115,3139136
-157,2817863
-129,5023542
-113,4755704
-124,9513863
-121,4297519
-108,6606156
-94,89392404
-79,87962257
-69,36765492
-51,35796336
-25,8504887
-19,34517036
-26,09194634
-22,09075328
-17,59152652
-26,84420005
-45,84870664
-69,60497781
-86,36294387
-83,622534
-66,88367622
-45,14629749
-21,9103237
-8,675679746
-12,19228954
-23,21007606
-34,47896141
-44,49886682
-48,51971274
-42,79141884
-29,56390406
-14,58708667
-4,110884314
-1,635214037
-6,90999234
-20,93513522
-34,96055824
-28,73617652
-7,761904848
3,712342315
5,186650779
2,411106572
-11,8642041
-28,6391949
-26,41377941
-10,18787118
-4,461383774
-16,98423081
-38,006326
-56,52758324
-62,0479166
-54,81724039
-47,33546923
-47,10251807
-64,61830224
-94,1327375
-28,14574008
297,5927733
825,5828852
1156,824678
917,0682327
254,3136305
-227,1890489
-229,4397262
-95,68832283
-110,9347614
-145,4289651
-119,4208583
-110,6603662
-111,1474151
-86,1319322
-64,61384598
-60,09308592
-58,56958271
-58,04326821
-52,26407553
-36,23193901
-25,44679431
-24,40857842
-20,36722968
-18,82268781
-31,77489396
-48,22379073
-55,66932219
-61,3614339
-70,05007298
-72,23518809
-60,91672947
-39,09464896
-20,01890005
-17,18943786
-23,85621919
-27,01920255
-33,92834813
-47,0836179
-45,98497553
-29,3823865
-22,27581806
-29,91523925
-34,80062096
-29,43193588
-19,30915854
-9,432265342
-4,55123455
-4,166046296
-5,526682601
-12,38312737
-23,98536643
-35,08338748
-43,92718015
-47,76673599
-41,10204844
-24,68311289
-15,00992663
-27,83248887
-51,65080075
-63,21486533
-58,77468756
-50,33027432
-48,13163438
-55,42877843
-77,72171901
-100,5104706
-13,54504947
335,1745262
865,8982363
1165,626059
879,6079706
209,5939457
-225,9160431
-197,4220248
-85,92403037
-120,9220923
-144,4162448
-108,656524
-98,8929675
-100,1256147
-86,35450651
-81,07968556
-79,80119601
-65,7690836
-51,23339558
-48,69418075
-50,40148936
-47,85537311
-41,80588515
-33,00307999
-25,19701354
-24,88774301
-31,32532692
-44,00982505
-60,94129844
-65,86980931
-49,04542103
-23,96819815
-7,638206274
-7,555512087
-18,7201833
-26,38228861
-27,29189766
-30,44908103
-34,35391015
-37,25645731
-48,40679561
-56,80499888
-41,70114172
-22,84529937
-29,48754774
-47,12796335
-51,76662329
-42,15360515
-24,78898703
-13,17284748
-19,80526544
-35,43632022
-42,56609145
-42,44465905
-47,82210318
-62,44850419
-71,07394261
-53,44849905
-29,57225425
-40,19528892
-70,31768382
-76,93951962
-59,81087692
-43,18183618
-40,80247769
-50,67288151
-67,79312746
-94,91329505
-82,03346345
121,3462885
594,9758826
1092,605241
1150,734286
620,1129405
-24,75887108
-234,3812246
-116,0041951
-84,87785684
-146,5022833
-133,1275471
-95,50372027
-97,63087377
-101,5090777
-95,63840128
-89,51891267
-75,90067904
-65,03376652
-65,66824013
-59,05416378
-40,69160019
-27,83061091
-23,97125623
-25,11359521
-27,75768558
-23,40358376
-22,55134479
-46,45102232
-75,10266859
-68,50633438
-33,41206898
-8,319920173
-4,729934212
-6,642155779
-12,05662797
-29,72339227
-41,14248851
-30,56395488
-27,98782788
-43,6641423
-37,59293122
-17,02422594
-29,70805604
-57,3944493
-59,8334317
-52,7750274
-60,71925876
-76,66614626
-80,36570855
-69,0679624
-65,77292272
-72,98060251
-69,94101288
-67,40416303
-78,37006026
-85,33870993
-87,31011548
-92,03427844
-81,26119836
-51,99087291
-37,97329777
-53,70846671
-72,69637155
-72,68700217
-60,43034651
-53,67639058
-53,67511845
-52,92651227
-62,93055227
-75,68721674
19,30351793
381,0416772
947,5272886
1304,510381
1046,990986
318,4691373
-233,3051315
-265,0817832
-123,610779
-126,1420788
-151,4256402
-110,9614194
-89,2493705
-90,5394461
-77,58159694
-67,62577205
-65,6719188
-57,21998284
-47,76990817
-40,57163718
-29,1251106
-18,1802676
-12,73704576
-4,295381135
9,894791754
16,08353988
6,770931662
-11,54296301
-33,35807287
-51,17432523
-54,49164611
-40,05996015
-13,37919073
6,800740011
3,229911183
-12,59159693
-23,16370289
-34,48632413
-53,30937702
-71,88277687
-84,45643799
-86,28027372
-72,10419648
-56,17811779
-58,00194832
-65,07559795
-57,14897578
-49,47199018
-56,54454887
-56,11655891
-35,93792678
-17,75855842
-15,57835924
-23,39723424
-37,21508798
-52,03182468
-59,59734824
-60,91156229
-63,97437025
-73,53567538
-82,59538082
-78,65338962
-62,95960485
-43,26392959
-22,56626699
-15,61652037
-33,4145932
-54,4603892
-57,50381238
-51,79476708
-47,08315804
-43,86889042
-49,15186989
-64,43200266
-65,95919553
49,51664404
427,9956079
982,7277872
1277,213272
948,4521523
224,1945162
-251,8095487
-242,5599556
-134,556619
-177,0494546
-204,038379
-139,7733101
-100,754167
-104,7308703
-90,45334166
-69,67150436
-67,63528301
-64,09460372
-59,79939415
-70,99958353
-76,19510272
-55,63588425
-25,32186236
-3,252973058
4,320845857
-4,100345266
-18,76648797
-30,92752571
-46,08340393
-61,73407008
-62,87947366
-51,26956626
-43,65430158
-44,03363553
-48,90752618
-53,27593385
-38,63882116
-15,24615301
-25,34789665
-61,94402172
-82,78450024
-79,86930671
-73,19841806
-73,77181374
-64,58947573
-43,65138855
-51,20753932
-83,50791773
-82,55251614
-52,09132954
-48,37435561
-71,65159469
-74,92304988
-53,18872699
-44,69863456
-42,20278392
-13,45118918
1,056132783
-30,18083773
-58,66212323
-65,88774903
-62,60774329
-42,822137
-36,28096397
-41,73426086
-2,432067185
44,62557473
23,6886197
-15,74298028
-6,419276042
11,65967876
-2,006172335
-17,91688859
-11,32253206
4,776832454
2,631137361
-7,259687646
97,1042844
452,9729778
971,3463141
1287,474212
1053,356589
383,9933569
-135,1155716
-191,4702884
-102,8208874
-123,6674647
-134,7601193
-98,59895213
-89,93406677
-87,01556899
-82,59356684
-98,1681706
-94,73949268
-59,80764767
-47,12275219
-63,1849249
-57,99428645
-31,05095938
-19,85506811
-23,40673886
-25,45609962
-29,75328006
-33,0484115
-32,09162681
-42,1330604
-54,42284813
-43,21112723
-27,99803629
-31,78371514
-29,5683048
-15,85194745
-20,63478631
-40,66696561
-51,19863051
-57,22992702
-71,51100196
-86,54200286
-94,57307791
-87,6043759
-57,63604611
-30,16823827
-33,4511025
-45,73478921
-41,76944904
-38,30523279
-40,84229137
-27,13077569
-20,42083661
-44,96262488
-42,25629104
1,948014603
6,15014211
-31,90005807
-42,45273503
-34,2580373
-41,0661128
-39,87710879
-24,94117177
-27,00844742
-39,82908055
-30,40321503
-1,480993697
13,43744168
-0,148049522
-21,48760673
-27,83136808
-23,92947041
-21,28204914
-17,88923824
-12,50117018
-9,617975846
-21,23978451
-36,36672374
55,25108062
396,1135045
917,2204258
1258,071724
1054,417281
387,7569804
-167,4092923
-246,081649
-142,2602
-166,6950531
-208,3863139
-174,5840859
-150,53847
-155,7495651
-159,7174675
-165,692271
-163,1740672
-144,662945
-129,158991
-111,912289
-87,92292035
-86,44096392
-101,4664958
-90,24958954
-62,54031598
-61,5887433
-80,144937
-80,70895988
-66,78087202
-70,36073078
-90,6985908
-97,54450396
-84,64851941
-78,01068358
-93,13104014
-118,00963
-137,3964914
-137,7916597
-109,1951678
-78,85704565
-81,77732058
-97,95601724
-95,39315762
-77,08876103
-59,29284415
-56,25542106
-64,22650321
-64,20609953
-55,19421635
-51,69085752
-52,19602439
-41,20971584
-19,73192834
-7,512655942
-11,30189035
-21,34962092
-31,90583475
-37,72051666
-36,04364925
-33,87521297
-28,71518611
-12,81354488
-3,170263421
-15,0353139
-24,15866648
-8,790289438
6,569850839
-6,828210208
-34,98443536
-48,64878566
-41,07122047
-28,50169749
-28,94017287
-34,38660117
-32,84093547
-45,30312742
-43,02312724
134,2491162
601,0136553
1146,770544
1295,519836
803,7615894
68,24585981
-278,5272941
-199,307813
-127,8456368
-171,1407043
-166,4429533
-135,2523212
-134,568744
-119,6421576
-99,22249655
-101,5596952
-94,15368707
-66,50440512
-45,86178176
-33,97574891
-22,346238
-19,72318002
-23,85650558
-17,4961449
-3,142027882
4,455915867
6,047757011
0,133566448
-17,53658472
-32,46262521
-31,64448359
-21,33208832
-16,27536775
-23,22425016
-29,67866379
-27,13853683
-27,60379749
-35,32437398
-42,55019455
-45,03118749
-37,01728116
-21,508404
-16,00448453
-21,50545141
-20,76123337
-14,7717593
-14,2869582
-11,05675924
1,418908301
11,89011496
14,85693115
13,5694271
10,02767289
10,73173847
10,18169361
-7,872392063
-26,68044907
-18,74240805
-3,808199813
-9,627755255
-23,7010054
-34,77788139
-40,10831443
-20,44223581
12,47042309
17,87973088
1,285756118
-6,061432649
-6,661766865
-11,51517795
-19,37159727
-31,73095614
-39,34318577
-36,95821726
-39,32598156
12,30359054
276,4305684
781,5550217
1222,42702
1157,296634
528,6639341
-109,7210094
-251,6081251
-119,2473416
-117,1385867
-174,7817882
-149,4268731
-124,5737679
-127,4723987
-110,122691
-93,0245695
-89,92795841
-76,08278121
-59,98896069
-56,89641886
-48,30507699
-30,71485551
-22,87567403
-18,7874513
-6,200105145
1,636447508
-3,777709299
-13,44249054
-26,35781019
-43,52358118
-53,93971539
-49,85612361
-34,77271553
-21,9393997
-28,60608353
-50,02267327
-65,18907398
-71,6051895
-74,52092248
-71,68617432
-70,10084519
-75,01483399
-77,42803836
-76,84035467
-79,25167802
-81,66190222
-81,82091979
-81,97862198
-81,38489872
-77,0396387
-71,44272929
-72,09405663
-75,99350556
-70,64095968
-59,03630135
-59,17941168
-72,82017059
-83,2084568
-88,59414784
-98,22712008
-104,8572488
-100,7344081
-89,35847104
-76,72930965
-76,09679491
-91,21079681
-104,0711844
-107,1778258
-107,7805882
-99,87933807
-82,72394101
-76,31426184
-88,90016473
-85,23151313
53,44183008
457,3700026
995,3031426
1209,991389
785,6848804
44,88375654
-348,1618429
-258,701778
-129,7359087
-158,2640947
-176,2861959
-150,8020719
-152,3115827
-143,8145883
-105,3109489
-83,05052501
-78,78317763
-71,50876807
-65,22715819
-54,43821045
-33,64178795
-13,58775455
-0,025974908
6,293685421
7,12135991
8,957180982
9,551279933
0,653786849
-14,23516947
-27,86546161
-38,98696359
-42,34955097
-33,70310093
-23,04749235
-20,88260588
-25,45832405
-31,27453132
-34,08111419
-36,12796128
-46,66496337
-62,69201355
-64,70900725
-46,21584235
-26,71241924
-19,6986409
-13,67441301
-0,63964401
6,905754844
2,461869367
-0,221217618
6,356573647
17,44531978
27,04509417
13,40596694
-34,72199517
-76,83872883
-72,69417425
-46,03827515
-51,12097893
-88,94223667
-97,25200321
-57,05023722
-27,58690125
-34,36196177
-42,62538929
-40,62715832
-41,36724752
-44,09563966
-44,81232173
-43,51728498
-45,21052492
-52,89204142
-11,31183869
213,2800746
675,6336854
1131,748976
1142,125925
580,5145048
-71,58531505
-276,9235705
-148,7503018
-96,31555387
-138,8693763
-126,6618234
-96,44295384
-93,71283123
-90,4715237
-87,96910409
-90,20564987
-78,93124318
-56,14597079
-39,34992411
-34,54319919
-35,47589665
-31,14812174
-15,05998422
9,038401548
28,89691673
31,26543799
12,89383755
-14,21801679
-31,07026162
-31,91303785
-26,4964907
-17,57076962
-5,636028269
-7,442424463
-26,2401201
-36,77928112
-35,31007743
-40,33268288
-47,59727513
-44,10403566
-36,35314965
-36,34480591
-33,57919684
-12,05651832
10,47303036
8,759246589
-7,198075507
-15,14914495
-15,09417383
-17,03337723
-17,7169731
-11,6451822
-5,068227962
-1,48633644
1,600263836
1,691341942
-4,213335333
-15,61400338
-25,26089966
-19,15426358
0,205663574
9,818638812
4,184417511
1,552753549
5,173399419
3,546106351
-2,329375571
-5,953297282
-5,325910618
-5,447468188
-12,31822325
41,31157042
312,6916586
813,821787
1198,951701
1033,831146
369,9598669
-190,4123896
-264,5358777
-145,6608507
-155,2875613
-195,1662614
-166,047202
-144,1806331
-143,5668035
-127,7059606
-116,0983506
-119,2442179
-112,1438054
-93,54735408
-80,95510296
-72,11728905
-57,28414715
-40,9559097
-26,13280673
-10,81506568
-1,752911303
-1,696565539
-5,396247398
-15,35217284
-32,06455467
-41,2836024
-35,00952216
-21,4925166
-13,23278473
-17,23052188
-25,73591954
-27,49916528
-26,52044268
-31,79993118
-43,58780602
-57,63423815
-67,43939411
-67,50343597
-60,32652124
-54,40880281
-56,25042881
-64,35154259
-72,21228265
-80,33278253
-91,46317075
-98,6035708
-97,254101
-93,91487451
-95,83599923
-100,2675778
-96,7097074
-88,41248001
-91,37598204
-96,85029449
-81,08549283
-59,33164702
-63,83882144
-83,1070749
-87,63646058
-79,92702606
-73,97881325
-72,04185843
-75,3661922
-86,9518395
-110,7988196
-112,6571461
40,22317297
470,0921354
1020,199745
1238,796009
825,1309444
87,95456981
-319,7330886
-254,9319997
-153,3921267
-201,3634274
-220,595854
-186,3393537
-185,5938679
-186,1093332
-153,8856805
-129,6728357
-133,4707196
-135,529248
-116,3483314
-96,42787565
-89,76778154
-73,61794514
-41,97825774
-27,84860599
-43,22887194
-57,36893316
-51,5186628
-44,92792968
-53,34659835
-65,02452925
-67,21157875
-64,90759924
-62,61243926
-55,57594358
-47,04795331
-41,778306
-34,51683574
-28,76337326
-33,01774607
-40,52977855
-41,54929204
-34,07610498
-21,11003305
-9,900889213
-4,698483897
-2,502625082
3,936881571
14,6202326
14,29762664
-1,780735739
-12,86465211
-10,20391835
-7,048328713
-9,647676017
-16,50175172
-20,61034606
-7,723248189
20,40975373
38,78887236
32,41432111
15,78631397
9,405065417
9,020790271
0,633703587
-5,255979475
2,851956231
1,707725712
-30,93845628
-27,58637537
183,0141823
674,1134301
1181,21158
1242,808845
710,9054346
34,7515588
-228,9025738
-130,8067562
-77,96078251
-130,8644485
-148,0175517
-154,419891
-176,5712675
-162,971484
-127,6203455
-110,517659
-97,66323376
-77,05688145
-65,4484161
-68,33765426
-74,47441511
-70,60852052
-50,73979512
-31,11806645
-35,74316496
-57,86492418
-70,23318072
-69,34777438
-72,20854825
-78,06534875
-68,91802571
-48,01643243
-39,61042578
-44,94986623
-50,28461792
-55,36454875
-54,43953038
-46,25943837
-44,32415213
-40,38355508
-22,68753461
-10,73598219
-14,27879336
-14,06586784
-5,847109499
-3,122426442
-8,891731026
-21,1549399
-33,41197403
-37,41275872
-41,90722366
-49,39530294
-43,12693505
-28,10206293
-25,82063396
-34,03259999
-39,48791735
-39,68654684
-35,37845377
-25,81360791
-18,49198356
-25,91355948
-39,32831893
-37,48624966
-24,88734386
-22,28159821
-40,16901381
-51,04959619
76,0766447
482,2096945
1010,599535
1194,996142
774,6494893
98,30954495
-240,7737269
-166,8503662
-83,92041719
-128,2339282
-135,5409515
-108,8415435
-126,3857647
-139,4236793
-116,7053555
-103,7308654
-109,7502846
-101,7636926
-77,02117262
-55,02281125
-44,0186987
-49,25892864
-64,49359806
-67,22280731
-53,94665993
-39,91526264
-33,12872523
-42,08716049
-68,54068415
-90,73941476
-93,68347364
-85,37298477
-68,55807473
-47,2388726
-41,66550987
-51,33812033
-51,25684003
-42,42180713
-44,08316184
-49,74104633
-47,14560459
-40,0469824
-28,44532716
-16,34078784
-16,73351486
-27,62365999
-34,51137625
-30,64681781
-22,28013988
-19,1614986
-19,79105095
-20,91895463
-27,04536796
-31,17044978
-24,04435932
-10,41725611
5,960700138
16,83934963
9,718532595
-5,151910573
-8,022139244
-0,142312424
10,23741136
21,36687415
25,2459187
6,124388547
-32,74787184
-0,621016988
269,0047997
777,1294262
1171,002712
1029,374506
408,4946632
-116,3869643
-180,2705204
-62,15614747
-71,543986
-112,4341743
-91,32684849
-82,22214242
-90,62018751
-79,77111269
-69,42504427
-69,33210588
-65,49241834
-62,40609958
-63,07326454
-57,99402511
-48,66848998
-42,59676461
-40,77895112
-42,46514818
-45,40545098
-48,34995112
-61,04873652
-89,00189139
-112,4594961
-112,9216271
-98,63835701
-81,8597543
-64,8358834
-53,31680461
-53,80257402
-61,54324344
-67,03886041
-68,28946806
-65,29510513
-56,80580591
-49,57160019
-51,59251322
-58,86856568
-61,14977365
-58,18614856
-57,72769719
-59,02442165
-59,07631933
-62,6333829
-66,69560029
-65,01295469
-70,83542455
-91,41298354
-100,2456006
-77,83323984
-46,42586073
-37,52341792
-49,87586135
-60,23313625
-59,59518316
-54,96193793
-51,83333178
-50,95929129
-53,33973847
-70,47459076
-108,8637611
-97,00715798
121,8453146
588,193757
1024,788274
1009,878974
469,9659711
-110,4506181
-256,6206719
-123,0440648
-88,22066753
-140,1503467
-137,5829652
-119,7683822
-119,7064532
-103,39703
-79,58996123
-72,28509182
-75,73226353
-80,1813149
-81,88208136
-74,83439531
-58,03808625
-44,9929809
-45,69890324
-49,90567469
-50,11311418
-56,57103829
-79,02926135
-105,9875955
-114,6958511
-103,9038362
-89,61135755
-77,56821994
-63,27422679
-48,97918011
-47,43288066
-62,63512807
-77,83572099
-80,03445723
-78,73113386
-77,6755474
-69,11749391
-59,55676914
-53,74316871
-46,17648816
-42,10652321
-45,0330698
-45,20592427
-39,62488352
-33,03974513
-30,45030749
-39,85636998
-57,25773307
-66,9041985
-60,29556939
-37,6816504
-16,56224787
-22,43716994
-46,30622672
-58,16923038
-60,52599536
-68,37633844
-66,72007888
-48,05703861
-43,38704229
-76,2099175
-115,2754948
-45,08360796
272,615906
771,5732068
1081,03845
846,7617892
219,7433721
-208,5166562
-185,7681549
-65,26098716
-87,24502038
-115,4701263
-91,93618104
-84,89306518
-80,59066394
-58,52886719
-41,95756957
-29,12667058
-11,53607466
3,064308723
15,92456503
31,79477455
41,17501233
37,06534812
36,4658463
45,37656585
39,54756026
19,47887749
7,67055995
-2,377355593
-18,66483802
-20,94186189
-0,708407496
18,53553911
21,2899861
19,55493588
23,33038501
28,36632423
31,66273848
32,21960682
23,5369025
6,614592944
-0,297360271
11,30099863
25,15961964
32,77844695
37,15741901
31,29646855
25,1955226
40,85450253
60,02332411
52,45189751
30,39012739
19,33791293
20,29514789
20,76172065
14,48751432
5,72240676
-3,283729344
-14,78102639
-25,51962178
-32,99965788
-36,97128189
-36,93464577
-48,63990617
-86,58722432
-95,52676594
68,04129886
491,6167957
988,199546
1127,539367
687,1360723
45,73947124
-226,6506303
-134,5344302
-79,16212973
-135,2839336
-138,9000499
-106,7606896
-107,6160668
-105,7163984
-87,31190428
-78,40280663
-71,73933025
-58,32170227
-49,65015201
-44,22491085
-34,04621209
-27,36429082
-30,92938379
-36,74172922
-40,05156672
-44,8591371
-53,41468225
-63,718445
-74,27066896
-85,82159841
-88,37147812
-69,92055321
-47,96906907
-42,26727111
-41,56540473
-41,1137151
-51,41244707
-61,961845
-60,01215263
-59,06361297
-67,86646813
-74,42095918
-74,72732607
-77,03580745
-78,34664054
-73,16006105
-70,726303
-74,54559861
-79,11817819
-87,69427003
-99,77410023
-103,3578926
-94,94586871
-78,0382474
-56,38524504
-46,98707527
-59,09394888
-76,70607373
-88,82365467
-98,94689341
-105,8259884
-102,4611349
-95,10252464
-113,0003458
-150,1547832
-77,81601788
267,015773
801,5904159
1116,907741
852,9675832
186,5197805
-268,6858244
-255,8993851
-143,6210505
-176,1009655
-199,3392707
-161,0861022
-152,0915918
-155,1058668
-135,6290499
-120,6612594
-113,452609
-99,50320768
-85,81315995
-72,13256556
-51,7115196
-35,80011247
-33,39842986
-35,50655273
-36,1245573
-40,25251505
-50,39049273
-62,03855234
-68,94675112
-69,11514159
-61,04377154
-45,48268405
-36,43191748
-39,64150553
-39,3614772
-35,09185689
-38,83266435
-44,58391476
-48,34561873
-53,86778234
-52,90040721
-39,69349047
-27,49702486
-24,31099875
-18,13539618
-6,470196919
-1,815376514
-4,420906326
-13,5367536
-35,41288152
-49,04924925
-30,69581202
-2,852521158
9,730675826
17,55383518
15,86701686
-15,32971558
-49,286295
-49,25265078
-33,47870889
-30,71439196
-34,95961935
-46,96430722
-81,72836863
-75,50171357
127,2157509
580,6741206
1050,123494
1112,563973
598,7456611
-51,58133509
-266,1669064
-139,2609416
-101,6133267
-151,473946
-130,3426812
-121,2194122
-160,6040169
-152,2463713
-96,6463495
-65,303824
-64,21866561
-61,8907436
-57,81992576
-57,25607851
-48,44906697
-33,89875504
-21,60500549
-12,31768004
-22,78663944
-50,51174356
-58,74285148
-52,47982152
-61,4725114
-62,97077825
-44,72447872
-37,73346907
-26,99760521
6,733257183
14,20926262
-18,31944429
-33,60271891
-22,89041664
-15,43239302
-6,228503744
-11,27860479
-37,83255244
-24,89020338
19,29858524
10,73395578
-22,58395001
-15,90499104
-18,72902689
-44,80591793
-16,63552534
36,2822888
23,69766149
-8,88927125
4,771625548
11,68048577
-22,66255784
-43,00737372
-19,85383154
9,54819777
5,698841948
-23,90177261
-49,75352092
-74,1062794
-70,70992597
111,68566
577,0805975
1088,475004
1192,868996
724,2626868
70,40618969
-221,2003845
-124,0569263
-44,4133284
-105,5194848
-140,3752913
-133,7306457
-130,8354473
-101,1895973
-69,79299888
-74,89555668
-89,4971774
-92,09776948
-85,69724321
-70,29551071
-53,39248594
-46,2380847
-50,8322246
-55,17482514
-49,51580762
-55,35509517
-82,44261277
-103,7782872
-116,3620471
-122,6938229
-99,52354682
-63,10115284
-52,67657678
-57,99975621
-52,82063048
-40,88914065
-41,20522953
-59,76884167
-71,0799233
-52,63842234
-30,94428839
-32,49747271
-37,29792818
-33,84560933
-33,39047227
-32,68247469
-35,47157585
-50,75773656
-59,04091913
-49,82108739
-46,34820665
-50,62224366
-39,89316662
-23,91094513
-28,6755502
-47,18695418
-58,19513077
-60,20005502
-62,20170322
-60,70005298
-48,94508313
-49,43677373
-89,92510603
-117,1600625
32,85837338
479,6302168
1031,405482
1216,184182
780,9663294
94,25193457
-238,7089921
-168,4164415
-108,3704056
-165,0708772
-165,0178499
-121,9613182
-120,1512776
-127,0877244
-117,0206556
-107,2000689
-95,87596302
-79,04833723
-66,21719156
-56,63252673
-44,54434414
-36,7026458
-38,1074344
-42,00871321
-39,65648609
-28,05075748
-20,19153235
-32,07881622
-53,71261514
-65,84293563
-62,71978471
-45,84316986
-27,96309903
-24,07958058
-34,44262333
-49,05223647
-54,15842964
-47,51121283
-43,11059643
-42,45659117
-39,04920817
-43,63845889
-57,72435511
-63,80690897
-61,38613293
-60,96203975
-58,03464254
-48,10395469
-40,16998991
-42,2327622
-52,79228589
-66,34857557
-70,15164614
-59,20151281
-55,99819105
-69,79169666
-77,08204571
-71,11925457
-61,40333992
-44,43431872
-29,96220826
-38,48702609
-69,25879012
-109,0275185
-93,79322988
133,944057
637,934323
1123,927549
1114,923714
534,9227988
-82,07521734
-242,0703553
-118,5626365
-98,80208244
-158,0387152
-150,2725571
-128,2536311
-132,4819603
-126,9575684
-111,9304794
-90,90071784
-62,61830858
-57,08327703
-79,04564902
-85,75545088
-55,71270938
-21,16745181
-16,36970594
-24,81950006
-24,01686297
-29,46182402
-42,90441306
-45,84466052
-45,78259739
-50,71825519
-47,65166607
-37,83286273
-30,51187846
-18,1887472
-11,11350345
-34,03618236
-59,70681972
-50,62545194
-35,7921161
-44,7068499
-57,61969173
-56,53068066
-44,68985641
-33,34725938
-31,5029307
-36,65691215
-41,05924623
-42,70997614
-46,10914579
-53,75679979
-54,65298349
-39,29774292
-26,44112486
-27,08317679
-19,22394692
-9,86348417
-23,75183818
-35,88905931
-30,77519863
-39,66030792
-59,54443967
-56,92764706
-47,05998398
-71,69150501
-87,32226538
78,54767896
537,1682714
1061,539455
1186,911171
722,033362
67,40596817
-215,47107
-127,597813
-70,22432151
-128,6006572
-137,2268819
-104,8530582
-104,2292492
-104,6055184
-85,23192967
-69,10854751
-56,48543672
-47,61266255
-58,24029059
-67,3683868
-39,99701743
-0,376249058
11,9938515
11,86321716
23,98178066
26,59947453
-17,53376883
-76,66801717
-80,80333829
-50,68980009
-37,32747045
-18,96641729
4,893291552
5,50158829
2,358405255
-2,28632508
-25,68267006
-45,08069681
-56,48047222
-67,13206287
-51,28553502
-17,94095459
-5,848387072
-11,75789753
-20,66955056
-42,83341023
-67,99954007
-58,41800301
-23,33886136
-8,26217676
-18,68801013
-50,36642167
-92,04747077
-93,231216
-56,91771509
-32,35702485
-18,29920115
-15,24429888
-39,19237192
-66,3934731
-76,34765414
-72,30496563
-61,76545699
-81,22917645
-145,696171
-149,1664862
86,35983337
606,1327449
1144,402207
1242,918178
732,1806215
44,18949869
-253,0552257
-178,5535859
-130,0556143
-175,561342
-172,3207981
-156,3340101
-161,851004
-135,8718039
-106,1464319
-109,9249085
-109,9572526
-92,74348068
-82,2836078
-78,3276469
-70,37560901
-59,67750324
-46,48333666
-34,54311438
-34,60683949
-41,92451301
-45,49613393
-54,32169915
-72,15120351
-80,23463972
-69,32199839
-47,16326801
-17,00843492
10,14251666
0,539604686
-45,31715076
-73,1777274
-65,04210083
-50,16024446
-35,78212952
-18,4077251
-14,2869981
-28,41991329
-40,55643326
-40,69651845
-36,84012717
-33,98721558
-31,63773772
-28,54164553
-29,19888884
-39,35941539
-50,02317084
-56,19009883
-67,11014092
-73,03323668
-59,20932367
-43,1383375
-40,82021178
-41,00487825
-44,4422667
-60,38230506
-70,57491942
-68,52003405
-74,96757142
-77,91745225
-64,36959553
-74,57391857
-92,280337
42,51123514
466,3008854
1022,088703
1251,624778
841,9092037
115,1920725
-268,7765204
-194,7464786
-101,4677047
-150,6900998
-164,163564
-128,1379961
-127,8632937
-136,3393535
-129,0660711
-128,2933412
-120,2710575
-88,99911277
-65,22739911
-65,20580775
-63,18422924
-47,66255346
-33,89066968
-29,36846663
-32,59583253
-39,82265517
-40,54882193
-35,2742199
-38,49873588
-52,22225646
-59,69466807
-48,91585705
-31,13570973
-22,35411242
-18,32095155
-13,78611368
-15,74948557
-21,71095426
-27,92040711
-39,12773186
-47,83281671
-42,03555037
-26,48582212
-16,93352186
-23,62854019
-34,82076848
-26,26009889
-2,696424483
2,370360763
-22,55963814
-49,48631723
-50,40957366
-35,57930578
-31,99541314
-45,40779662
-63,31635844
-69,72100221
-60,87163303
-48,76815751
-33,41048386
-13,29852189
-9,93218313
-28,06138083
-46,43603004
-53,55604766
-49,42135249
-42,28186527
-40,38750873
-42,98820766
-59,58388892
-83,92448154
-13,75991671
308,9098722
854,0849494
1236,765377
1025,451215
341,3925194
-163,4106537
-180,4582523
-75,50022651
-121,5365291
-177,8171151
-163,8419426
-145,1109718
-124,124166
-93,13149082
-74,63291483
-61,87840925
-50,36794803
-56,35150795
-70,07906854
-70,55061216
-51,76612402
-18,97559216
-0,679007469
-9,37636374
-18,06765763
-25,25288871
-46,43205945
-60,85517521
-51,5222443
-36,18327793
-29,83829025
-28,98729833
-24,63032216
-11,76738466
-4,398511672
-19,52373195
-38,39307716
-32,25658188
-19,11428357
-29,21622258
-43,81244213
-40,15298831
-33,98791005
-33,0672591
-25,39109003
-15,4594602
-15,27242975
-19,83006156
-20,38242125
-18,67957713
-18,97160021
-23,50856412
-30,29054515
-30,06762215
-25,83987654
-31,60739229
-43,62025583
-51,87855607
-52,13238435
-36,63183437
-16,37700221
-19,36798622
-40,60488704
-50,58780752
-45,81685269
-38,7921297
-33,2637478
-30,23181827
-31,69645437
-46,90777132
-71,86588619
-14,32091793
289,7270128
828,2777835
1222,33127
1036,887347
366,4458866
-167,7432395
-222,6801617
-112,6150115
-126,0479218
-153,4790269
-128,408462
-127,5863636
-127,2628693
-91,43811755
-72,61224791
-84,7854007
-87,45771706
-78,37933888
-70,30040871
-58,97106972
-48,14146558
-36,31174044
-25,23203886
-29,15250572
-34,32328614
-24,24452546
-23,16636912
-44,08896261
-61,26245143
-61,93698095
-54,86269643
-45,03974287
-40,218265
-45,89840718
-53,83031334
-57,76412691
-58,69999076
-57,13804713
-55,57843755
-56,02130279
-53,9667828
-46,91501662
-41,11614232
-39,57029696
-36,27761649
-25,73823574
-10,45228829
-1,669906443
-7,141221186
-17,11636208
-20,09545725
-23,57863328
-35,31601518
-44,05772633
-39,80388842
-33,05462139
-35,81004337
-45,32027063
-55,83541756
-55,85559655
-36,130918
-20,91149022
-33,69741945
-52,48880972
-55,28576289
-51,33837854
-47,39675396
-40,46098409
-36,03116149
-45,35737629
-70,18971613
-52,77826617
158,626891
643,2756754
1149,41801
1203,553819
654,6830312
-13,9444228
-243,3286096
-133,219593
-98,61743395
-159,2721906
-159,4339182
-144,1026691
-156,0284927
-144,2114356
-117,9015413
-111,3488504
-107,8034005
-94,76522606
-83,73435872
-74,96082696
-61,94465623
-52,43586894
-55,18448441
-60,44051888
-56,70398552
-53,72489443
-64,75325258
-82,2890639
-94,58232919
-98,88304618
-89,19120954
-68,75681082
-62,32983853
-73,66027812
-71,74811197
-53,34331944
-48,19587685
-58,30575751
-64,17293175
-63,29736691
-60,67902736
-53,81787456
-44,46386704
-39,11696042
-35,0271075
-27,94425818
-23,3683596
-23,04935609
-19,48718922
-13,93179786
-13,88311818
-15,34108369
-12,05562529
-8,026671294
-8,254147466
-15,73797707
-30,9780809
-43,97437732
-46,22678233
-43,48520955
-36,49957035
-19,26977381
-9,295726817
-24,0773341
-41,86449826
-43,40711985
-37,7050974
-28,50832746
-19,81670468
-21,13012183
-27,44846987
-38,77163798
-43,84951365
65,31801731
438,4810707
991,1397638
1288,794215
953,4445461
223,5908772
-229,0166681
-197,3779655
-99,49288961
-150,1113136
-174,4831098
-134,1081493
-124,9863022
-131,3674378
-118,0014244
-107,8881294
-113,7774196
-116,669161
-99,06321891
-76,95945808
-72,85774271
-68,25793651
-52,15990277
-46,5635044
-44,718604
-37,3750639
-45,78274625
-58,19151306
-52,85122622
-54,01174764
-64,42293922
-49,58466297
-20,74678102
-16,40915573
-30,07164968
-35,23412578
-33,39644731
-37,55847797
-42,22008191
-35,88112386
-25,29146909
-21,95098355
-20,35953384
-11,51698736
-4,673212276
-12,07807761
-21,7314533
-14,63321023
4,466779702
14,81864353
5,922507204
-8,971504509
-14,86326804
-20,00266106
-26,38956256
-20,77385287
-12,65541374
-18,53412831
-31,15988125
-40,03255875
-36,65204855
-13,26824003
6,368975789
-7,240293818
-33,09594331
-35,44786892
-23,04596869
-22,89014252
-32,98029219
-38,06632141
-41,39813584
-54,47564313
-61,54875295
31,38262298
366,5685708
893,0091747
1213,704517
940,1546761
242,859731
-237,4302434
-228,4651741
-115,7449902
-163,269623
-203,0390064
-158,8030765
-138,3117717
-153,3150327
-152,3128028
-137,3050275
-128,5416549
-125,2726353
-112,4979216
-82,71746919
-57,43123578
-57,63918166
-63,34126956
-50,78746471
-34,72773485
-30,1620502
-27,84038352
-32,01271005
-50,67900758
-62,33925639
-54,24343929
-41,14154163
-33,28355124
-33,4194585
-36,04925629
-34,92294001
-43,04050756
-60,40195935
-67,75729827
-68,85652972
-63,94966156
-34,03670413
-4,367670221
-19,94257509
-45,01143642
-19,57427432
20,3688887
11,31802772
-25,47688456
-31,51587777
-11,54898392
-16,32623734
-37,09767465
-22,11333476
10,87674115
13,37250967
2,123925162
2,130939811
-3,606496373
-11,33843552
2,685068142
23,21395828
13,24817654
-23,71233749
-42,4176462
-30,86781391
-24,56290691
-28,00299335
-15,18814324
-9,11842841
-43,29392248
-77,9647008
-64,88084042
28,45757992
303,3004799
792,6477776
1195,249389
1045,355231
355,4652147
-220,6707462
-260,0527412
-111,6808609
-133,0551969
-183,6758422
-150,292891
-139,4064386
-161,2665812
-153,8734163
-127,9770421
-111,8275579
-102,1750639
-89,7696608
-79,11145044
-67,45053517
-53,78701803
-48,12100267
-38,70259328
-23,78189452
-22,60901154
-24,43404981
-20,50711518
-27,07831375
-43,89775184
-58,71553592
-56,03177259
-23,0965685
16,58996973
16,7777355
-27,03337765
-59,34347602
-45,1526657
-25,21105248
-37,01874184
-49,07583886
-28,38244819
0,811326023
6,00538016
-10,55038878
-25,60608317
-20,66180465
-2,967654127
4,976268305
-3,330136592
-7,886967147
7,555679266
22,24770628
-1,810981414
-54,87047803
-63,68087661
-12,99226904
5,445254089
-29,61839656
-36,68330898
-9,249569784
-5,067264159
-21,88647583
-22,20728702
-14,2797784
-26,85402905
-42,93011643
-39,00811631
-31,58810279
-35,17014821
-53,75432313
-95,84069629
-98,42933461
108,2296969
593,3863351
1093,540519
1159,442189
632,5912882
-54,01223853
-317,6184444
-196,7273803
-136,0890954
-192,4536362
-180,0710474
-148,9413716
-173,8146489
-178,4409173
-148,8202128
-134,2025688
-112,5880166
-76,22658533
-73,61830165
-96,26319002
-93,16127255
-68,81256907
-62,96709707
-78,3748717
-72,0359058
-24,70020987
5,132207924
-24,53865824
-60,96281186
-71,14025411
-80,57098384
-79,25499756
-55,1922895
-38,88285158
-29,57667342
-11,02374238
-14,47404354
-43,17755973
-59,13427155
-65,8441574
-62,80719346
-26,77335375
6,257389879
-2,964932301
-21,44028791
-25,16864248
-35,3999595
-52,88420041
-46,87132467
-12,36128977
9,645948744
-7,099562774
-39,8477761
-53,34864117
-32,10210612
-12,60811733
-38,61661945
-65,87755545
-44,14086663
-14,40649271
-11,42437183
-20,69444061
-43,21663418
-68,74088625
-68,26712913
-56,79529377
-54,32530982
-43,60710569
-37,14060857
-71,42574447
-83,2124383
98,99938609
551,9598059
1061,668899
1181,376745
673,5834238
-35,21098435
-294,7563976
-152,3027337
-102,5999097
-187,1478421
-190,4464467
-160,245639
-158,0453337
-127,8454454
-101,8958881
-111,4465756
-103,4974215
-79,04833901
-77,5992413
-72,90004139
-41,45065224
-22,75098679
-31,30095803
-32,60047903
-19,39946301
-8,44782336
-1,745473713
-1,792327994
-11,33830045
-25,13330574
-32,42725891
-16,72007551
8,738328369
6,198036093
-14,84086961
-16,37830667
-2,414193724
2,051549822
-6,980996228
-15,76175291
-21,29064217
-32,56758684
-34,34251077
-16,3653388
-4,885996812
-5,404411809
0,079488093
3,315773601
-3,195485787
-6,954221817
-3,460367518
3,286142765
2,035373334
-15,21261289
-34,70775442
-41,94999119
-38,93926464
-27,92551772
-5,158694899
11,86125776
-4,115607391
-30,08923962
-28,80958985
-20,52661067
-27,24025637
-33,70048295
-38,40724817
-49,36051153
-59,06023432
-41,25637963
96,80108763
472,1122007
971,6769911
1169,995488
778,8177199
111,1437118
-233,7765121
-164,44293
-89,85552165
-154,5142691
-188,919156
-179,0701683
-176,2172936
-144,6105216
-105,499844
-102,1352543
-110,7667482
-104,8943231
-85,01797869
-66,13771631
-69,50353948
-82,36545361
-76,97346612
-59,07758635
-34,17782563
-6,774197259
-7,116716466
-38,20540044
-68,79026832
-86,62134117
-84,44864198
-48,02219569
-5,092029118
-2,658171014
-30,22065201
-53,52950463
-66,83476328
-69,38646421
-71,43464555
-83,22934724
-74,52061109
-36,80848068
-21,09300143
-43,87422053
-53,90218695
-26,92695141
-7,948566388
-19,21708608
-20,7325664
-6,495064949
-15,25464101
-38,76135553
-40,01527109
-22,76645189
-17,51496375
-30,01087407
-30,25425179
-7,995167417
8,766307022
6,030098004
-6,703869472
-15,18567186
-18,41538706
-35,64309436
-52,61887446
-34,09280939
-6,81498254
-14,5354786
-51,25438356
-86,97178464
-16,18777031
329,5975698
865,6341447
1136,171863
811,4606302
162,2503534
-223,709063
-199,6677155
-126,6257012
-165,0831184
-171,2900663
-143,9966451
-158,7029556
-158,4090998
-107,8651801
-81,82130009
-111,7775638
-129,2340761
-99,94094247
-72,64826906
-71,10616261
-65,06473043
-45,77408035
-27,2343207
-10,44556026
-5,907908236
-25,62147421
-49,08636811
-53,80270019
-40,27058093
-23,4901211
-25,96143162
-42,68462358
-47,90980818
-43,38709672
-44,36660051
-51,84843087
-57,08269908
-53,31951635
-47,05899375
-45,0512422
-41,54637241
-33,79449486
-25,04571975
-17,05015694
-12,80791593
-13,06910582
-13,83383525
-12,6022124
-11,37434487
-11,65033973
-8,180303406
3,035658325
12,74744039
9,204938459
-5,091951008
-13,39333072
-0,949302516
22,99003269
32,92457495
19,1042253
-3,471114151
-16,05154021
-16,13714855
-12,72803365
-12,07428878
-16,42600592
-33,03327576
-70,6461876
-85,76482935
69,11071251
506,480353
1037,094009
1208,701598
776,0530401
93,14825698
-237,0128284
-157,6802911
-86,60420444
-139,2846398
-145,2216667
-112,4153528
-115,6157638
-120,5729631
-107,5370125
-98,25797137
-91,23589701
-80,47084459
-73,712867
-67,71201493
-51,46833673
-30,98187841
-21,00268364
-21,78079365
-22,81624723
-21,60908069
-26,65932783
-42,21701989
-61,28218554
-71,60485083
-65,18503916
-53,52277128
-54,11806521
-61,47093626
-62,83139699
-57,94945715
-51,57512372
-55,95840083
-72,84928977
-78,74778896
-72,65389393
-77,0675973
-82,73888876
-72,66775508
-59,35418005
-49,54814452
-34,49962634
-23,70860038
-30,42503852
-39,14890962
-35,38017953
-32,11881109
-34,86476413
-33,86799543
-33,37845878
-40,14610492
-40,42088158
-23,95273348
-10,99160233
-19,78742683
-38,34014268
-51,89968259
-58,21597631
-56,7889506
-49,86852929
-44,20463325
-48,79718045
-73,14608596
-92,50126193
7,63738231
367,7699403
905,3965084
1209,517186
912,3820743
202,4912786
-280,4050938
-261,306933
-120,9641263
-136,6265582
-161,0441109
-123,9666639
-115,1440943
-126,0762765
-117,0130827
-108,4543826
-109,4000435
-106,0999305
-92,30390629
-72,01183149
-58,72356444
-55,68896138
-52,40787647
-48,38016187
-47,10566772
-45,33424226
-47,06573186
-55,79998108
-61,03683272
-57,52612788
-53,26770601
-48,26140499
-38,50706119
-33,5045095
-38,75358343
-47,25411515
-56,25593557
-64,00887439
-62,76276019
-57,01742047
-59,77268173
-65,77836955
-60,78430864
-43,04032294
-26,54623565
-24,55186932
-27,05704595
-18,06158701
-3,31531357
2,931953673
-1,069605701
-6,319811912
-8,068485044
-11,56544513
-22,56051223
-34,30350648
-28,04424822
-4,03255801
7,731743248
-6,001165747
-21,73110677
-24,70790216
-24,68137487
-24,15134858
-17,36764775
-9,330097672
-8,538524609
-25,74275581
-58,69261963
-14,13794555
273,4214357
795,985692
1192,80499
1032,879495
374,4593702
-178,2052222
-241,6141218
-113,7671701
-119,4142102
-155,8050874
-129,6896486
-121,8177429
-133,4392215
-118,8039376
-96,66174683
-87,26250688
-84,10607793
-81,94232253
-79,77110568
-80,09229495
-79,90576045
-71,211375
-57,50901409
-48,548556
-47,57988182
-50,85287552
-55,86742404
-66,37341726
-79,87074814
-80,10931272
-61,08901017
-44,3097429
-43,7714165
-44,7239399
-43,16722533
-55,35118842
-72,02574822
-65,69082724
-45,84635148
-42,99225051
-54,62845746
-60,00490911
-56,87154585
-48,47831179
-31,57515475
-16,91202629
-18,23888177
-18,55568034
-2,862384987
2,591037439
-17,69538379
-35,4716233
-37,23765964
-38,4934753
-41,48905673
-39,47439434
-26,69948254
-2,9143197
7,631091768
-9,313254535
-24,99736903
-19,42126616
-10,83496438
-10,73848618
-5,381858058
9,734889464
6,361721861
-32,2513994
-16,85451684
228,552323
732,4690697
1184,645669
1141,082062
541,778187
-86,01602247
-247,8006364
-121,5757286
-97,59137696
-145,5976629
-126,5946716
-105,0824922
-115,5612174
-107,7809435
-92,74177051
-97,44380199
-98,38714508
-87,07191037
-85,99821194
-88,41616728
-75,32589722
-58,97752594
-53,37118084
-51,00699258
-44,38509492
-38,50562478
-41,61872209
-53,47452977
-64,32319368
-63,91486254
-53,49968788
-46,32782396
-47,39942774
-46,96465876
-47,52367913
-61,57665342
-74,87374862
-67,16513405
-56,70098128
-65,2314641
-73,75675839
-60,02704209
-40,54249509
-40,0532992
-48,30963801
-39,81169687
-18,55966276
-10,30372426
-19,54407144
-27,53089575
-30,01439002
-36,74474829
-42,47216577
-41,44683876
-44,91896454
-49,63874131
-30,85636808
3,677955413
14,46402876
-0,748348988
-9,959379257
-4,169263854
1,871795119
2,163595356
7,705934435
19,49860991
7,541419402
-33,91583932
2,126631765
292,418631
832,4599572
1259,75041
1130,039788
472,3278934
-115,8854732
-209,1005095
-80,56741212
-84,78637692
-133,2575984
-108,98127
-92,20758366
-106,93673
-107,6688983
-98,6542759
-93,64304882
-85,38540116
-77,38151524
-81,38157145
-88,88574819
-81,39422178
-65,65716637
-59,9247539
-63,94715398
-68,97453384
-72,75705824
-79,0448894
-91,83818694
-106,6371078
-111,1918062
-101,0024334
-87,06913802
-80,64206552
-81,72135845
-88,80715628
-99,89959532
-107,2488087
-107,3549263
-104,9680748
-103,8383774
-101,2159539
-93,85092065
-83,74339065
-75,1434732
-71,05127407
-70,2168954
-65,89043567
-56,32198964
-49,51164837
-49,95949911
-52,16562533
-50,38010666
-47,6030189
-48,83443394
-49,32441978
-39,32304048
-20,83035618
-10,09642304
-14,62129325
-22,90501501
-28,19763252
-32,99918599
-34,05971158
-28,37924146
-22,20780376
-27,04542259
-52,14211804
-69,74790618
49,38720095
450,5131953
1012,630073
1290,237833
943,8364812
224,6760239
-224,4935266
-199,6721546
-96,85984026
-133,5565601
-156,0122867
-126,2269887
-123,7006311
-128,6831749
-118,9245776
-118,6747927
-119,1837702
-103,9514563
-88,72779383
-84,01272175
-81,80617564
-76,35808756
-67,91838608
-60,48699641
-57,31384036
-56,89883645
-59,24189992
-65,59294281
-71,45187399
-72,06859924
-68,44302127
-62,07503983
-54,2145517
-52,11145082
-60,51562829
-70,67697249
-74,3453691
-75,27070117
-76,95284921
-77,89169124
-77,33710286
-73,03895732
-62,9971256
-52,71147646
-47,68187654
-43,65819039
-35,64028061
-27,62800787
-25,37123099
-24,86980703
-18,3735914
-12,38243785
-18,64619865
-26,91472457
-26,68786504
-26,4654682
-20,49738095
0,216550925
14,42648271
7,13257064
-1,665028127
1,783844364
5,229346807
2,671638546
2,360879501
4,297230083
-4,769148882
-33,58809624
-41,40945057
103,7669497
517,4412662
1051,613661
1275,784295
895,7033302
194,6209278
-208,4627512
-165,5475463
-79,63329719
-127,7198443
-145,5570287
-112,8946919
-108,7326762
-108,570825
-94,65898223
-92,746993
-96,08470338
-87,42196055
-77,00861288
-75,34450997
-74,92950272
-68,26344342
-58,5961858
-50,42758511
-44,50749816
-43,08578339
-49,66230097
-66,23691281
-87,30948264
-99,37987609
-95,94796074
-86,01360614
-82,32668393
-85,63706787
-88,69463385
-89,49926004
-89,30082686
-87,84921705
-85,64431577
-83,18601058
-79,22419154
-73,00875124
-66,53958484
-60,81659011
-55,58966752
-52,85872022
-50,12365412
-42,38437792
-34,14080315
-31,39284421
-31,64041841
-31,88344599
-31,62185015
-30,85555712
-32,83449615
-38,80859955
-41,27780274
-28,74204422
-1,201265665
17,8445881
7,395569057
-18,048274
-30,98689551
-26,67025314
-18,59830783
-16,77102375
-18,43836839
-24,10031247
-43,75683005
-42,65789847
102,4465016
500,3063863
1019,921768
1251,542657
894,919059
209,3009766
-196,8115904
-158,4186457
-70,52019633
-124,6162524
-150,9568275
-111,7919382
-99,37160442
-102,4458493
-90,76469898
-83,82818294
-79,88633366
-65,43918673
-48,98678083
-38,02915766
-33,81636192
-33,8484413
-27,87544642
-21,1474308
-30,16445083
-49,17656573
-64,43383752
-75,93633094
-82,68411347
-79,67725521
-71,66582892
-67,1499099
-65,12957599
-62,60490748
-62,5759871
-69,29289995
-80,75573345
-85,46457728
-79,91952334
-73,37066567
-67,56810042
-62,76192577
-63,20224189
-60,63915087
-46,57275667
-31,25316502
-25,68048341
-24,854821
-20,52628856
-13,44499839
-9,861064288
-12,27460144
-14,6857264
-12,59455697
-11,00121218
-14,4058122
-22,30847824
-27,20933255
-13,60849825
13,99390063
28,09773932
19,70289233
2,059233511
-12,58336381
-18,47502683
-18,86588312
-15,75606063
-7,895687543
-8,534892253
-31,42380326
-54,31254909
18,54874176
328,1599409
851,0209201
1228,381551
1042,241707
371,1012608
-170,0399151
-211,9319464
-75,32495861
-86,46907641
-128,8644238
-103,5111238
-94,15929869
-105,3090695
-92,46055637
-76,36387813
-77,26915247
-82,17649575
-80,83602298
-75,24784771
-73,41208198
-73,32883626
-64,2482194
-51,67033851
-49,84529895
-57,02320423
-65,45415599
-75,38825388
-83,32559555
-85,51627657
-86,4603904
-84,65802828
-77,35927922
-75,56422995
-85,27296483
-93,48556585
-92,20211255
-90,17268196
-93,14734861
-96,87618442
-96,35925872
-91,59663816
-85,83838671
-79,58456558
-71,83523325
-63,34044538
-57,10025478
-55,11471144
-53,38386243
-48,15775192
-43,43642113
-43,96990833
-46,50824882
-45,55147488
-42,59961579
-41,90269778
-44,71074407
-51,2737748
-54,59180706
-39,16485486
-12,49292913
-11,82603774
-41,66418544
-60,50737395
-55,10560185
-49,20886468
-47,31715489
-39,43046187
-31,79877193
-39,42206834
-62,55033135
-33,68353815
203,4283371
704,2853231
1185,137452
1182,984758
591,8272787
-76,83494475
-274,751869
-136,6734479
-95,34963205
-154,7803695
-146,4656056
-119,4052826
-124,3493404
-117,5477159
-101,7503437
-96,70715535
-88,16808023
-77,13304496
-72,10197373
-64,57478827
-55,30140788
-48,78174953
-37,26572785
-25,50325519
-26,99424168
-32,48859528
-31,48622183
-35,48702509
-48,49090679
-58,4977667
-59,50750269
-53,77001075
-48,5351851
-51,05291818
-55,32310078
-55,59562206
-60,3703696
-68,6472295
-69,4260864
-67,95682358
-72,48932299
-72,52346535
-59,55913018
-44,34619587
-37,8845398
-37,92403831
-38,21456685
-36,75600002
-33,79821161
-29,09107471
-22,88446176
-17,92824462
-15,72229463
-14,0164827
-12,56067934
-14,85475479
-26,14857902
-43,44202185
-47,484953
-26,02724216
0,431240945
0,140626485
-22,64895555
-33,6873754
-26,47450364
-20,01021121
-14,79436946
-9,576850313
-14,60752621
-27,63627027
-43,91295629
-23,68745884
174,2903467
637,0205839
1122,253376
1171,238844
637,2271086
-22,53171011
-255,7874941
-137,7901262
-90,03949071
-150,0354732
-143,5279608
-104,0168418
-102,7520062
-105,7333458
-95,96075356
-89,18412448
-82,90335513
-75,36834388
-72,57899092
-69,03519831
-56,48686999
-37,93391189
-23,8762319
-19,06373996
-16,4963481
-11,42397042
-9,846523217
-21,51392494
-43,92609628
-55,58296018
-46,73444187
-35,38046891
-35,5209712
-45,15588103
-59,78513309
-69,90866453
-66,02641494
-55,13832642
-54,49434355
-65,59441347
-71,18848588
-64,52651302
-54,85844976
-47,68425356
-44,75388451
-49,06730534
-55,12448144
-52,17538085
-41,96997432
-31,50823524
-21,79013975
-21,31566663
-36,58479743
-50,09751636
-41,60381036
-15,85366911
-3,347084978
-24,58405305
-50,31457114
-46,03863974
-23,50626208
-4,717444076
7,327805687
9,629475926
-4,312447307
-20,99798061
-19,42714324
-10,84995705
-12,76644654
-20,67663879
-33,33056344
14,27174729
287,6302587
799,2449334
1198,865732
1064,742612
438,6255283
-119,9855653
-219,5907185
-101,6899832
-97,78341341
-148,3710655
-142,7029981
-128,529272
-118,5999502
-97,66509798
-97,72478251
-120,7790731
-127,8280412
-103,1217601
-66,66030502
-45,69375322
-42,22218374
-40,24567743
-37,26431692
-35,77818658
-35,28737244
-38,04196219
-36,79204508
-29,28771191
-30,02905498
-42,51616802
-58,74914616
-67,47808587
-51,95308493
-26,92424235
-34,64165834
-71,35543426
-96,56567254
-100,0224767
-85,72595116
-58,4262014
-48,8733337
-61,56745521
-59,75867385
-53,44709828
-65,88283784
-65,5660025
-51,2467028
-52,17504981
-42,10115506
-13,02513053
-13,19708853
-35,36714172
-34,285403
-27,70198551
-41,36700253
-44,78056747
-26,94279379
-18,85379497
-19,01368444
-7,422575539
8,669418515
17,76218471
16,10561026
3,699582682
-12,95601019
-28,86128012
-32,01633846
-13,42129606
-11,07626327
-37,48134985
50,11333505
423,707683
975,8015861
1272,644937
957,9876308
251,5795608
-208,0793772
-204,7392865
-123,9002699
-176,312429
-208,4758642
-179,390675
-162,0569598
-150,7248157
-134,8943386
-122,3156232
-115,9887631
-124,6638502
-128,5909755
-109,7702282
-90,45169634
-83,13546652
-78,57162379
-66,76025171
-42,95143235
-26,89524618
-36,84177212
-49,79108746
-46,49326787
-53,94838738
-85,40651832
-100,3677313
-83,33209535
-73,79967757
-77,02054343
-63,4947566
-47,72237898
-57,70347065
-81,18808991
-99,67629321
-115,9181352
-126,9136686
-110,9129444
-63,91601173
-25,4229177
-31,43370768
-54,19842514
-51,96711167
-41,73980697
-44,51654886
-46,29737329
-52,58231431
-63,12140409
-35,91467293
10,28785074
6,486140386
-20,56982869
-15,1300793
-10,19463242
-25,01350716
-11,8367208
20,5857112
12,00377522
-25,83254055
-45,17324613
-38,26834975
-9,617857842
18,0282249
0,169895547
-23,44284709
119,6899975
555,5684316
1104,442459
1300,812086
858,9273188
132,288167
-238,605359
-183,0032469
-113,155483
-137,312052
-117,222937
-96,38811951
-123,3075795
-132,2312956
-130,4092449
-147,5914028
-132,5277435
-79,21823981
-59,66286301
-77,86158303
-71,06436847
-46,02118659
-49,23200335
-51,69678339
-15,91549012
12,1119143
-6,114531071
-29,84478599
-32,82880903
-43,56655765
-55,55798817
-35,05305582
-11,05171479
-28,05391821
-65,3096182
-88,5687659
-90,33131148
-78,0972042
-79,6163924
-94,88882356
-89,91444428
-76,94320039
-86,47503687
-99,50989799
-89,29772725
-62,58846746
-47,38206075
-55,9284486
-58,97757188
-42,02937084
-38,33378521
-53,64075417
-50,20021638
-31,51211005
-32,07637293
-39,89294238
-32,21175533
-22,03274839
-18,35585782
-22,68101958
-43,25816938
-55,33724265
-29,91817463
-2,500900353
-8,085354712
-17,42147245
-19,2591882
-50,09843654
-82,18915195
33,46873107
428,8752781
983,5305545
1284,684626
980,0875575
269,2394148
-197,6097372
-170,4598335
-62,06080914
-126,4125995
-176,7651402
-131,1183669
-92,72221576
-92,82662305
-107,6815254
-119,5368598
-115,3925634
-100,7485739
-87,85482939
-78,96126821
-65,06782919
-46,17445161
-37,78107517
-34,63764006
-16,99408696
-1,850357023
-18,95639196
-46,56213401
-44,41752594
-22,52251112
-12,12703349
-16,48103759
-31,33446857
-54,18727221
-67,53939495
-55,39078388
-30,74138675
-26,59115201
-49,19002881
-72,78796699
-87,63491715
-98,98083061
-95,57565942
-67,66935643
-41,76187524
-51,10317024
-72,94319662
-66,78191038
-50,61926834
-51,20522812
-54,28974823
-59,62278798
-70,45430757
-55,53426807
-22,3626314
-18,18936038
-31,26441874
-26,58777109
-23,40938296
-36,7292208
-35,54725197
-15,61344478
-12,67776846
-25,99019321
-26,05069015
-14,85923137
-14,41578992
-38,22033982
-62,27285605
31,42668544
383,1283077
918,3320329
1260,287882
1038,495875
372,2060316
-143,8316306
-192,8670942
-93,65034325
-126,1813624
-173,2101376
-148,7366556
-128,5109042
-129,7828722
-113,8025495
-93,56992689
-99,58499609
-110,3477499
-104,3581821
-104,8662875
-113,1220618
-98,12550169
-60,87660494
-27,62537024
-13,62179725
-22,61588662
-45,60763998
-64,59705992
-67,83415
-59,31891475
-51,30135966
-43,78149118
-35,75931672
-44,48484465
-71,20808427
-83,67904585
-68,64774061
-56,61418068
-69,07837915
-88,29035007
-97,25010837
-94,20766994
-75,6630516
-51,61627109
-43,06734704
-56,01629904
-82,21314755
-98,40791396
-81,10062056
-52,29129053
-48,47994796
-48,91661781
-35,60132594
-42,28409909
-58,21496488
-47,89395178
-40,82108914
-44,99640717
-19,66993693
12,65828966
1,238239864
-33,93011991
-45,34682407
-27,01190785
-10,42540729
-10,83735923
-6,49780133
-7,156772007
-49,56431047
-77,97045669
75,1247486
519,2212639
1073,569047
1280,918055
863,0182443
162,1195704
-200,2780117
-142,9245476
-76,82008384
-136,7146674
-158,1083458
-121,5011675
-95,89318132
-90,2844367
-98,92498369
-98,06487289
-77,70415542
-72,09288293
-85,48110759
-83,36888202
-60,50625934
-43,64329309
-43,53003726
-41,41654624
-31,5528748
-32,1890781
-44,82521163
-60,21133123
-80,84749304
-90,48375347
-62,87016922
-24,75679723
-22,39369465
-44,03091884
-57,16852735
-63,80657787
-69,69512823
-62,83423637
-48,22396033
-51,1143582
-71,25548811
-84,14740823
-75,79017671
-38,68385168
13,42150879
34,27584671
14,37910416
-7,268776623
-23,66785327
-47,56818322
-60,21982375
-54,37283189
-52,27726442
-56,43317787
-52,09062845
-45,99967207
-52,91036427
-59,07276024
-38,23691475
2,09711783
20,42928359
-1,990470904
-31,41219859
-37,83595188
-36,76178263
-41,68974212
-35,36988103
-16,30224942
-22,23689666
-55,42387148
4,886778124
327,6950049
878,0007623
1278,054005
1103,604687
427,1527652
-138,0518038
-211,7590624
-100,719052
-125,4318131
-168,8973852
-131,6158067
-107,3371152
-116,5613471
-109,2885378
-87,51872156
-77,75193166
-84,23820009
-88,97755774
-79,47003433
-66,71565836
-65,4644571
-71,46645659
-71,4716816
-63,9801556
-54,49190076
-48,75693793
-51,2752866
-59,54696492
-67,32198964
-69,10037613
-65,63213834
-62,1672888
-56,70583859
-48,24779735
-47,04317324
-59,09197296
-73,3942017
-75,19986316
-65,25895954
-54,5714915
-47,88745821
-43,70685726
-41,52968476
-41,60593522
-43,93560164
-48,76867545
-52,60514654
-52,44500324
-50,28823232
-41,13481899
-22,23474693
-12,58799823
-24,94455345
-42,80439161
-50,91749019
-51,0338251
-47,40337075
-40,77610002
-29,40198427
-22,28099335
-32,16309563
-46,29825797
-48,18644575
-46,32762291
-49,47175193
-50,86879383
-44,26870823
-40,92145332
-64,07698592
-77,73526145
73,60376603
509,4401438
1041,02392
1225,105146
818,4338712
137,7601491
-230,165967
-175,0944219
-92,77515966
-140,7081229
-153,8932532
-115,3304909
-109,5197755
-115,461045
-105,6542366
-102,3492866
-109,0461301
-111,7447012
-107,9449332
-98,89675836
-88,35010823
-79,05491334
-67,51110348
-55,96860761
-48,42735395
-43,88727001
-44,09828257
-51,31031779
-57,27330117
-48,98715765
-37,9518116
-43,16718687
-46,88320682
-34,34979437
-29,81687204
-39,03436195
-42,25218591
-51,47026541
-74,93852169
-71,40687577
-29,37524848
-8,593560506
-34,56173244
-52,52968479
-37,49733806
-29,71461274
-37,93142939
-36,39770867
-34,61337134
-51,07833837
-66,54253092
-59,50587041
-44,46827854
-40,92967736
-44,88998927
-53,0991371
-67,80704411
-70,01363405
-44,71883122
-20,92256045
-22,87474719
-26,82531753
-19,77419824
-22,47131678
-33,6666014
-32,60998109
-24,3013857
-25,2407459
-33,42799328
-38,86306034
5,704119474
235,5236117
717,5954809
1180,919791
1156,496603
561,5759798
-65,34201913
-223,5073348
-88,41990927
-47,32968605
-96,48660978
-114,1406264
-119,041683
-119,1897284
-107,8347122
-103,7265857
-93,11530157
-70,50081381
-76,13307784
-107,5120505
-101,1376902
-48,25995668
-16,1288112
-31,24421656
-48,85613706
-45,96453852
-43,31938831
-44,92065535
-39,51831011
-37,61232465
-47,9526726
-58,2893292
-63,37227125
-56,20147719
-26,77692706
-3,598602506
-18,41648681
-41,73056486
-33,29082318
-19,34724993
-35,89983487
-57,44856944
-60,49344665
-59,53446119
-49,07160935
-28,10488904
-33,8842998
-54,4098428
-34,68152078
2,300661861
-0,963300831
-28,22341642
-40,97969406
-35,73214447
-23,48077992
-22,22561427
-38,2166629
-51,45394273
-46,43747219
-31,91727122
-22,89336127
-25,36576523
-34,8345075
-37,04961388
-29,26111163
-34,2190294
-51,92339725
-45,1242466
-23,57161023
-39,76552225
-47,45601809
123,3568655
567,9230907
1082,742618
1217,815407
743,3914167
60,22060341
-235,6970764
-158,1116679
-115,5232173
-166,9317717
-159,3373795
-129,24009
-133,3899533
-129,0370208
-112,9313445
-114,5729775
-124,4619738
-124,5983879
-109,9822756
-82,86369297
-64,9926972
-67,869346
-69,74369782
-61,11581172
-50,48574741
-39,60356515
-39,96932577
-55,58309061
-66,44492151
-66,80488074
-63,413031
-51,0194354
-33,87415738
-30,22726072
-39,82880947
-44,42886799
-41,27750081
-45,3747727
-52,47074858
-45,81549351
-37,15907264
-39,25155121
-37,34299449
-28,18346777
-21,2730363
-17,3617653
-25,19971991
-37,28696514
-21,87356587
7,540413171
6,704907484
-14,38014722
-22,96481498
-29,04915953
-41,13324431
-41,46713241
-33,80088655
-27,63456907
-14,21824188
-8,551966434
-26,13580372
-36,21981422
-24,80405789
-23,38859414
-34,72348181
-31,55877911
-20,64454366
-25,2308324
-47,56770162
-60,4052069
45,50659688
410,1676556
944,577916
1232,987325
921,6458319
229,3033848
-214,5400661
-197,38457
-103,9801752
-149,0769292
-171,6748784
-135,7740685
-141,1245441
-160,9763486
-143,3295249
-120,6841145
-120,2901579
-124,8976948
-113,7567635
-91,3674017
-75,97964556
-64,59353038
-55,45909031
-64,32635837
-74,44536649
-61,31614544
-48,68872484
-57,56313319
-69,43939779
-69,8175448
-62,94759921
-55,07958482
-52,71352426
-57,34943898
-58,23734922
-50,87727406
-49,01923137
-58,66323782
-67,80930892
-71,95745896
-71,60770104
-54,2600471
-25,16450786
-16,32109289
-27,22981057
-24,64066809
-8,803671492
-4,468825663
-12,13613432
-17,30560005
-12,22722428
-3,151007312
-5,076948345
-14,75504545
-17,18529559
-20,86769466
-29,80223745
-15,4889177
12,57227192
4,631339765
-21,56170476
-15,00685123
-2,704088247
-23,65340339
-36,35478328
-9,558213584
3,986320997
-30,97116333
-76,18064942
-51,39211927
181,144446
673,6790663
1135,961762
1101,992555
509,7714669
-100,9514787
-254,1762582
-136,6528469
-110,8812196
-156,6113501
-164,3432117
-152,8267769
-125,5620177
-97,54890528
-100,5374102
-116,5275025
-133,7691516
-144,0123263
-116,7569949
-74,75312517
-68,00068436
-76,74963923
-61,74995606
-46,0016007
-60,25453855
-74,75873462
-57,51415353
-43,77075953
-68,52851653
-92,03738811
-77,54733755
-54,05832785
-44,32032175
-34,08328174
-29,34717011
-52,61194895
-83,62758015
-77,14402547
-35,91124653
-11,17920484
-29,19786181
-52,96717877
-42,73711703
-26,25763784
-34,77870246
-34,80027213
-10,57230817
6,405228108
14,88237528
24,35917184
13,83565621
-9,188133367
-10,71215875
-6,986381981
-21,76076527
-14,53527104
29,6901381
45,41549927
12,64084939
-11,88377492
-12,65833729
-18,68280167
-27,20713229
-20,4812937
-7,00525081
-10,02896885
-46,30241343
-80,0755505
32,90165358
427,3792321
954,1072178
1173,585643
804,3145404
141,5439409
-219,4761241
-163,495624
-85,76452839
-134,2828076
-145,0504323
-113,3173735
-118,083603
-125,3490929
-110,1138156
-97,37774434
-90,64085266
-82,40311463
-72,66450481
-63,17499828
-58,93457061
-59,44319789
-57,7008567
-53,70752413
-54,9631778
-60,9677958
-62,22135675
-63,97383979
-74,97522454
-79,47549116
-68,97462027
-57,22259304
-44,46939112
-29,46499667
-30,70939234
-53,2025613
-69,19448718
-53,68515415
-26,67454683
-18,91265035
-16,39945032
-8,884932857
-19,86908452
-38,35189238
-32,33334396
-14,56342727
-9,042130774
-9,019443424
-3,995354617
0,280145786
0,057067469
-1,914580336
-5,384788846
-11,85354972
-23,57085507
-35,78669742
-35,50106975
-19,46396547
-1,675378402
6,864697204
6,656266678
-4,300665063
-23,50609351
-40,46001457
-54,41242453
-66,61332011
-74,31269838
-78,51055685
-16,95689337
271,5982938
795,155006
1166,213244
952,7730092
290,084301
-199,6028803
-225,2885353
-119,9726648
-143,4052699
-175,0863522
-153,5159136
-149,6939563
-155,8704828
-159,545496
-171,4689992
-147,890996
-95,3114901
-93,23048588
-124,8979878
-113,3140009
-92,97853011
-112,3915811
-106,8031597
-60,71327203
-53,12192456
-65,52912407
-42,18487768
-45,33919279
-102,4920772
-117,6435388
-53,04358618
1,557772097
-24,33947301
-68,98533084
-45,87981105
-10,02292361
-42,91467884
-77,05508737
-49,94416017
-24,83190853
-33,96834409
-48,3534788
-57,23732499
-34,61989529
11,74879729
16,11873943
-10,01008257
-6,887682752
10,73592449
7,110724406
-8,513298123
-17,38615857
-18,50787279
-18,37845698
-16,74792772
5,383698025
45,01640293
43,4001693
-5,215020963
-12,07918632
35,30765439
44,69548194
-1,915723302
-40,77598132
-46,1353125
-42,99373761
-62,60127782
-20,20795465
289,9362099
833,3311937
1178,476974
959,3735273
333,0208307
-163,8311399
-242,9324087
-143,0330003
-113,1329396
-103,9822521
-85,08096333
-105,4290995
-125,276687
-113,6237526
-104,2203235
-99,81642718
-87,1620915
-77,25734465
-76,35221514
-81,19673184
-88,29092395
-81,38482096
-54,97845272
-38,82184936
-33,66504134
-12,7580594
-10,35093461
-50,19369831
-75,28638211
-62,62901795
-52,47163799
-57,81427471
-51,40696081
-24,99972927
-17,59261334
-43,18564649
-55,52886244
-43,12229514
-40,96597879
-53,8099478
-68,1542368
-81,74888063
-91,34391436
-73,68937323
-13,78529269
29,1182916
1,771343816
-41,82617205
-55,42429218
-65,77305293
-61,37249082
-14,22264252
17,42645513
-1,925234835
-0,027749535
42,86887378
42,51459772
-27,59061521
-91,44680265
-98,05400234
-81,66225211
-65,27158993
-24,88205384
15,00631803
-9,606512549
-88,47058387
-72,83593431
232,7973977
785,4293737
1196,809955
1070,439103
446,5667795
-148,8070548
-300,9324382
-198,0594096
-165,6880077
-179,5682713
-155,9502391
-147,3339499
-168,9694423
-179,3567552
-155,7459272
-117,1369971
-103,2800034
-107,4249847
-99,57197957
-83,72102652
-72,87216394
-81,27543019
-90,18086354
-40,08850217
24,5016158
-2,660547604
-65,8250303
-54,49187007
-23,16110458
-48,08277139
-69,75690792
-48,18355144
-34,36273909
-38,54450787
-38,47889461
-39,66593599
-36,6056685
-31,04812847
-40,99335205
-53,94137519
-56,89223364
-60,84596296
-66,0525985
-56,51217538
-26,4747285
-1,190292534
-8,658901907
-29,3805908
-22,10539315
9,916657387
24,43552742
5,701183826
-3,786406214
25,72272477
42,22854455
8,731021214
-18,76987682
-8,774180804
-9,531921652
-36,04312992
-41,8078358
-16,32606912
-0,09785931
-11,62323541
-35,65222605
-61,43485944
-41,72116338
183,2388348
696,4451082
1199,64763
1215,596376
654,2913182
-13,26756677
-270,8303036
-183,1469162
-145,467428
-204,5418616
-187,6202392
-124,9525826
-122,5389125
-151,8792495
-144,2236132
-122,5720227
-138,4244964
-155,031052
-104,3917066
-27,75647636
-20,62537697
-57,74842323
-58,3756292
-41,50700816
-48,89257262
-61,78233428
-58,92630398
-45,82449177
-40,22690681
-50,88355743
-59,79445103
-49,95959415
-36,62899241
-43,30265048
-65,98057213
-82,41276013
-87,59921633
-90,78994155
-83,23493564
-66,18419744
-66,13772477
-73,84551441
-62,30756208
-51,77386246
-64,74440916
-73,46919469
-48,94821046
-16,6814468
-13,66889291
-27,66053685
-33,40636554
-30,90636478
-27,66051917
-23,41881216
-6,431226015
11,55225818
-6,468339444
-45,24299756
-54,02169362
-37,80440386
-36,34110325
-45,88176556
-33,92636328
-15,22486766
-33,52724866
-77,583475
-63,1435141
155,0426679
663,4751062
1223,153837
1323,828899
767,2503296
36,16817049
-253,417537
-151,7567497
-111,0994235
-181,1955125
-164,7949698
-112,647747
-118,5037942
-121,6130606
-95,22549362
-82,09103954
-84,95964324
-82,83124826
-76,70579676
-73,33322959
-70,96348621
-61,59650477
-43,48222202
-28,12057343
-23,26149308
-24,65491373
-29,80076682
-44,44898244
-63,84948939
-75,50221513
-80,15708582
-75,56402634
-55,72296026
-39,88380988
-51,04649624
-73,71093911
-76,12705702
-66,04476728
-77,21398596
-100,1346279
-97,55660691
-79,22983539
-77,40422474
-84,82968519
-77,50612584
-53,1834547
-32,8615787
-38,2904037
-57,21983453
-59,39977502
-41,33012797
-27,26079525
-36,94167778
-53,12267554
-43,80368764
-19,23461232
-11,16534697
-18,84578821
-30,77583183
-44,70537289
-46,88430576
-32,56252407
-26,23992082
-39,4163884
-52,84181856
-62,01610255
-87,68913105
-85,86079426
116,2190181
627,8004166
1207,133512
1362,468417
869,0552416
127,1440987
-240,7648995
-181,6716409
-114,3260126
-161,2279022
-171,6271968
-150,0237836
-145,4175498
-129,0583828
-109,6961698
-108,5807983
-103,4621561
-84,34013093
-72,21461097
-73,08548468
-68,95264086
-55,8159687
-47,17535783
-38,5306984
-18,88188106
-9,478797051
-30,57133826
-58,40939723
-66,49286724
-58,07164234
-48,1456174
-57,21468817
-86,5287513
-101,0877044
-90,64144621
-89,68987635
-102,9828957
-102,2704063
-91,30231129
-93,82851526
-107,598924
-110,8634447
-94,62198596
-75,62445791
-67,37077214
-61,11084186
-55,34458187
-59,82190868
-68,5427405
-66,25699733
-52,464601
-42,91547521
-51,10954559
-67,79673973
-65,97698727
-41,15021989
-25,06637141
-33,7253778
-42,87717726
-37,02171022
-29,15891943
-23,03874998
-15,91114935
-22,77606744
-42,38345664
-53,98327184
-51,57547048
-31,66001261
-9,236860889
-29,30598065
-53,86733993
89,57909051
512,0333371
1047,495424
1289,465371
931,6931965
213,4289161
-223,0774585
-185,3259179
-89,31645593
-126,2990692
-124,0237576
-77,7405237
-83,69937338
-109,6503155
-118,8433619
-108,7785278
-72,20583106
-43,62529308
-54,53693817
-74,1907938
-68,83689058
-43,22526227
-22,35594575
-12,47898106
7,905588637
35,79771702
43,44735465
28,35444895
7,768944201
-6,809218399
-9,380100778
-5,693767954
-11,50028803
-22,04973217
-19,84217459
-20,87769254
-47,40636629
-70,17827911
-60,94351721
-45,20216978
-48,70432893
-70,95008965
-95,6895498
-93,4228101
-59,39997404
-26,37114793
-27,58644078
-58,79596433
-78,99983298
-72,19816374
-56,14107625
-34,32869267
-18,76113767
-28,93853838
-42,61102435
-38,02872751
-26,19178209
-11,10032461
-5,254493795
-27,65443055
-55,3002779
-61,94218091
-52,33028668
-25,96474422
8,404295536
25,27667984
31,65225418
30,78086233
-12,33765358
-70,703453
-57,56669688
16,32245236
46,96383095
7,607273772
-35,2473855
-44,60031439
32,54831849
342,6983435
897,0995901
1336,001887
1194,655061
499,3089403
-119,5366494
-223,6318822
-108,4769329
-119,8219766
-152,9171889
-120,7627456
-122,6088225
-157,2055958
-151,8032416
-108,9019359
-82,00185461
-101,6031734
-122,9560678
-94,81071274
-60,66728281
-73,52595207
-91,88689395
-72,25028119
-51,36628577
-58,48507878
-70,85683043
-77,98170989
-81,10988524
-71,24152342
-64,87679012
-75,01584971
-69,90886516
-53,05599801
-71,45740822
-107,1132542
-111,7736925
-99,9388782
-98,60896433
-103,0341021
-110,4644407
-117,6501275
-109,5913074
-88,78812349
-80,74071645
-90,4492247
-93,16378434
-78,13452902
-59,11158994
-49,09509576
-49,58517255
-56,58194375
-62,33553008
-54,34604953
-35,36361725
-27,88834559
-37,42034393
-44,45971874
-41,25657348
-34,31100855
-24,37312128
-17,69300584
-20,52075323
-21,35645125
-13,45018442
-1,302033988
13,08792216
14,71960948
-3,907043167
-14,79210347
-4,435635659
2,912299523
-1,498355133
4,582346717
18,40435499
-2,032376772
-16,22789143
163,5677718
641,1045775
1174,132494
1307,901492
835,6615491
122,9126433
-232,8452421
-166,36212
-91,88799993
-137,9228873
-143,7167839
-115,0196876
-123,5815927
-132,9024893
-115,9823639
-98,07119921
-100,6689741
-124,7756634
-139,8912384
-105,0156665
-46,14891123
-31,29093227
-47,19168562
-41,35112343
-29,51919412
-34,69584232
-43,88100893
-59,57463112
-74,77664237
-56,23697245
-21,95554749
-23,93228996
-47,91711873
-55,65994908
-62,41069272
-79,91925785
-89,68554916
-93,95946788
-106,2409118
-110,7797754
-87,5759496
-62,87932227
-68,18977785
-83,25719758
-83,08145954
-71,16243864
-54,50000674
-37,84403263
-17,69438213
8,699081885
11,33649942
-23,0319867
-38,40623086
-16,28608476
-12,67139744
-26,56201532
-26,20778232
-36,85853989
-49,51412706
-17,67438054
19,16086523
10,24177803
0,568527769
-4,108713597
-55,7897721
-94,97447187
-37,41263516
42,89591753
44,95136739
14,00389726
5,553691512
-11,899064
-28,85418205
-14,06147407
-6,520750278
-23,48181972
-22,69449039
-6,158569249
-17,62386238
-42,34017502
-2,057311654
209,7249239
662,0067284
1158,038299
1231,569834
698,3515302
24,38358693
-244,0837978
-185,3004254
-160,7660973
-187,4806153
-154,9437809
-133,4053963
-171,1152637
-202,8231861
-187,0289666
-144,9824092
-123,4333185
-138,8814999
-149,0767595
-122,0189044
-85,20774301
-71,64308444
-81,82473922
-98,25251912
-85,92623725
-28,59570819
17,23925196
-1,171174511
-44,57680702
-53,47746677
-25,87297679
-4,513162093
-26,3978497
-68,77686873
-73,4000505
-33,51722859
-14,37823893
-57,23291984
-107,8311122
-107,6726594
-81,50740755
-73,83520543
-86,15590466
-91,46935974
-67,02542808
-38,07397017
-51,11484953
-84,3979329
-73,67309022
-17,69019472
22,800877
11,30024488
-33,44197458
-57,92566848
-19,9007275
35,88295398
40,17547786
23,47694225
20,03744141
4,607065722
-4,564098403
12,52403146
17,87153369
-4,271517423
-20,90505174
-1,029003281
37,8566897
44,50208469
13,9072349
-9,92781081
-12,00300793
-12,81831636
-16,87370039
-12,41912878
-2,20457477
2,019983934
-14,99543491
-41,25081806
44,50384317
398,5185529
940,5433107
1255,078112
958,3729459
252,6777994
-206,0073466
-208,6825154
-141,5977351
-173,5030382
-170,6484618
-154,0340476
-174,4098417
-174,775895
-149,8822627
-128,7290046
-115,566185
-118,6438725
-114,7121402
-73,77106585
-42,57073119
-60,6112225
-76,14263033
-50,4150495
-16,92857905
-9,933322199
-10,17938633
19,83311709
51,10407253
33,88336048
3,170857433
0,216436028
-0,730034965
-11,91869056
-14,0996695
-9,523114202
-13,43917069
-24,59798852
-31,99972074
-31,64452382
-26,53255755
-27,41398501
-39,78897247
-46,15768932
-41,02030803
-40,62700402
-28,72795563
6,926656018
17,83664703
-11,99816914
-29,07798158
-11,65298191
10,52663589
7,210675509
-12,3510616
-11,6587761
-5,212670706
-24,5129501
-45,30982081
-56,35349113
-66,39417104
-50,18207208
-20,9674073
-28,75039109
-51,28123918
-40,56016844
-19,58739684
-32,61314337
-65,38762787
-75,16107098
-54,93369402
-29,70571891
-27,22736802
-45,49886414
-53,77043029
-55,29228969
-51,56466562
89,16221868
528,8881401
1115,112876
1340,086203
886,5579005
126,777746
-273,5044812
-219,5390011
-139,8260329
-190,6157947
-201,9085039
-163,9543763
-166,0036266
-172,8064682
-149,863113
-134,1737711
-128,9886512
-107,5579601
-82,63190264
-74,46068188
-77,54449867
-86,63355174
-89,72803758
-62,8281503
-12,6840816
22,45397936
23,33584604
5,211334606
-9,66973599
-20,55754392
-30,4522644
-16,8540696
14,48687142
13,0703928
-18,85366803
-37,53547033
-48,7251699
-71,92291906
-85,62886658
-66,09315759
-39,81593352
-46,29733205
-67,28748704
-71,78652846
-74,29458236
-86,56177077
-79,8382117
-42,37401904
-22,16930255
-42,97416778
-61,03871603
-59,86304435
-63,94724543
-69,7914076
-69,14561482
-76,75994657
-88,8844779
-88,01927933
-82,41441688
-84,569952
-82,23594157
-63,16243787
-40,84948858
-38,29713671
-52,75542066
-59,97437414
-55,20402621
-51,19440121
-46,94551884
-39,45739407
-40,73003719
-56,5134538
-78,55764478
-51,86260636
177,57167
682,9951973
1190,907994
1252,060081
724,7014871
10,58224335
-317,5476139
-222,4380436
-132,8390003
-177,750434
-181,42229
-153,8545093
-166,7970284
-160,2497793
-133,2126897
-143,1856828
-158,6686775
-137,1615886
-95,16432647
-46,42679724
-11,44890297
-22,23054155
-48,77160683
-42,3219886
-20,1315727
-8,200241013
5,472128421
23,88566139
29,79048746
19,18673987
7,824555524
-5,295925091
-25,92455797
-13,56119565
28,79431272
22,14212133
-21,76761237
-31,93472775
-30,85906106
-46,79044549
-50,22871126
-44,67368568
-51,87519323
-57,33305567
-49,79709203
-41,51711877
-40,24294985
-37,22439675
-28,46126863
-32,45337233
-45,20051254
-36,2024918
-20,95911064
-32,22016765
-50,23545954
-47,25478128
-42,52792611
-54,05468571
-54,08485022
-34,11820836
-26,15454752
-39,94365383
-52,98531226
-41,27930672
-17,07542013
-2,373434502
11,82686894
11,77570968
-22,27669214
-63,33011588
-83,88434043
-81,68914433
-37,99430585
155,7003969
599,395186
1094,590283
1198,535911
723,4822903
44,4296432
-278,6218094
-206,9218468
-132,9702488
-163,5167959
-161,3112693
-151,6034509
-174,6431234
-172,6800706
-136,2140775
-102,4949297
-90,02241453
-87,04632032
-73,56643687
-57,58255537
-50,34446859
-43,85197089
-40,60485831
-43,85292866
-29,84598162
8,416181251
29,93375636
20,95693806
19,23591854
24,27088778
9,812033458
-0,140459116
15,91359293
29,22436995
14,04204972
-26,63319263
-64,05118468
-61,21175682
-37,36474226
-41,00997715
-58,39730062
-57,27655482
-45,89758504
-33,01023971
-17,86437049
-12,70983235
-28,04648358
-53,87418589
-66,94280443
-48,00220787
-7,052268441
11,65713799
-11,12386808
-32,14516991
-25,15665451
-33,90821269
-71,14973914
-77,88113245
-47,10229516
-30,56313381
-26,51355895
-19,20348523
-33,38283139
-55,55152033
-50,20947911
-39,85663903
-42,49293563
-36,11830872
-34,23270244
-57,33606525
-63,67834997
-38,25951383
-12,82951843
119,6116702
529,5640814
1049,77774
1189,752668
726,738879
56,73638613
-264,504804
-221,2346889
-174,9532708
-196,6605563
-167,6065567
-150,7912877
-180,4647698
-166,3770279
-125,7780914
-129,9179945
-140,0467759
-113,4144787
-97,52115062
-105,866844
-83,45161577
-37,77552715
-25,83864404
-40,14103678
-40,68278019
-26,46395355
-9,734640562
2,00507064
1,005087545
-8,984686729
-21,4643534
-23,184018
-8,893790345
-11,59378449
-40,03411871
-56,71491547
-65,88630137
-86,79840713
-81,70136751
-46,09532134
-40,23041139
-67,8567844
-72,97459098
-42,58398559
-20,18512651
-26,52817572
-34,61329893
-40,94066545
-51,51044821
-35,32282362
-0,377971583
7,323924616
-6,717321652
-13,50190029
-5,03000439
6,448169794
-4,817577041
-30,5774472
-43,8316459
-50,58038122
-49,57386399
-24,06230775
4,454071367
-2,274945302
-41,99957887
-68,9700528
-52,43659285
-30,39942691
-41,35878501
-53,81489916
-48,01800327
-58,96833307
-85,16612598
-28,61162105
245,6949412
743,2533187
1188,063268
1146,624545
529,1869044
-119,499901
-271,6861184
-136,371996
-133,0577827
-201,4937277
-175,180081
-128,3670926
-118,3050128
-112,9940921
-109,9345806
-109,3767287
-97,0707861
-77,51700231
-70,21562622
-74,91690608
-64,62108936
-38,07842257
-23,78915124
-13,50351968
13,27822907
31,30585341
25,57911329
15,84777033
5,111587999
-0,379668322
20,12376884
46,87166914
48,11380461
36,3499497
24,32988149
5,803379757
-9,979772841
-15,01979068
-19,06688501
-25,87126385
-24,68313184
-7,752690131
16,66986375
31,83433604
34,49053683
34,63828022
26,52738444
4,657671961
-4,721030395
11,14110869
25,49392514
23,0872596
16,67095753
17,99486937
25,0588506
29,11276187
26,40646911
19,43984366
8,712762329
-1,524892486
3,476767317
24,96763563
37,44761223
25,66660287
5,624519382
-8,428720253
-17,2431918
-20,56896472
-21,65610204
-24,50466032
-32,86468957
-61,73623317
-87,3693278
12,98599661
375,3297169
924,1618169
1274,732287
1036,291126
325,3383369
-235,6260676
-299,8520687
-192,3396405
-217,3387499
-257,3493565
-222,6214127
-196,4048639
-198,6996478
-195,2556954
-190,82293
-193,4012678
-187,9906178
-168,0908818
-145,7019541
-133,0737222
-126,9560661
-115,3488587
-100,5019659
-91,66524652
-88,08855218
-90,52172764
-97,21461073
-92,16703235
-77,12881665
-75,59978099
-80,32973611
-72,31848613
-68,56582868
-80,57155498
-97,08544994
-119,8572922
-141,1368545
-133,4239032
-103,2181991
-86,26949701
-87,32754632
-86,89209071
-85,71286858
-93,03961303
-97,87205209
-90,45990882
-78,55290149
-65,40074373
-52,00314467
-47,35980911
-50,97043773
-50,58472721
-42,70237043
-38,57305666
-47,44647173
-63,32229821
-73,95021562
-73,82990063
-63,96102724
-46,84326697
-28,97628911
-23,85976088
-36,99334766
-51,12671321
-54,50951988
-59,39142879
-64,27210012
-60,90119328
-65,77836713
-80,65328025
-93,02559112
-112,3949583
-106,7610409
47,37650149
451,2680085
963,6638187
1161,564269
749,7196956
32,880432
-362,9531898
-308,03084
-196,1021914
-214,6669194
-239,9747025
-227,525222
-220,3181628
-222,3532135
-226,3800664
-223,6484178
-205,6579683
-187,1584231
-177,6494921
-170,3808899
-166,8523366
-151,8135575
-108,5142833
-71,70425066
-70,88320227
-78,80088683
-77,2070595
-77,35148196
-82,23392266
-100,854157
-120,4619674
-92,05714369
-46,63948309
-66,95879046
-112,2648784
-99,05756759
-67,33668661
-69,35207239
-52,35357024
19,40896605
94,93567403
150,4766825
207,2821114
247,6020716
261,6866649
286,535984
322,9001123
342,5291236
351,4230826
358,3320442
343,7560538
294,1951473
237,3993508
205,8686805
181,1031431
143,1027353
120,3674441
127,8972467
140,1921103
141,7519924
136,0768406
128,4165926
124,2711764
120,8905103
113,5245028
103,1730526
87,83604893
77,26337136
80,70488997
73,91046541
40,37994894
-8,386817402
-52,89000079
2,870222532
314,1436674
846,9301396
1229,979437
1045,041347
367,1156504
-189,7978809
-256,1994833
-149,0894014
-179,7178874
-216,0852014
-170,4416108
-154,5373907
-162,8728232
-134,1981974
-113,0138092
-122,0699613
-123,1169625
-118,1551283
-121,1847797
-109,206244
-79,21985357
-62,22594661
-63,72486625
-61,71696059
-51,20258242
-42,68208901
-39,65584188
-40,62420651
-44,58755218
-49,29625167
-48,50068105
-38,95121942
-30,14824868
-33,09215324
-45,03331985
-55,72213727
-61,65899609
-64,09428841
-58,52840766
-43,71174829
-34,39470556
-39,57767526
-44,76105349
-41,4452364
-41,8806199
-52,5675995
-65,25656995
-71,44792512
-71,39205764
-70,58935873
-72,04021795
-77,99502292
-88,95415914
-98,4180097
-101,6369551
-100,861373
-100,341638
-102,0781213
-97,57119071
-75,82121028
-50,07854009
-49,34353605
-77,36654972
-106,1479281
-111,9380134
-106,2371428
-114,0456485
-128,1138572
-128,6920901
-128,5306626
-148,1298844
-163,9900591
-63,61148388
304,7555502
861,1107589
1171,203864
868,7845959
171,1026895
-289,5921116
-275,3000567
-166,5213882
-208,0063405
-242,0051407
-208,518008
-196,0451539
-187,836782
-156,3930877
-141,4642584
-143,5504733
-132,6519034
-113,7687111
-101,9010508
-93,29906804
-85,21290007
-85,39267549
-87,33851433
-74,80052793
-60,52881898
-63,52348145
-71,2846006
-73,31225294
-81,35650622
-93,91741949
-90,24504299
-70,58941828
-57,70057815
-57,57854673
-59,22333943
-58,63496305
-55,56341574
-51,00868712
-50,22075824
-53,44960171
-56,19518171
-53,20745407
-41,23636633
-27,78185779
-20,59385964
-13,17229499
-3,51707898
-2,378118857
-9,75531408
-12,39855641
-4,807730023
1,517288401
-3,673370451
-9,379568631
-4,101161046
-1,837995586
-17,58991324
-32,10674825
-16,8883282
12,06552581
14,25499904
-5,819717025
-12,90842484
-8,010920923
-12,12699602
-20,25643525
-20,39901826
-17,8045194
-29,72270784
-64,40334779
-53,84619859
169,698985
667,7324529
1153,754459
1163,015262
577,2651239
-111,7456893
-338,2669076
-197,0482579
-128,3394638
-175,8902454
-180,2003204
-168,0194032
-171,5972061
-153,9334386
-130,2778081
-119,8800201
-108,7397779
-93,60678335
-78,7307367
-64,86133684
-53,99828149
-43,39126737
-30,2899904
-17,69414584
-6,353428471
4,482467209
12,56384684
13,89101601
7,714280114
0,533944138
-1,399687463
1,163689051
6,47437654
12,53267683
11,08889054
-1,106683054
-13,05374621
-15,50200282
-12,70115864
-13,40092137
-16,35100081
-14,55110907
-10,00096061
-4,200272482
8,101235606
23,40384112
29,95781858
23,76343941
17,57097185
22,3806808
26,44282771
19,00767045
9,325463242
6,896456475
5,720896658
-2,200973712
-8,368916246
1,217303239
22,30791463
32,6531434
21,75321058
4,108332613
-5,03127871
-4,665416306
-2,543877892
-6,91646605
-17,7829883
-30,39325714
-48,99709014
-67,09430997
-0,434744474
294,4817733
796,6554051
1149,086307
943,524631
276,4705219
-237,0758797
-259,1144388
-122,645026
-131,4175173
-167,4317942
-141,6877436
-120,185258
-106,1742353
-87,65457902
-84,62619805
-86,83900686
-82,79292536
-79,23787897
-72,17379853
-54,85062034
-33,01828609
-16,42674287
-6,825943152
0,784155292
4,65358938
-1,967609228
-11,57941409
-17,18180393
-27,77476263
-36,85827912
-27,43234739
-10,9969664
-5,052140015
-3,597876995
-1,134190886
-4,16109998
-14,17862724
-24,68680026
-29,18565114
-26,92521647
-24,15553723
-23,87665873
-23,3386305
-24,04150626
-26,23534381
-23,42020492
-19,84615533
-26,76326456
-34,67160592
-31,07125636
-27,21229639
-30,34481001
-29,71888461
-26,83461088
-32,44208269
-37,54139704
-24,88265394
1,284043713
14,70859016
-0,359123052
-25,91920701
-38,97177533
-38,51694404
-32,30483152
-26,83555836
-26,35924728
-35,62602304
-62,88601233
-76,63934366
53,86385273
453,373445
981,6392996
1207,411282
828,4392555
130,2230831
-260,4873738
-211,6922548
-143,6417006
-217,3358525
-246,7748525
-215,9588436
-216,6379691
-218,3123729
-191,4821992
-170,1475925
-164,0586976
-154,7156594
-139,8686226
-128,2677323
-118,913133
-108,5549694
-99,94338545
-94,82852516
-92,96053183
-94,58954832
-94,96571686
-90,58917904
-89,71007566
-94,82854674
-97,19473141
-96,55876786
-89,67079327
-68,28094375
-50,63935429
-57,74615868
-70,85148947
-67,70547794
-62,808254
-66,40994616
-59,0106815
-46,6105856
-53,70978253
-57,30839475
-32,40654313
-10,50434687
-20,60192349
-41,44938878
-44,29685678
-29,64443972
-18,99224805
-29,84039034
-42,18897333
-28,03810182
-11,88787874
-20,23840507
-18,33977982
14,55789993
24,45453912
-16,64995534
-41,25567451
-8,862707458
16,0288588
-2,081060744
-10,44254903
6,194313023
6,329446552
-26,53722526
-60,40577719
19,97371804
357,6011898
880,9765693
1199,34979
939,7207875
266,589499
-197,5441359
-189,4301759
-68,56867736
-85,95969498
-117,6032813
-110,9994871
-124,3983609
-132,0499496
-117,4542981
-111,6114494
-114,5214446
-111,6843229
-94,35012188
-64,76887711
-53,69062246
-71,61539001
-81,29321011
-66,47411138
-50,15812077
-42,59526355
-40,03556334
-41,72904216
-50,67572044
-75,37561705
-94,82874932
-73,28513311
-32,74478277
-22,45771122
-39,42392998
-41,64344917
-21,36627758
-20,09242266
-54,07189058
-79,55468625
-67,54081336
-46,7802744
-40,52307071
-38,26920249
-37,26866886
-31,02146786
-4,777596501
12,7129492
-9,299825818
-28,81591566
-13,58531354
-8,108011804
-23,88400196
-26,9132747
-34,19581995
-49,9816269
-30,02068399
1,937020986
-7,858499098
-25,40723074
-17,70915985
-19,01427176
-31,07255127
-27,63398268
-20,44854978
-16,01623592
-16,087024
-39,91089654
-9,987835661
266,1821769
807,8491597
1252,763132
1140,674112
471,0821197
-154,2628249
-255,6107021
-91,96149176
-72,31517359
-141,921727
-153,0311314
-131,893366
-100,7584098
-77,37624165
-87,74684053
-108,3701852
-123,7462542
-120,3750264
-75,00648011
-32,64059402
-40,2773466
-54,66671632
-37,80868164
-28,70322104
-58,35031298
-77,24993593
-39,40206837
-3,806688828
-35,21377582
-85,87330793
-88,53526373
-58,94962188
-38,61636104
-35,03545992
-51,70689729
-80,38065195
-85,80670275
-73,23502857
-80,16560837
-97,59842111
-87,28344582
-52,72066157
-37,41004746
-40,60158263
-31,04524625
-28,24101753
-37,18887569
-26,63879998
-20,59076967
-37,54476403
-38,25076234
-27,45874388
-38,66868793
-45,63057375
-20,34438057
-1,310087611
-15,52767404
-25,24711898
-19,46840152
-26,69150066
-34,91639535
-26,39306444
-15,8714867
-9,851640799
-12,58350529
-37,31705859
-26,302279
192,9608553
683,7223664
1140,982276
1118,990608
563,747383
-33,99737521
-203,9936438
-103,2413995
-107,2406189
-163,7412782
-123,9933535
-90,74682045
-111,2516545
-108,0078306
-85,7653237
-83,77410813
-98,28415797
-114,5454469
-104,3079483
-66,57163504
-52,58647965
-72,85245422
-79,11953044
-59,3876795
-51,65687218
-68,92707876
-79,69826906
-75,2204124
-83,24347759
-102,0174329
-109,0422462
-97,56788468
-61,59431502
-29,62150338
-42,64941537
-69,67801598
-76,45726967
-85,23714028
-99,76759107
-100,7985847
-90,08008327
-76,86204817
-61,89444026
-46,92721973
-45,96034617
-57,24377853
-55,02747513
-45,56139365
-48,34549113
-46,12972398
-38,41404794
-47,19841813
-60,48278902
-47,01711442
1,4486525
35,41455921
5,380653844
-39,40301484
-40,93639742
-32,46944384
-46,00210341
-49,53432478
-17,81605598
3,152755601
-42,8778368
-79,90777933
88,56298252
535,7845039
1028,25684
1165,480048
753,954185
108,9293076
-212,3445256
-145,1172559
-91,63882408
-158,4091701
-155,6782336
-91,94595353
-82,21226828
-103,7271157
-97,2404332
-81,25215748
-85,26222485
-91,52057103
-76,52713127
-50,53184029
-30,78463235
-11,78544121
3,215799851
-3,030842011
-20,27529917
-29,51750359
-35,25738676
-37,49487981
-30,97991342
-28,46241792
-35,19232323
-42,91955893
-48,89405424
-53,36573806
-62,08453894
-71,55038515
-64,51320466
-59,22292518
-87,67947413
-117,3827787
-98,33276595
-53,02936254
-34,4724951
-44,66209003
-52,84807358
-48,03037187
-45,70891091
-52,6336166
-43,05441479
-17,72123124
-19,6339917
-36,04262191
-17,1970476
13,15280548
11,00701149
-7,634355454
-26,77122133
-42,65351224
-29,78115442
-1,904074287
-1,522198431
-14,38545365
-21,743767
-51,59706576
-100,1952775
-78,28833016
154,3738481
633,5413286
1089,214183
1081,14248
524,8262925
-77,98431161
-240,5392625
-114,5884916
-72,63193054
-114,4195118
-112,2011683
-89,22683373
-84,9964422
-89,50992866
-82,51722873
-65,51827874
-58,01301581
-52,50137781
-42,23330347
-45,20873233
-47,67760482
-19,63986227
9,90455303
5,705697863
-4,736372007
-12,42160184
-38,34993794
-59,02132771
-65,18571968
-79,34306352
-79,24331008
-55,13641144
-47,7723209
-63,15099308
-87,52238388
-125,3864506
-146,7431517
-126,0924475
-114,9342993
-142,2686702
-148,0955245
-124,6648284
-125,2265495
-124,0306569
-92,82712168
-75,36591624
-79,14701491
-82,67039371
-83,43603046
-62,94390478
-37,69399816
-53,93629396
-81,17077747
-63,89743592
-20,36625852
4,422763474
-4,280363207
-30,22563393
-39,16304617
-31,34259954
-43,01429583
-63,42813902
-52,33413535
-38,23229329
-52,3726236
25,99486062
359,620144
861,2532086
1160,394034
919,7925988
272,4488766
-184,6371595
-168,7155396
-54,78629627
-104,8494644
-154,9050816
-132,2031879
-111,7438262
-86,52704162
-59,30288215
-68,3213983
-86,08264324
-76,08667278
-59,33354539
-55,07332222
-49,05606708
-35,78184647
-21,75072957
-4,962788268
3,331902865
-4,366733448
-0,058777183
13,75568899
-1,423420308
-24,59619314
-15,76272026
6,076904885
20,17258617
19,02422482
-13,86828064
-46,25503429
-32,88614288
-9,76171578
-31,63186495
-79,24670497
-103,106353
-95,96092866
-81,56055425
-69,40535451
-52,99545666
-48,58099042
-73,16208791
-89,23888369
-65,8115147
-39,63012022
-45,69484185
-69,75582349
-83,56321128
-68,11715357
-31,6678009
-18,96530592
-44,25982342
-50,80151019
-17,84052508
-6,627028864
-27,91118426
-32,94315583
-37,72310999
-67,00121489
-79,77764041
-50,05255809
82,92385893
458,4014359
990,1299968
1226,609364
853,0893581
176,5697993
-203,9494941
-168,4687048
-94,48801661
-145,2576144
-154,7776841
-87,04841239
-59,06998683
-88,09259581
-117,3664283
-130,6416741
-108,9185233
-41,19716651
1,772205132
-20,26059971
-44,54577261
-46,83350533
-49,87398968
-19,41741746
42,7860196
44,73612996
-9,817277671
-18,12439426
1,314589649
-27,00051597
-47,31990058
-1,893752953
32,52773888
8,194387738
-16,64399265
-20,73758753
-28,58658107
-38,94115624
-43,05149478
-33,16777705
-19,790182
-29,41888706
-47,55406805
-49,69589912
-51,59455266
-56,75019919
-40,91300733
-12,58314367
-11,01077272
-39,94605679
-57,88915598
-53,59022802
-61,79942827
-69,26690957
-33,49282222
-0,477313867
-24,72052946
-58,22261116
-73,23369826
-95,50392713
-88,03343115
-39,82234061
-30,87078268
-71,42888133
-106,7467573
-126,5745278
-49,66230697
287,4897947
828,3816704
1175,513216
939,3843331
247,2449244
-265,9051022
-278,8158351
-160,9873592
-187,4197553
-207,3631004
-171,8174673
-166,032925
-163,7595383
-148,2473681
-146,9964708
-135,2568991
-100,278701
-81,81192059
-89,60659764
-88,16276756
-66,48046147
-44,55970615
-27,40052403
-8,252933139
4,63305286
2,507424729
-7,629822354
-17,27868879
-22,68917053
-19,6112591
-7,294941593
6,259799358
9,802985546
-0,665356801
-17,64519703
-27,38650008
-25,38922646
-22,15333233
-24,17876946
-26,21548525
-26,76342279
-29,32252085
-30,14271394
-22,72393229
-11,06610193
-4,419144683
-2,282978232
0,842483861
3,707332108
2,561661057
-1,844430758
-11,76084086
-30,43746287
-42,62418659
-33,570898
-24,27747936
-40,99380927
-70,96976269
-92,95521102
-112,7000222
-132,9540607
-138,2171876
-126,9892608
-119,7701349
-136,5596614
-162,6076886
-97,41406202
209,521376
741,1987857
1151,11833
1015,280176
366,1844901
-207,9185556
-291,5287879
-156,3960313
-149,0201079
-187,9008376
-167,0380383
-152,6815259
-155,3311145
-140,9866165
-123,1478423
-112,8146012
-99,98670055
-84,66394663
-74,09614432
-65,78309735
-52,22460837
-35,42047908
-22,3705103
-13,32450206
-7,03225379
-4,493564319
-5,708232054
-9,176055055
-15,64683115
-24,62035805
-24,34643342
-11,32485505
-4,055420892
-13,78792922
-30,0221787
-40,75796853
-47,24509852
-53,73336922
-58,22258199
-60,21253915
-59,70304406
-56,44390123
-55,18491641
-56,92589672
-53,41665074
-42,9069886
-35,14672208
-33,63566474
-32,87363198
-28,61044118
-23,34591173
-20,32986519
-15,81212537
-13,79251838
-27,02087276
-47,99701959
-55,22079249
-46,69202782
-36,16056466
-32,37624496
-36,33891359
-44,54841843
-52,25461045
-55,20734374
-48,65647567
-36,60186685
-39,5433813
-68,23088645
-65,16425321
114,4066439
563,9819269
1094,561714
1254,64612
784,2352548
59,07922618
-276,321863
-177,2179135
-91,6088301
-136,2445216
-137,6249006
-102,7498841
-101,1193927
-97,73335156
-78,34168965
-64,44434021
-52,29124061
-42,38233239
-40,2175613
-30,29687724
-8,120234334
6,312409087
9,001090505
12,9458432
19,64669624
25,60367454
28,31679882
22,53608564
12,51154741
5,493192439
-1,018975097
-4,274955081
2,225248547
10,98162783
8,244170809
-6,737138408
-20,46231964
-23,68139658
-21,89439675
-23,10135147
-25,80229578
-25,49726842
-21,93631178
-19,1194718
-22,54679796
-25,71834323
-18,88416394
-10,5443198
-12,69887376
-19,34789201
-15,74144385
-6,379601656
-9,012440807
-19,39003958
-20,76247911
-15,37984328
-12,49221865
-11,59969438
-14,70236216
-22,55031609
-20,89365262
-3,232470458
8,43312954
-0,896955573
-16,22283072
-29,04460271
-37,11238016
-27,92627337
-18,23639425
-33,79285623
-52,09577413
-61,1452641
-78,69144349
-24,23443077
268,2256546
798,9386922
1236,904561
1143,123138
504,5943028
-105,6820694
-240,9561016
-139,7279174
-146,7476408
-185,265396
-151,531307
-130,7954977
-139,3080921
-132,0692135
-126,3289851
-136,0875295
-141,3449688
-135,3514244
-123,3570167
-110,1118656
-104,6160898
-101,119807
-85,12313378
-69,87618553
-70,87907626
-73,3819186
-68,1348237
-68,38790114
-78,64125885
-85,14500306
-78,64923816
-68,40406668
-66,90958922
-69,91590433
-69,67310848
-70,43129599
-75,69055894
-81,70098716
-81,21266809
-73,2256868
-72,49012589
-87,00606546
-100,023583
-98,04275349
-90,56364912
-88,33633947
-88,86089133
-84,13736873
-72,16583286
-65,44634205
-70,22895177
-68,51371454
-53,30067995
-44,83989461
-49,38140214
-50,67524315
-42,7214552
-36,02007284
-37,32112752
-42,87464765
-49,43065853
-55,98918239
-59,05023839
-55,61384256
-47,93000787
-41,7487442
-40,57005834
-40,39395399
-35,72043182
-32,54948942
-38,13112134
-43,21531913
-34,8020713
-19,1413634
-21,73317799
-28,5774947
93,57570976
495,7264616
1063,37479
1354,020726
1002,164306
235,8055655
-266,0554541
-247,6687103
-119,7841576
-147,1517478
-174,2714302
-139,1431516
-133,7668562
-149,642486
-140,7699803
-123,1492762
-110,0303087
-96,16301015
-89,79731108
-88,68313969
-77,57042217
-57,95908266
-42,84904336
-36,74022455
-30,13254466
-14,27592033
0,329733505
-1,065496411
-15,96152174
-30,35825261
-29,25559769
-11,40346422
3,198241861
-1,950384085
-16,84924551
-26,24824474
-36,14728303
-50,79626065
-55,69507693
-51,59363037
-54,24181868
-59,88953886
-58,28668729
-52,93315976
-48,32885161
-41,22365771
-27,11747262
-10,76019062
-6,651705801
-12,29191211
-6,430703453
6,182026243
2,296382959
-6,337527493
2,280400461
13,15027208
10,52219224
0,64626537
-16,72740465
-35,84871452
-29,71756163
1,916155924
21,3025392
15,69168841
-0,416297212
-30,52131942
-67,12328107
-74,47208614
-51,56763986
-35,15984868
-40,49862046
-61,83386441
-66,16549123
70,50658686
483,432456
1045,612201
1315,795904
954,983647
196,9255087
-305,1284335
-291,678104
-156,4734293
-181,7643381
-223,3007609
-194,8326305
-175,6098818
-177,382452
-169,9002805
-160,1633091
-149,1714819
-128,4247453
-108,1730483
-95,41634225
-80,40458114
-62,63772141
-54,61572214
-51,08854499
-33,5561543
-10,26851709
-0,97560308
-0,927384742
-2,12383731
-7,564938814
-14,7506701
-17,18101485
-14,60595962
-13,77549383
-22,43960981
-40,8483028
-59,00157097
-65,39941544
-60,79184028
-57,67885253
-58,3104622
-53,18668231
-45,05752884
-44,42302078
-51,0331801
-53,8880318
-42,73760385
-24,33192723
-13,92103592
-11,25496686
-9,083760005
-5,907458259
-3,476107499
-4,039756548
-5,598457168
-5,902264043
-6,201234759
-8,995429791
-13,28491248
-13,819749
-14,10000836
-24,12576236
-39,14708556
-46,16405525
-45,67675146
-38,18525684
-16,43965674
5,559960927
2,313505671
-19,92911553
-37,41799818
-43,15324021
-36,13494199
-20,6132062
-16,58813784
-32,30984416
-55,77843463
-48,49402084
110,5432835
537,0833627
1083,626099
1313,171373
916,7190623
181,2690446
-242,1788055
-194,1246147
-99,81851132
-149,2606252
-169,4510876
-134,6400314
-129,5775905
-131,0139002
-115,449097
-106,6333184
-100,5667032
-84,49939078
-67,93152164
-58,86323699
-53,04467879
-45,47598962
-36,15731262
-23,08879142
-6,270570036
7,297207211
14,36439576
15,43085089
10,74642785
7,310981865
11,37436829
16,68644265
15,74706075
10,05607873
-0,386646811
-17,83125877
-34,77789945
-43,47671045
-45,42783261
-43,38140593
-38,83756945
-33,54646124
-27,75821824
-23,97297622
-27,44086972
-35,66203193
-39,63659462
-36,3646881
-27,5964411
-16,33198069
-12,57143227
-22,31491942
-34,31256386
-37,56448541
-34,07080184
-33,08162888
-48,34708013
-73,36726696
-82,89229849
-82,17228148
-92,70732033
-106,2475169
-100,7929708
-74,09377858
-50,90003462
-57,4618304
-88,02925469
-111,8523935
-109,9313299
-95,26614429
-88,35691389
-88,95371307
-95,55661315
-115,1656824
-102,780986
84,09741408
551,469459
1116,085093
1307,944264
836,2969223
65,64302257
-327,5174778
-253,9346181
-169,3584339
-219,7889578
-226,4762187
-190,4202422
-189,6210504
-187,8286621
-164,0430923
-144,514353
-132,4924523
-120,2273951
-107,9691828
-93,46781325
-74,7232808
-54,48557642
-39,75468759
-35,03059834
-30,31328929
-13,35273759
8,101082969
14,04820201
0,488652514
-15,07752919
-18,15030345
-13,72962733
-11,56545461
-14,65773584
-25,50641837
-38,11144639
-39,97276094
-37,09029996
-45,21399835
-58,34378798
-62,22959777
-60,37135369
-59,01897886
-53,67239353
-41,83151521
-29,24625866
-23,41653597
-27,34225662
-36,02332751
-37,95965305
-27,6511352
-15,59767354
-13,54916531
-17,00550551
-17,21658693
-16,93230025
-20,15253408
-23,12717501
-25,85610775
-33,58921512
-42,32637816
-43,81747621
-36,31238695
-25,56098651
-26,8131495
-45,81874913
-66,57765727
-76,83974448
-77,10488018
-67,37293262
-54,89376904
-53,91725571
-71,693258
-97,72164048
-44,00226698
253,9649993
807,1802959
1280,89376
1220,355532
566,8157478
-127,2254519
-316,2679284
-174,5615425
-137,3561548
-183,901626
-160,9478171
-138,244589
-150,0418032
-138,0893211
-114,1370048
-105,934717
-94,23232061
-74,27967939
-65,07665777
-64,12312093
-54,16893488
-35,71396657
-21,5080839
-14,05115584
-5,843052455
9,616355004
27,07719404
29,53959084
19,00367024
14,46955562
15,93736887
16,65723033
18,12925872
16,10357108
6,830282724
-6,190492823
-21,70864388
-39,47406065
-55,48663531
-63,24626202
-58,75283698
