Time,TimeLsl,Value
1657528254.9149,5319.126445,86
1657528254.9149,5319.1264639,95
1657528254.9149,5319.1264699,86
1657528254.9149,5319.1264766,74
1657528254.9149,5319.1264825,81
1657528254.9149,5319.1264892,83
1657528254.9149,5319.1264936,74
1657528254.9149,5319.1264988,67
1657528254.9149,5319.1265048,64
1657528254.9149,5319.1265158,62
1657528254.9149,5319.1265234,59
1657528254.9149,5319.126531,57
1657528254.9149,5319.1265389,55
1657528254.9149,5319.1265466,50
1657528254.9149,5319.126556,50
1657528254.9149,5319.1265638,67
1657528254.9149,5319.1265689,83
1657528254.9149,5319.1265752,86
1657528254.9149,5319.1265789,79
1657528254.9149,5319.1265834,71
1657528254.9149,5319.1265896,52
1657528254.9149,5319.1265984,38
1657528254.9149,5319.126604,35
1657528254.9149,5319.1266091,38
1657528254.9149,5319.1266152,45
1657528254.9149,5319.1266188,52
1657528254.9149,5319.1266222,57
1657528254.9149,5319.1266255,55
1657528254.9149,5319.1266289,26
1657528254.9149,5319.1266332,-16
1657528254.9149,5319.1266384,91
1657528254.9149,5319.126643,445
1657528254.9149,5319.1266487,869
1657528254.9149,5319.1266524,1097
1657528254.9149,5319.1266574,829
1657528254.9149,5319.1266609,174
1657528254.9149,5319.1266664,-165
1657528254.9149,5319.12667,-28
1657528254.9149,5319.1266736,43
1657528254.9149,5319.126678,-43
1657528254.9149,5319.1266821,-35
1657528254.9149,5319.1266869,4
1657528254.9149,5319.1266908,-11
1657528254.9149,5319.1266977,-14
1657528254.9149,5319.1267022,9
1657528254.9149,5319.1267069,14
1657528254.9149,5319.1267199,14
1657528254.9149,5319.1267267,26
1657528254.9149,5319.1267345,38
1657528254.9149,5319.1267443,40
1657528255.01467,5319.1267506,47
1657528255.01467,5319.1267547,57
1657528255.01467,5319.126766,64
1657528255.01467,5319.1267754,62
1657528255.01467,5319.1267803,74
1657528255.01467,5319.1267869,98
1657528255.01467,5319.1267945,105
1657528255.01467,5319.1268038,100
1657528255.01467,5319.126809,100
1657528255.01467,5319.1268179,98
1657528255.01467,5319.1268245,83
1657528255.01467,5319.1268369,64
1657528255.01467,5319.1268457,55
1657528255.01467,5319.1268507,62
1657528255.01467,5319.1268575,67
1657528255.01467,5319.126863,59
1657528255.01467,5319.126873,55
1657528255.01467,5319.1268784,57
1657528255.01467,5319.126885,52
1657528255.01467,5319.126892,35
1657528255.01467,5319.1268996,19
1657528255.01467,5319.1269057,14
1657528255.01467,5319.126919,21
1657528255.01467,5319.7602469,31
1657528255.01467,5319.7602652,40
1657528255.01467,5319.7602725,45
1657528255.01467,5319.7602768,55
1657528255.01467,5319.7602809,55
1657528255.01467,5319.7602849,47
1657528255.01467,5319.7602888,47
1657528255.01467,5319.7602926,59
1657528255.01467,5319.7602964,67
1657528255.01467,5319.7603002,62
1657528255.01467,5319.7603045,52
1657528255.01467,5319.7603088,45
1657528255.01467,5319.7603127,40
1657528255.01467,5319.7603165,40
1657528255.01467,5319.7603202,40
1657528255.01467,5319.7603239,45
1657528255.01467,5319.7603276,43
1657528255.01467,5319.7603315,35
1657528255.01467,5319.7603355,38
1657528255.01467,5319.7603392,45
1657528255.01467,5319.760343,38
1657528255.01467,5319.7603467,31
1657528255.01467,5319.7603508,35
1657528255.01467,5319.7603547,43
1657528255.01467,5319.7603604,57
1657528255.01467,5319.7603652,88
1657528255.01467,5319.760373,103
1657528255.06354,5319.7603803,88
1657528255.06354,5319.7603898,81
1657528255.06354,5319.7603967,74
1657528255.06354,5319.7604043,57
1657528255.06354,5319.7604117,55
1657528255.06354,5319.7604168,62
1657528255.06354,5319.7604256,62
1657528255.06354,5319.7604327,59
1657528255.06354,5319.7604384,64
1657528255.06354,5319.7604474,74
1657528255.06354,5319.760453,71
1657528255.06354,5319.7604661,35
1657528255.06354,5319.760476,2
1657528255.06354,5319.7604843,141
1657528255.06354,5319.7604932,503
1657528255.06354,5319.7604986,913
1657528255.06354,5319.7605069,1107
1657528255.06354,5319.7605134,788
1657528255.06354,5319.7605214,146
1657528255.06354,5319.7605278,-134
1657528255.06354,5319.7605365,4
1657528255.06354,5319.7605437,62
1657528255.06354,5319.7605495,-14
1657528255.06354,5319.7605588,-9
1657528255.06354,5319.760566,21
1657528255.06354,5319.7605736,7
1657528255.06354,5319.7605808,-2
1657528255.06354,5319.7605878,4
1657528255.06354,5319.7605959,9
1657528255.06354,5319.760602,14
1657528255.06354,5319.7606214,23
1657528255.06354,5319.7606298,35
1657528255.06354,5319.7606345,43
1657528255.06354,5319.7606418,50
1657528255.06354,5319.7606482,55
1657528255.06354,5319.7606529,55
1657528255.06354,5319.7606615,64
1657528255.06354,5319.7606689,74
1657528255.06354,5319.7606763,76
1657528255.06354,5319.7606839,81
1657528255.06354,5319.7606902,81
1657528255.06354,5319.7606939,71
1657528255.06354,5319.7606992,69
1657528255.06354,5319.7607057,67
1657528255.06354,5319.7607134,62
1657528255.06354,5319.7607223,62
1657528255.06354,5320.3449189,67
1657528255.06354,5320.3449372,69
1657528255.36577,5320.3449462,64
1657528255.36577,5320.3449507,57
1657528255.36577,5320.3449548,57
1657528255.36577,5320.3449588,52
1657528255.36577,5320.3449633,45
1657528255.36577,5320.3449674,38
1657528255.36577,5320.3449722,19
1657528255.36577,5320.3449775,7
1657528255.36577,5320.3449854,28
1657528255.36577,5320.34499,38
1657528255.36577,5320.3449945,33
1657528255.36577,5320.3449983,40
1657528255.36577,5320.345002,43
1657528255.36577,5320.3450056,33
1657528255.36577,5320.345009,38
1657528255.36577,5320.3450127,50
1657528255.36577,5320.3450181,47
1657528255.36577,5320.3450252,50
1657528255.36577,5320.3450349,52
1657528255.36577,5320.3450437,45
1657528255.36577,5320.3450562,43
1657528255.36577,5320.3450658,47
1657528255.36577,5320.345071,47
1657528255.36577,5320.3450774,50
1657528255.36577,5320.3450816,50
1657528255.36577,5320.3450857,45
1657528255.36577,5320.3450917,45
1657528255.36577,5320.3450956,50
1657528255.36577,5320.3450997,47
1657528255.36577,5320.3451083,52
1657528255.36577,5320.3451121,57
1657528255.36577,5320.3451166,43
1657528255.36577,5320.3451223,38
1657528255.36577,5320.3451275,47
1657528255.36577,5320.3451336,64
1657528255.36577,5320.3451378,91
1657528255.36577,5320.3451433,105
1657528255.36577,5320.3451472,91
1657528255.36577,5320.3451509,76
1657528255.36577,5320.3451549,76
1657528255.36577,5320.3451609,76
1657528255.36577,5320.3451647,71
1657528255.36577,5320.3451703,64
1657528255.36577,5320.3451745,67
1657528255.36577,5320.3451786,64
1657528255.36577,5320.3451824,55
1657528255.36577,5320.3451863,64
1657528255.36577,5320.3451901,67
1657528255.36577,5320.345196,14
1657528255.36577,5320.3452003,7
1657528255.42078,5320.3452064,215
1657528255.42078,5320.3452102,615
1657528255.42078,5320.3452144,997
1657528255.42078,5320.3452202,1068
1657528255.42078,5320.3452253,613
1657528255.42078,5320.3452315,23
1657528255.42078,5320.3452356,-105
1657528255.42078,5320.3452412,33
1657528255.42078,5320.3452461,21
1657528255.42078,5320.3452516,-40
1657528255.42078,5320.3452557,-9
1657528255.42078,5320.3452613,2
1657528255.42078,5320.3452666,-11
1657528255.42078,5320.3452722,7
1657528255.42078,5320.345279,19
1657528255.42078,5320.3452847,11
1657528255.42078,5320.3452887,21
1657528255.42078,5320.3452928,38
1657528255.42078,5320.3452982,45
1657528255.42078,5320.3453021,47
1657528255.42078,5320.3453085,55
1657528255.42078,5320.8822213,62
1657528255.42078,5320.8822421,67
1657528255.42078,5320.8822523,74
1657528255.76476,5320.8822594,79
1657528255.76476,5320.8822667,79
1657528255.76476,5320.882271,81
1657528255.76476,5320.8822767,83
1657528255.76476,5320.88228,76
1657528255.76476,5320.8822836,69
1657528255.76476,5320.8822874,69
1657528255.76476,5320.8822912,62
1657528255.76476,5320.8822946,55
1657528255.76476,5320.8822979,55
1657528255.76476,5320.8823036,55
1657528255.76476,5320.8823082,55
1657528255.76476,5320.8823143,59
1657528255.76476,5320.8823279,57
1657528255.76476,5320.8823411,33
1657528255.76476,5320.8823548,14
1657528255.76476,5320.8823654,19
1657528255.76476,5320.8823752,19
1657528255.76476,5320.8823856,11
1657528255.76476,5320.882396,26
1657528255.76476,5320.8824015,33
1657528255.76476,5320.8824151,19
1657528255.76476,5320.8824245,23
1657528255.76476,5320.8824313,43
1657528255.76476,5320.8824437,45
1657528255.76476,5320.8824536,45
1657528255.76476,5320.8824622,52
1657528255.76476,5320.8824728,55
1657528255.76476,5320.8824817,55
1657528255.76476,5320.8824914,52
1657528255.76476,5320.8825023,55
1657528255.76476,5320.8825112,62
1657528255.76476,5320.8825202,57
1657528255.76476,5320.8825312,47
1657528255.76476,5320.8825391,50
1657528255.76476,5320.8825514,52
1657528255.76476,5320.8825619,50
1657528255.76476,5320.8825716,43
1657528255.76476,5320.8825842,43
1657528255.76476,5320.8825976,45
1657528255.76476,5320.8826081,40
1657528255.76476,5320.8826184,26
1657528255.76476,5320.8826254,19
1657528255.76476,5320.8826377,43
1657528255.76476,5320.8826479,81
1657528255.76476,5320.8826561,91
1657528255.76476,5320.8827305,79
1657528255.76476,5320.8827479,74
1657528255.76476,5320.8827558,64
1657528255.76476,5320.8827613,52
1657528255.77583,5320.8827666,52
1657528255.77583,5320.8827713,64
1657528255.77583,5320.8827748,62
1657528255.77583,5320.8827784,55
1657528255.77583,5320.8827822,62
1657528255.77583,5320.8827858,76
1657528255.77583,5320.8827902,64
1657528255.77583,5320.8827945,19
1657528255.77583,5320.8827979,21
1657528255.77583,5320.8828016,232
1657528255.77583,5320.8828055,639
1657528255.77583,5320.8828115,1023
1657528255.77583,5320.8828153,1076
1657528255.77583,5320.8828188,603
1657528255.77583,5320.8828223,31
1657528255.77583,5320.8828259,-95
1657528255.77583,5320.8828294,26
1657528255.77583,5320.8828331,14
1657528255.77583,5320.8828366,-35
1657528255.77583,5320.8828403,-2
1657528255.77583,5321.4661924,11
1657528255.77583,5321.466212,-4
1657528255.77583,5321.4662189,7
1657528255.77583,5321.4662247,11
1657528256.25518,5321.4662306,7
1657528256.25518,5321.4662342,14
1657528256.25518,5321.4662375,28
1657528256.25518,5321.466241,28
1657528256.25518,5321.4662444,28
1657528256.25518,5321.4662478,38
1657528256.25518,5321.4662512,47
1657528256.25518,5321.4662547,55
1657528256.25518,5321.4662583,59
1657528256.25518,5321.4662617,64
1657528256.25518,5321.4662665,64
1657528256.25518,5321.46627,59
1657528256.25518,5321.4662734,57
1657528256.25518,5321.4662767,52
1657528256.25518,5321.4662803,43
1657528256.25518,5321.4662837,40
1657528256.25518,5321.4662894,31
1657528256.25518,5321.4662948,7
1657528256.25518,5321.4662981,9
1657528256.25518,5321.4663035,31
1657528256.25518,5321.4663068,28
1657528256.25518,5321.4663101,9
1657528256.25518,5321.4663136,0
1657528256.25518,5321.4663188,-2
1657528256.25518,5321.4663222,-11
1657528256.25518,5321.4663256,-16
1657528256.25518,5321.4663289,-14
1657528256.25518,5321.4663325,-7
1657528256.25518,5321.4663377,-7
1657528256.25518,5321.4663412,-19
1657528256.25518,5321.4663444,-21
1657528256.25518,5321.4663481,-9
1657528256.25518,5321.4663563,0
1657528256.25518,5321.4663632,7
1657528256.25518,5321.4663666,14
1657528256.25518,5321.4663705,16
1657528256.25518,5321.466375,14
1657528256.25518,5321.4663785,19
1657528256.25518,5321.4663821,28
1657528256.25518,5321.4663877,33
1657528256.25518,5321.4663915,31
1657528256.25518,5321.4663969,26
1657528256.25518,5321.4664024,23
1657528256.25518,5321.466407,23
1657528256.25518,5321.4664127,21
1657528256.25518,5321.4664186,26
1657528256.25518,5321.4664224,23
1657528256.25518,5321.4664284,11
1657528256.25518,5321.4664345,9
1657528256.25518,5321.4664385,26
1657528256.26616,5321.4664786,55
1657528256.26616,5321.4664834,74
1657528256.26616,5321.4664864,74
1657528256.26616,5321.4664892,69
1657528256.26616,5321.466492,57
1657528256.26616,5321.4664946,40
1657528256.26616,5321.4664972,38
1657528256.26616,5321.4664998,40
1657528256.26616,5321.4665024,38
1657528256.26616,5321.466505,40
1657528256.26616,5321.4665076,45
1657528256.26616,5321.4665111,50
1657528256.26616,5321.4665149,52
1657528256.26616,5321.4665179,28
1657528256.26616,5321.466521,-23
1657528256.26616,5321.4665238,7
1657528256.26616,5321.4665267,266
1657528256.26616,5321.4665298,680
1657528256.26616,5321.4665328,1030
1657528256.26616,5321.9537507,994
1657528256.26616,5321.9537714,452
1657528256.26616,5321.9537857,-47
1657528256.26616,5321.9537961,-76
1657528256.26616,5321.9538061,38
1657528256.79077,5321.9538115,-7
1657528256.79077,5321.9538173,-50
1657528256.79077,5321.9538235,-16
1657528256.79077,5321.9538291,-16
1657528256.79077,5321.9538342,-31
1657528256.79077,5321.953839,-16
1657528256.79077,5321.9538453,-16
1657528256.79077,5321.9538516,-31
1657528256.79077,5321.9538563,-16
1657528256.79077,5321.9538819,-2
1657528256.79077,5321.9538861,2
1657528256.79077,5321.9538895,11
1657528256.79077,5321.953893,7
1657528256.79077,5321.9538966,-4
1657528256.79077,5321.9539,9
1657528256.79077,5321.9539042,28
1657528256.79077,5321.9539082,28
1657528256.79077,5321.9539123,33
1657528256.79077,5321.9539159,38
1657528256.79077,5321.9539197,16
1657528256.79077,5321.9539228,-11
1657528256.79077,5321.9539261,-11
1657528256.79077,5321.9539293,-7
1657528256.79077,5321.9539327,-14
1657528256.79077,5321.9539362,-16
1657528256.79077,5321.9539396,-11
1657528256.79077,5321.9539429,-2
1657528256.79077,5321.9539463,9
1657528256.79077,5321.9539498,11
1657528256.79077,5321.9539542,4
1657528256.79077,5321.9539604,-7
1657528256.79077,5321.9539658,-11
1657528256.79077,5321.9539693,0
1657528256.79077,5321.9539753,0
1657528256.79077,5321.9539785,-7
1657528256.79077,5321.9539817,9
1657528256.79077,5321.9539847,31
1657528256.79077,5321.9539889,28
1657528256.79077,5321.9539942,23
1657528256.79077,5321.9539992,38
1657528256.79077,5321.9540047,50
1657528256.79077,5321.9540079,52
1657528256.79077,5321.9540112,59
1657528256.79077,5321.9540145,62
1657528256.79077,5321.9540187,57
1657528256.79077,5321.9540244,62
1657528256.79077,5321.9540277,64
1657528256.79077,5321.9540311,62
1657528256.79077,5321.9540363,57
1657528256.79077,5321.9540397,59
1657528256.80175,5321.9540433,59
1657528256.80175,5321.9540497,62
1657528256.80175,5321.9540569,57
1657528256.80175,5321.9540647,45
1657528256.80175,5321.9540724,43
1657528256.80175,5321.9540778,52
1657528256.80175,5321.9540821,74
1657528256.80175,5321.9540857,93
1657528256.80175,5321.9540908,93
1657528256.80175,5321.9540947,88
1657528256.80175,5321.9540984,83
1657528256.80175,5321.954103,71
1657528256.80175,5321.9541101,62
1657528256.80175,5321.9541135,59
1657528256.80175,5321.9541167,57
1657528256.80175,5321.9541216,62
1657528256.80175,5321.9541292,71
1657528256.80175,5321.9541366,71
1657528256.80175,5322.48974,71
1657528256.80175,5322.4897623,43
1657528256.80175,5322.4897969,4
1657528256.80175,5322.4898111,122
1657528256.80175,5322.4898204,469
1657528256.80175,5322.4898293,889
1657528257.37766,5322.4898371,1090
1657528257.37766,5322.4898427,788
1657528257.37766,5322.4898488,182
1657528257.37766,5322.4898544,-100
1657528257.37766,5322.4898595,-9
1657528257.37766,5322.4898652,26
1657528257.37766,5322.489871,-40
1657528257.37766,5322.4898755,-38
1657528257.37766,5322.4898812,-19
1657528257.37766,5322.4898859,-38
1657528257.37766,5322.4898905,-40
1657528257.37766,5322.489895,-38
1657528257.37766,5322.4898998,-45
1657528257.37766,5322.4899048,-33
1657528257.37766,5322.4899098,-14
1657528257.37766,5322.4899147,-9
1657528257.37766,5322.4899193,-9
1657528257.37766,5322.4899241,-2
1657528257.37766,5322.4899292,14
1657528257.37766,5322.4899345,33
1657528257.37766,5322.4899422,40
1657528257.37766,5322.4899475,47
1657528257.37766,5322.4899544,50
1657528257.37766,5322.4899611,47
1657528257.37766,5322.4899662,50
1657528257.37766,5322.4899732,52
1657528257.37766,5322.4899798,45
1657528257.37766,5322.4899863,35
1657528257.37766,5322.4899935,28
1657528257.37766,5322.4900004,31
1657528257.37766,5322.4900056,40
1657528257.37766,5322.4900128,47
1657528257.37766,5322.4900193,50
1657528257.37766,5322.4900261,55
1657528257.37766,5322.4900331,47
1657528257.37766,5322.4900405,40
1657528257.37766,5322.4900476,43
1657528257.37766,5322.4900546,40
1657528257.37766,5322.4900599,38
1657528257.37766,5322.4900669,45
1657528257.37766,5322.4900721,52
1657528257.37766,5322.4900794,52
1657528257.37766,5322.4900851,57
1657528257.37766,5322.4900902,62
1657528257.37766,5322.4900956,69
1657528257.37766,5322.4901026,76
1657528257.37766,5322.4901082,79
1657528257.37766,5322.4901148,79
1657528257.37766,5322.4901202,83
1657528257.37766,5322.4901272,86
1657528257.38963,5322.4901324,83
1657528257.38963,5322.4901392,79
1657528257.38963,5322.4901446,76
1657528257.38963,5322.4901515,79
1657528257.38963,5322.4901568,81
1657528257.38963,5322.4901623,81
1657528257.38963,5322.4901692,76
1657528257.38963,5322.4901761,76
1657528257.38963,5322.4901832,74
1657528257.38963,5322.4901881,64
1657528257.38963,5322.4901929,59
1657528257.38963,5322.4901981,81
1657528257.38963,5322.4902032,112
1657528257.38963,5322.4902102,117
1657528257.38963,5322.4902159,107
1657528257.38963,5322.4902228,112
1657528257.38963,5322.4902284,105
1657528257.38963,5323.0751434,86
1657528257.38963,5323.0751726,79
1657528257.38963,5323.0751858,88
1657528257.38963,5323.0752003,91
1657528257.38963,5323.0752118,71
1657528257.38963,5323.0752193,52
1657528257.38963,5323.075229,64
1657528257.95869,5323.0752338,67
1657528257.95869,5323.0752411,4
1657528257.95869,5323.0752475,-14
1657528257.95869,5323.0752528,198
1657528257.95869,5323.0752587,606
1657528257.95869,5323.0752652,997
1657528257.95869,5323.0752695,1061
1657528257.95869,5323.075274,565
1657528257.95869,5323.0752783,-38
1657528257.95869,5323.0752816,-143
1657528257.95869,5323.0752846,14
1657528257.95869,5323.0752915,-4
1657528257.95869,5323.0752974,-71
1657528257.95869,5323.0753016,-33
1657528257.95869,5323.0753046,-14
1657528257.95869,5323.0753078,-33
1657528257.95869,5323.0753113,-23
1657528257.95869,5323.0753143,-7
1657528257.95869,5323.0753207,0
1657528257.95869,5323.0753257,9
1657528257.95869,5323.075331,14
1657528257.95869,5323.0753369,21
1657528257.95869,5323.0753409,35
1657528257.95869,5323.0753479,40
1657528257.95869,5323.0753536,47
1657528257.95869,5323.0753581,67
1657528257.95869,5323.0753639,74
1657528257.95869,5323.075369,71
1657528257.95869,5323.0753744,93
1657528257.95869,5323.0753797,100
1657528257.95869,5323.0753853,81
1657528257.95869,5323.0753904,71
1657528257.95869,5323.0753951,69
1657528257.95869,5323.0754015,57
1657528257.95869,5323.0754069,50
1657528257.95869,5323.0754113,55
1657528257.95869,5323.0754168,59
1657528257.95869,5323.0754205,59
1657528257.95869,5323.0754258,59
1657528257.95869,5323.0754306,50
1657528257.95869,5323.075434,38
1657528257.95869,5323.0754477,38
1657528257.95869,5323.0754564,40
1657528257.95869,5323.0754618,33
1657528257.95869,5323.0754659,26
1657528257.95869,5323.0754703,33
1657528257.95869,5323.0754782,45
1657528257.95869,5323.0754845,59
1657528257.95869,5323.0754882,67
1657528257.95869,5323.0754918,69
1657528257.96843,5323.0754955,67
1657528257.96843,5323.0754991,69
1657528257.96843,5323.0755028,81
1657528257.96843,5323.0755064,88
1657528257.96843,5323.0755099,86
1657528257.96843,5323.0755134,83
1657528257.96843,5323.075517,83
1657528257.96843,5323.0755206,83
1657528257.96843,5323.0755291,79
1657528257.96843,5323.075534,81
1657528257.96843,5323.0757062,81
1657528257.96843,5323.0757216,74
1657528257.96843,5323.0757278,74
1657528257.96843,5323.0757333,76
1657528257.96843,5323.0757382,71
1657528257.96843,5323.0757436,64
1657528257.96843,5323.6601847,62
1657528257.96843,5323.6602038,74
1657528257.96843,5323.6602083,86
1657528257.96843,5323.6602115,81
1657528257.96843,5323.660215,81
1657528257.96843,5323.6602182,93
1657528257.96843,5323.6602217,88
1657528257.96843,5323.6602252,62
1657528258.50075,5323.6602285,40
1657528258.50075,5323.6602317,33
1657528258.50075,5323.6602347,43
1657528258.50075,5323.6602382,47
1657528258.50075,5323.6602416,47
1657528258.50075,5323.6602447,47
1657528258.50075,5323.6602479,28
1657528258.50075,5323.6602513,-28
1657528258.50075,5323.6602553,-21
1657528258.50075,5323.6602592,210
1657528258.50075,5323.6602623,649
1657528258.50075,5323.6602654,1066
1657528258.50075,5323.660269,1102
1657528258.50075,5323.6602723,560
1657528258.50075,5323.6602758,-45
1657528258.50075,5323.6602793,-124
1657528258.50075,5323.6602851,33
1657528258.50075,5323.6602887,4
1657528258.50075,5323.6602922,-52
1657528258.50075,5323.6602955,-11
1657528258.50075,5323.6602987,4
1657528258.50075,5323.6603023,-11
1657528258.50075,5323.6603058,0
1657528258.50075,5323.6603093,7
1657528258.50075,5323.6603129,2
1657528258.50075,5323.6603197,11
1657528258.50075,5323.6603295,26
1657528258.50075,5323.6603391,31
1657528258.50075,5323.660345,40
1657528258.50075,5323.6603538,55
1657528258.50075,5323.660361,57
1657528258.50075,5323.6603693,59
1657528258.50075,5323.6603768,74
1657528258.50075,5323.6603824,91
1657528258.50075,5323.6603878,95
1657528258.50075,5323.6603933,98
1657528258.50075,5323.6603987,100
1657528258.50075,5323.6604037,91
1657528258.50075,5323.6604092,76
1657528258.50075,5323.6604171,69
1657528258.50075,5323.6604273,67
1657528258.50075,5323.6604342,59
1657528258.50075,5323.6604381,50
1657528258.50075,5323.6604419,62
1657528258.50075,5323.6604457,74
1657528258.50075,5323.6604496,67
1657528258.50075,5323.6604554,57
1657528258.50075,5323.6604602,47
1657528258.50075,5323.6604644,35
1657528258.50075,5323.6604759,35
1657528258.51172,5323.660484,35
1657528258.51172,5323.6604897,35
1657528258.51172,5323.660497,50
1657528258.51172,5323.6605049,55
1657528258.51172,5323.6605159,57
1657528258.51172,5323.6605254,64
1657528258.51172,5323.6605324,62
1657528258.51172,5323.6605411,59
1657528258.51172,5323.6605531,67
1657528258.51172,5323.6605767,64
1657528258.51172,5323.6605855,47
1657528258.51172,5323.6605895,40
1657528258.51172,5323.6605929,52
1657528258.51172,5323.660596,55
1657528258.51172,5323.660599,52
1657528258.51172,5324.1965512,52
1657528258.51172,5324.196571,52
1657528258.51172,5324.1965772,52
1657528258.51172,5324.1965814,55
1657528258.51172,5324.1965854,55
1657528258.51172,5324.1965889,45
1657528258.51172,5324.1965924,43
1657528258.51172,5324.1965957,40
1657528258.51172,5324.1965989,45
1657528259.07903,5324.1966024,79
1657528259.07903,5324.1966058,93
1657528259.07903,5324.1966095,71
1657528259.07903,5324.1966132,64
1657528259.07903,5324.1966169,74
1657528259.07903,5324.1966205,64
1657528259.07903,5324.1966238,43
1657528259.07903,5324.196627,35
1657528259.07903,5324.1966306,33
1657528259.07903,5324.1966361,21
1657528259.07903,5324.1966393,23
1657528259.07903,5324.1966425,35
1657528259.07903,5324.1966457,31
1657528259.07903,5324.1966488,7
1657528259.07903,5324.1966519,-35
1657528259.07903,5324.1966551,35
1657528259.07903,5324.1966593,378
1657528259.07903,5324.1966634,853
1657528259.07903,5324.1966669,1136
1657528259.07903,5324.1966707,901
1657528259.07903,5324.1966744,254
1657528259.07903,5324.1966782,-139
1657528259.07903,5324.196682,-59
1657528259.07903,5324.1966855,23
1657528259.07903,5324.1966892,-43
1657528259.07903,5324.1966929,-50
1657528259.07903,5324.1966965,-11
1657528259.07903,5324.1967018,-16
1657528259.07903,5324.1967056,-23
1657528259.07903,5324.1967088,-4
1657528259.07903,5324.196712,-2
1657528259.07903,5324.1967152,2
1657528259.07903,5324.1967183,16
1657528259.07903,5324.1967215,23
1657528259.07903,5324.1967246,26
1657528259.07903,5324.1967284,40
1657528259.07903,5324.1967314,52
1657528259.07903,5324.1967346,59
1657528259.07903,5324.1967377,67
1657528259.07903,5324.1967407,69
1657528259.07903,5324.1967442,69
1657528259.07903,5324.1967476,71
1657528259.07903,5324.1967506,76
1657528259.07903,5324.1967538,74
1657528259.07903,5324.1967573,69
1657528259.07903,5324.1967607,59
1657528259.07903,5324.1967639,43
1657528259.07903,5324.1967671,35
1657528259.07903,5324.1967701,52
1657528259.07903,5324.1967739,67
1657528259.09003,5324.1967772,62
1657528259.09003,5324.1967804,52
1657528259.09003,5324.1967834,35
1657528259.09003,5324.1967866,21
1657528259.09003,5324.1967895,21
1657528259.09003,5324.1967926,16
1657528259.09003,5324.1967957,9
1657528259.09003,5324.1968007,23
1657528259.09003,5324.1968042,31
1657528259.09003,5324.1968089,21
1657528259.09003,5324.1968158,26
1657528259.09003,5324.1968226,45
1657528259.09003,5324.1968301,52
1657528259.09003,5324.1968371,55
1657528259.09003,5324.781292,64
1657528259.09003,5324.7813574,62
1657528259.09003,5324.7814064,55
1657528259.09003,5324.7814119,62
1657528259.09003,5324.781427,67
1657528259.09003,5324.7814306,62
1657528259.09003,5324.781434,59
1657528259.09003,5324.7814374,50
1657528259.09003,5324.7814426,35
1657528259.09003,5324.7814466,35
1657528259.6234,5324.7814508,40
1657528259.6234,5324.7814541,47
1657528259.6234,5324.7814576,47
1657528259.6234,5324.7814609,38
1657528259.6234,5324.7814644,16
1657528259.6234,5324.7814684,-2
1657528259.6234,5324.7814715,2
1657528259.6234,5324.781475,33
1657528259.6234,5324.7814784,64
1657528259.6234,5324.7814819,69
1657528259.6234,5324.7814853,64
1657528259.6234,5324.7814888,59
1657528259.6234,5324.7814922,47
1657528259.6234,5324.7814955,40
1657528259.6234,5324.7815377,43
1657528259.6234,5324.7815435,45
1657528259.6234,5324.7815486,47
1657528259.6234,5324.7815522,57
1657528259.6234,5324.7815559,62
1657528259.6234,5324.7815627,64
1657528259.6234,5324.7815692,47
1657528259.6234,5324.7815733,4
1657528259.6234,5324.7815777,55
1657528259.6234,5324.7816228,347
1657528259.6234,5324.7816319,795
1657528259.6234,5324.7816363,1107
1657528259.6234,5324.7816428,949
1657528259.6234,5324.7816482,345
1657528259.6234,5324.7816529,-86
1657528259.6234,5324.7816921,-40
1657528259.6234,5324.7817332,55
1657528259.6234,5324.7817499,2
1657528259.6234,5324.7817554,-9
1657528259.6234,5324.7817661,26
1657528259.6234,5324.7817706,16
1657528259.6234,5324.781774,4
1657528259.6234,5324.781779,19
1657528259.6234,5324.7817837,26
1657528259.6234,5324.7817867,26
1657528259.6234,5324.7817896,33
1657528259.6234,5324.7817925,45
1657528259.6234,5324.7817952,57
1657528259.6234,5324.7817982,59
1657528259.6234,5324.781801,57
1657528259.6234,5324.7818039,55
1657528259.6234,5324.7818066,64
1657528259.6234,5324.7818094,74
1657528259.6234,5324.7818122,81
1657528259.6234,5324.781815,83
1657528259.6234,5324.7818178,86
1657528259.63437,5324.7818206,79
1657528259.63437,5324.7818234,67
1657528259.63437,5324.7818262,62
1657528259.63437,5324.7818289,69
1657528259.63437,5324.7818318,67
1657528259.63437,5324.7818345,62
1657528259.63437,5324.7818373,79
1657528259.63437,5324.7818449,95
1657528259.63437,5324.7818538,86
1657528259.63437,5324.7818599,76
1657528259.63437,5324.7818657,74
1657528259.63437,5324.7818691,62
1657528259.63437,5324.7818725,52
1657528259.63437,5325.3174386,50
1657528259.63437,5325.3174582,52
1657528259.63437,5325.317467,57
1657528259.63437,5325.3174733,67
1657528259.63437,5325.3174803,64
1657528259.63437,5325.317484,57
1657528259.63437,5325.3174871,64
1657528259.63437,5325.3174916,74
1657528259.63437,5325.3174961,76
1657528259.63437,5325.3174992,74
1657528259.63437,5325.3175024,64
1657528260.15602,5325.317506,52
1657528260.15602,5325.3175096,47
1657528260.15602,5325.3175133,45
1657528260.15602,5325.3175176,45
1657528260.15602,5325.3175213,57
1657528260.15602,5325.3175268,38
1657528260.15602,5325.3175335,2
1657528260.15602,5325.3175403,-2
1657528260.15602,5325.3175474,19
1657528260.15602,5325.3175539,31
1657528260.15602,5325.3175603,33
1657528260.15602,5325.3175666,35
1657528260.15602,5325.3175724,35
1657528260.15602,5325.3175784,40
1657528260.15602,5325.3175844,62
1657528260.15602,5325.3175904,81
1657528260.15602,5325.3175952,76
1657528260.15602,5325.3176014,83
1657528260.15602,5325.3176078,81
1657528260.15602,5325.3176138,59
1657528260.15602,5325.3176187,47
1657528260.15602,5325.3176243,52
1657528260.15602,5325.3176309,59
1657528260.15602,5325.3176402,57
1657528260.15602,5325.3176464,55
1657528260.15602,5325.3176549,52
1657528260.15602,5325.3176607,47
1657528260.15602,5325.317669,31
1657528260.15602,5325.3176754,28
1657528260.15602,5325.3176845,184
1657528260.15602,5325.3176909,553
1657528260.15602,5325.317699,951
1657528260.15602,5325.3177052,1037
1657528260.15602,5325.317713,618
1657528260.15602,5325.3177198,76
1657528260.15602,5325.3177286,-81
1657528260.15602,5325.3177349,4
1657528260.15602,5325.317743,2
1657528260.15602,5325.3177489,-40
1657528260.15602,5325.3177573,-16
1657528260.15602,5325.3177634,4
1657528260.15602,5325.3177719,-7
1657528260.15602,5325.3177785,4
1657528260.15602,5325.3177868,33
1657528260.15602,5325.3177933,33
1657528260.15602,5325.3178017,33
1657528260.15602,5325.317808,71
1657528260.15602,5325.3178165,76
1657528260.15602,5325.3178228,38
1657528260.15602,5325.317831,40
1657528260.16699,5325.317839,62
1657528260.16699,5325.3178454,62
1657528260.16699,5325.3178537,74
1657528260.16699,5325.3178595,95
1657528260.16699,5325.3178681,93
1657528260.16699,5325.3178744,95
1657528260.16699,5325.3178824,103
1657528260.16699,5325.3178885,95
1657528260.16699,5325.317897,83
1657528260.16699,5325.3179043,79
1657528260.16699,5325.317913,81
1657528260.16699,5325.317919,86
1657528260.16699,5325.8541788,95
1657528260.16699,5325.8541915,100
1657528260.16699,5325.8541948,103
1657528260.16699,5325.8541975,100
1657528260.16699,5325.8542001,95
1657528260.16699,5325.8542026,88
1657528260.16699,5325.8542047,83
1657528260.16699,5325.8542069,69
1657528260.16699,5325.854209,64
1657528260.16699,5325.8542111,71
1657528260.16699,5325.8542133,59
1657528260.16699,5325.8542153,38
1657528260.74305,5325.8542174,43
1657528260.74305,5325.8542196,59
1657528260.74305,5325.854222,50
1657528260.74305,5325.8542243,43
1657528260.74305,5325.8542266,57
1657528260.74305,5325.8542288,62
1657528260.74305,5325.854231,59
1657528260.74305,5325.8542332,64
1657528260.74305,5325.8542354,64
1657528260.74305,5325.8542376,62
1657528260.74305,5325.8542403,62
1657528260.74305,5325.8542431,62
1657528260.74305,5325.8542506,59
1657528260.74305,5325.8542609,67
1657528260.74305,5325.8542677,79
1657528260.74305,5325.8542736,81
1657528260.74305,5325.8542816,79
1657528260.74305,5325.8542876,81
1657528260.74305,5325.8542898,91
1657528260.74305,5325.854293,98
1657528260.74305,5325.8542951,103
1657528260.74305,5325.8542972,110
1657528260.74305,5325.8542993,119
1657528260.74305,5325.8543013,110
1657528260.74305,5325.8543035,74
1657528260.74305,5325.8543062,52
1657528260.74305,5325.8543082,67
1657528260.74305,5325.8543103,76
1657528260.74305,5325.8543124,69
1657528260.74305,5325.8543145,81
1657528260.74305,5325.8543166,93
1657528260.74305,5325.8543186,79
1657528260.74305,5325.8543207,52
1657528260.74305,5325.8543227,119
1657528260.74305,5325.8543249,378
1657528260.74305,5325.8543269,759
1657528260.74305,5325.8543289,1016
1657528260.74305,5325.854331,850
1657528260.74305,5325.8543331,321
1657528260.74305,5325.8543353,-19
1657528260.74305,5325.8543374,16
1657528260.74305,5325.8543395,71
1657528260.74305,5325.8543415,31
1657528260.74305,5325.8543436,19
1657528260.74305,5325.8543457,43
1657528260.74305,5325.8543478,45
1657528260.74305,5325.8543498,38
1657528260.74305,5325.8543518,43
1657528260.74305,5325.8543539,47
1657528260.74305,5325.854356,50
1657528260.75301,5325.854358,50
1657528260.75301,5325.8543601,47
1657528260.75301,5325.854362,57
1657528260.75301,5325.854364,67
1657528260.75301,5325.8543661,69
1657528260.75301,5325.8543681,74
1657528260.75301,5325.8543702,79
1657528260.75301,5325.8543723,79
1657528260.75301,5325.8543751,83
1657528260.75301,5325.8543771,88
1657528260.75301,5325.8543792,88
1657528260.75301,5326.4393324,88
1657528260.75301,5326.4393465,71
1657528260.75301,5326.4393505,62
1657528260.75301,5326.4393562,69
1657528260.75301,5326.4393598,64
1657528260.75301,5326.4393629,52
1657528260.75301,5326.4393675,59
1657528260.75301,5326.4393697,74
1657528260.75301,5326.4393718,76
1657528260.75301,5326.4393739,74
1657528260.75301,5326.4393759,57
1657528260.75301,5326.4393786,31
1657528260.75301,5326.439381,14
1657528261.37461,5326.439383,21
1657528261.37461,5326.439385,28
1657528261.37461,5326.4393869,28
1657528261.37461,5326.4393888,35
1657528261.37461,5326.4393907,38
1657528261.37461,5326.4393927,31
1657528261.37461,5326.4393946,28
1657528261.37461,5326.4393965,38
1657528261.37461,5326.4393984,43
1657528261.37461,5326.4394003,43
1657528261.37461,5326.4394023,40
1657528261.37461,5326.4394042,35
1657528261.37461,5326.4394062,40
1657528261.37461,5326.4394081,47
1657528261.37461,5326.4394099,45
1657528261.37461,5326.4394119,47
1657528261.37461,5326.4394138,47
1657528261.37461,5326.4394157,33
1657528261.37461,5326.4394176,21
1657528261.37461,5326.4394195,21
1657528261.37461,5326.4394227,26
1657528261.37461,5326.4394257,33
1657528261.37461,5326.4394371,52
1657528261.37461,5326.4394455,64
1657528261.37461,5326.4394502,52
1657528261.37461,5326.4394523,40
1657528261.37461,5326.4394548,47
1657528261.37461,5326.439457,45
1657528261.37461,5326.4394591,31
1657528261.37461,5326.4394612,31
1657528261.37461,5326.4394633,40
1657528261.37461,5326.4394655,40
1657528261.37461,5326.4394675,45
1657528261.37461,5326.4394696,52
1657528261.37461,5326.4394717,47
1657528261.37461,5326.4394739,21
1657528261.37461,5326.4394759,21
1657528261.37461,5326.439478,182

1657528261.37461,5326.43948,515
1657528261.37461,5326.4394821,843
1657528261.37461,5326.4394841,889
1657528261.37461,5326.4394862,496
1657528261.37461,5326.4394883,33
1657528261.37461,5326.4394904,-64
1657528261.37461,5326.4394926,31
1657528261.37461,5326.4394948,21
1657528261.37461,5326.4394969,-16
1657528261.37461,5326.439499,4
1657528261.37461,5326.4395011,16
1657528261.37461,5326.4395032,4
1657528261.38558,5326.4395053,14
1657528261.38558,5326.4395075,28
1657528261.38558,5326.4395097,28
1657528261.38558,5326.4395119,33
1657528261.38558,5326.439514,40
1657528261.38558,5326.4395161,45
1657528261.38558,5326.4395182,50
1657528261.38558,5326.4395203,55
1657528261.38558,5326.4395224,64
1657528261.38558,5326.4395246,71
1657528261.38558,5327.0731061,74
1657528261.38558,5327.0731318,71
1657528261.38558,5327.0731348,71
1657528261.38558,5327.0731371,71
1657528261.38558,5327.0731392,64
1657528261.38558,5327.0731413,59
1657528261.38558,5327.0731434,62
1657528261.38558,5327.0731454,55
1657528261.38558,5327.0731474,28
1657528261.38558,5327.0731494,11
1657528261.38558,5327.0731515,26
1657528261.38558,5327.0731535,38
1657528261.38558,5327.0731555,38
1657528261.38558,5327.0731575,35
1657528261.8563,5327.0731595,23
1657528261.8563,5327.0731615,4
1657528261.8563,5327.0731641,0
1657528261.8563,5327.07317,2
1657528261.8563,5327.073181,2
1657528261.8563,5327.0731866,4
1657528261.8563,5327.0731979,7
1657528261.8563,5327.0732095,11
1657528261.8563,5327.0732245,19
1657528261.8563,5327.0732389,23
1657528261.8563,5327.0732482,21
1657528261.8563,5327.0732508,14
1657528261.8563,5327.0732529,14
1657528261.8563,5327.073255,11
1657528261.8563,5327.073257,9
1657528261.8563,5327.0732591,14
1657528261.8563,5327.0732611,23
1657528261.8563,5327.0732631,23
1657528261.8563,5327.0732653,14
1657528261.8563,5327.0732673,11
1657528261.8563,5327.0732693,21
1657528261.8563,5327.0732713,21
1657528261.8563,5327.0732734,21
1657528261.8563,5327.0732753,26
1657528261.8563,5327.0732774,26
1657528261.8563,5327.0732794,33
1657528261.8563,5327.0732815,55
1657528261.8563,5327.0732835,57
1657528261.8563,5327.0732855,47
1657528261.8563,5327.0732875,55
1657528261.8563,5327.0732896,52
1657528261.8563,5327.0732916,28
1657528261.8563,5327.0732936,16
1657528261.8563,5327.0732957,35
1657528261.8563,5327.0732977,47
1657528261.8563,5327.0733018,43
1657528261.8563,5327.0733039,45
1657528261.8563,5327.0733105,55
1657528261.8563,5327.0733176,28
1657528261.8563,5327.0733242,-19
1657528261.8563,5327.0733289,55
1657528261.8563,5327.0733358,373
1657528261.8563,5327.07334,783
1657528261.8563,5327.073345,992
1657528261.8563,5327.0733494,754
1657528261.8563,5327.0733538,191
1657528261.8563,5327.0733581,-122
1657528261.8563,5327.0733624,-26
1657528261.8563,5327.0733672,59
1657528261.8563,5327.0733716,7
1657528261.86827,5327.0733795,0
1657528261.86827,5327.0733839,26
1657528261.86827,5327.0733899,16
1657528261.86827,5327.0733941,16
1657528261.86827,5327.0734002,38
1657528261.86827,5327.0734061,47
1657528261.86827,5327.0734105,43
1657528261.86827,5327.0734163,45
1657528261.86827,5327.0734202,62
1657528261.86827,5327.560198,74
1657528261.86827,5327.5602263,71
1657528261.86827,5327.5602371,74
1657528261.86827,5327.5602485,86
1657528261.86827,5327.5602532,98
1657528261.86827,5327.560259,103
1657528261.86827,5327.5602626,110
1657528261.86827,5327.5602676,115
1657528261.86827,5327.5602781,107
1657528261.86827,5327.5602867,103
1657528261.86827,5327.5602923,91
1657528261.86827,5327.560301,69
1657528261.86827,5327.5603061,55
1657528261.86827,5327.5603114,59
1657528261.86827,5327.5603169,67
1657528262.44398,5327.5603265,64
1657528262.44398,5327.5603339,69
1657528262.44398,5327.5603409,69
1657528262.44398,5327.5603478,55
1657528262.44398,5327.560355,43
1657528262.44398,5327.5603617,38
1657528262.44398,5327.5603674,35
1657528262.44398,5327.5603738,26
1657528262.44398,5327.5603789,19
1657528262.44398,5327.5603858,16
1657528262.44398,5327.5603898,16
1657528262.44398,5327.560395,21
1657528262.44398,5327.5604002,28
1657528262.44398,5327.5604038,33
1657528262.44398,5327.5604073,31
1657528262.44398,5327.5604116,23
1657528262.44398,5327.5604206,26
1657528262.44398,5327.5604271,31
1657528262.44398,5327.560433,21
1657528262.44398,5327.5604394,19
1657528262.44398,5327.5604465,26
1657528262.44398,5327.5604541,19
1657528262.44398,5327.5604598,16
1657528262.44398,5327.5604641,28
1657528262.44398,5327.5604707,31
1657528262.44398,5327.560479,21
1657528262.44398,5327.560486,14
1657528262.44398,5327.560493,21
1657528262.44398,5327.5604965,40
1657528262.44398,5327.5604998,52
1657528262.44398,5327.5605031,47
1657528262.44398,5327.5605064,47
1657528262.44398,5327.5605109,50
1657528262.44398,5327.560518,35
1657528262.44398,5327.5605254,19
1657528262.44398,5327.5605308,21
1657528262.44398,5327.5605376,31
1657528262.44398,5327.560543,35
1657528262.44398,5327.5605499,43
1657528262.44398,5327.5605553,45
1657528262.44398,5327.5605626,23
1657528262.44398,5327.5605662,-35
1657528262.44398,5327.5605695,-38
1657528262.44398,5327.5606106,198
1657528262.44398,5327.5606222,635
1657528262.44398,5327.5606312,1004
1657528262.44398,5327.5606391,985
1657528262.44398,5327.5606455,472
1657528262.44398,5327.5606518,-50
1657528262.44398,5327.5606628,-105
1657528262.45495,5327.5606762,23
1657528262.45495,5327.5606849,-7
1657528262.45495,5327.5606904,-52
1657528262.45495,5327.5606966,-19
1657528262.45495,5327.5607013,-14
1657528262.45495,5327.5607079,-23
1657528262.45495,5327.5607141,-7
1657528262.45495,5327.5607186,2
1657528262.45495,5328.1464319,0
1657528262.45495,5328.1464481,14
1657528262.45495,5328.1464523,23
1657528262.45495,5328.1464574,26
1657528262.45495,5328.1464608,38
1657528262.45495,5328.146464,52
1657528262.45495,5328.1464672,57
1657528262.45495,5328.1464701,57
1657528262.45495,5328.1464728,50
1657528262.45495,5328.1464756,55
1657528262.45495,5328.1464784,64
1657528262.45495,5328.1464811,59
1657528262.45495,5328.1464838,52
1657528262.45495,5328.1464867,45
1657528262.45495,5328.1464903,26
1657528262.45495,5328.1464966,7
1657528262.97779,5328.1465019,4
1657528262.97779,5328.1465064,9
1657528262.97779,5328.1465133,19
1657528262.97779,5328.1465203,21
1657528262.97779,5328.1465274,14
1657528262.97779,5328.1465347,2
1657528262.97779,5328.1465426,-2
1657528262.97779,5328.1465504,-4
1657528262.97779,5328.1465698,-11
1657528262.97779,5328.1467426,-16
1657528262.97779,5328.1467549,-14
1657528262.97779,5328.146761,-7
1657528262.97779,5328.1467667,0
1657528262.97779,5328.1467738,4
1657528262.97779,5328.1467797,14
1657528262.97779,5328.1467862,23
1657528262.97779,5328.1468239,23
1657528262.97779,5328.1469893,26
1657528262.97779,5328.1470005,23
1657528262.97779,5328.1470083,23
1657528262.97779,5328.1470154,31
1657528262.97779,5328.1470221,35
1657528262.97779,5328.1470289,28
1657528262.97779,5328.1470339,16
1657528262.97779,5328.1470384,14
1657528262.97779,5328.1470429,23
1657528262.97779,5328.1470475,31
1657528262.97779,5328.1470521,28
1657528262.97779,5328.1470566,19
1657528262.97779,5328.147063,23
1657528262.97779,5328.1470694,47
1657528262.97779,5328.1470742,59
1657528262.97779,5328.1470807,55
1657528262.97779,5328.1470851,59
1657528262.97779,5328.1470911,64
1657528262.97779,5328.1470947,45
1657528262.97779,5328.1470988,26
1657528262.97779,5328.1471044,23
1657528262.97779,5328.1471092,31
1657528262.97779,5328.1471148,35
1657528262.97779,5328.1471187,38
1657528262.97779,5328.1471241,35
1657528262.97779,5328.147128,21
1657528262.97779,5328.1471319,-35
1657528262.97779,5328.1471375,-40
1657528262.97779,5328.1471426,196
1657528262.97779,5328.1471486,656
1657528262.97779,5328.1471529,1068
1657528262.97779,5328.1471589,1068
1657528262.97779,5328.1471628,524
1657528262.98879,5328.1471668,-40
1657528262.98879,5328.1471707,-103
1657528262.98879,5328.1471746,40
1657528262.98879,5328.1471784,9
1657528262.98879,5328.1471823,-43
1657528262.98879,5328.1471862,-2
1657528262.98879,5328.1471904,11
1657528262.98879,5328.6817944,-4
1657528262.98879,5328.6818143,4
1657528262.98879,5328.6818297,19
1657528262.98879,5328.6818445,11
1657528262.98879,5328.6818605,4
1657528262.98879,5328.6818743,16
1657528262.98879,5328.6818888,33
1657528262.98879,5328.6819025,40
1657528262.98879,5328.6819147,45
1657528262.98879,5328.6819436,59
1657528262.98879,5328.681973,71
1657528262.98879,5328.6819874,67
1657528262.98879,5328.6819967,64
1657528262.98879,5328.6820006,79
1657528262.98879,5328.6820058,83
1657528262.98879,5328.6820179,69
1657528262.98879,5328.6820236,62
1657528263.66521,5328.6820277,52
1657528263.66521,5328.68203,33
1657528263.66521,5328.6820323,31
1657528263.66521,5328.6820409,47
1657528263.66521,5328.6820503,52
1657528263.66521,5328.6820533,50
1657528263.66521,5328.6820554,47
1657528263.66521,5328.6820577,35
1657528263.66521,5328.6820654,26
1657528263.66521,5328.6820746,26
1657528263.66521,5328.6820819,21
1657528263.66521,5328.6820845,21
1657528263.66521,5328.6820868,21
1657528263.66521,5328.6820897,19
1657528263.66521,5328.682092,23
1657528263.66521,5328.6820941,40
1657528263.66521,5328.6820963,55
1657528263.66521,5328.6820984,64
1657528263.66521,5328.6821004,67
1657528263.66521,5328.6821026,71
1657528263.66521,5328.6821048,74
1657528263.66521,5328.682107,76
1657528263.66521,5328.682109,76
1657528263.66521,5328.6821112,76
1657528263.66521,5328.6821132,71
1657528263.66521,5328.6821154,62
1657528263.66521,5328.6821176,55
1657528263.66521,5328.6821326,59
1657528263.66521,5328.6821417,69
1657528263.66521,5328.6821489,62
1657528263.66521,5328.6821516,45
1657528263.66521,5328.6821667,45
1657528263.66521,5328.6821686,55
1657528263.66521,5328.6821744,64
1657528263.66521,5328.6821993,71
1657528263.66521,5328.6822036,74
1657528263.66521,5328.6822074,74
1657528263.66521,5328.6822094,59
1657528263.66521,5328.6822116,40
1657528263.66521,5328.6822177,47
1657528263.66521,5328.6822292,59
1657528263.66521,5328.6822346,55
1657528263.66521,5328.6822377,55
1657528263.66521,5328.6822399,59
1657528263.66521,5328.6822421,33
1657528263.66521,5328.6822443,-19
1657528263.66521,5328.6822466,-14
1657528263.66521,5328.6822503,222
1657528263.66521,5328.6822636,697
1657528263.66521,5328.6822701,1112
1657528263.67618,5328.6822726,1090
1657528263.67618,5328.6822748,534
1657528263.67618,5328.6822769,-21
1657528263.67618,5328.6822791,-79
1657528263.67618,5328.6822872,50
1657528263.67618,5328.6822981,11
1657528263.67618,5329.3657447,-35
1657528263.67618,5329.3657627,4
1657528263.67618,5329.3657681,9
1657528263.67618,5329.3657722,-4
1657528263.67618,5329.3657763,11
1657528263.67618,5329.3657805,26
1657528263.67618,5329.3657848,21
1657528263.67618,5329.3657889,19
1657528263.67618,5329.3657931,19
1657528263.67618,5329.3657968,26
1657528263.67618,5329.3658008,38
1657528263.67618,5329.3658049,47
1657528263.67618,5329.3658087,62
1657528263.67618,5329.3658127,59
1657528263.67618,5329.365817,50
1657528263.67618,5329.3658211,59
1657528263.67618,5329.3658249,74
1657528263.67618,5329.3658318,76
1657528264.15468,5329.3658348,76
1657528264.15468,5329.3658379,74
1657528264.15468,5329.3658406,67
1657528264.15468,5329.3658435,62
1657528264.15468,5329.3658464,59
1657528264.15468,5329.3658491,62
1657528264.15468,5329.365852,76
1657528264.15468,5329.3658549,83
1657528264.15468,5329.3658576,79
1657528264.15468,5329.3658604,79
1657528264.15468,5329.3658631,76
1657528264.15468,5329.3658659,67
1657528264.15468,5329.3658687,64
1657528264.15468,5329.3658716,59
1657528264.15468,5329.3658743,47
1657528264.15468,5329.3658772,55
1657528264.15468,5329.3658801,71
1657528264.15468,5329.3658829,69
1657528264.15468,5329.3658857,74
1657528264.15468,5329.3658889,88
1657528264.15468,5329.3658929,83
1657528264.15468,5329.3659045,81
1657528264.15468,5329.3659388,91
1657528264.15468,5329.365946,83
1657528264.15468,5329.3659536,76
1657528264.15468,5329.3659609,91
1657528264.15468,5329.365966,95
1657528264.15468,5329.3659697,86
1657528264.15468,5329.3659729,83
1657528264.15468,5329.3659765,81
1657528264.15468,5329.3659837,79
1657528264.15468,5329.3659889,69
1657528264.15468,5329.365995,62
1657528264.15468,5329.3659989,69
1657528264.15468,5329.3660044,83
1657528264.15468,5329.3660087,86
1657528264.15468,5329.3660126,86
1657528264.15468,5329.3660389,91
1657528264.15468,5329.3660653,91
1657528264.15468,5329.3660848,74
1657528264.15468,5329.3660928,55
1657528264.15468,5329.3661002,52
1657528264.15468,5329.3661044,55
1657528264.15468,5329.3661083,47
1657528264.15468,5329.3661122,45
1657528264.15468,5329.3661162,52
1657528264.15468,5329.36612,47
1657528264.15468,5329.3661238,2
1657528264.15468,5329.3661278,-23
1657528264.15468,5329.3661325,127
1657528264.16531,5329.3661371,503
1657528264.16531,5329.3661409,910
1657528264.16531,5329.3661449,1035
1657528264.16531,5329.3661487,649
1657528264.16531,5329.3661527,88
1657528264.16531,5329.8519545,-93
1657528264.16531,5329.8519672,14
1657528264.16531,5329.8519699,23
1657528264.16531,5329.8519723,-40
1657528264.16531,5329.8519744,-28
1657528264.16531,5329.8519765,-11
1657528264.16531,5329.8519786,-28
1657528264.16531,5329.8519807,-23
1657528264.16531,5329.8519828,2
1657528264.16531,5329.8519849,11
1657528264.16531,5329.8519873,7
1657528264.16531,5329.8519894,9
1657528264.16531,5329.8519914,21
1657528264.16531,5329.8519935,28
1657528264.16531,5329.8519955,35
1657528264.16531,5329.8519976,47
1657528264.16531,5329.8519996,55
1657528264.16531,5329.8520016,57
1657528264.16531,5329.8520038,64
1657528264.73328,5329.8520058,71
1657528264.73328,5329.8520077,69
1657528264.73328,5329.8520097,64
1657528264.73328,5329.8520117,59
1657528264.73328,5329.8520141,43
1657528264.73328,5329.8520165,23
1657528264.73328,5329.8520184,23
1657528264.73328,5329.8520204,38
1657528264.73328,5329.8520224,40
1657528264.73328,5329.8520244,47
1657528264.73328,5329.8520264,55
1657528264.73328,5329.8520283,45
1657528264.73328,5329.8520302,38
1657528264.73328,5329.8520321,40
1657528264.73328,5329.852034,35
1657528264.73328,5329.8520359,28
1657528264.73328,5329.8520379,26
1657528264.73328,5329.8520399,19
1657528264.73328,5329.8520418,16
1657528264.73328,5329.8520437,28
1657528264.73328,5329.8520461,38
1657528264.73328,5329.852051,38
1657528264.73328,5329.8520565,40
1657528264.73328,5329.8520621,45
1657528264.73328,5329.8520658,50
1657528264.73328,5329.8520685,55
1657528264.73328,5329.8520706,50
1657528264.73328,5329.8520727,45
1657528264.73328,5329.8520748,43
1657528264.73328,5329.8520768,47
1657528264.73328,5329.8520789,52
1657528264.73328,5329.852081,43
1657528264.73328,5329.8520831,31
1657528264.73328,5329.8520852,31
1657528264.73328,5329.8520873,28
1657528264.73328,5329.8520894,7
1657528264.73328,5329.8520914,-14
1657528264.73328,5329.8520936,-14
1657528264.73328,5329.8520957,4
1657528264.73328,5329.8520979,19
1657528264.73328,5329.8521,19
1657528264.73328,5329.8521022,14
1657528264.73328,5329.8521043,14
1657528264.73328,5329.8521064,4
1657528264.73328,5329.8521086,-9
1657528264.73328,5329.8521107,-14
1657528264.73328,5329.8521259,-11
1657528264.73328,5329.852128,-14
1657528264.73328,5329.8521301,-14
1657528264.73328,5329.8521321,-2
1657528264.74325,5329.85215,-4
1657528264.74325,5329.8521522,-50
1657528264.74325,5329.8521543,-83
1657528264.74325,5329.8521564,71
1657528264.74325,5330.4370155,469
1657528264.74325,5330.4370365,896
1657528264.74325,5330.4370466,1016
1657528264.74325,5330.4370522,596
1657528264.74325,5330.4370593,-9
1657528264.74325,5330.4370647,-191
1657528264.74325,5330.4370701,-45
1657528264.74325,5330.4370751,-31
1657528264.74325,5330.4370823,-112
1657528264.74325,5330.4370908,-98
1657528264.74325,5330.4370968,-64
1657528264.74325,5330.4371031,-76
1657528264.74325,5330.4371109,-71
1657528264.74325,5330.4371176,-55
1657528264.74325,5330.437126,-67
1657528264.74325,5330.4371328,-69
1657528264.74325,5330.4371445,-50
1657528264.74325,5330.437153,-40
1657528264.74325,5330.4371586,-38
1657528264.74325,5330.4371657,-23
1657528265.27672,5330.437172,-11
1657528265.27672,5330.4371774,-11
1657528265.27672,5330.4371833,-2
1657528265.27672,5330.4371885,16
1657528265.27672,5330.4371934,28
1657528265.27672,5330.4371982,31
1657528265.27672,5330.437203,26
1657528265.27672,5330.4372081,19
1657528265.27672,5330.4372134,11
1657528265.27672,5330.4372213,4
1657528265.27672,5330.4372289,11
1657528265.27672,5330.4372345,23
1657528265.27672,5330.4372402,26
1657528265.27672,5330.4372473,28
1657528265.27672,5330.4372536,26
1657528265.27672,5330.4372605,11
1657528265.27672,5330.4372657,2
1657528265.27672,5330.4372721,7
1657528265.27672,5330.4372774,2
1657528265.27672,5330.4372845,-9
1657528265.27672,5330.4372903,-14
1657528265.27672,5330.4372972,-11
1657528265.27672,5330.4373027,-7
1657528265.27672,5330.4373097,2
1657528265.27672,5330.4373165,7
1657528265.27672,5330.4373233,9
1657528265.27672,5330.4373283,14
1657528265.27672,5330.437335,16
1657528265.27672,5330.4373405,16
1657528265.27672,5330.4373479,26
1657528265.27672,5330.4373536,26
1657528265.27672,5330.4373608,23
1657528265.27672,5330.4373663,28
1657528265.27672,5330.4373735,16
1657528265.27672,5330.4373788,9
1657528265.27672,5330.437385,19
1657528265.27672,5330.4373917,11
1657528265.27672,5330.4373974,2
1657528265.27672,5330.4374049,4
1657528265.27672,5330.4374103,0
1657528265.27672,5330.437416,-9
1657528265.27672,5330.4374234,-16
1657528265.27672,5330.4374288,-7
1657528265.27672,5330.4374357,16
1657528265.27672,5330.437441,26
1657528265.27672,5330.4374476,19
1657528265.27672,5330.4374532,28
1657528265.27672,5330.4374611,35
1657528265.27672,5330.4374685,9
1657528265.27672,5330.4374748,-7
1657528265.28769,5330.4374821,0
1657528265.28769,5330.4374877,4
1657528265.28769,5330.4374945,2
1657528265.28769,5330.9730012,4
1657528265.28769,5330.9730266,11
1657528265.28769,5330.9730309,2
1657528265.28769,5330.9730349,-50
1657528265.28769,5330.9730368,-50
1657528265.28769,5330.9730396,203
1657528265.28769,5330.9730418,666
1657528265.28769,5330.9730438,1047
1657528265.28769,5330.9730459,1028
1657528265.28769,5330.9730479,474
1657528265.28769,5330.9730499,-100
1657528265.28769,5330.973052,-150
1657528265.28769,5330.973054,7
1657528265.28769,5330.9730567,-26
1657528265.28769,5330.9730587,-71
1657528265.28769,5330.9730608,-28
1657528265.28769,5330.9730635,-28
1657528265.28769,5330.9730667,-55
1657528265.28769,5330.9730698,-38
1657528265.28769,5330.9730734,-21
1657528265.28769,5330.9730756,-26
1657528265.80939,5330.9730776,-16
1657528265.80939,5330.9730796,2
1657528265.80939,5330.9730815,4
1657528265.80939,5330.9730834,-7
1657528265.80939,5330.9730853,4
1657528265.80939,5330.9730871,19
1657528265.80939,5330.9730891,28
1657528265.80939,5330.9730909,43
1657528265.80939,5330.9730929,55
1657528265.80939,5330.9730948,57
1657528265.80939,5330.9730967,59
1657528265.80939,5330.9730986,64
1657528265.80939,5330.9731005,62
1657528265.80939,5330.9731023,59
1657528265.80939,5330.9731043,55
1657528265.80939,5330.9731062,50
1657528265.80939,5330.9731082,55
1657528265.80939,5330.9731101,67
1657528265.80939,5330.973112,67
1657528265.80939,5330.9731139,52
1657528265.80939,5330.9731159,40
1657528265.80939,5330.9731177,40
1657528265.80939,5330.9731214,40
1657528265.80939,5330.9731335,21
1657528265.80939,5330.9731459,0
1657528265.80939,5330.9731543,7
1657528265.80939,5330.9731569,14
1657528265.80939,5330.9731591,16
1657528265.80939,5330.9731613,26
1657528265.80939,5330.9731634,38
1657528265.80939,5330.9731654,50
1657528265.80939,5330.9731675,59
1657528265.80939,5330.9731695,67
1657528265.80939,5330.9731716,74
1657528265.80939,5330.9731737,71
1657528265.80939,5330.9731757,71
1657528265.80939,5330.9731777,81
1657528265.80939,5330.9731797,86
1657528265.80939,5330.9731817,81
1657528265.80939,5330.9731838,81
1657528265.80939,5330.9731858,69
1657528265.80939,5330.9731879,62
1657528265.80939,5330.9731898,69
1657528265.80939,5330.9731919,64
1657528265.80939,5330.9731939,52
1657528265.80939,5330.9731959,50
1657528265.80939,5330.973198,40
1657528265.80939,5330.9732,38
1657528265.80939,5330.9732021,64
1657528265.80939,5330.9732042,83
1657528265.82036,5330.9732062,79
1657528265.82036,5330.9732084,83
1657528265.82036,5331.508733,88
1657528265.82036,5331.5087562,76
1657528265.82036,5331.5087709,57
1657528265.82036,5331.5087857,50
1657528265.82036,5331.5088006,50
1657528265.82036,5331.5088143,57
1657528265.82036,5331.508828,67
1657528265.82036,5331.5088417,57
1657528265.82036,5331.5088552,31
1657528265.82036,5331.5088685,0
1657528265.82036,5331.5088827,-14
1657528265.82036,5331.5088967,146
1657528265.82036,5331.5089106,553
1657528265.82036,5331.5089246,1006
1657528265.82036,5331.5089381,1162
1657528265.82036,5331.5089534,747
1657528265.82036,5331.5089671,88
1657528265.82036,5331.5089808,-141
1657528265.82036,5331.5089959,2
1657528265.82036,5331.50901,26
1657528265.82036,5331.5090241,-45
1657528265.82036,5331.5090375,-21
1657528266.35364,5331.5090475,7
1657528266.35364,5331.5090546,-7
1657528266.35364,5331.5090618,4
1657528266.35364,5331.5090687,19
1657528266.35364,5331.5090761,16
1657528266.35364,5331.5091034,23
1657528266.35364,5331.5091163,33
1657528266.35364,5331.5091206,43
1657528266.35364,5331.509124,59
1657528266.35364,5331.5091272,67
1657528266.35364,5331.5091303,69
1657528266.35364,5331.5091335,71
1657528266.35364,5331.5091368,76
1657528266.35364,5331.5091402,91
1657528266.35364,5331.5091438,95
1657528266.35364,5331.5091473,86
1657528266.35364,5331.5091508,91
1657528266.35364,5331.509155,100
1657528266.35364,5331.5091598,86
1657528266.35364,5331.5091654,79
1657528266.35364,5331.5091698,83
1657528266.35364,5331.5091742,88
1657528266.35364,5331.5091784,91
1657528266.35364,5331.5091838,95
1657528266.35364,5331.5091874,98
1657528266.35364,5331.5091913,98
1657528266.35364,5331.5091949,88
1657528266.35364,5331.5091995,79
1657528266.35364,5331.5092048,76
1657528266.35364,5331.509209,71
1657528266.35364,5331.5092132,59
1657528266.35364,5331.509216,59
1657528266.35364,5331.5092186,74
1657528266.35364,5331.5092213,81
1657528266.35364,5331.509224,86
1657528266.35364,5331.5092267,93
1657528266.35364,5331.5092294,100
1657528266.35364,5331.509232,103
1657528266.35364,5331.5092356,105
1657528266.35364,5331.5092381,105
1657528266.35364,5331.5092406,105
1657528266.35364,5331.5092431,107
1657528266.35364,5331.5092457,105
1657528266.35364,5331.5092484,100
1657528266.35364,5331.5092511,91
1657528266.35364,5331.5092538,76
1657528266.35364,5331.5092621,74
1657528266.35364,5331.509265,79
1657528266.35364,5331.5092677,76
1657528266.35364,5331.5092704,69
1657528266.36421,5331.5092732,67
1657528266.36421,5332.0457118,64
1657528266.36421,5332.0457321,71
1657528266.36421,5332.0457399,98
1657528266.36421,5332.0457479,107
1657528266.36421,5332.0457551,103
1657528266.36421,5332.0457634,105
1657528266.36421,5332.0457705,98
1657528266.36421,5332.0457785,79
1657528266.36421,5332.0457828,74
1657528266.36421,5332.04579,79
1657528266.36421,5332.0457936,71
1657528266.36421,5332.0457985,50
1657528266.36421,5332.045804,50
1657528266.36421,5332.045818,69
1657528266.36421,5332.0458317,47
1657528266.36421,5332.0458426,-9
1657528266.36421,5332.0458562,45
1657528266.36421,5332.0458693,347
1657528266.36421,5332.0458814,798
1657528266.36421,5332.0458972,1114
1657528266.36421,5332.0459116,953
1657528266.36421,5332.0459261,330
1657528266.36421,5332.0459411,-107
1657528266.88582,5332.0459545,-52
1657528266.88582,5332.0459628,43
1657528266.88582,5332.0459703,-35
1657528266.88582,5332.0459783,-62
1657528266.88582,5332.0459879,-16
1657528266.88582,5332.0459961,-14
1657528266.88582,5332.0460046,-21
1657528266.88582,5332.0460159,-9
1657528266.88582,5332.0460258,-2
1657528266.88582,5332.0460396,7
1657528266.88582,5332.0460542,23
1657528266.88582,5332.0460686,38
1657528266.88582,5332.0460818,40
1657528266.88582,5332.0460952,40
1657528266.88582,5332.0461085,55
1657528266.88582,5332.0461205,76
1657528266.88582,5332.0461363,93
1657528266.88582,5332.0461506,100
1657528266.88582,5332.0461657,100
1657528266.88582,5332.04618,105
1657528266.88582,5332.0461942,110
1657528266.88582,5332.0462093,107
1657528266.88582,5332.0462235,100
1657528266.88582,5332.0462372,98
1657528266.88582,5332.0462518,98
1657528266.88582,5332.0462624,98
1657528266.88582,5332.0462731,100
1657528266.88582,5332.0462841,110
1657528266.88582,5332.0462915,112
1657528266.88582,5332.0463039,105
1657528266.88582,5332.0463197,103
1657528266.88582,5332.0463303,95
1657528266.88582,5332.0463394,83
1657528266.88582,5332.0463506,83
1657528266.88582,5332.0463839,79
1657528266.88582,5332.0463994,67
1657528266.88582,5332.0464063,69
1657528266.88582,5332.0464106,79
1657528266.88582,5332.0464145,83
1657528266.88582,5332.0464184,93
1657528266.88582,5332.0464242,100
1657528266.88582,5332.0464283,103
1657528266.88582,5332.046434,107
1657528266.88582,5332.0464379,107
1657528266.88582,5332.0464419,100
1657528266.88582,5332.0464476,95
1657528266.88582,5332.0464522,93
1657528266.88582,5332.0464563,86
1657528266.88582,5332.0464618,79
1657528266.88582,5332.0464655,81
1657528266.89767,5332.5832975,81
1657528266.89767,5332.583317,71
1657528266.89767,5332.583326,71
1657528266.89767,5332.5833337,76
1657528266.89767,5332.5833416,71
1657528266.89767,5332.5833492,67
1657528266.89767,5332.5833582,74
1657528266.89767,5332.5833678,79
1657528266.89767,5332.5833745,79
1657528266.89767,5332.5833801,79
1657528266.89767,5332.5833831,83
1657528266.89767,5332.5833854,79
1657528266.89767,5332.5833876,64
1657528266.89767,5332.5833898,47
1657528266.89767,5332.5833919,38
1657528266.89767,5332.5833939,35
1657528266.89767,5332.5833959,35
1657528266.89767,5332.583398,35
1657528266.89767,5332.5834002,31
1657528266.89767,5332.5834023,14
1657528266.89767,5332.5834045,-31
1657528266.89767,5332.5834068,-7
1657528266.89767,5332.5834143,251
1657528266.89767,5332.5834259,690
1657528267.4646,5332.5834306,1028
1657528267.4646,5332.5834336,937
1657528267.4646,5332.5834359,388
1657528267.4646,5332.5834379,-74
1657528267.4646,5332.5834398,-81
1657528267.4646,5332.5834418,38
1657528267.4646,5332.5834437,7
1657528267.4646,5332.5834456,-23
1657528267.4646,5332.5834475,4
1657528267.4646,5332.5834495,2
1657528267.4646,5332.5834516,-7
1657528267.4646,5332.5834535,14
1657528267.4646,5332.5834555,28
1657528267.4646,5332.5834575,31
1657528267.4646,5332.5834597,35
1657528267.4646,5332.5834617,45
1657528267.4646,5332.5834636,55
1657528267.4646,5332.5834655,64
1657528267.4646,5332.5834674,71
1657528267.4646,5332.5834695,81
1657528267.4646,5332.5834716,93
1657528267.4646,5332.5834801,103
1657528267.4646,5332.5834822,103
1657528267.4646,5332.5834843,107
1657528267.4646,5332.5834863,112
1657528267.4646,5332.5834884,103
1657528267.4646,5332.5834905,91
1657528267.4646,5332.5834925,88
1657528267.4646,5332.5834945,88
1657528267.4646,5332.5834965,83
1657528267.4646,5332.5834986,88
1657528267.4646,5332.5835007,93
1657528267.4646,5332.5835028,98
1657528267.4646,5332.5835048,100
1657528267.4646,5332.5835069,93
1657528267.4646,5332.5835089,79
1657528267.4646,5332.5835111,74
1657528267.4646,5332.5835132,74
1657528267.4646,5332.5835153,74
1657528267.4646,5332.5835173,81
1657528267.4646,5332.5835212,86
1657528267.4646,5332.5835234,91
1657528267.4646,5332.5835255,95
1657528267.4646,5332.5835522,100
1657528267.4646,5332.5835679,103
1657528267.4646,5332.5835755,107
1657528267.4646,5332.5835848,103
1657528267.4646,5332.5835919,91
1657528267.4646,5332.5835966,91
1657528267.4646,5333.1672965,95
1657528267.47458,5333.167319,91
1657528267.47458,5333.1673283,86
1657528267.47458,5333.1673388,76
1657528267.47458,5333.1673474,52
1657528267.47458,5333.1673564,40
1657528267.47458,5333.1673652,47
1657528267.47458,5333.1673727,52
1657528267.47458,5333.1673799,43
1657528267.47458,5333.1674078,33
1657528267.47458,5333.1674157,23
1657528267.47458,5333.1674215,9
1657528267.47458,5333.1674286,14
1657528267.47458,5333.1674346,43
1657528267.47458,5333.1674441,59
1657528267.47458,5333.1674543,52
1657528267.47458,5333.1674595,50
1657528267.47458,5333.1674663,45
1657528267.47458,5333.1674716,23
1657528267.47458,5333.1674787,11
1657528267.47458,5333.1674855,19
1657528267.47458,5333.167493,26
1657528267.47458,5333.1675012,28
1657528267.47458,5333.1675079,31
1657528267.47458,5333.1675144,35
1657528268.05317,5333.1675214,31
1657528268.05317,5333.167528,-11
1657528268.05317,5333.1675328,-4
1657528268.05317,5333.1675376,234
1657528268.05317,5333.1675421,656
1657528268.05317,5333.1675464,997
1657528268.05317,5333.1675508,951
1657528268.05317,5333.1675553,424
1657528268.05317,5333.1675598,-76
1657528268.05317,5333.1675646,-100
1657528268.05317,5333.1675704,38
1657528268.05317,5333.1675785,9
1657528268.05317,5333.1675866,-33
1657528268.05317,5333.1675933,7
1657528268.05317,5333.1676019,14
1657528268.05317,5333.1676101,-9
1657528268.05317,5333.1676183,2
1657528268.05317,5333.167625,21
1657528268.05317,5333.1676331,16
1657528268.05317,5333.1676397,26
1657528268.05317,5333.1676462,45
1657528268.05317,5333.1676619,52
1657528268.05317,5333.1676811,59
1657528268.05317,5333.1676923,74
1657528268.05317,5333.1677031,86
1657528268.05317,5333.1677124,91
1657528268.05317,5333.1677209,93
1657528268.05317,5333.1677267,105
1657528268.05317,5333.1677342,117
1657528268.05317,5333.16774,117
1657528268.05317,5333.1677507,115
1657528268.05317,5333.1677654,112
1657528268.05317,5333.1677796,105
1657528268.05317,5333.1677904,93
1657528268.05317,5333.1677984,93
1657528268.05317,5333.1678038,103
1657528268.05317,5333.1678083,105
1657528268.05317,5333.1678138,100
1657528268.05317,5333.1678177,98
1657528268.05317,5333.1678214,88
1657528268.05317,5333.1678272,76
1657528268.05317,5333.1678308,69
1657528268.05317,5333.1678363,64
1657528268.05317,5333.1678398,64
1657528268.05317,5333.1678434,67
1657528268.05317,5333.1678471,67
1657528268.05317,5333.1678523,64
1657528268.05317,5333.1678566,74
1657528268.05317,5333.7536099,79
1657528268.05317,5333.7536259,76
1657528268.06414,5333.7536307,64
1657528268.06414,5333.7536363,45
1657528268.06414,5333.7536406,43
1657528268.06414,5333.7536478,55
1657528268.06414,5333.7536513,57
1657528268.06414,5333.7536633,43
1657528268.06414,5333.7536713,28
1657528268.06414,5333.7536756,26
1657528268.06414,5333.7536833,26
1657528268.06414,5333.7536868,23
1657528268.06414,5333.7536934,26
1657528268.06414,5333.7536989,19
1657528268.06414,5333.7537079,-4
1657528268.06414,5333.7537154,-4
1657528268.06414,5333.7537207,9
1657528268.06414,5333.7537269,7
1657528268.06414,5333.7537314,-2
1657528268.06414,5333.753737,9
1657528268.06414,5333.753741,40
1657528268.06414,5333.7537465,52
1657528268.06414,5333.7537505,47
1657528268.06414,5333.7537559,50
1657528268.06414,5333.7537621,45
1657528268.06414,5333.7537674,35
1657528268.64189,5333.7537712,31
1657528268.64189,5333.7537749,31
1657528268.64189,5333.7537787,40
1657528268.64189,5333.7537825,45
1657528268.64189,5333.7537863,45
1657528268.64189,5333.75379,50
1657528268.64189,5333.7537936,33
1657528268.64189,5333.7537975,-21
1657528268.64189,5333.7538012,7
1657528268.64189,5333.7538049,292
1657528268.64189,5333.7538088,735
1657528268.64189,5333.7538126,1066
1657528268.64189,5333.7538164,997
1657528268.64189,5333.7538201,405
1657528268.64189,5333.7538238,-139
1657528268.64189,5333.7538275,-112
1657528268.64189,5333.7538312,67
1657528268.64189,5333.7538377,14
1657528268.64189,5333.7538492,-31
1657528268.64189,5333.7538629,19
1657528268.64189,5333.7538726,19
1657528268.64189,5333.7539078,4
1657528268.64189,5333.7539173,26
1657528268.64189,5333.7539208,40
1657528268.64189,5333.7539241,45
1657528268.64189,5333.7539271,52
1657528268.64189,5333.7539306,59
1657528268.64189,5333.753934,71
1657528268.64189,5333.7539372,83
1657528268.64189,5333.7539404,93
1657528268.64189,5333.7539439,105
1657528268.64189,5333.7539485,115
1657528268.64189,5333.7539546,122
1657528268.64189,5333.7539579,129
1657528268.64189,5333.753961,143
1657528268.64189,5333.753964,153
1657528268.64189,5333.7539668,148
1657528268.64189,5333.7539698,134
1657528268.64189,5333.7539728,117
1657528268.64189,5333.7539762,110
1657528268.64189,5333.7539796,105
1657528268.64189,5333.7539829,98
1657528268.64189,5333.7539879,91
1657528268.64189,5333.753992,86
1657528268.64189,5333.7539954,83
1657528268.64189,5333.7539988,74
1657528268.64189,5333.7540022,67
1657528268.64189,5334.336758,59
1657528268.64189,5334.3367706,50
1657528268.64189,5334.3367735,45
1657528268.65286,5334.3367761,52
1657528268.65286,5334.3367786,55
1657528268.65286,5334.3367809,55
1657528268.65286,5334.3367833,62
1657528268.65286,5334.3367856,67
1657528268.65286,5334.3367879,62
1657528268.65286,5334.3367903,62
1657528268.65286,5334.3367925,64
1657528268.65286,5334.3367948,67
1657528268.65286,5334.3367976,71
1657528268.65286,5334.3368012,69
1657528268.65286,5334.3368141,69
1657528268.65286,5334.3368217,76
1657528268.65286,5334.3368251,69
1657528268.65286,5334.3368274,50
1657528268.65286,5334.3368344,40
1657528268.65286,5334.3368414,45
1657528268.65286,5334.3368506,45
1657528268.65286,5334.336856,38
1657528268.65286,5334.3368635,31
1657528268.65286,5334.3368708,11
1657528268.65286,5334.3368802,-2
1657528268.65286,5334.3368866,14
1657528268.65286,5334.3368943,50
1657528269.17582,5334.3369039,59
1657528269.17582,5334.3369103,52

1657528269.17582,5334.3369201,57
1657528269.17582,5334.336928,55
1657528269.17582,5334.3369379,40
1657528269.17582,5334.3369462,33
1657528269.17582,5334.3369577,33
1657528269.17582,5334.3369715,38
1657528269.17582,5334.3369821,45
1657528269.17582,5334.3369889,55
1657528269.17582,5334.3369932,59
1657528269.17582,5334.3369988,47
1657528269.17582,5334.3370045,-4
1657528269.17582,5334.3370081,4
1657528269.17582,5334.3370117,268
1657528269.17582,5334.3370166,742
1657528269.17582,5334.3370214,1143
1657528269.17582,5334.3370248,1107
1657528269.17582,5334.3370324,503
1657528269.17582,5334.3370392,-79
1657528269.17582,5334.3370463,-93
1657528269.17582,5334.3370556,69
1657528269.17582,5334.3370605,16
1657528269.17582,5334.3370659,-33
1657528269.17582,5334.3370699,14
1657528269.17582,5334.3370753,23
1657528269.17582,5334.3370789,11
1657528269.17582,5334.3370838,21
1657528269.17582,5334.3370888,28
1657528269.17582,5334.3370936,28
1657528269.17582,5334.3371017,45
1657528269.17582,5334.3371137,64
1657528269.17582,5334.3371273,71
1657528269.17582,5334.3371415,71
1657528269.17582,5334.3371546,69
1657528269.17582,5334.3371682,74
1657528269.17582,5334.3371803,91
1657528269.17582,5334.3371877,110
1657528269.17582,5334.3371918,124
1657528269.17582,5334.337197,129
1657528269.17582,5334.3372006,124
1657528269.17582,5334.3372041,117
1657528269.17582,5334.3372137,112
1657528269.17582,5334.3372251,107
1657528269.17582,5334.337239,103
1657528269.17582,5334.3372484,98
1657528269.17582,5334.8729155,95
1657528269.17582,5334.8729275,100
1657528269.17582,5334.8729318,107
1657528269.17582,5334.872937,105
1657528269.18677,5334.8729397,93
1657528269.18677,5334.8729421,83
1657528269.18677,5334.8729445,71
1657528269.18677,5334.8729467,52
1657528269.18677,5334.8729491,35
1657528269.18677,5334.8729514,38
1657528269.18677,5334.8729537,52
1657528269.18677,5334.8729562,52
1657528269.18677,5334.8729585,50
1657528269.18677,5334.8729607,55
1657528269.18677,5334.872963,52
1657528269.18677,5334.8729666,50
1657528269.18677,5334.872973,57
1657528269.18677,5334.8729801,67
1657528269.18677,5334.8729872,69
1657528269.18677,5334.8729922,57
1657528269.18677,5334.8729975,40
1657528269.18677,5334.8730085,35
1657528269.18677,5334.8730143,40
1657528269.18677,5334.8730187,45
1657528269.18677,5334.8730207,43
1657528269.18677,5334.8730227,33
1657528269.18677,5334.8730254,26
1657528269.18677,5334.8730275,33
1657528269.70795,5334.8730295,43
1657528269.70795,5334.8730315,43
1657528269.70795,5334.8730333,35
1657528269.70795,5334.8730352,31
1657528269.70795,5334.8730372,40
1657528269.70795,5334.8730392,67
1657528269.70795,5334.873041,88
1657528269.70795,5334.8730429,86
1657528269.70795,5334.8730448,81
1657528269.70795,5334.8730468,81
1657528269.70795,5334.8730488,67
1657528269.70795,5334.8730507,50
1657528269.70795,5334.8730527,52
1657528269.70795,5334.8730546,62
1657528269.70795,5334.8730564,67
1657528269.70795,5334.8730583,71
1657528269.70795,5334.8730602,76
1657528269.70795,5334.8730627,64
1657528269.70795,5334.8730646,23
1657528269.70795,5334.8730665,11
1657528269.70795,5334.8730684,186
1657528269.70795,5334.8730705,579
1657528269.70795,5334.8730725,987
1657528269.70795,5334.8730745,1102
1657528269.70795,5334.8730767,678
1657528269.70795,5334.8730787,52
1657528269.70795,5334.8730807,-134
1657528269.70795,5334.8730828,16
1657528269.70795,5334.8730856,28
1657528269.70795,5334.8730877,-40
1657528269.70795,5334.8730898,-9
1657528269.70795,5334.8730918,11
1657528269.70795,5334.8730939,-11
1657528269.70795,5334.8730959,-2
1657528269.70795,5334.873098,19
1657528269.70795,5334.8731,23
1657528269.70795,5334.8731021,28
1657528269.70795,5334.8731041,35
1657528269.70795,5334.8731061,47
1657528269.70795,5334.8731081,62
1657528269.70795,5334.8731104,69
1657528269.70795,5334.8731124,74
1657528269.70795,5334.8731144,83
1657528269.70795,5334.8731164,98
1657528269.70795,5334.8731184,107
1657528269.70795,5335.4094781,110
1657528269.70795,5335.4094962,112
1657528269.70795,5335.4095048,110
1657528269.70795,5335.4095166,100
1657528269.70795,5335.4095234,95
1657528269.71892,5335.4095317,86
1657528269.71892,5335.4095382,74
1657528269.71892,5335.4095467,69
1657528269.71892,5335.4095551,81
1657528269.71892,5335.4095638,93
1657528269.71892,5335.4095704,86
1657528269.71892,5335.4095774,64
1657528269.71892,5335.4095865,52
1657528269.71892,5335.4095916,50
1657528269.71892,5335.4096051,45
1657528269.71892,5335.4096182,45
1657528269.71892,5335.4096299,43
1657528269.71892,5335.4096392,26
1657528269.71892,5335.4096496,7
1657528269.71892,5335.4096569,19
1657528269.71892,5335.4096622,35
1657528269.71892,5335.4096653,31
1657528269.71892,5335.409668,35
1657528269.71892,5335.4096707,43
1657528269.71892,5335.4096735,40
1657528269.71892,5335.4096774,38
1657528269.71892,5335.4096801,50
1657528269.71892,5335.4096829,52
1657528269.71892,5335.4096855,43
1657528270.25268,5335.4096882,38
1657528270.25268,5335.4096909,40
1657528270.25268,5335.4096935,35
1657528270.25268,5335.4096961,35
1657528270.25268,5335.4096988,40
1657528270.25268,5335.4097015,45
1657528270.25268,5335.4097043,43
1657528270.25268,5335.409707,40
1657528270.25268,5335.4097097,43
1657528270.25268,5335.4097126,40
1657528270.25268,5335.4097154,31
1657528270.25268,5335.4097182,33
1657528270.25268,5335.4097209,50
1657528270.25268,5335.4097235,74
1657528270.25268,5335.4097262,86
1657528270.25268,5335.4097289,93
1657528270.25268,5335.4097315,86
1657528270.25268,5335.4097343,62
1657528270.25268,5335.4097371,43
1657528270.25268,5335.4097397,40
1657528270.25268,5335.4097424,43
1657528270.25268,5335.409745,47
1657528270.25268,5335.4097476,50
1657528270.25268,5335.4097502,52
1657528270.25268,5335.4097528,59
1657528270.25268,5335.4097555,59
1657528270.25268,5335.4097581,19
1657528270.25268,5335.4097607,-4
1657528270.25268,5335.4097633,172
1657528270.25268,5335.4097658,568
1657528270.25268,5335.4097685,963
1657528270.25268,5335.4097711,1044
1657528270.25268,5335.4097738,627
1657528270.25268,5335.4097764,62
1657528270.25268,5335.4097791,-103
1657528270.25268,5335.4097817,21
1657528270.25268,5335.4097842,38
1657528270.25268,5335.4097868,-16
1657528270.25268,5335.4097895,0
1657528270.25268,5335.4097923,21
1657528270.25268,5335.4097971,4
1657528270.25268,5335.4098014,4
1657528270.25268,5335.4098045,19
1657528270.25268,5335.4098078,23
1657528270.25268,5335.9453125,28
1657528270.25268,5335.9453333,38
1657528270.25268,5335.9453491,50
1657528270.25268,5335.9453633,62
1657528270.25268,5335.9453774,69
1657528270.25268,5335.9453915,74
1657528270.26365,5335.9454051,86
1657528270.26365,5335.9454123,79
1657528270.26365,5335.9454219,64
1657528270.26365,5335.9454314,79
1657528270.26365,5335.9454418,93
1657528270.26365,5335.9454492,88
1657528270.26365,5335.9454543,76
1657528270.26365,5335.9454624,69
1657528270.26365,5335.9454669,52
1657528270.26365,5335.9454725,43
1657528270.26365,5335.945476,50
1657528270.26365,5335.9454795,55
1657528270.26365,5335.945483,62
1657528270.26365,5335.9454899,71
1657528270.26365,5335.9454939,67
1657528270.26365,5335.9454983,55
1657528270.26365,5335.9455034,47
1657528270.26365,5335.9455072,40
1657528270.26365,5335.9455127,31
1657528270.26365,5335.9455203,28
1657528270.26365,5335.9455326,33
1657528270.26365,5335.9455469,35
1657528270.26365,5335.9455579,33
1657528270.26365,5335.9455721,28
1657528270.83675,5335.9455843,38
1657528270.83675,5335.9455924,52
1657528270.83675,5335.9455996,55
1657528270.83675,5335.945607,52
1657528270.83675,5335.9456145,55
1657528270.83675,5335.9456246,50
1657528270.83675,5335.9456338,52
1657528270.83675,5335.9456436,62
1657528270.83675,5335.945657,59
1657528270.83675,5335.9456629,47
1657528270.83675,5335.9456654,40
1657528270.83675,5335.9456676,40
1657528270.83675,5335.9456713,45
1657528270.83675,5335.9456843,47
1657528270.83675,5335.94569,45
1657528270.83675,5335.9456932,45
1657528270.83675,5335.9456954,43
1657528270.83675,5335.9456976,43
1657528270.83675,5335.9457,40
1657528270.83675,5335.9457079,38
1657528270.83675,5335.9457187,47
1657528270.83675,5335.9457227,79
1657528270.83675,5335.9457263,100
1657528270.83675,5335.9457282,95
1657528270.83675,5335.9457312,83
1657528270.83675,5335.9457438,83
1657528270.83675,5335.9457508,81
1657528270.83675,5335.9457533,69
1657528270.83675,5335.9457556,57
1657528270.83675,5335.9457576,57
1657528270.83675,5335.94576,62
1657528270.83675,5335.9457662,67
1657528270.83675,5335.9457773,69
1657528270.83675,5335.9457805,67
1657528270.83675,5335.9457828,38
1657528270.83675,5335.945785,4
1657528270.83675,5335.945787,105
1657528270.83675,5335.9457925,436
1657528270.83675,5335.9458041,857
1657528270.83675,5335.9458094,1080
1657528270.83675,5335.9458123,810
1657528270.83675,5335.9458144,213
1657528270.83675,5335.9458183,-88
1657528270.83675,5336.5308476,2
1657528270.83675,5336.5308679,57
1657528270.83675,5336.530885,-4
1657528270.83675,5336.5308992,-11
1657528270.83675,5336.5309116,4
1657528270.83675,5336.5309255,-16
1657528270.83675,5336.53094,-16
1657528270.84771,5336.5309532,9
1657528270.84771,5336.5309637,19
1657528270.84771,5336.53097,16
1657528270.84771,5336.5309723,14
1657528270.84771,5336.5309753,9
1657528270.84771,5336.5309774,14
1657528270.84771,5336.5309802,28
1657528270.84771,5336.5309886,33
1657528270.84771,5336.5310012,40
1657528270.84771,5336.5310098,52
1657528270.84771,5336.5310183,62
1657528270.84771,5336.5310279,71
1657528270.84771,5336.5310329,71
1657528270.84771,5336.5310386,64
1657528270.84771,5336.531043,67
1657528270.84771,5336.5310469,57
1657528270.84771,5336.5310511,50
1657528270.84771,5336.5310548,52
1657528270.84771,5336.5310589,47
1657528270.84771,5336.5310652,47
1657528270.84771,5336.5310706,69
1657528270.84771,5336.5310772,71
1657528270.84771,5336.5310814,40
1657528270.84771,5336.5310865,28
1657528271.4652,5336.5310923,38
1657528271.4652,5336.5310962,28
1657528271.4652,5336.5311017,9
1657528271.4652,5336.5311055,4
1657528271.4652,5336.531109,7
1657528271.4652,5336.5311133,9
1657528271.4652,5336.531123,21
1657528271.4652,5336.531128,35
1657528271.4652,5336.5311309,38
1657528271.4652,5336.5311391,38
1657528271.4652,5336.5311452,45
1657528271.4652,5336.5311529,55
1657528271.4652,5336.5311664,59
1657528271.4652,5336.5311795,64
1657528271.4652,5336.5311936,62
1657528271.4652,5336.5312139,57
1657528271.4652,5336.5312282,59
1657528271.4652,5336.5312423,62
1657528271.4652,5336.5312564,57
1657528271.4652,5336.5312657,62
1657528271.4652,5336.5312722,59
1657528271.4652,5336.5312837,40
1657528271.4652,5336.5312874,40
1657528271.4652,5336.5312914,50
1657528271.4652,5336.5312935,47
1657528271.4652,5336.5312997,47
1657528271.4652,5336.5313111,52
1657528271.4652,5336.5313147,47
1657528271.4652,5336.5313245,47
1657528271.4652,5336.5313333,57
1657528271.4652,5336.5313407,76
1657528271.4652,5336.5313433,98
1657528271.4652,5336.5313463,107
1657528271.4652,5336.5313568,100
1657528271.4652,5336.531365,93
1657528271.4652,5336.5313675,88
1657528271.4652,5336.5313698,81
1657528271.4652,5336.5313721,71
1657528271.4652,5336.5313818,67
1657528271.4652,5336.5313917,67
1657528271.4652,5336.5313957,74
1657528271.4652,5336.5313977,79
1657528271.4652,5337.1642444,81
1657528271.4652,5337.1642607,69
1657528271.4652,5337.1642682,31
1657528271.4652,5337.1642764,55
1657528271.4652,5337.1642861,299
1657528271.4652,5337.164291,716
1657528271.4652,5337.164298,1056
1657528271.4652,5337.1643074,989
1657528271.47417,5337.1643126,433
1657528271.47417,5337.1643202,-47
1657528271.47417,5337.1643296,-64
1657528271.47417,5337.1643425,31
1657528271.47417,5337.1643564,-9
1657528271.47417,5337.164369,-45
1657528271.47417,5337.1643794,-31
1657528271.47417,5337.1643886,-31
1657528271.47417,5337.1643949,-33
1657528271.47417,5337.1643988,-21
1657528271.47417,5337.1644041,-11
1657528271.47417,5337.1644077,-9
1657528271.47417,5337.1644116,-9
1657528271.47417,5337.1644165,-4
1657528271.47417,5337.1644209,9
1657528271.47417,5337.1644258,19
1657528271.47417,5337.1644293,21
1657528271.47417,5337.164433,23
1657528271.47417,5337.1644438,31
1657528271.47417,5337.1644554,43
1657528271.47417,5337.1644626,57
1657528271.47417,5337.16447,62
1657528271.47417,5337.1644772,59
1657528271.47417,5337.1644861,64
1657528271.9515,5337.1644932,64
1657528271.9515,5337.1644974,52
1657528271.9515,5337.1645015,47
1657528271.9515,5337.1645057,50
1657528271.9515,5337.1645099,45
1657528271.9515,5337.1645144,45
1657528271.9515,5337.1645192,47
1657528271.9515,5337.1645243,43
1657528271.9515,5337.1645294,35
1657528271.9515,5337.1645347,31
1657528271.9515,5337.16454,16
1657528271.9515,5337.1645451,9
1657528271.9515,5337.1645501,16
1657528271.9515,5337.1645552,9
1657528271.9515,5337.1645601,-9
1657528271.9515,5337.1645655,0
1657528271.9515,5337.1645707,23
1657528271.9515,5337.164576,35
1657528271.9515,5337.164581,43
1657528271.9515,5337.1645883,50
1657528271.9515,5337.1645967,52
1657528271.9515,5337.1646043,57
1657528271.9515,5337.1646133,62
1657528271.9515,5337.1646232,69
1657528271.9515,5337.1646305,67
1657528271.9515,5337.164637,62
1657528271.9515,5337.1646446,62
1657528271.9515,5337.1646512,62
1657528271.9515,5337.1646566,62
1657528271.9515,5337.1646614,69
1657528271.9515,5337.1646696,64
1657528271.9515,5337.1646774,62
1657528271.9515,5337.1646827,67
1657528271.9515,5337.1646868,62
1657528271.9515,5337.1647574,57
1657528271.9515,5337.1647656,57
1657528271.9515,5337.164773,57
1657528271.9515,5337.1647801,59
1657528271.9515,5337.1647842,59
1657528271.9515,5337.1647877,59
1657528271.9515,5337.1647912,86
1657528271.9515,5337.6516071,115
1657528271.9515,5337.6516262,107
1657528271.9515,5337.6516321,88
1657528271.9515,5337.6516381,86
1657528271.9515,5337.6516428,83
1657528271.9515,5337.6516471,69
1657528271.9515,5337.6516513,62
1657528271.9515,5337.6516582,69
1657528271.9515,5337.6516629,74
1657528271.96243,5337.6516673,71
1657528271.96243,5337.6516711,69
1657528271.96243,5337.6516757,55
1657528271.96243,5337.6516795,11
1657528271.96243,5337.6516831,-11
1657528271.96243,5337.6516866,150
1657528271.96243,5337.6516902,548
1657528271.96243,5337.6516939,980
1657528271.96243,5337.6516985,1131
1657528271.96243,5337.6517043,716
1657528271.96243,5337.6517084,47
1657528271.96243,5337.6517119,-170
1657528271.96243,5337.6517155,4
1657528271.96243,5337.651719,31
1657528271.96243,5337.6517224,-67
1657528271.96243,5337.6517259,-52
1657528271.96243,5337.6517295,-19
1657528271.96243,5337.6517332,-38
1657528271.96243,5337.6517367,-35
1657528271.96243,5337.6517403,-16
1657528271.96243,5337.6517438,-19
1657528271.96243,5337.6517473,-11
1657528271.96243,5337.6517509,9
1657528271.96243,5337.6517545,11
1657528272.5396,5337.651758,9
1657528272.5396,5337.6517615,19
1657528272.5396,5337.6517651,31
1657528272.5396,5337.6517685,40
1657528272.5396,5337.651772,55
1657528272.5396,5337.6517756,67
1657528272.5396,5337.651779,76
1657528272.5396,5337.6517826,86
1657528272.5396,5337.651786,86
1657528272.5396,5337.6517896,76
1657528272.5396,5337.6517931,69
1657528272.5396,5337.6517967,64
1657528272.5396,5337.6518003,59
1657528272.5396,5337.6518037,59
1657528272.5396,5337.651808,59
1657528272.5396,5337.6518111,52
1657528272.5396,5337.6518143,40
1657528272.5396,5337.651818,38
1657528272.5396,5337.6518229,33
1657528272.5396,5337.6518264,21
1657528272.5396,5337.6518299,16
1657528272.5396,5337.6518349,11
1657528272.5396,5337.6518384,2
1657528272.5396,5337.6518422,0
1657528272.5396,5337.6518466,9
1657528272.5396,5337.651851,19
1657528272.5396,5337.6518549,26
1657528272.5396,5337.6518586,33
1657528272.5396,5337.6518623,38
1657528272.5396,5337.6518661,45
1657528272.5396,5337.6518697,55
1657528272.5396,5337.6518732,62
1657528272.5396,5337.6518769,64
1657528272.5396,5337.6518805,59
1657528272.5396,5337.651884,55
1657528272.5396,5337.6518876,57
1657528272.5396,5337.651892,62
1657528272.5396,5337.6518958,55
1657528272.5396,5337.6518995,47
1657528272.5396,5337.6519063,55
1657528272.5396,5338.236473,57
1657528272.5396,5338.2364867,50
1657528272.5396,5338.2364904,47
1657528272.5396,5338.2364937,50
1657528272.5396,5338.2364971,45
1657528272.5396,5338.236501,35
1657528272.5396,5338.2365043,40
1657528272.5396,5338.2365076,55
1657528272.5396,5338.2365108,64
1657528272.5396,5338.2365141,67
1657528272.55116,5338.2365174,62
1657528272.55116,5338.2365206,40
1657528272.55116,5338.2365239,21
1657528272.55116,5338.2365271,4
1657528272.55116,5338.2365304,-4
1657528272.55116,5338.2365337,-4
1657528272.55116,5338.2365386,-2
1657528272.55116,5338.236542,4
1657528272.55116,5338.2365453,16
1657528272.55116,5338.2365485,21
1657528272.55116,5338.2365518,-9
1657528272.55116,5338.236555,-38
1657528272.55116,5338.2365584,129
1657528272.55116,5338.2365618,556
1657528272.55116,5338.236565,1008
1657528272.55116,5338.2365683,1150
1657528272.55116,5338.2365716,718
1657528272.55116,5338.2365749,45
1657528272.55116,5338.2365782,-172
1657528272.55116,5338.2365815,0
1657528272.55116,5338.2365849,19
1657528272.55116,5338.2365882,-74
1657528272.55116,5338.2365914,-47
1657528272.55116,5338.2365948,-16
1657528273.1188,5338.236598,-38
1657528273.1188,5338.2366013,-35
1657528273.1188,5338.2366046,-11
1657528273.1188,5338.2366079,0
1657528273.1188,5338.2366115,7
1657528273.1188,5338.2366148,14
1657528273.1188,5338.2366181,14
1657528273.1188,5338.2366213,23
1657528273.1188,5338.2366246,45
1657528273.1188,5338.2366288,55
1657528273.1188,5338.2366322,57
1657528273.1188,5338.2366354,76
1657528273.1188,5338.2366388,88
1657528273.1188,5338.2366421,83
1657528273.1188,5338.2366454,86
1657528273.1188,5338.2366486,91
1657528273.1188,5338.2366519,81
1657528273.1188,5338.2366552,67
1657528273.1188,5338.2366585,62
1657528273.1188,5338.2366617,62
1657528273.1188,5338.236665,67
1657528273.1188,5338.2366683,71
1657528273.1188,5338.2366715,67
1657528273.1188,5338.2366747,47
1657528273.1188,5338.236678,31
1657528273.1188,5338.2366815,28
1657528273.1188,5338.2366848,26
1657528273.1188,5338.236688,14
1657528273.1188,5338.2366913,7
1657528273.1188,5338.2366946,0
1657528273.1188,5338.2366984,0
1657528273.1188,5338.2367017,9
1657528273.1188,5338.2367051,19
1657528273.1188,5338.2367084,28
1657528273.1188,5338.2367117,35
1657528273.1188,5338.2367165,50
1657528273.1188,5338.2367199,57
1657528273.1188,5338.2367232,55
1657528273.1188,5338.2367278,55
1657528273.1188,5338.8219013,57
1657528273.1188,5338.8219205,62
1657528273.1188,5338.8219315,62
1657528273.1188,5338.8219397,57
1657528273.1188,5338.821948,50
1657528273.1188,5338.8219559,52
1657528273.1188,5338.8219622,59
1657528273.1188,5338.8219684,57
1657528273.1188,5338.821976,40
1657528273.1188,5338.8219843,40
1657528273.1188,5338.8219911,50
1657528273.12877,5338.8220005,31
1657528273.12877,5338.8220099,16
1657528273.12877,5338.8220183,23
1657528273.12877,5338.8220282,23
1657528273.12877,5338.822037,40
1657528273.12877,5338.822045,62
1657528273.12877,5338.8220533,50
1657528273.12877,5338.8220614,38
1657528273.12877,5338.8220684,40
1657528273.12877,5338.8220745,28
1657528273.12877,5338.8220871,11
1657528273.12877,5338.8220963,11
1657528273.12877,5338.8221032,19
1657528273.12877,5338.8221099,26
1657528273.12877,5338.822117,38
1657528273.12877,5338.8221235,47
1657528273.12877,5338.822133,40
1657528273.12877,5338.8221396,16
1657528273.12877,5338.8221465,-33
1657528273.12877,5338.822156,7
1657528273.12877,5338.8221632,323
1657528273.12877,5338.8221715,841
1657528273.12877,5338.8221801,1229
1657528273.12877,5338.8221868,1083
1657528273.65743,5338.8221963,390
1657528273.65743,5338.8222034,-124
1657528273.65743,5338.8222106,-71
1657528273.65743,5338.8222174,33
1657528273.65743,5338.822224,-50
1657528273.65743,5338.8222307,-52
1657528273.65743,5338.8222373,9
1657528273.65743,5338.8222439,-19
1657528273.65743,5338.8222506,-40
1657528273.65743,5338.8222578,-7
1657528273.65743,5338.8222671,7
1657528273.65743,5338.8222742,0
1657528273.65743,5338.8222803,-2
1657528273.65743,5338.8222869,14
1657528273.65743,5338.8222982,28
1657528273.65743,5338.8223096,26
1657528273.65743,5338.8223227,35
1657528273.65743,5338.822337,55
1657528273.65743,5338.82235,62
1657528273.65743,5338.8223658,62
1657528273.65743,5338.8223731,64
1657528273.65743,5338.8223796,74
1657528273.65743,5338.8223867,86
1657528273.65743,5338.8223941,83
1657528273.65743,5338.8223999,67
1657528273.65743,5338.8224041,55
1657528273.65743,5338.8224155,55
1657528273.65743,5338.8224275,57
1657528273.65743,5338.8224389,55
1657528273.65743,5338.8224456,57
1657528273.65743,5338.8224556,64
1657528273.65743,5338.8224626,59
1657528273.65743,5338.8224736,52
1657528273.65743,5338.8224807,40
1657528273.65743,5338.822489,19
1657528273.65743,5338.8224956,-2
1657528273.65743,5338.8225072,-2
1657528273.65743,5338.8225143,4
1657528273.65743,5339.3583029,11
1657528273.65743,5339.3583295,19
1657528273.65743,5339.3583389,26
1657528273.65743,5339.3583446,31
1657528273.65743,5339.3583517,40
1657528273.65743,5339.3583551,57
1657528273.65743,5339.3583582,57
1657528273.65743,5339.358363,47
1657528273.65743,5339.3583686,45
1657528273.65743,5339.3583828,52
1657528273.65743,5339.3583909,59
1657528273.65743,5339.3583982,62
1657528273.66801,5339.3584045,67
1657528273.66801,5339.3584112,64
1657528273.66801,5339.3584168,43
1657528273.66801,5339.3584236,38
1657528273.66801,5339.3584293,43
1657528273.66801,5339.3584364,33
1657528273.66801,5339.3584454,38
1657528273.66801,5339.3584601,47
1657528273.66801,5339.358475,33
1657528273.66801,5339.3584872,19
1657528273.66801,5339.3584931,14
1657528273.66801,5339.3584977,14
1657528273.66801,5339.3585019,38
1657528273.66801,5339.3585066,76
1657528273.66801,5339.3585097,91
1657528273.66801,5339.3585127,83
1657528273.66801,5339.3585159,69
1657528273.66801,5339.3585189,59
1657528273.66801,5339.3585219,57
1657528273.66801,5339.3585248,45
1657528273.66801,5339.3585276,45
1657528273.66801,5339.3585304,69
1657528273.66801,5339.3585332,71
1657528273.66801,5339.3585359,59
1657528274.20141,5339.3585388,71
1657528274.20141,5339.3585417,69
1657528274.20141,5339.3585446,2
1657528274.20141,5339.3585473,23
1657528274.20141,5339.3585502,325
1657528274.20141,5339.358553,812
1657528274.20141,5339.358556,1179
1657528274.20141,5339.3585587,1080
1657528274.20141,5339.3585613,450
1657528274.20141,5339.358564,-74
1657528274.20141,5339.358569,-57
1657528274.20141,5339.3585729,67
1657528274.20141,5339.3585784,-11
1657528274.20141,5339.3585837,-45
1657528274.20141,5339.3585914,14
1657528274.20141,5339.3586007,21
1657528274.20141,5339.3586066,2
1657528274.20141,5339.3586148,11
1657528274.20141,5339.3586202,26
1657528274.20141,5339.3586291,33
1657528274.20141,5339.3586361,35
1657528274.20141,5339.3586442,38
1657528274.20141,5339.3586521,43
1657528274.20141,5339.358661,62
1657528274.20141,5339.3586635,79
1657528274.20141,5339.3586695,81
1657528274.20141,5339.3586788,88
1657528274.20141,5339.3586926,93
1657528274.20141,5339.3587013,83
1657528274.20141,5339.3587065,88
1657528274.20141,5339.3587134,93
1657528274.20141,5339.3587201,79
1657528274.20141,5339.3587253,83
1657528274.20141,5339.3587304,91
1657528274.20141,5339.3587377,79
1657528274.20141,5339.3587459,64
1657528274.20141,5339.3587577,59
1657528274.20141,5339.8964311,64
1657528274.20141,5339.8964506,79
1657528274.20141,5339.8964592,83
1657528274.20141,5339.8964676,59
1657528274.20141,5339.8964729,40
1657528274.20141,5339.8964793,52
1657528274.20141,5339.8964847,55
1657528274.20141,5339.8964919,38
1657528274.20141,5339.8965016,33
1657528274.20141,5339.8965078,31
1657528274.20141,5339.8965118,28
1657528274.20141,5339.8965173,35
1657528274.20141,5339.8965251,52
1657528274.21238,5339.8965293,57
1657528274.21238,5339.8965357,52
1657528274.21238,5339.8965435,57
1657528274.21238,5339.8965488,55
1657528274.21238,5339.896556,43
1657528274.21238,5339.8965623,45
1657528274.21238,5339.8965719,55
1657528274.21238,5339.8965812,52
1657528274.21238,5339.8965879,47
1657528274.21238,5339.8965996,52
1657528274.21238,5339.8966102,52
1657528274.21238,5339.8966208,43
1657528274.21238,5339.89663,45
1657528274.21238,5339.8966399,55
1657528274.21238,5339.8966467,50
1657528274.21238,5339.8966501,43
1657528274.21238,5339.8966558,50
1657528274.21238,5339.8966687,43
1657528274.21238,5339.8966782,31
1657528274.21238,5339.8966847,52
1657528274.21238,5339.8966911,81
1657528274.21238,5339.8967614,86
1657528274.21238,5339.8967731,81
1657528274.21238,5339.8967877,74
1657528274.78247,5339.8967965,71
1657528274.78247,5339.8968124,79
1657528274.78247,5339.8968143,67
1657528274.78247,5339.8968163,47
1657528274.78247,5339.8968182,50
1657528274.78247,5339.8968201,62
1657528274.78247,5339.8968356,59
1657528274.78247,5339.8968377,59
1657528274.78247,5339.8968397,62
1657528274.78247,5339.8968416,23
1657528274.78247,5339.8968436,4
1657528274.78247,5339.8968455,186
1657528274.78247,5339.8968475,579
1657528274.78247,5339.8968494,965
1657528274.78247,5339.8968514,1030
1657528274.78247,5339.8968533,591
1657528274.78247,5339.8968553,26
1657528274.78247,5339.8968573,-117
1657528274.78247,5339.8968593,11
1657528274.78247,5339.8968612,21
1657528274.78247,5339.8968632,-38
1657528274.78247,5339.8968652,-23
1657528274.78247,5339.8968671,-4
1657528274.78247,5339.8968691,-14
1657528274.78247,5339.896872,-11
1657528274.78247,5339.8968809,2
1657528274.78247,5339.8968905,7
1657528274.78247,5339.8969042,4
1657528274.78247,5339.8969175,11
1657528274.78247,5339.896929,21
1657528274.78247,5339.896942,28
1657528274.78247,5339.8969492,38
1657528274.78247,5339.8969526,45
1657528274.78247,5339.8969633,50
1657528274.78247,5339.8969702,69
1657528274.78247,5339.8969749,95
1657528274.78247,5340.4795976,98
1657528274.78247,5340.4796177,83
1657528274.78247,5340.4796334,79
1657528274.78247,5340.4796439,71
1657528274.78247,5340.4796521,62
1657528274.78247,5340.4796612,57
1657528274.78247,5340.4796718,52
1657528274.78247,5340.4796826,35
1657528274.78247,5340.4796933,28
1657528274.78247,5340.4797027,43
1657528274.78247,5340.4797123,35
1657528274.78247,5340.4797203,16
1657528274.78247,5340.4797274,11
1657528274.78247,5340.4797305,2
1657528274.79444,5340.4797329,-11
1657528274.79444,5340.479735,-2
1657528274.79444,5340.479737,4
1657528274.79444,5340.479739,-7
1657528274.79444,5340.4797412,-2
1657528274.79444,5340.4797432,11
1657528274.79444,5340.4797454,0
1657528274.79444,5340.4797474,-14
1657528274.79444,5340.4797494,-2
1657528274.79444,5340.4797515,11
1657528274.79444,5340.4797535,11
1657528274.79444,5340.4797555,16
1657528274.79444,5340.4797575,23
1657528274.79444,5340.4797595,19
1657528274.79444,5340.4797615,19
1657528274.79444,5340.4797636,31
1657528274.79444,5340.4797657,33
1657528274.79444,5340.4797677,31
1657528274.79444,5340.4797697,28
1657528274.79444,5340.4797717,21
1657528274.79444,5340.4797737,21
1657528274.79444,5340.4797757,28
1657528274.79444,5340.4797777,28
1657528274.79444,5340.4797797,38
1657528275.31201,5340.4797817,50
1657528275.31201,5340.4797836,33
1657528275.31201,5340.4797854,21
1657528275.31201,5340.4797873,38
1657528275.31201,5340.4797891,64
1657528275.31201,5340.4797909,71
1657528275.31201,5340.4797935,74
1657528275.31201,5340.4797954,81
1657528275.31201,5340.4797973,71
1657528275.31201,5340.4798048,43
1657528275.31201,5340.4798068,23
1657528275.31201,5340.479809,28
1657528275.31201,5340.4798109,40
1657528275.31201,5340.4798129,45
1657528275.31201,5340.4798166,40
1657528275.31201,5340.4798218,40
1657528275.31201,5340.4798271,40
1657528275.31201,5340.4798326,0
1657528275.31201,5340.4798353,16
1657528275.31201,5340.4798374,270
1657528275.31201,5340.4798395,678
1657528275.31201,5340.4798415,968
1657528275.31201,5340.4798436,869
1657528275.31201,5340.4798457,345
1657528275.31201,5340.4798485,-93
1657528275.31201,5340.4798506,-81
1657528275.31201,5340.4798527,40
1657528275.31201,5340.4798547,4
1657528275.31201,5340.4798568,-35
1657528275.31201,5340.4798596,-9
1657528275.31201,5340.4798617,-7
1657528275.31201,5340.4798638,-11
1657528275.31201,5340.4798659,7
1657528275.31201,5340.479868,14
1657528275.31201,5340.4798701,11
1657528275.31201,5341.0155166,21
1657528275.31201,5341.0155345,33
1657528275.31201,5341.0155423,40
1657528275.31201,5341.0155515,45
1657528275.31201,5341.0155574,50
1657528275.31201,5341.0155633,64
1657528275.31201,5341.0155706,81
1657528275.31201,5341.0155796,91
1657528275.31201,5341.0155917,95
1657528275.31201,5341.0156003,105
1657528275.31201,5341.0156098,98
1657528275.31201,5341.0156173,71
1657528275.31201,5341.0156264,62
1657528275.31201,5341.0156357,62
1657528275.31201,5341.015643,57
1657528275.32298,5341.0156573,50
1657528275.32298,5341.0156647,33
1657528275.32298,5341.0156785,14
1657528275.32298,5341.0156899,16
1657528275.32298,5341.0157008,21
1657528275.32298,5341.0157093,9
1657528275.32298,5341.0157308,9
1657528275.32298,5341.0157534,2
1657528275.32298,5341.0157661,-9
1657528275.32298,5341.0157772,2
1657528275.32298,5341.0157841,7
1657528275.32298,5341.0157974,-9
1657528275.32298,5341.0158062,-4
1657528275.32298,5341.0158102,14
1657528275.32298,5341.0158123,21
1657528275.32298,5341.0158145,28
1657528275.32298,5341.015822,38
1657528275.32298,5341.0158369,43
1657528275.32298,5341.0158492,47
1657528275.32298,5341.0158608,52
1657528275.32298,5341.0158741,45
1657528275.32298,5341.0158892,38
1657528275.32298,5341.0159026,47
1657528275.32298,5341.015916,57
1657528275.90657,5341.0159281,55
1657528275.90657,5341.0159364,40
1657528275.90657,5341.0159435,33
1657528275.90657,5341.0159545,38
1657528275.90657,5341.015968,40
1657528275.90657,5341.0159813,33
1657528275.90657,5341.0159946,21
1657528275.90657,5341.0160078,19
1657528275.90657,5341.0160212,21
1657528275.90657,5341.0160344,19
1657528275.90657,5341.0160474,23
1657528275.90657,5341.0160606,59
1657528275.90657,5341.0160736,88
1657528275.90657,5341.0160869,76
1657528275.90657,5341.0161005,69
1657528275.90657,5341.0161134,76
1657528275.90657,5341.0161274,59
1657528275.90657,5341.0161404,33
1657528275.90657,5341.0161536,50
1657528275.90657,5341.0161681,79
1657528275.90657,5341.0161811,71
1657528275.90657,5341.0161945,64
1657528275.90657,5341.0162087,71
1657528275.90657,5341.0162219,76
1657528275.90657,5341.016235,57
1657528275.90657,5341.0162495,14
1657528275.90657,5341.0162627,52
1657528275.90657,5341.0163326,318
1657528275.90657,5341.0163474,723
1657528275.90657,5341.0163582,1028
1657528275.90657,5341.0163662,961
1657528275.90657,5341.016375,436
1657528275.90657,5341.0164478,-43
1657528275.90657,5341.0164733,-71
1657528275.90657,5341.6002597,40
1657528275.90657,5341.6002717,19
1657528275.90657,5341.6002743,-2
1657528275.90657,5341.6002773,28
1657528275.90657,5341.6002794,23
1657528275.90657,5341.6002815,0
1657528275.90657,5341.6002843,0
1657528275.90657,5341.600287,4
1657528275.90657,5341.600289,16
1657528275.90657,5341.600291,28
1657528275.90657,5341.6002931,19
1657528275.90657,5341.6002951,19
1657528275.90657,5341.6002972,47
1657528275.90657,5341.6003013,55
1657528275.90657,5341.6003035,47
1657528275.90657,5341.6003065,55
1657528275.91654,5341.6003181,69
1657528275.91654,5341.6003271,79
1657528275.91654,5341.6003321,91
1657528275.91654,5341.6003357,93
1657528275.91654,5341.6003391,95
1657528275.91654,5341.6003427,112
1657528275.91654,5341.6003462,110
1657528275.91654,5341.6003524,83
1657528275.91654,5341.600356,64
1657528275.91654,5341.6003596,57
1657528275.91654,5341.6003634,55
1657528275.91654,5341.600367,45
1657528275.91654,5341.6003777,47
1657528275.91654,5341.6003875,67
1657528275.91654,5341.6003985,59
1657528275.91654,5341.6004096,23
1657528275.91654,5341.6004141,16
1657528275.91654,5341.6004161,31
1657528275.91654,5341.6004197,21
1657528275.91654,5341.6004307,4
1657528275.91654,5341.6004352,11
1657528275.91654,5341.6004397,21
1657528275.91654,5341.6004448,21
1657528275.91654,5341.6004521,35
1657528276.49089,5341.6004599,59
1657528276.49089,5341.6004693,57
1657528276.49089,5341.6004812,52
1657528276.49089,5341.6004887,55
1657528276.49089,5341.6004933,62
1657528276.49089,5341.6004971,71
1657528276.49089,5341.6005009,64
1657528276.49089,5341.600505,67
1657528276.49089,5341.6005087,83
1657528276.49089,5341.6005123,76
1657528276.49089,5341.6005178,64
1657528276.49089,5341.6005222,62
1657528276.49089,5341.6005281,57
1657528276.49089,5341.6005366,62
1657528276.49089,5341.6005404,71
1657528276.49089,5341.6005433,76
1657528276.49089,5341.6005454,71
1657528276.49089,5341.6005475,59
1657528276.49089,5341.6005497,57
1657528276.49089,5341.6005517,76
1657528276.49089,5341.6005537,103
1657528276.49089,5341.6005558,117
1657528276.49089,5341.6005579,119
1657528276.49089,5341.6005599,103
1657528276.49089,5341.600562,83
1657528276.49089,5341.600564,81
1657528276.49089,5341.600566,79
1657528276.49089,5341.600568,69
1657528276.49089,5341.60057,62
1657528276.49089,5341.6005719,64
1657528276.49089,5341.600574,74
1657528276.49089,5341.600576,79
1657528276.49089,5341.6005781,59
1657528276.49089,5342.1853121,14
1657528276.49089,5342.1853245,9
1657528276.49089,5342.1853279,194
1657528276.49089,5342.1853308,568
1657528276.49089,5342.1853335,946
1657528276.49089,5342.1853361,1068
1657528276.49089,5342.1853388,685

1657528276.49089,5342.1853414,91
1657528276.49089,5342.1853672,-110
1657528276.49089,5342.1853698,14
1657528276.49089,5342.1853718,31
1657528276.49089,5342.1853738,-47
1657528276.49089,5342.1853758,-40
1657528276.49089,5342.1853786,-19
1657528276.49089,5342.1853807,-33
1657528276.49089,5342.1853828,-23
1657528276.49089,5342.1853849,-7
1657528276.51284,5342.1853869,-21
1657528276.51284,5342.185389,-28
1657528276.51284,5342.1853911,-14
1657528276.51284,5342.1853945,0
1657528276.51284,5342.185408,9
1657528276.51284,5342.1854145,19
1657528276.51284,5342.1854168,23
1657528276.51284,5342.1854189,31
1657528276.51284,5342.1854211,43
1657528276.51284,5342.1854232,47
1657528276.51284,5342.1854259,55
1657528276.51284,5342.1854362,76
1657528276.51284,5342.1854456,79
1657528276.51284,5342.185448,57
1657528276.51284,5342.1854505,52
1657528276.51284,5342.1854526,52
1657528276.51284,5342.1854547,43
1657528276.51284,5342.1854568,40
1657528276.51284,5342.185459,47
1657528276.51284,5342.1854679,47
1657528276.51284,5342.1854787,35
1657528276.51284,5342.1854827,19
1657528276.51284,5342.1854863,9
1657528276.51284,5342.1854917,7
1657528276.9698,5342.1855033,0
1657528276.9698,5342.185507,-16
1657528276.9698,5342.1855091,-26
1657528276.9698,5342.1855112,-11
1657528276.9698,5342.1855131,16
1657528276.9698,5342.1855151,35
1657528276.9698,5342.185517,31
1657528276.9698,5342.1855189,21
1657528276.9698,5342.1855208,23
1657528276.9698,5342.1855229,28
1657528276.9698,5342.185525,38
1657528276.9698,5342.1855299,57
1657528276.9698,5342.1855411,67
1657528276.9698,5342.1855474,59
1657528276.9698,5342.1855517,52
1657528276.9698,5342.1855538,57
1657528276.9698,5342.1855561,62
1657528276.9698,5342.1855582,59
1657528276.9698,5342.1855603,52
1657528276.9698,5342.1855625,57
1657528276.9698,5342.1855647,62
1657528276.9698,5342.1855668,52
1657528276.9698,5342.1855689,47
1657528276.9698,5342.185571,50
1657528276.9698,5342.1855731,45
1657528276.9698,5342.1855753,40
1657528276.9698,5342.1855774,50
1657528276.9698,5342.1855796,64
1657528276.9698,5342.1855817,88
1657528276.9698,5342.1855838,105
1657528276.9698,5342.1855859,100
1657528276.9698,5342.185588,86
1657528276.9698,5342.673184,79
1657528276.9698,5342.6732094,79
1657528276.9698,5342.6732166,69
1657528276.9698,5342.6732255,64
1657528276.9698,5342.6732324,69
1657528276.9698,5342.6732386,64
1657528276.9698,5342.6732435,62
1657528276.9698,5342.6732481,64
1657528276.9698,5342.6732537,50
1657528276.9698,5342.6732583,31
1657528276.9698,5342.6732656,4
1657528276.9698,5342.6732713,83
1657528276.9698,5342.6732759,409
1657528276.9698,5342.6732806,834
1657528276.9698,5342.6732853,1054
1657528276.9698,5342.67329,819
1657528276.9698,5342.6732964,237
1657528276.9698,5342.6733013,-112
1657528276.98177,5342.6733072,-47
1657528276.98177,5342.6733135,9
1657528276.98177,5342.6733182,-57
1657528276.98177,5342.6733228,-55
1657528276.98177,5342.6733274,-23
1657528276.98177,5342.6733325,-52
1657528276.98177,5342.6733394,-57
1657528276.98177,5342.6733445,-4
1657528276.98177,5342.6733512,9
1657528276.98177,5342.673356,-16
1657528276.98177,5342.6733624,-9
1657528276.98177,5342.673369,14
1657528276.98177,5342.6733758,31
1657528276.98177,5342.6733822,52
1657528276.98177,5342.6733869,50
1657528276.98177,5342.6733932,40
1657528276.98177,5342.6733984,69
1657528276.98177,5342.673405,95
1657528276.98177,5342.6734104,88
1657528276.98177,5342.6734179,81
1657528276.98177,5342.6734228,91
1657528276.98177,5342.6734299,98
1657528276.98177,5342.673435,105
1657528276.98177,5342.6734401,93
1657528277.56067,5342.6734456,74
1657528277.56067,5342.6734509,79
1657528277.56067,5342.673456,81
1657528277.56067,5342.6734617,64
1657528277.56067,5342.6734669,57
1657528277.56067,5342.6734724,64
1657528277.56067,5342.6734782,67
1657528277.56067,5342.6734839,57
1657528277.56067,5342.673489,52
1657528277.56067,5342.6734942,45
1657528277.56067,5342.6734995,28
1657528277.56067,5342.6735098,31
1657528277.56067,5342.6735523,43
1657528277.56067,5342.6735653,43
1657528277.56067,5342.6735753,52
1657528277.56067,5342.673581,76
1657528277.56067,5342.6735865,79
1657528277.56067,5342.6735919,67
1657528277.56067,5342.6736164,69
1657528277.56067,5342.6736247,83
1657528277.56067,5342.6736298,98
1657528277.56067,5342.6736344,95
1657528277.56067,5342.6736386,88
1657528277.56067,5342.673642,86
1657528277.56067,5342.6736453,86
1657528277.56067,5342.6736486,86
1657528277.56067,5342.6736516,91
1657528277.56067,5342.6736543,88
1657528277.56067,5342.6736572,76
1657528277.56067,5342.6736608,67
1657528277.56067,5342.673664,69
1657528277.56067,5343.2606607,76
1657528277.56067,5343.2606777,83
1657528277.56067,5343.2606835,83
1657528277.56067,5343.2606915,74
1657528277.56067,5343.260698,74
1657528277.56067,5343.2607042,91
1657528277.56067,5343.2607089,107
1657528277.56067,5343.2607157,107
1657528277.56067,5343.2607201,88
1657528277.56067,5343.2607245,64
1657528277.56067,5343.2607289,52
1657528277.56067,5343.260733,43
1657528277.56067,5343.2607372,21
1657528277.56067,5343.2607423,9
1657528277.56067,5343.2607484,33
1657528277.56067,5343.2607528,52
1657528277.56067,5343.2607593,45
1657528277.56067,5343.2607635,35
1657528277.56067,5343.260769,4
1657528277.57162,5343.2607737,4
1657528277.57162,5343.2607793,203
1657528277.57162,5343.2607835,596
1657528277.57162,5343.2607891,982
1657528277.57162,5343.2607934,1052
1657528277.57162,5343.260799,575
1657528277.57162,5343.2608034,9
1657528277.57162,5343.2608091,-64
1657528277.57162,5343.2608136,67
1657528277.57162,5343.2608192,26
1657528277.57162,5343.2608244,-19
1657528277.57162,5343.2608303,19
1657528277.57162,5343.2608349,26
1657528277.57162,5343.2608405,19
1657528277.57162,5343.2608449,43
1657528277.57162,5343.2608509,55
1657528277.57162,5343.2608551,47
1657528277.57162,5343.2608609,47
1657528277.57162,5343.2608652,55
1657528277.57162,5343.2608711,64
1657528277.57162,5343.2608751,71
1657528277.57162,5343.2608793,74
1657528277.57162,5343.2608851,83
1657528277.57162,5343.2608893,110
1657528278.19087,5343.2608951,124
1657528278.19087,5343.2608991,124
1657528278.19087,5343.2609032,134
1657528278.19087,5343.2609072,136
1657528278.19087,5343.2609111,122
1657528278.19087,5343.2609151,110
1657528278.19087,5343.2609191,98
1657528278.19087,5343.260923,91
1657528278.19087,5343.260927,100
1657528278.19087,5343.2609311,112
1657528278.19087,5343.2609351,119
1657528278.19087,5343.2609393,124
1657528278.19087,5343.2609433,119
1657528278.19087,5343.2609472,100
1657528278.19087,5343.2609513,76
1657528278.19087,5343.2609554,71
1657528278.19087,5343.2609595,79
1657528278.19087,5343.2609635,83
1657528278.19087,5343.2609676,83
1657528278.19087,5343.2609717,83
1657528278.19087,5343.2609756,91
1657528278.19087,5343.2609793,100
1657528278.19087,5343.2609831,112
1657528278.19087,5343.2609871,117
1657528278.19087,5343.2609905,115
1657528278.19087,5343.2609938,117
1657528278.19087,5343.2609971,131
1657528278.19087,5343.2610006,139
1657528278.19087,5343.2610304,148
1657528278.19087,5343.2610384,160
1657528278.19087,5343.8925324,155
1657528278.19087,5343.8925546,143
1657528278.19087,5343.892569,131
1657528278.19087,5343.8925798,136
1657528278.19087,5343.8926099,148
1657528278.19087,5343.892614,134
1657528278.19087,5343.8926176,117
1657528278.19087,5343.8926224,115
1657528278.19087,5343.8926261,105
1657528278.19087,5343.8926293,105
1657528278.19087,5343.8926325,117
1657528278.19087,5343.8926357,119
1657528278.19087,5343.8926388,124
1657528278.19087,5343.892642,143
1657528278.19087,5343.8926453,148
1657528278.19087,5343.8926485,148
1657528278.19087,5343.8926516,162
1657528278.19087,5343.8926548,172
1657528278.19087,5343.8926586,160
1657528278.19087,5343.8926623,136
1657528278.21182,5343.8926655,112
1657528278.21182,5343.8926687,103
1657528278.21182,5343.8926716,112
1657528278.21182,5343.8926748,124
1657528278.21182,5343.8926782,122
1657528278.21182,5343.8926813,124
1657528278.21182,5343.8926854,115
1657528278.21182,5343.8926913,103
1657528278.21182,5343.8926965,218
1657528278.21182,5343.8927027,515
1657528278.21182,5343.89271,865
1657528278.21182,5343.8927153,1078
1657528278.21182,5343.8927204,877
1657528278.21182,5343.8927303,340
1657528278.21182,5343.8927357,59
1657528278.21182,5343.8927404,136
1657528278.21182,5343.8927441,186
1657528278.21182,5343.8927496,146
1657528278.21182,5343.8927552,143
1657528278.21182,5343.8927612,155
1657528278.21182,5343.8927683,146
1657528278.21182,5343.892775,148
1657528278.21182,5343.8927806,158
1657528278.21182,5343.8927868,160
1657528278.77998,5343.8927924,162
1657528278.77998,5343.8927992,160
1657528278.77998,5343.892806,153
1657528278.77998,5343.8928125,153
1657528278.77998,5343.8928188,158
1657528278.77998,5343.8928249,160
1657528278.77998,5343.8928318,153
1657528278.77998,5343.8928383,148
1657528278.77998,5343.8928454,153
1657528278.77998,5343.8928521,155
1657528278.77998,5343.8928584,155
1657528278.77998,5343.8928654,153
1657528278.77998,5343.8928718,143
1657528278.77998,5343.892877,122
1657528278.77998,5343.8928826,103
1657528278.77998,5343.8928885,103
1657528278.77998,5343.8928946,110
1657528278.77998,5343.8928999,117
1657528278.77998,5343.892906,117
1657528278.77998,5343.8929104,100
1657528278.77998,5343.8929137,88
1657528278.77998,5343.8929199,83
1657528278.77998,5343.8929268,79
1657528278.77998,5343.8929337,71
1657528278.77998,5343.8929434,67
1657528278.77998,5343.8929505,67
1657528278.77998,5343.8929564,67
1657528278.77998,5343.892962,64
1657528278.77998,5343.8929673,62
1657528278.77998,5344.477356,76
1657528278.77998,5344.4773753,86
1657528278.77998,5344.4773825,88
1657528278.77998,5344.4773911,88
1657528278.77998,5344.477398,88
1657528278.77998,5344.477405,88
1657528278.77998,5344.4774129,95
1657528278.77998,5344.4774221,95
1657528278.77998,5344.477428,88
1657528278.77998,5344.4774406,83
1657528278.77998,5344.4774538,69
1657528278.77998,5344.4774625,55
1657528278.77998,5344.4774743,57
1657528278.77998,5344.4774853,52
1657528278.77998,5344.4774936,40
1657528278.77998,5344.4775055,38
1657528278.77998,5344.4775164,40
1657528278.77998,5344.4775369,16
1657528278.77998,5344.4775624,4
1657528278.77998,5344.4775738,38
1657528278.77998,5344.4775821,69
1657528278.79147,5344.4775907,64
1657528278.79147,5344.4775963,55
1657528278.79147,5344.4775988,50
1657528278.79147,5344.477601,38
1657528278.79147,5344.477603,28
1657528278.79147,5344.4776052,26
1657528278.79147,5344.4776073,31
1657528278.79147,5344.4776093,35
1657528278.79147,5344.4776113,40
1657528278.79147,5344.4776134,43
1657528278.79147,5344.4776154,38
1657528278.79147,5344.4776175,28
1657528278.79147,5344.4776196,-7
1657528278.79147,5344.4776217,-2
1657528278.79147,5344.4776238,218
1657528278.79147,5344.4776259,635
1657528278.79147,5344.477628,1006
1657528278.79147,5344.4776301,1004
1657528278.79147,5344.4776322,486
1657528278.79147,5344.4776343,-47
1657528278.79147,5344.4776364,-100
1657528278.79147,5344.4776385,40
1657528278.79147,5344.4776415,19
1657528278.79147,5344.4776436,-19
1657528279.28085,5344.4776459,23
1657528279.28085,5344.4776492,33
1657528279.28085,5344.4776513,14
1657528279.28085,5344.477658,31
1657528279.28085,5344.4776601,50
1657528279.28085,5344.477662,45
1657528279.28085,5344.477664,55
1657528279.28085,5344.4776662,76
1657528279.28085,5344.4776683,81
1657528279.28085,5344.4776703,91
1657528279.28085,5344.4776724,105
1657528279.28085,5344.4776745,112
1657528279.28085,5344.4776766,119
1657528279.28085,5344.4776787,134
1657528279.28085,5344.4776807,155
1657528279.28085,5344.4776831,165
1657528279.28085,5344.4776852,165
1657528279.28085,5344.4776876,158
1657528279.28085,5344.4776896,146
1657528279.28085,5344.4776917,136
1657528279.28085,5344.4776937,134
1657528279.28085,5344.4776958,119
1657528279.28085,5344.4776984,100
1657528279.28085,5344.4777569,98
1657528279.28085,5344.4777714,110
1657528279.28085,5344.4777813,110
1657528279.28085,5344.4777885,83
1657528279.28085,5344.4777949,59
1657528279.28085,5344.9647921,55
1657528279.28085,5344.9648105,40
1657528279.28085,5344.9648184,31
1657528279.28085,5344.9648298,40
1657528279.28085,5344.9648339,40
1657528279.28085,5344.9648377,38
1657528279.28085,5344.9648433,45
1657528279.28085,5344.9648561,43
1657528279.28085,5344.9648666,38
1657528279.28085,5344.9648768,50
1657528279.28085,5344.9648827,62
1657528279.28085,5344.9648922,74
1657528279.28085,5344.9648996,86
1657528279.28085,5344.9649044,91
1657528279.28085,5344.9649064,81
1657528279.28085,5344.9649087,74
1657528279.28085,5344.9649156,79
1657528279.28085,5344.9649282,83
1657528279.28085,5344.9649342,79
1657528279.28085,5344.9649451,67
1657528279.28085,5344.9649521,55
1657528279.28085,5344.9649591,52
1657528279.3038,5344.96497,52
1657528279.3038,5344.9649817,67
1657528279.3038,5344.9649928,93
1657528279.3038,5344.9650074,91
1657528279.3038,5344.9650209,59
1657528279.3038,5344.965034,45
1657528279.3038,5344.9650473,40
1657528279.3038,5344.9650609,31
1657528279.3038,5344.965074,28
1657528279.3038,5344.9650876,26
1657528279.3038,5344.9650958,19
1657528279.3038,5344.9650985,14
1657528279.3038,5344.9651007,40
1657528279.3038,5344.9651028,69
1657528279.3038,5344.9651049,43
1657528279.3038,5344.9651106,-31
1657528279.3038,5344.9651221,-50
1657528279.3038,5344.9651274,148
1657528279.3038,5344.9651306,551
1657528279.3038,5344.9651328,941
1657528279.3038,5344.9651403,994
1657528279.3038,5344.9651512,541
1657528279.3038,5344.9651621,9
1657528279.3038,5344.9651768,-93
1657528279.81604,5344.9651853,21
1657528279.81604,5344.9652009,16
1657528279.81604,5344.9652029,-16
1657528279.81604,5344.9652048,4
1657528279.81604,5344.965207,7
1657528279.81604,5344.9652287,-2
1657528279.81604,5344.9652379,11
1657528279.81604,5344.965241,23
1657528279.81604,5344.9652431,28
1657528279.81604,5344.9652451,43
1657528279.81604,5344.965247,52
1657528279.81604,5344.9652489,43
1657528279.81604,5344.9652516,45
1657528279.81604,5344.9652596,67
1657528279.81604,5344.9652666,79
1657528279.81604,5344.9652741,83
1657528279.81604,5344.9652798,103
1657528279.81604,5344.9652899,124
1657528279.81604,5344.9653041,141
1657528279.81604,5344.9653119,155
1657528279.81604,5344.9653146,155
1657528279.81604,5344.9653167,150
1657528279.81604,5344.9653188,153
1657528279.81604,5344.9653268,153
1657528279.81604,5344.9653375,143
1657528279.81604,5344.9653418,143
1657528279.81604,5344.965345,155
1657528279.81604,5345.5008455,170
1657528279.81604,5345.5008809,160
1657528279.81604,5345.5008867,124
1657528279.81604,5345.5008912,103
1657528279.81604,5345.5008982,110
1657528279.81604,5345.500905,95
1657528279.81604,5345.5009122,74
1657528279.81604,5345.5009179,98
1657528279.81604,5345.5009222,115
1657528279.81604,5345.5009255,95
1657528279.81604,5345.5009288,91
1657528279.81604,5345.5009341,103
1657528279.81604,5345.5009377,119
1657528279.81604,5345.5009413,129
1657528279.81604,5345.5009486,122
1657528279.81604,5345.5009523,124
1657528279.81604,5345.5009567,141
1657528279.81604,5345.5009636,129
1657528279.81604,5345.5009696,127
1657528279.81604,5345.5009763,148
1657528279.81604,5345.5009824,146
1657528279.81604,5345.5009864,131
1657528279.81604,5345.5009984,139
1657528279.83798,5345.5010054,143
1657528279.83798,5345.5010134,136
1657528279.83798,5345.5010171,146
1657528279.83798,5345.5010203,158
1657528279.83798,5345.5010234,162
1657528279.83798,5345.5010267,186
1657528279.83798,5345.5010302,198
1657528279.83798,5345.5010335,170
1657528279.83798,5345.5010375,160
1657528279.83798,5345.5010414,182
1657528279.83798,5345.5010457,170
1657528279.83798,5345.5010537,148
1657528279.83798,5345.5010631,165
1657528279.83798,5345.5010698,170
1657528279.83798,5345.5010753,148
1657528279.83798,5345.501084,160
1657528279.83798,5345.5010896,194
1657528279.83798,5345.5011032,167
1657528279.83798,5345.5011173,93
1657528279.83798,5345.5011301,117
1657528279.83798,5345.5011393,381
1657528279.83798,5345.5011432,805
1657528279.83798,5345.5011486,1143
1657528279.83798,5345.501152,1078
1657528280.39285,5345.5011555,539
1657528280.39285,5345.5011588,57
1657528280.39285,5345.5011621,16
1657528280.39285,5345.5011653,119
1657528280.39285,5345.5011685,117
1657528280.39285,5345.501172,93
1657528280.39285,5345.5011752,105
1657528280.39285,5345.5011788,119
1657528280.39285,5345.5011821,129
1657528280.39285,5345.5011853,139
1657528280.39285,5345.5011888,141
1657528280.39285,5345.501193,150
1657528280.39285,5345.5012007,170
1657528280.39285,5345.5012102,172
1657528280.39285,5345.501217,177
1657528280.39285,5345.5012227,208
1657528280.39285,5345.5012272,215
1657528280.39285,5345.5012359,210
1657528280.39285,5345.501243,227
1657528280.39285,5345.5012498,234
1657528280.39285,5345.5012574,225
1657528280.39285,5345.501265,249
1657528280.39285,5345.5012707,270
1657528280.39285,5345.5012759,263
1657528280.39285,5345.501285,261
1657528280.39285,5345.5012918,258
1657528280.39285,5346.0858685,254
1657528280.39285,5346.085895,246
1657528280.39285,5346.0858976,232
1657528280.39285,5346.0858998,230
1657528280.39285,5346.085902,230
1657528280.39285,5346.0859041,210
1657528280.39285,5346.0859063,182
1657528280.39285,5346.0859084,165
1657528280.39285,5346.0859106,158
1657528280.39285,5346.0859127,155
1657528280.39285,5346.0859147,136
1657528280.39285,5346.0859168,119
1657528280.39285,5346.0859189,124
1657528280.39285,5346.0859209,115
1657528280.39285,5346.0859231,93
1657528280.39285,5346.0859252,112
1657528280.39285,5346.0859273,139
1657528280.39285,5346.0859293,131
1657528280.39285,5346.0859314,134
1657528280.39285,5346.0859335,146
1657528280.39285,5346.0859356,146
1657528280.39285,5346.0859376,155
1657528280.39285,5346.0859397,172
1657528280.39285,5346.0859417,167
1657528280.41576,5346.0859438,148
1657528280.41576,5346.0859459,148
1657528280.41576,5346.0859479,165
1657528280.41576,5346.0859499,165
1657528280.41576,5346.0859519,160
1657528280.41576,5346.0859539,160
1657528280.41576,5346.085956,141
1657528280.41576,5346.0859581,139
1657528280.41576,5346.0859601,162
1657528280.41576,5346.0859621,170
1657528280.41576,5346.0859642,172
1657528280.41576,5346.0859662,177
1657528280.41576,5346.0859683,160
1657528280.41576,5346.0859703,153
1657528280.41576,5346.0859724,158
1657528280.41576,5346.0859744,153
1657528280.41576,5346.0859765,148
1657528280.41576,5346.0859785,148
1657528280.41576,5346.0859805,150
1657528280.41576,5346.0859826,153
1657528280.41576,5346.0859846,141
1657528280.41576,5346.0859869,95
1657528280.41576,5346.085989,69
1657528280.41576,5346.0859911,246
1657528281.86031,5346.0859932,668
1657528281.86031,5346.0859952,1112
1657528281.86031,5346.0859971,1217
1657528281.86031,5346.085999,742
1657528281.86031,5346.086001,117
1657528281.86031,5346.0860029,-28
1657528281.86031,5346.0860048,112
1657528281.86031,5346.0860067,127
1657528281.86031,5346.086013,100
1657528281.86031,5346.0860232,117
1657528281.86031,5346.0860326,110
1657528281.86031,5346.0860446,115
1657528281.86031,5346.0860562,136
1657528281.86031,5346.0860615,141
1657528281.86031,5346.0860643,143
1657528281.86031,5346.0860664,153
1657528281.86031,5346.086069,162
1657528281.86031,5346.0860786,172
1657528281.86031,5346.0860883,186
1657528281.86031,5346.0860909,203
1657528281.86031,5346.0860931,208
1657528281.86031,5346.0860951,215
1657528281.86031,5346.0860974,242
1657528281.86031,5346.0861054,258
1657528281.86031,5346.086116,254
1657528281.86031,5347.5474432,263
1657528281.86031,5347.5474614,282
1657528281.86031,5347.5474656,285
1657528281.86031,5347.5474829,268
1657528281.86031,5347.5474932,249
1657528281.86031,5347.5474982,244
1657528281.86031,5347.5475022,246
1657528281.86031,5347.5475059,244
1657528281.86031,5347.5475095,230
1657528281.86031,5347.547513,210
1657528281.86031,5347.5475165,189
1657528281.86031,5347.5475201,162
1657528281.86031,5347.5475241,141
1657528281.86031,5347.5475277,143
1657528281.86031,5347.5475323,155
1657528281.86031,5347.5475386,160
1657528281.86031,5347.5475427,143
1657528281.86031,5347.5475466,124
1657528281.86031,5347.547551,124
1657528281.86031,5347.5475557,127
1657528281.86031,5347.5475594,119
1657528281.86031,5347.5475644,119
1657528281.86031,5347.5475686,134
1657528281.86031,5347.5475746,153
1657528281.86031,5347.5475786,153
1657528281.88223,5347.5475823,139
1657528281.88223,5347.5475858,148
1657528281.88223,5347.5475893,165
1657528281.88223,5347.5475928,160
1657528281.88223,5347.5475965,148
1657528281.88223,5347.5476,148
1657528281.88223,5347.5476035,158
1657528281.88223,5347.547607,155
1657528281.88223,5347.5476106,146
1657528281.88223,5347.5476142,146
1657528281.88223,5347.5476182,136
1657528281.88223,5347.5476228,141
1657528281.88223,5347.5476278,155
1657528281.88223,5347.5476319,148
1657528281.88223,5347.5476361,139
1657528281.88223,5347.5476396,141
1657528281.88223,5347.5476433,148
1657528281.88223,5347.547647,143
1657528281.88223,5347.5476505,129
1657528281.88223,5347.5476551,136
1657528281.88223,5347.5476592,146
1657528281.88223,5347.5476631,141
1657528281.88223,5347.5476669,143
1657528281.88223,5347.5476708,139
1657528281.94931,5347.5476749,93
1657528281.94931,5347.5476787,52
1657528281.94931,5347.5476823,182
1657528281.94931,5347.547686,560
1657528281.94931,5347.5476897,1023
1657528281.94931,5347.5476935,1236
1657528281.94931,5347.547697,898
1657528281.94931,5347.5477005,232
1657528281.94931,5347.5477086,-69
1657528281.94931,5347.5477358,59
1657528281.94931,5347.5477454,107
1657528281.94931,5347.5477563,28
