Time,TimeLsl,Value
1657527670.18382,4734.3039555,71
1657527670.18382,4734.303974,74
1657527670.18382,4734.3039836,71
1657527670.18382,4734.3039925,71
1657527670.18382,4734.3039967,76
1657527670.18382,4734.3040031,76
1657527670.18382,4734.3040111,69
1657527670.18382,4734.3040177,62
1657527670.18382,4734.3040252,64
1657527670.18382,4734.3040348,76
1657527670.18382,4734.3040428,69
1657527670.18382,4734.3040494,55
1657527670.18382,4734.304058,50
1657527670.18382,4734.3040648,59
1657527670.18382,4734.3040728,62
1657527670.18382,4734.3040797,62
1657527670.18382,4734.3040912,59
1657527670.18382,4734.3041047,55
1657527670.18382,4734.3041115,47
1657527670.18382,4734.3041139,45
1657527670.18382,4734.304116,45
1657527670.18382,4734.3041183,38
1657527670.18382,4734.3041264,33
1657527670.18382,4734.3041372,52
1657527670.18382,4734.3041412,81
1657527670.18382,4734.3041448,91
1657527670.18382,4734.3041471,88
1657527670.18382,4734.3041569,88
1657527670.18382,4734.3041659,91
1657527670.18382,4734.3041685,91
1657527670.18382,4734.3041707,79
1657527670.18382,4734.3041729,67
1657527670.18382,4734.3041829,69
1657527670.18382,4734.3042029,79
1657527670.18382,4734.3042158,83
1657527670.18382,4734.3042231,86
1657527670.18382,4734.3042255,71
1657527670.18382,4734.304228,23
1657527670.18382,4734.3042376,14
1657527670.18382,4734.3042466,201
1657527670.18382,4734.3042491,591
1657527670.18382,4734.3042519,989
1657527670.18382,4734.3042541,1100
1657527670.18382,4734.3042619,680
1657527670.18382,4734.3042728,62
1657527670.18382,4734.3042768,-127
1657527670.18382,4734.3042802,16
1657527670.18382,4734.3042904,33
1657527670.18382,4734.3043011,-38
1657527670.18382,4734.3043039,-19
1657527670.28955,4734.3043115,4
1657527670.28955,4734.3043273,-7
1657527670.28955,4734.3043329,4
1657527670.28955,4734.3043399,16
1657527670.28955,4734.3043444,11
1657527670.28955,4734.3043478,11
1657527670.28955,4734.3043512,21
1657527670.28955,4734.3043544,21
1657527670.28955,4734.3043579,26
1657527670.28955,4734.3043616,38
1657527670.28955,4734.3043671,50
1657527670.28955,4734.3043722,62
1657527670.28955,4734.3043757,74
1657527670.28955,4734.3043812,79
1657527670.28955,4734.3043854,95
1657527670.28955,4734.3043891,117
1657527670.28955,4734.304393,131
1657527670.28955,4734.3043966,139
1657527670.28955,4734.3044001,146
1657527670.28955,4734.3044037,141
1657527670.28955,4734.3044071,129
1657527670.28955,4734.3044109,122
1657527670.28955,4734.3044144,110
1657527670.28955,4734.8883168,98
1657527670.28955,4734.8883317,95
1657527670.28955,4734.8883367,88
1657527670.28955,4734.8883412,67
1657527670.28955,4734.8883451,45
1657527670.28955,4734.888349,45
1657527670.28955,4734.8883528,45
1657527670.28955,4734.8883567,28
1657527670.28955,4734.8883606,11
1657527670.28955,4734.8883644,9
1657527670.28955,4734.8883682,14
1657527670.28955,4734.8883721,14
1657527670.28955,4734.8883761,19
1657527670.28955,4734.8883797,33
1657527670.28955,4734.8883834,43
1657527670.28955,4734.88839,47
1657527670.28955,4734.8884156,52
1657527670.28955,4734.8884319,64
1657527670.28955,4734.8884405,74
1657527670.28955,4734.8884452,81
1657527670.28955,4734.8884529,79
1657527670.28955,4734.888458,64
1657527670.28955,4734.8884644,55
1657527670.28955,4734.8884708,64
1657527670.28955,4734.8884774,69
1657527670.28955,4734.8884831,59
1657527670.28955,4734.8884867,62
1657527670.33041,4734.8884899,64
1657527670.33041,4734.8884931,55
1657527670.33041,4734.8884965,50
1657527670.33041,4734.8885,52
1657527670.33041,4734.8885034,43
1657527670.33041,4734.8885066,26
1657527670.33041,4734.88851,21
1657527670.33041,4734.8885158,33
1657527670.33041,4734.8885222,43
1657527670.33041,4734.8885255,45
1657527670.33041,4734.8885283,47
1657527670.33041,4734.8885312,47
1657527670.33041,4734.8885341,43
1657527670.33041,4734.8885451,47
1657527670.33041,4734.888548,55
1657527670.33041,4734.8885515,55
1657527670.33041,4734.8885551,62
1657527670.33041,4734.8885583,67
1657527670.33041,4734.8885618,62
1657527670.33041,4734.8885651,64
1657527670.33041,4734.88857,71
1657527670.33041,4734.8885744,76
1657527670.33041,4734.8885802,79
1657527670.33041,4734.8885839,81
1657527670.33041,4734.8885881,81
1657527670.33041,4734.8885939,74
1657527670.33041,4734.8885977,71
1657527670.33041,4734.8886014,88
1657527670.33041,4734.8886048,119
1657527670.33041,4734.8886087,129
1657527670.33041,4734.8886122,119
1657527670.33041,4734.8886178,112
1657527670.33041,4734.8886218,107
1657527670.33041,4734.8886255,93
1657527670.33041,4734.88863,81
1657527670.33041,4734.8886343,74
1657527670.33041,4734.8886381,71
1657527670.33041,4734.8886426,71
1657527670.33041,4734.8886463,71
1657527670.33041,4734.8886507,71
1657527670.33041,4734.8886551,59
1657527670.33041,4734.8886588,16
1657527670.33041,4734.8886632,55
1657527670.33041,4734.8886677,321
1657527670.33041,4734.8886718,716
1657527670.33041,4734.8886764,1011
1657527670.33041,4735.3750797,951
1657527670.33041,4735.3750927,452
1657527670.33041,4735.3750956,-16
1657527670.33041,4735.3750978,-57
1657527670.37329,4735.3751,43
1657527670.37329,4735.375102,7
1657527670.37329,4735.3751039,-35
1657527670.37329,4735.375106,-9
1657527670.37329,4735.375108,-2
1657527670.37329,4735.3751101,-14
1657527670.37329,4735.3751133,-7
1657527670.37329,4735.3751216,-2
1657527670.37329,4735.3751285,-14
1657527670.37329,4735.3751334,-11
1657527670.37329,4735.3751373,11
1657527670.37329,4735.3751439,21
1657527670.37329,4735.3751487,21
1657527670.37329,4735.3751545,23
1657527670.37329,4735.3751664,16
1657527670.37329,4735.375177,16
1657527670.37329,4735.3751843,38
1657527670.37329,4735.375194,52
1657527670.37329,4735.3752019,62
1657527670.37329,4735.3752075,71
1657527670.37329,4735.3752212,79
1657527670.37329,4735.3752346,81
1657527670.37329,4735.3752478,86
1657527670.37329,4735.375261,88
1657527670.37329,4735.3752732,81
1657527670.37329,4735.3752837,74
1657527670.37329,4735.3752923,76
1657527670.37329,4735.3753022,74
1657527670.37329,4735.3753138,64
1657527670.37329,4735.3753233,52
1657527670.37329,4735.3753321,43
1657527670.37329,4735.3753432,33
1657527670.37329,4735.375352,23
1657527670.37329,4735.3753625,16
1657527670.37329,4735.3753733,16
1657527670.37329,4735.3753826,21
1657527670.37329,4735.3753951,31
1657527670.37329,4735.3754044,33
1657527670.37329,4735.3754139,31
1657527670.37329,4735.3754248,35
1657527670.37329,4735.3754333,50
1657527670.37329,4735.3754453,55
1657527670.37329,4735.3754557,59
1657527670.37329,4735.3754653,71
1657527670.37329,4735.3754788,81
1657527670.37329,4735.375488,83
1657527670.37329,4735.3754958,79
1657527670.37329,4735.3755086,81
1657527670.37329,4735.3755179,79
1657527670.37329,4735.3755254,76
1657527670.38726,4735.3755378,81
1657527670.38726,4735.3755468,81
1657527670.38726,4735.3755563,71
1657527670.38726,4735.3755694,74
1657527670.38726,4735.3755775,81
1657527670.38726,4735.375582,79
1657527670.38726,4735.375588,83
1657527670.38726,4735.3755917,83
1657527670.38726,4735.3755954,69
1657527670.38726,4735.3755997,69
1657527670.38726,4735.3756031,86
1657527670.38726,4735.3756064,83
1657527670.38726,4735.3756097,79
1657527670.38726,4735.3756131,83
1657527670.38726,4735.3756163,83
1657527670.38726,4735.3756197,83
1657527670.38726,4735.3756231,88
1657527670.38726,4735.3756263,93
1657527670.38726,4735.3756307,93
1657527670.38726,4735.9630624,93
1657527670.38726,4735.9630852,95
1657527670.38726,4735.9630942,95
1657527670.80036,4735.9631043,91
1657527670.80036,4735.9631123,88
1657527670.80036,4735.9631183,95
1657527670.80036,4735.9631224,105
1657527670.80036,4735.9631261,103
1657527670.80036,4735.9631308,86
1657527670.80036,4735.9631372,69
1657527670.80036,4735.9631406,76
1657527670.80036,4735.9631449,103
1657527670.80036,4735.9631512,107
1657527670.80036,4735.9631551,98
1657527670.80036,4735.963161,88
1657527670.80036,4735.9631677,71
1657527670.80036,4735.9631712,57
1657527670.80036,4735.9631744,55
1657527670.80036,4735.9631777,43
1657527670.80036,4735.9631812,26
1657527670.80036,4735.9631846,31
1657527670.80036,4735.9631878,43
1657527670.80036,4735.9631909,45
1657527670.80036,4735.9631944,40
1657527670.80036,4735.9631975,16
1657527670.80036,4735.9632009,0
1657527670.80036,4735.9632063,119
1657527670.80036,4735.9632115,424
1657527670.80036,4735.9632158,790
1657527670.80036,4735.9632194,987
1657527670.80036,4735.9632259,747
1657527670.80036,4735.9632325,210
1657527670.80036,4735.9632392,-79
1657527670.80036,4735.963246,-26
1657527670.80036,4735.9632499,9
1657527670.80036,4735.9632544,-35
1657527670.80036,4735.9632581,-38
1657527670.80036,4735.9632611,-19
1657527670.80036,4735.9632643,-23
1657527670.80036,4735.9632692,-21
1657527670.80036,4735.9632757,-9
1657527670.80036,4735.9632825,-4
1657527670.80036,4735.9632894,2
1657527670.80036,4735.9632963,4
1657527670.80036,4735.9632997,9
1657527670.80036,4735.9633063,19
1657527670.80036,4735.9633162,21
1657527670.80036,4735.9633222,26
1657527670.80036,4735.9633318,43
1657527670.80036,4735.963339,55
1657527670.80036,4735.9633445,67
1657527670.80036,4735.9633484,88
1657527670.80036,4735.963352,103
1657527670.81584,4735.9633554,105
1657527670.81584,4735.9633585,112
1657527670.81584,4735.9633618,122
1657527670.81584,4735.9633678,122
1657527670.81584,4735.9633739,117
1657527670.81584,4735.9633789,115
1657527670.81584,4735.9633853,107
1657527670.81584,4735.9633925,103
1657527670.81584,4735.9633991,100
1657527670.81584,4735.9634057,88
1657527670.81584,4735.9634108,81
1657527670.81584,4735.9634148,74
1657527670.81584,4735.9634179,64
1657527670.81584,4735.9634212,47
1657527670.81584,4735.9634257,33
1657527670.81584,4735.9634311,35
1657527670.81584,4735.963438,45
1657527670.81584,4735.9634442,50
1657527670.81584,4735.9634511,57
1657527670.81584,4735.9634578,62
1657527670.81584,4736.4981302,59
1657527670.81584,4736.4981503,59
1657527670.81584,4736.4981585,64
1657527670.81584,4736.498162,71
1657527671.33056,4736.4981672,76
1657527671.33056,4736.4981739,79
1657527671.33056,4736.4981807,79
1657527671.33056,4736.4981878,83
1657527671.33056,4736.4981919,88
1657527671.33056,4736.4981955,86
1657527671.33056,4736.498199,71
1657527671.33056,4736.4982035,47
1657527671.33056,4736.4982103,38
1657527671.33056,4736.4982175,45
1657527671.33056,4736.4982246,50
1657527671.33056,4736.4982315,45
1657527671.33056,4736.4982391,38
1657527671.33056,4736.4982493,35
1657527671.33056,4736.4982555,23
1657527671.33056,4736.4982646,14
1657527671.33056,4736.4982738,21
1657527671.33056,4736.4982815,26
1657527671.33056,4736.4982888,31
1657527671.33056,4736.4982944,33
1657527671.33056,4736.4983038,28
1657527671.33056,4736.4983078,31
1657527671.33056,4736.4983175,45
1657527671.33056,4736.4983246,50
1657527671.33056,4736.4983323,43
1657527671.33056,4736.4983387,43
1657527671.33056,4736.4983453,47
1657527671.33056,4736.4983565,52
1657527671.33056,4736.4983685,55
1657527671.33056,4736.4983773,57
1657527671.33056,4736.498385,50
1657527671.33056,4736.4983927,43
1657527671.33056,4736.4984002,38
1657527671.33056,4736.4984087,45
1657527671.33056,4736.4984133,62
1657527671.33056,4736.4984237,83
1657527671.33056,4736.4984299,91
1657527671.33056,4736.4984392,88
1657527671.33056,4736.4984493,83
1657527671.33056,4736.4984601,76
1657527671.33056,4736.4984671,64
1657527671.33056,4736.498476,55
1657527671.33056,4736.4984904,50
1657527671.33056,4736.4985016,55
1657527671.33056,4736.4985095,55
1657527671.33056,4736.4985181,52
1657527671.33056,4736.498526,47
1657527671.33056,4736.4985287,31
1657527671.33056,4736.4985373,-7
1657527671.33056,4736.4985496,47
1657527671.34153,4736.4985562,321
1657527671.34153,4736.4985625,702
1657527671.34153,4736.4985736,982
1657527671.34153,4736.498582,898
1657527671.34153,4736.4985897,371
1657527671.34153,4736.4985967,-83
1657527671.34153,4736.4986067,-91
1657527671.34153,4736.4986123,16
1657527671.34153,4736.4986159,-26
1657527671.34153,4736.4986193,-59
1657527671.34153,4736.4986227,-28
1657527671.34153,4736.4986261,-23
1657527671.34153,4736.4986297,-40
1657527671.34153,4736.498633,-35
1657527671.34153,4736.4986364,-28
1657527671.34153,4736.4986398,-21
1657527671.34153,4736.4986432,-9
1657527671.34153,4736.4986465,-2
1657527671.34153,4736.4986499,-2
1657527671.34153,4737.0332579,7
1657527671.34153,4737.0332734,23
1657527671.34153,4737.0332774,28
1657527671.34153,4737.0332808,33
1657527671.34153,4737.0332843,47
1657527671.92277,4737.0332876,59
1657527671.92277,4737.0332909,67
1657527671.92277,4737.0332941,81
1657527671.92277,4737.0332974,93
1657527671.92277,4737.0333009,86
1657527671.92277,4737.0333047,88
1657527671.92277,4737.0333079,91
1657527671.92277,4737.0333113,79
1657527671.92277,4737.0333146,71
1657527671.92277,4737.0333178,67
1657527671.92277,4737.0333211,50
1657527671.92277,4737.0333244,35
1657527671.92277,4737.0333276,28
1657527671.92277,4737.0333309,16
1657527671.92277,4737.0333356,0
1657527671.92277,4737.033339,-16
1657527671.92277,4737.0333424,-31
1657527671.92277,4737.0333457,-43
1657527671.92277,4737.033349,-40
1657527671.92277,4737.0333522,-28
1657527671.92277,4737.0333555,-28
1657527671.92277,4737.0333588,-33
1657527671.92277,4737.033362,-21
1657527671.92277,4737.0333653,-9
1657527671.92277,4737.0333688,-7
1657527671.92277,4737.0333724,0
1657527671.92277,4737.0333761,16
1657527671.92277,4737.0333793,26
1657527671.92277,4737.0333825,28
1657527671.92277,4737.0333858,33
1657527671.92277,4737.033389,38
1657527671.92277,4737.0333923,38
1657527671.92277,4737.0333955,35
1657527671.92277,4737.0333988,38
1657527671.92277,4737.033402,45
1657527671.92277,4737.0334052,40
1657527671.92277,4737.0334084,38
1657527671.92277,4737.0334117,40
1657527671.92277,4737.033415,45
1657527671.92277,4737.0334183,45
1657527671.92277,4737.0334215,47
1657527671.92277,4737.0334248,50
1657527671.92277,4737.0334283,40
1657527671.92277,4737.0334316,38
1657527671.92277,4737.033435,47
1657527671.92277,4737.0334383,52
1657527671.92277,4737.033443,52
1657527671.92277,4737.0334489,47
1657527671.92277,4737.0334556,43
1657527671.92277,4737.033461,43
1657527671.93374,4737.0334668,55
1657527671.93374,4737.0334708,62
1657527671.93374,4737.0334752,50
1657527671.93374,4737.0334813,38
1657527671.93374,4737.0334866,40
1657527671.93374,4737.0334902,57
1657527671.93374,4737.0334955,88
1657527671.93374,4737.033499,103
1657527671.93374,4737.0335032,88
1657527671.93374,4737.0335072,76
1657527671.93374,4737.0335105,76
1657527671.93374,4737.0335137,69
1657527671.93374,4737.0335169,62
1657527671.93374,4737.0335206,55
1657527671.93374,4737.0335259,47
1657527671.93374,4737.0335292,45
1657527671.93374,4737.0335347,52
1657527671.93374,4737.033538,50
1657527671.93374,4737.6183538,21
1657527671.93374,4737.6183681,-19
1657527671.93374,4737.6183716,71
1657527671.93374,4737.6183757,409
1657527671.93374,4737.618378,846
1657527671.93374,4737.6183801,1102
1657527672.49995,4737.6183821,860
1657527672.49995,4737.6183842,198
1657527672.49995,4737.6183862,-186
1657527672.49995,4737.6183881,-76
1657527672.49995,4737.6183901,14
1657527672.49995,4737.618392,-69
1657527672.49995,4737.6183949,-91
1657527672.49995,4737.6184038,-50
1657527672.49995,4737.6184151,-43
1657527672.49995,4737.6184245,-43
1657527672.49995,4737.618429,-33
1657527672.49995,4737.6184369,-43
1657527672.49995,4737.6184418,-43
1657527672.49995,4737.6184515,-28
1657527672.49995,4737.618464,-23
1657527672.49995,4737.6184776,-19
1657527672.49995,4737.6184876,-7
1657527672.49995,4737.6184947,7
1657527672.49995,4737.6185057,19
1657527672.49995,4737.6185174,31
1657527672.49995,4737.6185255,50
1657527672.49995,4737.6185357,64
1657527672.49995,4737.6185462,81
1657527672.49995,4737.6185549,100
1657527672.49995,4737.6185673,115
1657527672.49995,4737.6185763,119
1657527672.49995,4737.6185849,122
1657527672.49995,4737.6185964,122
1657527672.49995,4737.6186044,115
1657527672.49995,4737.6186149,105
1657527672.49995,4737.6186253,100
1657527672.49995,4737.6186343,88
1657527672.49995,4737.6186467,69
1657527672.49995,4737.6186553,52
1657527672.49995,4737.6186643,31
1657527672.49995,4737.618675,19
1657527672.49995,4737.6186827,16
1657527672.49995,4737.6186938,9
1657527672.49995,4737.6187041,4
1657527672.49995,4737.6187148,9
1657527672.49995,4737.6187235,9
1657527672.49995,4737.618732,11
1657527672.49995,4737.6187432,28
1657527672.49995,4737.6187535,28
1657527672.49995,4737.6187618,23
1657527672.49995,4737.6187725,40
1657527672.49995,4737.6187813,57
1657527672.49995,4737.6187889,55
1657527672.49995,4737.6187959,57
1657527672.49995,4737.6187984,67
1657527672.50992,4737.6188006,71
1657527672.50992,4737.6188026,71
1657527672.50992,4737.6188047,76
1657527672.50992,4737.6188068,74
1657527672.50992,4737.618809,64
1657527672.50992,4737.6188145,59
1657527672.50992,4737.6188257,59
1657527672.50992,4737.6188373,59
1657527672.50992,4737.6188474,62
1657527672.50992,4737.6188515,62
1657527672.50992,4737.6188546,57
1657527672.50992,4737.6188567,55
1657527672.50992,4737.6188588,59
1657527672.50992,4737.6188608,57
1657527672.50992,4737.6188629,52
1657527672.50992,4737.6188649,64
1657527672.50992,4737.6188669,69
1657527672.50992,4738.2028323,64
1657527672.50992,4738.2028462,69
1657527672.50992,4738.2028498,64
1657527672.50992,4738.202852,50
1657527672.50992,4738.2028579,57
1657527672.50992,4738.202868,86
1657527672.50992,4738.2028791,110
1657527673.18855,4738.2028905,105
1657527673.18855,4738.2029017,88
1657527673.18855,4738.2029096,76
1657527673.18855,4738.2029186,76
1657527673.18855,4738.2029274,71
1657527673.18855,4738.2029345,62
1657527673.18855,4738.2029435,62
1657527673.18855,4738.2029534,64
1657527673.18855,4738.2029599,50
1657527673.18855,4738.2029724,45
1657527673.18855,4738.2029834,57
1657527673.18855,4738.2029925,45
1657527673.18855,4738.2030028,-7
1657527673.18855,4738.2030132,4
1657527673.18855,4738.2030203,244
1657527673.18855,4738.2030328,663
1657527673.18855,4738.2030411,1047
1657527673.18855,4738.2030525,1090
1657527673.18855,4738.2030628,579
1657527673.18855,4738.2030744,-31
1657527673.18855,4738.2030853,-131
1657527673.18855,4738.2030963,33
1657527673.18855,4738.2031073,16
1657527673.18855,4738.2031171,-50
1657527673.18855,4738.2031298,-11
1657527673.18855,4738.2031386,9
1657527673.18855,4738.203141,-14
1657527673.18855,4738.2031432,-7
1657527673.18855,4738.2031453,16
1657527673.18855,4738.2031474,23
1657527673.18855,4738.2031494,26
1657527673.18855,4738.2031514,33
1657527673.18855,4738.2031548,38
1657527673.18855,4738.2031681,40
1657527673.18855,4738.203178,47
1657527673.18855,4738.2032147,67
1657527673.18855,4738.2032263,86
1657527673.18855,4738.2032328,98
1657527673.18855,4738.2032386,110
1657527673.18855,4738.203246,117
1657527673.18855,4738.2032509,124
1657527673.18855,4738.203256,139
1657527673.18855,4738.203261,146
1657527673.18855,4738.2032664,148
1657527673.18855,4738.2032713,139
1657527673.18855,4738.2032747,127
1657527673.18855,4738.2032809,122
1657527673.18855,4738.2032849,107
1657527673.18855,4738.2032887,93
1657527673.18855,4738.2032927,86
1657527673.19918,4738.2032991,67
1657527673.19918,4738.2033083,45
1657527673.19918,4738.2033173,28
1657527673.19918,4738.2033221,14
1657527673.19918,4738.2033277,7
1657527673.19918,4738.203332,4
1657527673.19918,4738.2033388,2
1657527673.19918,4738.203343,2
1657527673.19918,4738.203349,4
1657527673.19918,4738.2033529,11
1657527673.19918,4738.2033568,16
1657527673.19918,4738.2033619,26
1657527673.19918,4738.2033657,43
1657527673.19918,4738.2033716,47
1657527673.19918,4738.2033752,47
1657527673.19918,4738.2033808,47
1657527673.19918,4738.885091,55
1657527673.19918,4738.8851168,62
1657527673.19918,4738.8851215,62
1657527673.19918,4738.8851253,67
1657527673.19918,4738.8851274,69
1657527673.19918,4738.8851293,64
1657527673.19918,4738.8851314,64
1657527673.19918,4738.8851335,71
1657527673.62238,4738.8851366,71
1657527673.62238,4738.8851387,67
1657527673.62238,4738.8851407,67
1657527673.62238,4738.8851426,57
1657527673.62238,4738.8851448,43
1657527673.62238,4738.8851467,38
1657527673.62238,4738.8851486,40
1657527673.62238,4738.8851505,43
1657527673.62238,4738.8851524,50
1657527673.62238,4738.8851543,45
1657527673.62238,4738.8851563,26
1657527673.62238,4738.8851583,19
1657527673.62238,4738.8851602,26
1657527673.62238,4738.8851622,23
1657527673.62238,4738.8851641,26
1657527673.62238,4738.8851661,35
1657527673.62238,4738.8851681,59
1657527673.62238,4738.88517,81
1657527673.62238,4738.8851742,83
1657527673.62238,4738.8851796,79
1657527673.62238,4738.8851851,81
1657527673.62238,4738.8851905,79
1657527673.62238,4738.8851963,64
1657527673.62238,4738.8851994,45
1657527673.62238,4738.8852015,45
1657527673.62238,4738.8852037,59
1657527673.62238,4738.8852058,67
1657527673.62238,4738.8852078,64
1657527673.62238,4738.8852098,64
1657527673.62238,4738.8852118,43
1657527673.62238,4738.885214,-4
1657527673.62238,4738.8852161,59
1657527673.62238,4738.8852181,364
1657527673.62238,4738.8852201,790
1657527673.62238,4738.8852222,1102
1657527673.62238,4738.8852243,989
1657527673.62238,4738.8852264,383
1657527673.62238,4738.8852287,-98
1657527673.62238,4738.8852308,-62
1657527673.62238,4738.8852328,47
1657527673.62238,4738.8852348,-16
1657527673.62238,4738.8852369,-43
1657527673.62238,4738.8852522,-2
1657527673.62238,4738.8852542,-7
1657527673.62238,4738.8852563,-14
1657527673.62238,4738.8852583,7
1657527673.62238,4738.8852737,21
1657527673.62238,4738.8852757,26
1657527673.62238,4738.8852779,35
1657527673.62238,4738.8852799,43
1657527673.63235,4738.8852819,50
1657527673.63235,4738.885284,62
1657527673.63235,4738.8852861,67
1657527673.63235,4738.8852881,74
1657527673.63235,4738.8852901,83
1657527673.63235,4738.8852922,83
1657527673.63235,4738.8852942,95
1657527673.63235,4738.8852963,122
1657527673.63235,4738.8852983,139
1657527673.63235,4738.8853004,141
1657527673.63235,4738.8853024,143
1657527673.63235,4738.8853044,143
1657527673.63235,4738.8853065,139
1657527673.63235,4738.8853085,131
1657527673.63235,4738.8853106,129
1657527673.63235,4739.3249518,117
1657527673.63235,4739.3249721,100
1657527673.63235,4739.3249787,95
1657527673.63235,4739.3249852,83
1657527673.63235,4739.324991,55
1657527673.63235,4739.3249995,40
1657527673.63235,4739.3250078,28
1657527673.63235,4739.3250166,9
1657527673.63235,4739.3250244,-9
1657527674.21641,4739.3250316,-11
1657527674.21641,4739.3250363,-9
1657527674.21641,4739.3250407,-7
1657527674.21641,4739.3250469,-2
1657527674.21641,4739.325053,9
1657527674.21641,4739.325059,14
1657527674.21641,4739.3250652,14
1657527674.21641,4739.3250713,23
1657527674.21641,4739.3250771,40
1657527674.21641,4739.3250826,43
1657527674.21641,4739.3250888,40
1657527674.21641,4739.3250942,45
1657527674.21641,4739.3251006,50
1657527674.21641,4739.3251065,47
1657527674.21641,4739.3251126,47
1657527674.21641,4739.3251186,52
1657527674.21641,4739.3251242,47
1657527674.21641,4739.3251305,40
1657527674.21641,4739.3251362,35
1657527674.21641,4739.325142,23
1657527674.21641,4739.3251476,21
1657527674.21641,4739.3251542,31
1657527674.21641,4739.32516,35
1657527674.21641,4739.3251659,33
1657527674.21641,4739.3251717,31
1657527674.21641,4739.3251779,28
1657527674.21641,4739.3251841,28
1657527674.21641,4739.3251899,31
1657527674.21641,4739.3251961,35
1657527674.21641,4739.3252018,38
1657527674.21641,4739.3252074,28
1657527674.21641,4739.3252136,19
1657527674.21641,4739.32522,28
1657527674.21641,4739.3252261,35
1657527674.21641,4739.3252321,26
1657527674.21641,4739.3252378,33
1657527674.21641,4739.3252439,69
1657527674.21641,4739.3252529,83
1657527674.21641,4739.3252612,76
1657527674.21641,4739.3252827,79
1657527674.21641,4739.3253035,83
1657527674.21641,4739.3253093,71
1657527674.21641,4739.3253159,62
1657527674.21641,4739.325322,64
1657527674.21641,4739.3253301,64
1657527674.21641,4739.3253362,62
1657527674.21641,4739.3253442,59
1657527674.21641,4739.3253533,67
1657527674.21641,4739.3253614,67
1657527674.21641,4739.3253676,38
1657527674.22838,4739.3253762,0
1657527674.22838,4739.3253826,79
1657527674.22838,4739.3253907,388
1657527674.22838,4739.3253966,795
1657527674.22838,4739.3254045,1061
1657527674.22838,4739.3254109,905
1657527674.22838,4739.3254195,328
1657527674.22838,4739.3254282,-88
1657527674.22838,4739.3254363,-43
1657527674.22838,4739.3254425,62
1657527674.22838,4739.3254507,9
1657527674.22838,4739.3254575,-9
1657527674.22838,4739.3254655,31
1657527674.22838,4739.3254718,21
1657527674.22838,4739.9102863,11
1657527674.22838,4739.9103028,33
1657527674.22838,4739.9103101,43
1657527674.22838,4739.910315,45
1657527674.22838,4739.9103197,57
1657527674.22838,4739.9103241,57
1657527674.22838,4739.9103303,57
1657527674.22838,4739.9103348,76
1657527674.22838,4739.9103406,95
1657527674.22838,4739.9103447,103
1657527674.7429,4739.9103488,105
1657527674.7429,4739.9103528,112
1657527674.7429,4739.9103567,115
1657527674.7429,4739.910361,115
1657527674.7429,4739.9103654,122
1657527674.7429,4739.9103693,136
1657527674.7429,4739.910373,150
1657527674.7429,4739.9103769,134
1657527674.7429,4739.9103808,95
1657527674.7429,4739.9103867,79
1657527674.7429,4739.9103904,86
1657527674.7429,4739.9103942,86
1657527674.7429,4739.910398,79
1657527674.7429,4739.9104016,69
1657527674.7429,4739.9104053,55
1657527674.7429,4739.9104089,43
1657527674.7429,4739.9104127,35
1657527674.7429,4739.9104165,28
1657527674.7429,4739.9104203,26
1657527674.7429,4739.9104241,28
1657527674.7429,4739.9104283,28
1657527674.7429,4739.9104324,16
1657527674.7429,4739.9104364,9
1657527674.7429,4739.9104427,9
1657527674.7429,4739.9104467,9
1657527674.7429,4739.9104508,16
1657527674.7429,4739.9104569,21
1657527674.7429,4739.910461,26
1657527674.7429,4739.9104671,31
1657527674.7429,4739.9104715,40
1657527674.7429,4739.9104768,43
1657527674.7429,4739.9104808,43
1657527674.7429,4739.910485,43
1657527674.7429,4739.9104907,38
1657527674.7429,4739.9104948,40
1657527674.7429,4739.9105003,43
1657527674.7429,4739.9105042,40
1657527674.7429,4739.9105099,35
1657527674.7429,4739.9105139,31
1657527674.7429,4739.9105195,31
1657527674.7429,4739.9105235,33
1657527674.7429,4739.910529,31
1657527674.7429,4739.9105332,33
1657527674.7429,4739.9105393,40
1657527674.7429,4739.9105449,38
1657527674.7429,4739.9105499,38
1657527674.7429,4739.9105553,43
1657527674.7429,4739.9105603,43
1657527674.7429,4739.9105658,45
1657527674.7429,4739.9105717,55
1657527674.75387,4739.9105773,55
1657527674.75387,4739.9105811,55
1657527674.75387,4739.9105851,62
1657527674.75387,4739.9105906,57
1657527674.75387,4739.9105954,45
1657527674.75387,4739.9106011,45
1657527674.75387,4739.9106065,71
1657527674.75387,4739.9106114,100
1657527674.75387,4739.9106173,117
1657527674.75387,4739.9106225,110
1657527674.75387,4739.910628,93
1657527674.75387,4739.9106321,81
1657527674.75387,4739.9106376,83
1657527674.75387,4740.445947,83
1657527674.75387,4740.4459604,76
1657527674.75387,4740.4459644,71
1657527674.75387,4740.4459666,69
1657527674.75387,4740.4459688,69
1657527674.75387,4740.4459708,69
1657527674.75387,4740.4459729,52
1657527674.75387,4740.4459749,23
1657527674.75387,4740.4459769,81
1657527674.75387,4740.4459789,330
1657527674.75387,4740.445981,683
1657527675.33135,4740.445983,925
1657527675.33135,4740.445985,802
1657527675.33135,4740.4459869,311
1657527675.33135,4740.4459889,-59
1657527675.33135,4740.4459909,-55
1657527675.33135,4740.4459928,21
1657527675.33135,4740.4459947,-2
1657527675.33135,4740.4459968,-14
1657527675.33135,4740.4459987,7
1657527675.33135,4740.4460022,0
1657527675.33135,4740.4460109,-14
1657527675.33135,4740.4460164,-9
1657527675.33135,4740.4460209,0
1657527675.33135,4740.4460264,11
1657527675.33135,4740.4460328,16
1657527675.33135,4740.4460372,14
1657527675.33135,4740.4460459,23
1657527675.33135,4740.4460544,35
1657527675.33135,4740.4460568,31
1657527675.33135,4740.4460589,38
1657527675.33135,4740.446061,67
1657527675.33135,4740.4460631,81
1657527675.33135,4740.4460652,79
1657527675.33135,4740.446068,91
1657527675.33135,4740.4460702,107
1657527675.33135,4740.4460722,115
1657527675.33135,4740.4460742,117
1657527675.33135,4740.4460762,122
1657527675.33135,4740.4460783,117
1657527675.33135,4740.4460803,105
1657527675.33135,4740.4460824,105
1657527675.33135,4740.4460844,105
1657527675.33135,4740.4460864,95
1657527675.33135,4740.4460891,86
1657527675.33135,4740.4460912,74
1657527675.33135,4740.4460932,55
1657527675.33135,4740.4460954,47
1657527675.33135,4740.4460974,43
1657527675.33135,4740.4460994,35
1657527675.33135,4740.4461014,35
1657527675.33135,4740.4461035,40
1657527675.33135,4740.4461055,38
1657527675.33135,4740.4461075,33
1657527675.33135,4740.4461095,40
1657527675.33135,4740.4461116,52
1657527675.33135,4740.4461136,62
1657527675.33135,4740.4461156,69
1657527675.33135,4740.4461176,71
1657527675.33135,4740.4461202,71
1657527675.33135,4740.4461223,71
1657527675.34232,4740.4461266,69
1657527675.34232,4740.4461351,67
1657527675.34232,4740.4461401,69
1657527675.34232,4740.446147,71
1657527675.34232,4740.4461522,67
1657527675.34232,4740.446159,62
1657527675.34232,4740.446164,62
1657527675.34232,4740.4462026,57
1657527675.34232,4740.4462127,50
1657527675.34232,4740.4462168,47
1657527675.34232,4740.4462224,45
1657527675.34232,4740.4462259,43
1657527675.34232,4741.0303717,43
1657527675.34232,4741.0303848,45
1657527675.34232,4741.0303889,50
1657527675.34232,4741.0303911,52
1657527675.34232,4741.0303933,45
1657527675.34232,4741.0303954,26
1657527675.34232,4741.0303976,16
1657527675.34232,4741.0303998,31
1657527675.34232,4741.030402,35
1657527675.34232,4741.0304042,28
1657527675.34232,4741.0304074,31
1657527675.34232,4741.0304101,28
1657527675.87422,4741.0304122,11
1657527675.87422,4741.0304142,23
1657527675.87422,4741.0304162,57
1657527675.87422,4741.0304184,67
1657527675.87422,4741.0304203,52
1657527675.87422,4741.0304222,43
1657527675.87422,4741.0304253,40
1657527675.87422,4741.0304332,28
1657527675.87422,4741.0304396,21
1657527675.87422,4741.0304437,21
1657527675.87422,4741.0304491,19
1657527675.87422,4741.0304537,21
1657527675.87422,4741.0304582,33
1657527675.87422,4741.0304615,38
1657527675.87422,4741.0304647,35
1657527675.87422,4741.0304678,4
1657527675.87422,4741.0304725,-16
1657527675.87422,4741.0304758,124
1657527675.87422,4741.0304792,452
1657527675.87422,4741.0304844,802
1657527675.87422,4741.030488,953
1657527675.87422,4741.0304937,654
1657527675.87422,4741.0304975,115
1657527675.87422,4741.0305029,-112
1657527675.87422,4741.0305066,-21
1657527675.87422,4741.0305102,11
1657527675.87422,4741.0305155,-35
1657527675.87422,4741.0305198,-26
1657527675.87422,4741.0305234,-2
1657527675.87422,4741.0305286,-7
1657527675.87422,4741.0305324,-7
1657527675.87422,4741.0305377,-4
1657527675.87422,4741.0305414,4
1657527675.87422,4741.0305471,23
1657527675.87422,4741.0305552,23
1657527675.87422,4741.0305603,26
1657527675.87422,4741.0305636,45
1657527675.87422,4741.0305669,62
1657527675.87422,4741.0305701,64
1657527675.87422,4741.0305733,71
1657527675.87422,4741.0305784,81
1657527675.87422,4741.0305817,93
1657527675.87422,4741.0306156,117
1657527675.87422,4741.0306255,134
1657527675.87422,4741.0306305,134
1657527675.87422,4741.0306355,146
1657527675.87422,4741.0306404,155
1657527675.87422,4741.0306452,141
1657527675.87422,4741.0306502,127
1657527675.87422,4741.0306551,127
1657527675.88518,4741.0306601,127
1657527675.88518,4741.0306651,119
1657527675.88518,4741.0306701,105
1657527675.88518,4741.0306752,91
1657527675.88518,4741.030682,76
1657527675.88518,4741.0306902,62
1657527675.88518,4741.0306958,50
1657527675.88518,4741.0306995,38
1657527675.88518,4741.030705,33
1657527675.88518,4741.030709,35
1657527675.88518,4741.0307138,38
1657527675.88518,4741.5672039,40
1657527675.88518,4741.5672173,47
1657527675.88518,4741.5672223,47
1657527675.88518,4741.5672273,50
1657527675.88518,4741.5672312,57
1657527675.88518,4741.5672349,67
1657527675.88518,4741.567238,76
1657527675.88518,4741.5672405,79
1657527675.88518,4741.567243,67
1657527675.88518,4741.5672454,64
1657527675.88518,4741.567248,74
1657527675.88518,4741.5672549,71
1657527675.88518,4741.5672665,55
1657527676.40837,4741.5672723,50
1657527676.40837,4741.5672745,43
1657527676.40837,4741.5672765,19
1657527676.40837,4741.5672785,14
1657527676.40837,4741.5672804,26
1657527676.40837,4741.5672824,21
1657527676.40837,4741.5672885,7
1657527676.40837,4741.5672985,0
1657527676.40837,4741.5673028,-7
1657527676.40837,4741.5673049,-7
1657527676.40837,4741.5673069,0
1657527676.40837,4741.567309,-2
1657527676.40837,4741.5673113,-2
1657527676.40837,4741.5673132,2
1657527676.40837,4741.5673158,2
1657527676.40837,4741.5673247,2
1657527676.40837,4741.5673344,9
1657527676.40837,4741.5673398,9
1657527676.40837,4741.5673427,14
1657527676.40837,4741.5673448,31
1657527676.40837,4741.5673471,47
1657527676.40837,4741.5673552,52
1657527676.40837,4741.5673661,55
1657527676.40837,4741.56737,57
1657527676.40837,4741.5673735,52
1657527676.40837,4741.5673755,40
1657527676.40837,4741.5673784,38
1657527676.40837,4741.5673894,35
1657527676.40837,4741.5673972,35
1657527676.40837,4741.5673998,45
1657527676.40837,4741.5674019,57
1657527676.40837,4741.5674082,64
1657527676.40837,4741.5674195,57
1657527676.40837,4741.5674248,11
1657527676.40837,4741.5674273,-4
1657527676.40837,4741.5674294,170
1657527676.40837,4741.5674314,536
1657527676.40837,4741.5674334,922

1657527676.40837,4741.5674407,1073
1657527676.40837,4741.567452,711
1657527676.40837,4741.5674569,91
1657527676.40837,4741.5674591,-148
1657527676.40837,4741.5674639,-14
1657527676.40837,4741.5674747,31
1657527676.40837,4741.5674843,-35
1657527676.40837,4741.5674902,-28
1657527676.40837,4741.5675002,-2
1657527676.40837,4741.5675103,-7
1657527676.40837,4741.5675175,2
1657527676.40837,4741.5675265,19
1657527676.42033,4741.5675405,19
1657527676.42033,4741.5675481,26
1657527676.42033,4741.5675538,31
1657527676.42033,4741.567561,35
1657527676.42033,4741.5675656,52
1657527676.42033,4741.5675768,69
1657527676.42033,4741.5675856,76
1657527676.42033,4741.567591,79
1657527676.42033,4741.5675981,93
1657527676.42033,4741.5676036,112
1657527676.42033,4742.1030885,131
1657527676.42033,4742.1031094,141
1657527676.42033,4742.1031185,146
1657527676.42033,4742.1031235,160
1657527676.42033,4742.1031339,174
1657527676.42033,4742.1031402,160
1657527676.42033,4742.1031444,139
1657527676.42033,4742.103151,141
1657527676.42033,4742.1031547,139
1657527676.42033,4742.1031583,129
1657527676.42033,4742.1031616,107
1657527676.42033,4742.103165,69
1657527676.42033,4742.1031685,31
1657527676.42033,4742.103172,7
1657527677.04117,4742.1031758,-4
1657527677.04117,4742.1031793,-9
1657527677.04117,4742.1031828,-14
1657527677.04117,4742.103187,-26
1657527677.04117,4742.1031935,-40
1657527677.04117,4742.1031997,-40
1657527677.04117,4742.1032054,-31
1657527677.04117,4742.1032089,-23
1657527677.04117,4742.1032162,-19
1657527677.04117,4742.1032233,-11
1657527677.04117,4742.1032269,0
1657527677.04117,4742.1032309,11
1657527677.04117,4742.1032387,16
1657527677.04117,4742.1032449,19
1657527677.04117,4742.1032492,23
1657527677.04117,4742.1032537,26
1657527677.04117,4742.1032607,26
1657527677.04117,4742.1032638,23
1657527677.04117,4742.1032667,26
1657527677.04117,4742.1032697,35
1657527677.04117,4742.1032726,38
1657527677.04117,4742.1032756,31
1657527677.04117,4742.1032785,23
1657527677.04117,4742.1032814,26
1657527677.04117,4742.1032843,28
1657527677.04117,4742.103287,26
1657527677.04117,4742.1032898,21
1657527677.04117,4742.1032926,14
1657527677.04117,4742.1032956,9
1657527677.04117,4742.1032985,7
1657527677.04117,4742.1033014,0
1657527677.04117,4742.1033044,-2
1657527677.04117,4742.1033073,23
1657527677.04117,4742.1033102,57
1657527677.04117,4742.103313,69
1657527677.04117,4742.1033158,64
1657527677.04117,4742.1033186,59
1657527677.04117,4742.1033215,55
1657527677.04117,4742.1033243,52
1657527677.04117,4742.1033278,50
1657527677.04117,4742.1033433,52
1657527677.04117,4742.1033553,69
1657527677.04117,4742.1033609,55
1657527677.04117,4742.1033632,23
1657527677.04117,4742.1033653,52
1657527677.04117,4742.1033675,91
1657527677.04117,4742.1033696,57
1657527677.04117,4742.1033718,-2
1657527677.04117,4742.1033766,28
1657527677.04117,4742.1033837,292
1657527677.05414,4742.1033887,726
1657527677.05414,4742.1033954,1107
1657527677.05414,4742.1034043,1097
1657527677.05414,4742.103412,536
1657527677.05414,4742.1034165,-31
1657527677.05414,4742.1034222,-100
1657527677.05414,4742.1034261,23
1657527677.05414,4742.1034297,2
1657527677.05414,4742.1034352,-52
1657527677.05414,4742.7369534,-33
1657527677.05414,4742.7369784,-14
1657527677.05414,4742.7369905,-19
1657527677.05414,4742.7369981,-14
1657527677.05414,4742.7370066,4
1657527677.05414,4742.7370125,16
1657527677.05414,4742.7370208,19
1657527677.05414,4742.7370274,31
1657527677.05414,4742.7370361,28
1657527677.05414,4742.7370423,21
1657527677.05414,4742.7370508,45
1657527677.05414,4742.737057,79
1657527677.05414,4742.7370655,76
1657527677.05414,4742.7370707,81
1657527677.05414,4742.7370795,103
1657527677.61904,4742.7370858,110
1657527677.61904,4742.7370924,119
1657527677.61904,4742.7370986,141
1657527677.61904,4742.7371048,146
1657527677.61904,4742.73711,127
1657527677.61904,4742.7371161,124
1657527677.61904,4742.7371225,131
1657527677.61904,4742.73713,119
1657527677.61904,4742.7371394,110
1657527677.61904,4742.7371537,117
1657527677.61904,4742.7371643,107
1657527677.61904,4742.7371698,76
1657527677.61904,4742.7371741,62
1657527677.61904,4742.7371773,47
1657527677.61904,4742.7371803,33
1657527677.61904,4742.737185,35
1657527677.61904,4742.737189,21
1657527677.61904,4742.7371927,4
1657527677.61904,4742.7371963,14
1657527677.61904,4742.7371997,14
1657527677.61904,4742.7372032,7
1657527677.61904,4742.7372068,11
1657527677.61904,4742.7372105,23
1657527677.61904,4742.7372151,33
1657527677.61904,4742.7372207,33
1657527677.61904,4742.7372246,38
1657527677.61904,4742.7372298,45
1657527677.61904,4742.7372421,45
1657527677.61904,4742.7372457,47
1657527677.61904,4742.7372491,55
1657527677.61904,4742.7372535,64
1657527677.61904,4742.7372568,71
1657527677.61904,4742.7372603,50
1657527677.61904,4742.7372637,31
1657527677.61904,4742.7372723,35
1657527677.61904,4742.7372861,33
1657527677.61904,4742.7373009,31
1657527677.61904,4742.7373155,43
1657527677.61904,4742.7373286,40
1657527677.61904,4742.7373367,31
1657527677.61904,4742.7373441,35
1657527677.61904,4742.737351,28
1657527677.61904,4742.7373599,26
1657527677.61904,4742.7373667,35
1657527677.61904,4742.737375,43
1657527677.61904,4742.7373815,76
1657527677.61904,4742.73739,81
1657527677.61904,4742.7373964,40
1657527677.61904,4742.7374046,43
1657527677.61904,4742.7374108,59
1657527677.63,4742.7374217,28
1657527677.63,4742.7374546,19
1657527677.63,4742.7374668,45
1657527677.63,4742.7374733,33
1657527677.63,4742.737479,11
1657527677.63,4742.7374847,23
1657527677.63,4742.7375006,19
1657527677.63,4742.7375067,26
1657527677.63,4743.3228236,62
1657527677.63,4743.3228551,33
1657527677.63,4743.3228856,67
1657527677.63,4743.3228997,364
1657527677.63,4743.3229149,781
1657527677.63,4743.3229285,1004
1657527677.63,4743.322936,795
1657527677.63,4743.3229384,254
1657527677.63,4743.3229407,-71
1657527677.63,4743.3229429,-33
1657527677.63,4743.322945,0
1657527677.63,4743.3229471,-52
1657527677.63,4743.3229493,-52
1657527677.63,4743.3229514,-57
1657527677.63,4743.3229534,-69
1657527677.63,4743.3229558,-31
1657527678.06382,4743.3229579,-23
1657527678.06382,4743.3229599,-52
1657527678.06382,4743.3229619,-47
1657527678.06382,4743.3229639,-38
1657527678.06382,4743.3229658,-35
1657527678.06382,4743.3229677,-11
1657527678.06382,4743.3229697,2
1657527678.06382,4743.3229717,-11
1657527678.06382,4743.3229736,-16
1657527678.06382,4743.3229757,14
1657527678.06382,4743.3229822,52
1657527678.06382,4743.3229894,50
1657527678.06382,4743.3229942,35
1657527678.06382,4743.3229983,35
1657527678.06382,4743.3230043,40
1657527678.06382,4743.3230086,74
1657527678.06382,4743.323017,107
1657527678.06382,4743.3230264,93
1657527678.06382,4743.3230289,67
1657527678.06382,4743.3230311,57
1657527678.06382,4743.3230332,67
1657527678.06382,4743.3230353,79
1657527678.06382,4743.3230373,64
1657527678.06382,4743.32304,57
1657527678.06382,4743.3230424,52
1657527678.06382,4743.3230445,19
1657527678.06382,4743.3230466,-2
1657527678.06382,4743.3230487,14
1657527678.06382,4743.3230507,26
1657527678.06382,4743.3230527,16
1657527678.06382,4743.3230548,28
1657527678.06382,4743.3230572,40
1657527678.06382,4743.3230652,28
1657527678.06382,4743.3230761,35
1657527678.06382,4743.3230801,52
1657527678.06382,4743.3230839,40
1657527678.06382,4743.323086,35
1657527678.06382,4743.3230881,50
1657527678.06382,4743.3230902,52
1657527678.06382,4743.3230972,52
1657527678.06382,4743.323108,50
1657527678.06382,4743.3231112,28
1657527678.06382,4743.3231134,33
1657527678.06382,4743.3231155,62
1657527678.06382,4743.3231176,38
1657527678.06382,4743.3231197,33
1657527678.06382,4743.3231275,62
1657527678.06382,4743.3231382,38
1657527678.06382,4743.3231554,11
1657527678.06382,4743.3231588,33
1657527678.07479,4743.3231801,64
1657527678.07479,4743.3231902,76
1657527678.07479,4743.3231958,40
1657527678.07479,4743.3231981,23
1657527678.07479,4743.3232001,59
1657527678.07479,4743.3232023,67
1657527678.07479,4743.3232085,47
1657527678.07479,4743.7610568,40
1657527678.07479,4743.7610872,26
1657527678.07479,4743.7611337,14
1657527678.07479,4743.7611739,14
1657527678.07479,4743.7611792,9
1657527678.07479,4743.7611839,7
1657527678.07479,4743.7611882,19
1657527678.07479,4743.7611931,19
1657527678.07479,4743.7611973,16
1657527678.07479,4743.7612013,9
1657527678.07479,4743.7612055,-7
1657527678.07479,4743.7612097,57
1657527678.07479,4743.7612138,309
1657527678.07479,4743.7612179,663
1657527678.07479,4743.7612225,910
1657527678.07479,4743.7612266,745
1657527678.07479,4743.7612306,210
1657527678.65154,4743.7612347,-107
1657527678.65154,4743.7612393,-26
1657527678.65154,4743.7612434,52
1657527678.65154,4743.7612474,-19
1657527678.65154,4743.7612512,-83
1657527678.65154,4743.761255,-52
1657527678.65154,4743.7612586,-4
1657527678.65154,4743.7612623,-26
1657527678.65154,4743.7612659,-33
1657527678.65154,4743.7612693,-2
1657527678.65154,4743.7612728,-19
1657527678.65154,4743.7612763,-40
1657527678.65154,4743.7612798,-21
1657527678.65154,4743.7612832,-2
1657527678.65154,4743.7612866,-2
1657527678.65154,4743.7612901,2
1657527678.65154,4743.7612936,14
1657527678.65154,4743.761297,23
1657527678.65154,4743.7613004,33
1657527678.65154,4743.7613038,47
1657527678.65154,4743.7613073,62
1657527678.65154,4743.7613108,62
1657527678.65154,4743.7613143,59
1657527678.65154,4743.7613177,81
1657527678.65154,4743.7613212,93
1657527678.65154,4743.7613246,86
1657527678.65154,4743.761328,91
1657527678.65154,4743.7613315,91
1657527678.65154,4743.761335,74
1657527678.65154,4743.7613385,67
1657527678.65154,4743.761342,71
1657527678.65154,4743.7613459,67
1657527678.65154,4743.7613493,55
1657527678.65154,4743.7613527,47
1657527678.65154,4743.7613561,55
1657527678.65154,4743.7613594,64
1657527678.65154,4743.7613629,50
1657527678.65154,4743.7613664,43
1657527678.65154,4743.7613698,59
1657527678.65154,4743.7613732,55
1657527678.65154,4743.7613766,47
1657527678.65154,4743.7613802,55
1657527678.65154,4743.7613841,57
1657527678.65154,4743.7613876,62
1657527678.65154,4743.7613909,81
1657527678.65154,4743.7613943,83
1657527678.65154,4743.7613976,81
1657527678.65154,4743.7614011,95
1657527678.65154,4743.7614045,107
1657527678.65154,4743.7614079,105
1657527678.66351,4743.7614114,88
1657527678.66351,4743.7614148,83
1657527678.66351,4743.7614182,100
1657527678.66351,4743.7614217,105
1657527678.66351,4743.7614251,103
1657527678.66351,4743.7614286,105
1657527678.66351,4744.3469179,95
1657527678.66351,4744.3469409,100
1657527678.66351,4744.3469481,122
1657527678.66351,4744.3469542,129
1657527678.66351,4744.34696,117
1657527678.66351,4744.3469715,95
1657527678.66351,4744.346984,71
1657527678.66351,4744.3469894,69
1657527678.66351,4744.3469955,81
1657527678.66351,4744.3470015,74
1657527678.66351,4744.3470054,59
1657527678.66351,4744.3470107,50
1657527678.66351,4744.3470145,33
1657527678.66351,4744.3470231,35
1657527678.66351,4744.3470336,59
1657527678.66351,4744.3470448,38
1657527678.66351,4744.3470489,16
1657527678.66351,4744.3470528,136
1657527679.23027,4744.3470549,421
1657527679.23027,4744.347057,742
1657527679.23027,4744.3470593,886
1657527679.23027,4744.347069,601
1657527679.23027,4744.3470791,93
1657527679.23027,4744.3470848,-91
1657527679.23027,4744.3470887,4
1657527679.23027,4744.347095,14
1657527679.23027,4744.3471,-43
1657527679.23027,4744.347106,-26
1657527679.23027,4744.3471207,-7
1657527679.23027,4744.347129,-16
1657527679.23027,4744.3471326,-9
1657527679.23027,4744.3471348,4
1657527679.23027,4744.347137,0
1657527679.23027,4744.3471391,9
1657527679.23027,4744.3471412,26
1657527679.23027,4744.3471433,23
1657527679.23027,4744.3471455,23
1657527679.23027,4744.3471475,28
1657527679.23027,4744.3471495,21
1657527679.23027,4744.3471515,26
1657527679.23027,4744.3471536,35
1657527679.23027,4744.3471556,33
1657527679.23027,4744.3471577,28
1657527679.23027,4744.3471597,38
1657527679.23027,4744.3471625,55
1657527679.23027,4744.3471715,62
1657527679.23027,4744.3471818,64
1657527679.23027,4744.3471909,79
1657527679.23027,4744.3471995,81
1657527679.23027,4744.3472069,52
1657527679.23027,4744.3472094,45
1657527679.23027,4744.3472151,62
1657527679.23027,4744.3472253,55
1657527679.23027,4744.3472317,57
1657527679.23027,4744.347236,64
1657527679.23027,4744.3472416,52
1657527679.23027,4744.3472458,40
1657527679.23027,4744.3472516,35
1657527679.23027,4744.3472555,38
1657527679.23027,4744.3472604,45
1657527679.23027,4744.3472641,50
1657527679.23027,4744.3472689,50
1657527679.23027,4744.347276,57
1657527679.23027,4744.3472834,64
1657527679.23027,4744.3472859,67
1657527679.23027,4744.3472926,81
1657527679.23027,4744.3473021,98
1657527679.23027,4744.3473086,88
1657527679.24124,4744.3473127,71
1657527679.24124,4744.3473179,74
1657527679.24124,4744.3473217,67
1657527679.24124,4744.3473266,52
1657527679.24124,4744.3473363,52
1657527679.24124,4744.9310904,62
1657527679.24124,4744.9311095,67
1657527679.24124,4744.9311219,67
1657527679.24124,4744.9311306,67
1657527679.24124,4744.931137,71
1657527679.24124,4744.9311436,76
1657527679.24124,4744.9311498,79
1657527679.24124,4744.9311562,91
1657527679.24124,4744.9311626,88
1657527679.24124,4744.931181,71
1657527679.24124,4744.931202,71
1657527679.24124,4744.9312117,79
1657527679.24124,4744.9312173,52
1657527679.24124,4744.9312221,31
1657527679.24124,4744.9312263,23
1657527679.24124,4744.9312296,14
1657527679.24124,4744.9312332,11
1657527679.24124,4744.9312368,21
1657527679.24124,4744.9312405,28
1657527679.8632,4744.9312441,31
1657527679.8632,4744.9312479,0
1657527679.8632,4744.9312541,-35
1657527679.8632,4744.93126,57
1657527679.8632,4744.9312641,325
1657527679.8632,4744.9312674,649
1657527679.8632,4744.9312706,838
1657527679.8632,4744.9312737,625
1657527679.8632,4744.9312768,107
1657527679.8632,4744.9312807,-148
1657527679.8632,4744.9312839,-57
1657527679.8632,4744.9312877,-21
1657527679.8632,4744.9312925,-86
1657527679.8632,4744.9312969,-76
1657527679.8632,4744.9313041,-50
1657527679.8632,4744.9313139,-74
1657527679.8632,4744.9313198,-86
1657527679.8632,4744.931328,-76
1657527679.8632,4744.9313361,-69
1657527679.8632,4744.9313405,-69
1657527679.8632,4744.9313449,-69
1657527679.8632,4744.9313489,-62
1657527679.8632,4744.9313546,-55
1657527679.8632,4744.9313637,-52
1657527679.8632,4744.9313677,-40
1657527679.8632,4744.9313731,-28
1657527679.8632,4744.9313781,-26
1657527679.8632,4744.9313834,-21
1657527679.8632,4744.9313902,-11
1657527679.8632,4744.9313988,2
1657527679.8632,4744.9314047,9
1657527679.8632,4744.9314164,9
1657527679.8632,4744.9314277,23
1657527679.8632,4744.9314337,43
1657527679.8632,4744.9314377,40
1657527679.8632,4744.9314416,26
1657527679.8632,4744.931445,21
1657527679.8632,4744.9314497,16
1657527679.8632,4744.9314556,23
1657527679.8632,4744.9314626,31
1657527679.8632,4744.9314692,31
1657527679.8632,4744.9314754,28
1657527679.8632,4744.9314804,26
1657527679.8632,4744.9315331,16
1657527679.8632,4744.9315365,11
1657527679.8632,4744.9315392,21
1657527679.8632,4744.9315418,28
1657527679.8632,4744.9315445,31
1657527679.8632,4744.9315471,43
1657527679.8632,4744.9315498,47
1657527679.87417,4744.9315525,43
1657527679.87417,4744.9315559,38
1657527679.87417,4744.9315626,43
1657527679.87417,4744.9315704,50
1657527679.87417,4745.5644866,55
1657527679.87417,4745.5645122,55
1657527679.87417,4745.5645437,59
1657527679.87417,4745.5645527,64
1657527679.87417,4745.5645604,67
1657527679.87417,4745.5645649,59
1657527679.87417,4745.5645686,59
1657527679.87417,4745.5645755,67
1657527679.87417,4745.5645819,71
1657527679.87417,4745.5645939,74
1657527679.87417,4745.5646023,79
1657527679.87417,4745.5646073,79
1657527679.87417,4745.5646106,74
1657527679.87417,4745.5646135,79
1657527679.87417,4745.5646163,76
1657527679.87417,4745.5646192,55
1657527679.87417,4745.564622,35
1657527679.87417,4745.5646248,19
1657527679.87417,4745.5646278,-2
1657527679.87417,4745.5646307,2
1657527680.49634,4745.5646337,19
1657527680.49634,4745.564641,16
1657527680.49634,4745.5646494,21
1657527680.49634,4745.5646546,23
1657527680.49634,4745.5646597,2
1657527680.49634,4745.5646652,21
1657527680.49634,4745.5646706,194
1657527680.49634,4745.5646756,496
1657527680.49634,4745.5646803,769
1657527680.49634,4745.5646844,750
1657527680.49634,4745.5646884,340
1657527680.49634,4745.5646926,-45
1657527680.49634,4745.5646971,-74
1657527680.49634,4745.5647019,9
1657527680.49634,4745.564707,-11
1657527680.49634,4745.5647123,-28
1657527680.49634,4745.5647171,-9
1657527680.49634,4745.5647434,-9
1657527680.49634,4745.5647552,-11
1657527680.49634,4745.5647618,2
1657527680.49634,4745.5647705,4
1657527680.49634,4745.56478,4
1657527680.49634,4745.5647915,19
1657527680.49634,4745.5648008,23
1657527680.49634,4745.5648109,16
1657527680.49634,4745.5648165,31
1657527680.49634,4745.5648256,55
1657527680.49634,4745.5648306,55
1657527680.49634,4745.5648338,47
1657527680.49634,4745.5648405,43
1657527680.49634,4745.5648479,47
1657527680.49634,4745.5648532,59
1657527680.49634,4745.5648613,71
1657527680.49634,4745.5648693,69
1657527680.49634,4745.564876,67
1657527680.49634,4745.5648796,62
1657527680.49634,4745.5648863,52
1657527680.49634,4745.5648934,47
1657527680.49634,4745.5649016,52
1657527680.49634,4745.5649087,62
1657527680.49634,4745.5649141,69
1657527680.49634,4745.5649187,69
1657527680.49634,4745.5649248,62
1657527680.49634,4745.5649354,57
1657527680.49634,4745.564941,55
1657527680.49634,4745.5649447,50
1657527680.49634,4745.564948,47
1657527680.49634,4745.5649565,47
1657527680.49634,4745.564965,47
1657527680.49634,4745.5649702,52
1657527680.50812,4745.5649768,59
1657527680.50812,4745.5649842,64
1657527680.50812,4745.5649888,67
1657527680.50812,4746.1987915,71
1657527680.50812,4746.198805,76
1657527680.50812,4746.1988155,76
1657527680.50812,4746.1988238,79
1657527680.50812,4746.1988261,86
1657527680.50812,4746.1988281,81
1657527680.50812,4746.1988301,74
1657527680.50812,4746.1988453,79
1657527680.50812,4746.1988472,83
1657527680.50812,4746.1988491,81
1657527680.50812,4746.1988509,76
1657527680.50812,4746.1988528,79
1657527680.50812,4746.1988708,86
1657527680.50812,4746.1988794,98
1657527680.50812,4746.198885,105
1657527680.50812,4746.1988932,103
1657527680.50812,4746.1988999,86
1657527680.50812,4746.1989126,62
1657527680.50812,4746.1989275,50
1657527680.50812,4746.1989453,38
1657527680.50812,4746.1989713,19
1657527680.89619,4746.1989862,26
1657527680.89619,4746.1990001,45
1657527680.89619,4746.1990059,38
1657527680.89619,4746.1990082,21
1657527680.89619,4746.1990102,26
1657527680.89619,4746.199013,26
1657527680.89619,4746.1990221,-16
1657527680.89619,4746.1990329,-9
1657527680.89619,4746.199044,189
1657527680.89619,4746.1990558,524
1657527680.89619,4746.1990607,802
1657527680.89619,4746.1990629,774
1657527680.89619,4746.1990651,354
1657527680.89619,4746.1990672,-38
1657527680.89619,4746.1990693,-71
1657527680.89619,4746.1990715,-4
1657527680.89619,4746.1990765,-31
1657527680.89619,4746.1990858,-45
1657527680.89619,4746.1991039,-19
1657527680.89619,4746.1991122,-2
1657527680.89619,4746.1991213,7
1657527680.89619,4746.1991267,19
1657527680.89619,4746.199129,31
1657527680.89619,4746.1991312,23
1657527680.89619,4746.1991334,-14
1657527680.89619,4746.1991355,-4
1657527680.89619,4746.1991376,45
1657527680.89619,4746.1991397,45
1657527680.89619,4746.1991418,33
1657527680.89619,4746.1991439,57
1657527680.89619,4746.199146,74
1657527680.89619,4746.1991537,67
1657527680.89619,4746.1991656,67
1657527680.89619,4746.1991848,71
1657527680.89619,4746.1992082,74
1657527680.89619,4746.1992175,76
1657527680.89619,4746.1992252,79
1657527680.89619,4746.1992371,79
1657527680.89619,4746.199246,79
1657527680.89619,4746.1992553,81
1657527680.89619,4746.199262,86
1657527680.89619,4746.1992768,91
1657527680.89619,4746.1992868,98
1657527680.89619,4746.199294,95
1657527680.89619,4746.1993066,88
1657527680.89619,4746.1993158,83
1657527680.89619,4746.199323,83
1657527680.89619,4746.1993354,86
1657527680.89619,4746.1993448,83
1657527680.89619,4746.1993542,76
1657527680.90716,4746.1993672,64
1657527680.90716,4746.1993804,79
1657527680.90716,4746.5887669,93
1657527680.90716,4746.5887885,52
1657527680.90716,4746.5887972,35
1657527680.90716,4746.5888014,79
1657527680.90716,4746.5888052,81
1657527680.90716,4746.5888088,47
1657527680.90716,4746.5888125,57
1657527680.90716,4746.588816,81
1657527680.90716,4746.5888197,71
1657527680.90716,4746.5888233,57
1657527680.90716,4746.5888267,62
1657527680.90716,4746.5888303,57
1657527680.90716,4746.5888337,35
1657527680.90716,4746.5888405,31
1657527680.90716,4746.5888459,35
1657527680.90716,4746.5888551,38
1657527680.90716,4746.5889251,52
1657527680.90716,4746.588938,57
1657527680.90716,4746.5889425,45
1657527680.90716,4746.5889462,45
1657527680.90716,4746.5889569,45
1657527680.90716,4746.5889653,33
1657527681.47899,4746.5889694,31
1657527681.47899,4746.5889716,43
1657527681.47899,4746.5889739,45
1657527681.47899,4746.5889826,28
1657527681.47899,4746.5889903,16
1657527681.47899,4746.5889977,19
1657527681.47899,4746.5890066,23
1657527681.47899,4746.5890121,11
1657527681.47899,4746.5890179,0
1657527681.47899,4746.5890238,139
1657527681.47899,4746.5890364,469
1657527681.47899,4746.5890457,805
1657527681.47899,4746.5890483,884
1657527681.47899,4746.5890504,515
1657527681.47899,4746.5890525,33
1657527681.47899,4746.5890593,-76
1657527681.47899,4746.5890704,11
1657527681.47899,4746.5890735,-4
1657527681.47899,4746.5890758,-35
1657527681.47899,4746.5890778,-7
1657527681.47899,4746.5890811,-2
1657527681.47899,4746.589099,-21
1657527681.47899,4746.5891019,-9
1657527681.47899,4746.5891041,19
1657527681.47899,4746.5891092,50
1657527681.47899,4746.5891205,57
1657527681.47899,4746.5891259,21
1657527681.47899,4746.589128,19
1657527681.47899,4746.5891301,55
1657527681.47899,4746.5891321,40
1657527681.47899,4746.5891378,11
1657527681.47899,4746.589149,59
1657527681.47899,4746.5891542,105
1657527681.47899,4746.5891575,74
1657527681.47899,4746.5891597,62
1657527681.47899,4746.5891619,100
1657527681.47899,4746.5891722,117
1657527681.47899,4746.5891813,110
1657527681.47899,4746.5891838,107
1657527681.47899,4746.5891859,105
1657527681.47899,4746.5891879,100
1657527681.47899,4746.5891966,110
1657527681.47899,4746.5892063,119
1657527681.47899,4746.5892209,117
1657527681.47899,4746.5892347,110
1657527681.47899,4746.5892472,100
1657527681.47899,4746.5892569,100
1657527681.47899,4746.5892677,115
1657527681.47899,4746.5892823,103
1657527681.47899,4746.5892958,55
1657527681.48996,4746.5893089,45
1657527681.48996,4747.1736204,71
1657527681.48996,4747.1736375,57
1657527681.48996,4747.1736419,76
1657527681.48996,4747.1736454,124
1657527681.48996,4747.1736485,86
1657527681.48996,4747.1736516,47
1657527681.48996,4747.1736547,91
1657527681.48996,4747.1736578,105
1657527681.48996,4747.1736607,40
1657527681.48996,4747.173664,-4
1657527681.48996,4747.1736671,28
1657527681.48996,4747.1736702,62
1657527681.48996,4747.1736734,43
1657527681.48996,4747.1736766,28
1657527681.48996,4747.1736796,33
1657527681.48996,4747.1736826,21
1657527681.48996,4747.1736856,21
1657527681.48996,4747.1736886,55
1657527681.48996,4747.1736926,67
1657527681.48996,4747.1736961,40
1657527681.48996,4747.1736994,14
1657527681.48996,4747.1737047,16
1657527681.48996,4747.173708,35
1657527682.20388,4747.1737116,21
1657527682.20388,4747.1737153,19
1657527682.20388,4747.173719,47
1657527682.20388,4747.1737223,35
1657527682.20388,4747.1737256,35
1657527682.20388,4747.1737289,81
1657527682.20388,4747.1737322,40
1657527682.20388,4747.1737353,-33
1657527682.20388,4747.1737384,38
1657527682.20388,4747.1737423,254
1657527682.20388,4747.1737455,539
1657527682.20388,4747.1737487,834
1657527682.20388,4747.173752,838
1657527682.20388,4747.1737551,385
1657527682.20388,4747.1737583,-16
1657527682.20388,4747.1737622,-23
1657527682.20388,4747.1737661,33
1657527682.20388,4747.1737697,-9
1657527682.20388,4747.1737732,-21
1657527682.20388,4747.1737767,7
1657527682.20388,4747.17378,4
1657527682.20388,4747.1737829,2
1657527682.20388,4747.1737858,14
1657527682.20388,4747.1737887,7
1657527682.20388,4747.173792,9
1657527682.20388,4747.1737953,33
1657527682.20388,4747.1737985,23
1657527682.20388,4747.1738021,21
1657527682.20388,4747.1738056,98
1657527682.20388,4747.1738092,129
1657527682.20388,4747.1738125,45
1657527682.20388,4747.1738156,21
1657527682.20388,4747.1738185,88
1657527682.20388,4747.1738217,129
1657527682.20388,4747.1738253,131
1657527682.20388,4747.1738287,117
1657527682.20388,4747.173832,74
1657527682.20388,4747.173835,47
1657527682.20388,4747.1738379,98
1657527682.20388,4747.1738409,139
1657527682.20388,4747.1738441,127
1657527682.20388,4747.1738472,100
1657527682.20388,4747.1738511,88
1657527682.20388,4747.1738552,103
1657527682.20388,4747.1738583,117
1657527682.20388,4747.1738616,117
1657527682.20388,4747.1738648,115
1657527682.20388,4747.173868,100
1657527682.20388,4747.1738709,81
1657527682.20388,4747.1738741,74
1657527682.21506,4747.9049868,71
1657527682.21506,4747.9050026,76
1657527682.21506,4747.9050076,81
1657527682.21506,4747.9050133,74
1657527682.21506,4747.9050175,69
1657527682.21506,4747.9050212,76
1657527682.21506,4747.905025,88
1657527682.21506,4747.9050283,76
1657527682.21506,4747.9050317,79
1657527682.21506,4747.9050371,117
1657527682.21506,4747.9050404,93
1657527682.21506,4747.9050438,33
1657527682.21506,4747.9050473,40
1657527682.21506,4747.9050506,107
1657527682.21506,4747.9050541,146
1657527682.21506,4747.9050577,93
1657527682.21506,4747.9050611,57
1657527682.21506,4747.9050687,98
1657527682.21506,4747.9050747,86
1657527682.21506,4747.9050785,35
1657527682.21506,4747.9050823,52
1657527682.21506,4747.9050877,55
1657527682.21506,4747.9050919,16
1657527682.21506,4747.9050954,14
1657527682.59681,4747.9051006,26
1657527682.59681,4747.9051041,14
1657527682.59681,4747.9051104,14
1657527682.59681,4747.9051297,40
1657527682.59681,4747.905135,45
1657527682.59681,4747.9051382,21
1657527682.59681,4747.9051412,38
1657527682.59681,4747.9051444,179
1657527682.59681,4747.9051478,436
1657527682.59681,4747.9051509,766
1657527682.59681,4747.9051539,889
1657527682.59681,4747.9051569,512
1657527682.59681,4747.9051602,40
1657527682.59681,4747.9051634,-47
1657527682.59681,4747.9051669,26
1657527682.59681,4747.90517,21
1657527682.59681,4747.9051749,7
1657527682.59681,4747.9051811,19
1657527682.59681,4747.9051875,21
1657527682.59681,4747.9051934,16
1657527682.59681,4747.9051984,19
1657527682.59681,4747.9052027,26
1657527682.59681,4747.9052083,35
1657527682.59681,4747.9052121,43
1657527682.59681,4747.9052152,50
1657527682.59681,4747.9052184,45
1657527682.59681,4747.9052215,38
1657527682.59681,4747.9052257,55
1657527682.59681,4747.9052302,83
1657527682.59681,4747.9052339,93
1657527682.59681,4747.9052406,81
1657527682.59681,4747.9052449,71
1657527682.59681,4747.9052483,76
1657527682.59681,4747.9052514,74
1657527682.59681,4747.905255,79
1657527682.59681,4747.9052591,95
1657527682.59681,4747.9052702,103
1657527682.59681,4747.9052788,95
1657527682.59681,4747.9052893,95
1657527682.59681,4747.9052951,103
1657527682.59681,4747.9053029,103
1657527682.59681,4747.9053116,93
1657527682.59681,4747.9053186,95
1657527682.59681,4747.9053252,107
1657527682.59681,4747.9053319,100
1657527682.59681,4747.9053388,86
1657527682.59681,4747.9053447,81
1657527682.59681,4747.9053495,81
1657527682.59681,4747.9053551,83
1657527682.59681,4748.2948848,86
1657527682.60579,4748.2949016,93
1657527682.60579,4748.2949113,93
1657527682.60579,4748.2949207,81
1657527682.60579,4748.2949282,91
1657527682.60579,4748.2949338,112
1657527682.60579,4748.2949422,112
1657527682.60579,4748.2949488,95
1657527682.60579,4748.2949596,83
1657527682.60579,4748.2949655,81
1657527682.60579,4748.2949737,88
1657527682.60579,4748.2949818,93
1657527682.60579,4748.2949902,93
1657527682.60579,4748.2949969,103
1657527682.60579,4748.2950049,110
1657527682.60579,4748.2950128,95
1657527682.60579,4748.2950221,76
1657527682.60579,4748.2950263,55
1657527682.60579,4748.2950306,33
1657527682.60579,4748.2950328,23
1657527682.60579,4748.2950348,2
1657527682.60579,4748.2950375,-33
1657527682.60579,4748.2950396,-33
1657527682.60579,4748.2950417,-26
1657527682.60579,4748.2950438,-33
1657527683.13382,4748.2950458,-31
1657527683.13382,4748.2950479,-31
1657527683.13382,4748.2950499,-64
1657527683.13382,4748.2950518,-103
1657527683.13382,4748.2950537,-28
1657527683.13382,4748.2950581,227
1657527683.13382,4748.2950622,565
1657527683.13382,4748.295073,707
1657527683.13382,4748.2950794,424
1657527683.13382,4748.2950836,-52
1657527683.13382,4748.2950872,-230
1657527683.13382,4748.2950908,-105
1657527683.13382,4748.2950951,-45
1657527683.13382,4748.2950996,-88
1657527683.13382,4748.2951042,-88
1657527683.13382,4748.29511,-74
1657527683.13382,4748.295116,-79
1657527683.13382,4748.295121,-67
1657527683.13382,4748.2951282,-47
1657527683.13382,4748.2951355,-55
1657527683.13382,4748.2951405,-62
1657527683.13382,4748.2951545,-52
1657527683.13382,4748.2951687,-45
1657527683.13382,4748.2951822,-43
1657527683.13382,4748.2951917,-31
1657527683.13382,4748.2951943,-16
1657527683.13382,4748.2951964,-11
1657527683.13382,4748.2951985,-11
1657527683.13382,4748.2952005,-7
1657527683.13382,4748.2952026,7
1657527683.13382,4748.2952049,4
1657527683.13382,4748.295207,-16
1657527683.13382,4748.295209,-26
1657527683.13382,4748.2952112,-23
1657527683.13382,4748.2952132,-16
1657527683.13382,4748.2952152,-9
1657527683.13382,4748.2952173,-14
1657527683.13382,4748.2952193,-14
1657527683.13382,4748.2952213,-2
1657527683.13382,4748.2952233,4
1657527683.13382,4748.2952295,4
1657527683.13382,4748.2952399,2
1657527683.13382,4748.2952471,2
1657527683.13382,4748.295252,0
1657527683.13382,4748.2952586,-4
1657527683.13382,4748.2952676,-7
1657527683.13382,4748.2952747,-2
1657527683.13382,4748.2952785,-2
1657527683.13382,4748.8311894,-4
1657527683.13382,4748.8312124,0
1657527683.14479,4748.8312169,4
1657527683.14479,4748.8312227,7
1657527683.14479,4748.8312313,9
1657527683.14479,4748.8312376,7
1657527683.14479,4748.8312437,7
1657527683.14479,4748.831252,9
1657527683.14479,4748.8312611,16
1657527683.14479,4748.8312735,23
1657527683.14479,4748.8312861,35
1657527683.14479,4748.8313011,40
1657527683.14479,4748.8313099,28
1657527683.14479,4748.8313125,14
1657527683.14479,4748.8313146,9
1657527683.14479,4748.8313225,4
1657527683.14479,4748.831337,-4
1657527683.14479,4748.8313486,-26
1657527683.14479,4748.8313582,-52
1657527683.14479,4748.8313657,-62
1657527683.14479,4748.831372,-57
1657527683.14479,4748.8313798,-50
1657527683.14479,4748.8313879,-47
1657527683.14479,4748.8313962,-38
1657527683.14479,4748.8314029,-43
1657527683.14479,4748.8314119,-88
1657527683.71401,4748.8314247,-88
1657527683.71401,4748.8314304,117
1657527683.71401,4748.8314356,460
1657527683.71401,4748.8314405,651
1657527683.71401,4748.8314458,476
1657527683.71401,4748.8314513,47
1657527683.71401,4748.8314573,-227
1657527683.71401,4748.8314624,-177
1657527683.71401,4748.8314671,-74
1657527683.71401,4748.8314725,-81
1657527683.71401,4748.8314771,-100
1657527683.71401,4748.8314821,-83
1657527683.71401,4748.8314863,-81
1657527683.71401,4748.8314921,-74
1657527683.71401,4748.8314969,-55
1657527683.71401,4748.8315012,-52
1657527683.71401,4748.8315077,-67
1657527683.71401,4748.8315125,-62
1657527683.71401,4748.8315197,-45
1657527683.71401,4748.8315375,-38
1657527683.71401,4748.8315422,-33
1657527683.71401,4748.8315613,-23
1657527683.71401,4748.8315664,-11
1657527683.71401,4748.8315726,-7
1657527683.71401,4748.83158,-11
1657527683.71401,4748.8315864,-14
1657527683.71401,4748.8315952,-11
1657527683.71401,4748.8316039,-11
1657527683.71401,4748.8316167,-9
1657527683.71401,4748.8316298,-9
1657527683.71401,4748.8316428,-19
1657527683.71401,4748.831656,-21
1657527683.71401,4748.8316691,-11
1657527683.71401,4748.8316822,0
1657527683.71401,4748.8316956,11
1657527683.71401,4748.8317086,28
1657527683.71401,4748.8317216,31
1657527683.71401,4748.8317347,16
1657527683.71401,4748.8317478,9
1657527683.71401,4748.8317609,19
1657527683.71401,4748.8317741,21
1657527683.71401,4748.8317873,14
1657527683.71401,4748.8317981,11
1657527683.71401,4748.8318039,21
1657527683.71401,4748.8318115,28
1657527683.71401,4748.8318166,31
1657527683.71401,4748.831824,40
1657527683.71401,4749.4168111,47
1657527683.71401,4749.4168343,45
1657527683.71401,4749.4168454,43
1657527683.72498,4749.4168519,45
1657527683.72498,4749.4168587,55
1657527683.72498,4749.4168656,62
1657527683.72498,4749.4168729,62
1657527683.72498,4749.4168769,57
1657527683.72498,4749.4168805,57
1657527683.72498,4749.4168841,67
1657527683.72498,4749.4168879,69
1657527683.72498,4749.4168953,52
1657527683.72498,4749.4169001,38
1657527683.72498,4749.4169059,35
1657527683.72498,4749.4169125,14
1657527683.72498,4749.4169163,-23
1657527683.72498,4749.4169197,-35
1657527683.72498,4749.416925,-31
1657527683.72498,4749.4169378,-35
1657527683.72498,4749.4169482,-31
1657527683.72498,4749.4169619,-21
1657527683.72498,4749.4169763,-26
1657527683.72498,4749.4169862,-64
1657527683.72498,4749.4169945,-93
1657527683.72498,4749.4170008,35
1657527683.72498,4749.4170073,349
1657527683.72498,4749.417013,623
1657527684.25651,4749.41702,584
1657527684.25651,4749.4170265,206

1657527684.25651,4749.4170342,-153
1657527684.25651,4749.4170469,-172
1657527684.25651,4749.4170557,-38
1657527684.25651,4749.4170626,-16
1657527684.25651,4749.417076,-59
1657527684.25651,4749.4170848,-55
1657527684.25651,4749.4170919,-40
1657527684.25651,4749.4170964,-43
1657527684.25651,4749.4171024,-33
1657527684.25651,4749.4171064,-23
1657527684.25651,4749.4171139,-26
1657527684.25651,4749.4171185,-23
1657527684.25651,4749.4171227,-19
1657527684.25651,4749.4171354,-19
1657527684.25651,4749.4171496,-19
1657527684.25651,4749.4171638,-7
1657527684.25651,4749.4171776,7
1657527684.25651,4749.4171912,9
1657527684.25651,4749.4172049,9
1657527684.25651,4749.417219,16
1657527684.25651,4749.4172327,23
1657527684.25651,4749.4172484,28
1657527684.25651,4749.417256,35
1657527684.25651,4749.4172595,40
1657527684.25651,4749.4172626,31
1657527684.25651,4749.4172659,11
1657527684.25651,4749.4172697,11
1657527684.25651,4749.4172734,33
1657527684.25651,4749.4172776,50
1657527684.25651,4749.4172814,55
1657527684.25651,4749.4172849,59
1657527684.25651,4749.4172897,64
1657527684.25651,4749.4172931,59
1657527684.25651,4749.4172984,55
1657527684.25651,4749.4173021,59
1657527684.25651,4749.4173074,67
1657527684.25651,4749.4173109,64
1657527684.25651,4749.4173485,64
1657527684.25651,4749.4173645,71
1657527684.25651,4749.4173781,86
1657527684.25651,4749.4173865,91
1657527684.25651,4749.4173892,91
1657527684.25651,4749.4173914,93
1657527684.25651,4749.4173995,100
1657527684.25651,4749.9525264,110
1657527684.25651,4749.9525489,112
1657527684.25651,4749.9525635,122
1657527684.25651,4749.9525743,131
1657527684.26748,4749.9525857,134
1657527684.26748,4749.9525939,143
1657527684.26748,4749.9526073,160
1657527684.26748,4749.9526188,160
1657527684.26748,4749.9526275,143
1657527684.26748,4749.9526391,136
1657527684.26748,4749.9526507,124
1657527684.26748,4749.9526585,86
1657527684.26748,4749.9526689,62
1657527684.26748,4749.9526801,69
1657527684.26748,4749.9526888,69
1657527684.26748,4749.9526954,64
1657527684.26748,4749.9527081,71
1657527684.26748,4749.9527314,62
1657527684.26748,4749.9527516,33
1657527684.26748,4749.9527622,-4
1657527684.26748,4749.952773,-21
1657527684.26748,4749.9527818,112
1657527684.26748,4749.9527879,438
1657527684.26748,4749.9527925,711
1657527684.26748,4749.952797,649
1657527684.26748,4749.952801,251
1657527684.26748,4749.9528065,-98
1657527684.26748,4749.9528128,-98
1657527684.83694,4749.952818,40
1657527684.83694,4749.952822,45
1657527684.83694,4749.9528262,2
1657527684.83694,4749.9528307,28
1657527684.83694,4749.9528346,57
1657527684.83694,4749.9528383,43
1657527684.83694,4749.9528418,33
1657527684.83694,4749.9528454,33
1657527684.83694,4749.9528489,28
1657527684.83694,4749.9528534,23
1657527684.83694,4749.9528625,21
1657527684.83694,4749.952872,35
1657527684.83694,4749.9528841,52
1657527684.83694,4749.9528907,45
1657527684.83694,4749.9528949,40
1657527684.83694,4749.9529002,62
1657527684.83694,4749.952904,76
1657527684.83694,4749.9529129,69
1657527684.83694,4749.9529235,64
1657527684.83694,4749.9529376,69
1657527684.83694,4749.9529504,67
1657527684.83694,4749.9529638,62
1657527684.83694,4749.9529772,64
1657527684.83694,4749.9529903,67
1657527684.83694,4749.9529986,64
1657527684.83694,4749.9530141,71
1657527684.83694,4749.9530162,91
1657527684.83694,4749.953018,112
1657527684.83694,4749.9530199,112
1657527684.83694,4749.953035,103
1657527684.83694,4749.9530413,105
1657527684.83694,4749.953051,107
1657527684.83694,4749.9530635,105
1657527684.83694,4749.9530766,107
1657527684.83694,4749.9530983,110
1657527684.83694,4749.9531008,112
1657527684.83694,4749.9531028,115
1657527684.83694,4749.9531047,119
1657527684.83694,4749.9531202,124
1657527684.83694,4749.9531221,131
1657527684.83694,4749.953124,136
1657527684.83694,4749.9531264,143
1657527684.83694,4749.9531285,153
1657527684.83694,4749.9531306,158
1657527684.83694,4749.9531326,165
1657527684.83694,4750.5377038,172
1657527684.83694,4750.5377207,170
1657527684.83694,4750.537729,177
1657527684.83694,4750.5377354,203
1657527684.83694,4750.5377391,213
1657527684.84592,4750.5377424,191
1657527684.84592,4750.5377474,174
1657527684.84592,4750.5377526,165
1657527684.84592,4750.5377559,141
1657527684.84592,4750.5377609,122
1657527684.84592,4750.5377656,119
1657527684.84592,4750.5377715,122
1657527684.84592,4750.5377763,127
1657527684.84592,4750.5377812,131
1657527684.84592,4750.537784,124
1657527684.84592,4750.5377871,107
1657527684.84592,4750.5377899,52
1657527684.84592,4750.5377935,-11
1657527684.84592,4750.5377963,143
1657527684.84592,4750.5377992,558
1657527684.84592,4750.5378021,937
1657527684.84592,4750.537805,965
1657527684.84592,4750.5378081,548
1657527684.84592,4750.5378112,43
1657527684.84592,4750.5378141,-67
1657527684.84592,4750.537817,83
1657527684.84592,4750.5378198,95
1657527684.84592,4750.5378226,23
1657527684.84592,4750.5378253,26
1657527685.37957,4750.537828,45
1657527685.37957,4750.5378308,47
1657527685.37957,4750.5378336,57
1657527685.37957,4750.5378363,67
1657527685.37957,4750.537839,67
1657527685.37957,4750.5378418,67
1657527685.37957,4750.5378445,71
1657527685.37957,4750.5378474,86
1657527685.37957,4750.5378513,91
1657527685.37957,4750.5378565,91
1657527685.37957,4750.5378602,95
1657527685.37957,4750.5378632,105
1657527685.37957,4750.5378662,112
1657527685.37957,4750.5378691,117
1657527685.37957,4750.5378721,122
1657527685.37957,4750.537893,129
1657527685.37957,4750.5379069,134
1657527685.37957,4750.5379206,127
1657527685.37957,4750.5379324,110
1657527685.37957,4750.5379395,115
1657527685.37957,4750.5379427,127
1657527685.37957,4750.5379455,124
1657527685.37957,4750.5379484,119
1657527685.37957,4750.5379511,122
1657527685.37957,4750.5379538,122
1657527685.37957,4750.5379565,115
1657527685.37957,4750.5379593,115
1657527685.37957,4750.537962,115
1657527685.37957,4750.5379653,112
1657527685.37957,4750.5379689,107
1657527685.37957,4750.5379716,103
1657527685.37957,4750.5379745,100
1657527685.37957,4750.5379772,103
1657527685.37957,4750.53798,112
1657527685.37957,4750.5379826,124
1657527685.37957,4750.5379855,129
1657527685.37957,4750.5379881,129
1657527685.37957,4750.5379909,131
1657527685.37957,4750.5379937,141
1657527685.37957,4750.5379965,148
1657527685.37957,4750.5379992,153
1657527685.37957,4750.5380022,153
1657527685.37957,4750.5380049,153
1657527685.37957,4750.5380076,150
1657527685.37957,4751.0751787,170
1657527685.37957,4751.0752053,203
1657527685.37957,4751.0752078,201
1657527685.37957,4751.075211,174
1657527685.37957,4751.0752132,172
1657527685.37957,4751.0752152,170
1657527685.40212,4751.0752173,146
1657527685.40212,4751.0752193,127
1657527685.40212,4751.0752213,134
1657527685.40212,4751.0752233,136
1657527685.40212,4751.0752253,122
1657527685.40212,4751.0752273,110
1657527685.40212,4751.0752294,103
1657527685.40212,4751.0752314,81
1657527685.40212,4751.0752334,16
1657527685.40212,4751.0752358,33
1657527685.40212,4751.075242,313
1657527685.40212,4751.0752527,759
1657527685.40212,4751.0752596,1047
1657527685.40212,4751.075262,886
1657527685.40212,4751.0752641,318
1657527685.40212,4751.0752662,-81
1657527685.40212,4751.0752682,-26
1657527685.40212,4751.0752739,69
1657527685.40212,4751.0752858,-7
1657527685.40212,4751.0752913,-21
1657527685.40212,4751.0752944,31
1657527685.40212,4751.0752965,21
1657527685.40212,4751.0752985,9
1657527685.40212,4751.0753022,28
1657527686.02483,4751.0753152,31
1657527686.02483,4751.0753193,33
1657527686.02483,4751.0753215,55
1657527686.02483,4751.0753235,69
1657527686.02483,4751.0753255,64
1657527686.02483,4751.0753274,69
1657527686.02483,4751.0753294,88
1657527686.02483,4751.0753313,107
1657527686.02483,4751.0753333,107
1657527686.02483,4751.0753352,105
1657527686.02483,4751.075337,105
1657527686.02483,4751.0753399,112
1657527686.02483,4751.075345,119
1657527686.02483,4751.0753505,115
1657527686.02483,4751.0753559,110
1657527686.02483,4751.0753628,117
1657527686.02483,4751.07537,115
1657527686.02483,4751.075375,110
1657527686.02483,4751.0753785,122
1657527686.02483,4751.075382,127
1657527686.02483,4751.075384,115
1657527686.02483,4751.0753867,107
1657527686.02483,4751.0753887,107
1657527686.02483,4751.0753907,100
1657527686.02483,4751.0753927,95
1657527686.02483,4751.0753948,95
1657527686.02483,4751.0753967,95
1657527686.02483,4751.0753987,98
1657527686.02483,4751.0754007,100
1657527686.02483,4751.0754027,100
1657527686.02483,4751.0754047,93
1657527686.02483,4751.0754068,95
1657527686.02483,4751.0754087,110
1657527686.02483,4751.0754108,115
1657527686.02483,4751.0754128,112
1657527686.02483,4751.0754148,127
1657527686.02483,4751.0754168,143
1657527686.02483,4751.0754188,150
1657527686.02483,4751.0754208,153
1657527686.02483,4751.0754229,148
1657527686.02483,4751.0754249,148
1657527686.02483,4751.0754269,155
1657527686.02483,4751.0754289,158
1657527686.02483,4751.7072059,160
1657527686.02483,4751.7072379,172
1657527686.02483,4751.7072554,186
1657527686.02483,4751.7072639,184
1657527686.02483,4751.7072693,174
1657527686.02483,4751.707276,167
1657527686.02483,4751.7072828,155
1657527686.04677,4751.7072884,143
1657527686.04677,4751.7072972,129
1657527686.04677,4751.7073042,115
1657527686.04677,4751.7073108,110
1657527686.04677,4751.7073208,112
1657527686.04677,4751.7073275,112
1657527686.04677,4751.7073338,100
1657527686.04677,4751.7073407,76
1657527686.04677,4751.7073513,16
1657527686.04677,4751.7073589,14
1657527686.04677,4751.707367,270
1657527686.04677,4751.7073767,733
1657527686.04677,4751.7073905,1090
1657527686.04677,4751.7074041,1004
1657527686.04677,4751.7074127,440
1657527686.04677,4751.7074162,-52
1657527686.04677,4751.7074294,-83
1657527686.04677,4751.7074365,28
1657527686.04677,4751.707439,-2
1657527686.04677,4751.7074413,-31
1657527686.04677,4751.7074434,2
1657527686.04677,4751.7074458,7
1657527686.04677,4751.7074555,0
1657527686.04677,4751.7074694,7
1657527686.56038,4751.7074825,23
1657527686.56038,4751.7074904,33
1657527686.56038,4751.7074975,31
1657527686.56038,4751.7075049,38
1657527686.56038,4751.7075114,57
1657527686.56038,4751.7075172,59
1657527686.56038,4751.7075222,62
1657527686.56038,4751.7075253,74
1657527686.56038,4751.7075283,79
1657527686.56038,4751.7075313,81
1657527686.56038,4751.7075341,88
1657527686.56038,4751.7075369,93
1657527686.56038,4751.707551,93
1657527686.56038,4751.7075595,103
1657527686.56038,4751.7075711,95
1657527686.56038,4751.7075788,76
1657527686.56038,4751.7075831,81
1657527686.56038,4751.7075871,98
1657527686.56038,4751.7075929,105
1657527686.56038,4751.7075968,103
1657527686.56038,4751.7076018,93
1657527686.56038,4751.7076055,81
1657527686.56038,4751.7076104,79
1657527686.56038,4751.7076139,79
1657527686.56038,4751.7076175,79
1657527686.56038,4751.707626,79
1657527686.56038,4751.7076314,74
1657527686.56038,4751.7076336,64
1657527686.56038,4751.7076356,62
1657527686.56038,4751.7076402,81
1657527686.56038,4751.7076516,95
1657527686.56038,4751.7076587,91
1657527686.56038,4751.7076633,98
1657527686.56038,4751.7076687,119
1657527686.56038,4751.7076732,119
1657527686.56038,4751.7076782,110
1657527686.56038,4751.7076817,129
1657527686.56038,4751.7076852,153
1657527686.56038,4751.7076899,155
1657527686.56038,4751.7076934,153
1657527686.56038,4751.7076988,155
1657527686.56038,4751.7077025,150
1657527686.56038,4752.2440319,153
1657527686.56038,4752.2440482,148
1657527686.56038,4752.2440546,136
1657527686.56038,4752.244063,143
1657527686.56038,4752.2440682,150
1657527686.56038,4752.2440723,131
1657527686.56038,4752.2440776,124
1657527686.56038,4752.2440841,134
1657527686.58335,4752.2440901,131
1657527686.58335,4752.2441012,136
1657527686.58335,4752.2441096,153
1657527686.58335,4752.2441162,136
1657527686.58335,4752.2441245,115
1657527686.58335,4752.2441314,127
1657527686.58335,4752.2441399,122
1657527686.58335,4752.2441466,93
1657527686.58335,4752.2441596,88
1657527686.58335,4752.244171,95
1657527686.58335,4752.2441752,91
1657527686.58335,4752.2441794,95
1657527686.58335,4752.2441836,100
1657527686.58335,4752.2441858,83
1657527686.58335,4752.2441882,47
1657527686.58335,4752.2441978,31
1657527686.58335,4752.2442074,139
1657527686.58335,4752.2442101,443
1657527686.58335,4752.2442121,819
1657527686.58335,4752.2442142,970
1657527686.58335,4752.2442164,661
1657527686.58335,4752.2442242,143
1657527686.58335,4752.2442349,-59
1657527686.58335,4752.2442394,19
1657527687.13769,4752.2442425,43
1657527687.13769,4752.2442461,-7
1657527687.13769,4752.2442577,-2
1657527687.13769,4752.2442656,21
1657527687.13769,4752.244276,14
1657527687.13769,4752.2442896,7
1657527687.13769,4752.2442967,11
1657527687.13769,4752.2442991,19
1657527687.13769,4752.2443014,33
1657527687.13769,4752.2443035,38
1657527687.13769,4752.2443061,14
1657527687.13769,4752.2443137,2
1657527687.13769,4752.2443249,28
1657527687.13769,4752.2443276,50
1657527687.13769,4752.2443298,55
1657527687.13769,4752.244332,67
1657527687.13769,4752.2443393,74
1657527687.13769,4752.2443504,67
1657527687.13769,4752.2443535,71
1657527687.13769,4752.2443557,81
1657527687.13769,4752.244358,79
1657527687.13769,4752.2443602,69
1657527687.13769,4752.2443623,64
1657527687.13769,4752.2443645,67
1657527687.13769,4752.2443717,76
1657527687.13769,4752.2443828,81
1657527687.13769,4752.2443867,69
1657527687.13769,4752.244389,64
1657527687.13769,4752.2443911,74
1657527687.13769,4752.2444086,71
1657527687.13769,4752.2444107,55
1657527687.13769,4752.2444128,50
1657527687.13769,4752.2444419,55
1657527687.13769,4752.2444531,55
1657527687.13769,4752.2444565,67
1657527687.13769,4752.2444588,71
1657527687.13769,4752.2444609,59
1657527687.13769,4752.2444629,55
1657527687.13769,4752.2444653,69
1657527687.13769,4752.244475,74
1657527687.13769,4752.244498,76
1657527687.13769,4752.8280667,95
1657527687.13769,4752.8280795,107
1657527687.13769,4752.8280819,98
1657527687.13769,4752.8280843,93
1657527687.13769,4752.8280865,100
1657527687.13769,4752.8280886,119
1657527687.13769,4752.8280907,122
1657527687.13769,4752.8280928,100
1657527687.13769,4752.8280948,88
1657527687.15868,4752.8280968,95
1657527687.15868,4752.8280989,95
1657527687.15868,4752.828101,100
1657527687.15868,4752.8281031,98
1657527687.15868,4752.8281051,86
1657527687.15868,4752.8281072,69
1657527687.15868,4752.8281101,62
1657527687.15868,4752.8281173,67
1657527687.15868,4752.8281285,64
1657527687.15868,4752.8281317,71
1657527687.15868,4752.828134,91
1657527687.15868,4752.8281361,67
1657527687.15868,4752.8281382,21
1657527687.15868,4752.8281403,23
1657527687.15868,4752.8281424,50
1657527687.15868,4752.8281496,62
1657527687.15868,4752.8281626,79
1657527687.15868,4752.8281675,83
1657527687.15868,4752.8281696,64
1657527687.15868,4752.8281717,62
1657527687.15868,4752.8281739,71
1657527687.15868,4752.8281793,71
1657527687.15868,4752.8281906,59
1657527687.15868,4752.8281965,45
1657527687.62451,4752.8281987,35
1657527687.62451,4752.8282016,40
1657527687.62451,4752.8282037,50
1657527687.62451,4752.8282058,38
1657527687.62451,4752.8282078,0
1657527687.62451,4752.8282098,4
1657527687.62451,4752.8282118,182
1657527687.62451,4752.8282137,534
1657527687.62451,4752.8282157,889
1657527687.62451,4752.8282176,968
1657527687.62451,4752.8282196,551
1657527687.62451,4752.8282216,4
1657527687.62451,4752.8282237,-129
1657527687.62451,4752.8282256,-2
1657527687.62451,4752.8282276,7
1657527687.62451,4752.8282296,-35
1657527687.62451,4752.8282316,-7
1657527687.62451,4752.8282337,9
1657527687.62451,4752.8282383,-2
1657527687.62451,4752.8282443,-4
1657527687.62451,4752.8282473,11
1657527687.62451,4752.8282493,26
1657527687.62451,4752.8282513,33
1657527687.62451,4752.8282532,33
1657527687.62451,4752.8282567,38
1657527687.62451,4752.8282596,52
1657527687.62451,4752.8282617,62
1657527687.62451,4752.8282645,67
1657527687.62451,4752.8282751,83
1657527687.62451,4752.8282961,91
1657527687.62451,4752.8282985,86
1657527687.62451,4752.8283005,98
1657527687.62451,4752.8283157,112
1657527687.62451,4752.8283178,115
1657527687.62451,4752.8283243,112
1657527687.62451,4752.828334,117
1657527687.62451,4752.8283399,122
1657527687.62451,4752.828342,119
1657527687.62451,4752.828344,103
1657527687.62451,4752.8283591,88
1657527687.62451,4753.3156018,91
1657527687.62451,4753.3156293,88
1657527687.62451,4753.3156319,79
1657527687.62451,4753.3156349,71
1657527687.62451,4753.3156371,69
1657527687.62451,4753.3156392,57
1657527687.62451,4753.3156412,47
1657527687.62451,4753.3156432,43
1657527687.62451,4753.3156458,45
1657527687.62451,4753.3156478,50
1657527687.64697,4753.3156498,55
1657527687.64697,4753.3156519,45
1657527687.64697,4753.3156539,35
1657527687.64697,4753.3156565,55
1657527687.64697,4753.315659,74
1657527687.64697,4753.315661,69
1657527687.64697,4753.3156631,74
1657527687.64697,4753.315665,86
1657527687.64697,4753.3156671,74
1657527687.64697,4753.3156691,64
1657527687.64697,4753.3156711,81
1657527687.64697,4753.3156732,88
1657527687.64697,4753.3156753,81
1657527687.64697,4753.3156774,71
1657527687.64697,4753.3156794,67
1657527687.64697,4753.3156815,62
1657527687.64697,4753.3156836,64
1657527687.64697,4753.3156857,69
1657527687.64697,4753.3156876,67
1657527687.64697,4753.3156896,57
1657527687.64697,4753.3156915,47
1657527687.64697,4753.3156936,43
1657527687.64697,4753.3156955,40
1657527687.64697,4753.3156976,33
1657527688.15961,4753.3156995,31
1657527688.15961,4753.3157015,52
1657527688.15961,4753.3157034,86
1657527688.15961,4753.3157053,88
1657527688.15961,4753.3157072,83
1657527688.15961,4753.315709,91
1657527688.15961,4753.3157109,83
1657527688.15961,4753.3157127,64
1657527688.15961,4753.3157147,64
1657527688.15961,4753.3157167,69
1657527688.15961,4753.3157185,67
1657527688.15961,4753.3157204,59
1657527688.15961,4753.3157222,57
1657527688.15961,4753.3157241,67
1657527688.15961,4753.315726,59
1657527688.15961,4753.3157279,14
1657527688.15961,4753.3157306,47
1657527688.15961,4753.3157355,304
1657527688.15961,4753.3157409,692
1657527688.15961,4753.3157436,1001
1657527688.15961,4753.3157455,953
1657527688.15961,4753.3157475,428
1657527688.15961,4753.3157504,-62
1657527688.15961,4753.3157524,-86
1657527688.15961,4753.3157545,38
1657527688.15961,4753.3157565,11
1657527688.15961,4753.3157605,-21
1657527688.15961,4753.3157628,9
1657527688.15961,4753.31577,4
1657527688.15961,4753.315784,0
1657527688.15961,4753.3157916,31
1657527688.15961,4753.3157942,43
1657527688.15961,4753.3157962,28
1657527688.15961,4753.3157983,38
1657527688.15961,4753.3158003,52
1657527688.15961,4753.3158023,59
1657527688.15961,4753.3158043,71
1657527688.15961,4753.3158063,86
1657527688.15961,4753.3158083,93
1657527688.15961,4753.8543732,103
1657527688.15961,4753.8543844,119
1657527688.15961,4753.8543868,131
1657527688.15961,4753.8543888,141
1657527688.15961,4753.8543908,153
1657527688.15961,4753.8543926,158
1657527688.15961,4753.8543945,150
1657527688.15961,4753.8543963,139
1657527688.15961,4753.8543981,129
1657527688.15961,4753.8544,119
1657527688.15961,4753.8544248,117
1657527688.18255,4753.8544269,115
1657527688.18255,4753.8544289,115
1657527688.18255,4753.8544307,105
1657527688.18255,4753.8544326,71
1657527688.18255,4753.8544346,45
1657527688.18255,4753.8544394,35
1657527688.18255,4753.8544415,28
1657527688.18255,4753.8544436,31
1657527688.18255,4753.8544456,38
1657527688.18255,4753.8544477,43
1657527688.18255,4753.8544497,43
1657527688.18255,4753.8544517,45
1657527688.18255,4753.8544537,52
1657527688.18255,4753.8544558,62
1657527688.18255,4753.8544578,71
1657527688.18255,4753.8544598,67
1657527688.18255,4753.8544619,67
1657527688.18255,4753.8544639,81
1657527688.18255,4753.854466,93
1657527688.18255,4753.8544688,91
1657527688.18255,4753.8544709,95
1657527688.18255,4753.854473,107
1657527688.18255,4753.854475,100
1657527688.18255,4753.854477,86
1657527688.73801,4753.854479,86
1657527688.73801,4753.8544809,95
1657527688.73801,4753.8544828,103
1657527688.73801,4753.8544847,107
1657527688.73801,4753.8544867,103
1657527688.73801,4753.8544886,93
1657527688.73801,4753.8544905,93
1657527688.73801,4753.8544925,105
1657527688.73801,4753.8544943,100
1657527688.73801,4753.8544962,86
1657527688.73801,4753.8544981,88
1657527688.73801,4753.8545,95
1657527688.73801,4753.8545019,91
1657527688.73801,4753.8545038,79
1657527688.73801,4753.8545057,64
1657527688.73801,4753.8545076,69
1657527688.73801,4753.8545095,86
1657527688.73801,4753.8545114,107
1657527688.73801,4753.8545132,129
1657527688.73801,4753.8545151,136
1657527688.73801,4753.854517,136
1657527688.73801,4753.8545189,129
1657527688.73801,4753.8545208,119
1657527688.73801,4753.8545228,103
1657527688.73801,4753.8545256,88
1657527688.73801,4753.8545276,88
1657527688.73801,4753.8545304,100
1657527688.73801,4753.8545325,100
1657527688.73801,4753.8545345,98
1657527688.73801,4753.8545366,103
1657527688.73801,4753.8545387,95
1657527688.73801,4753.8545409,69
1657527688.73801,4753.8545432,110
1657527688.73801,4753.8545453,335
1657527688.73801,4753.8545473,692
1657527688.73801,4753.8545626,958
1657527688.73801,4753.8545647,853
1657527688.73801,4753.8545667,371
1657527688.73801,4754.4384005,0
1657527688.73801,4754.4384382,2
1657527688.73801,4754.4384493,79
1657527688.73801,4754.4384561,45
1657527688.73801,4754.438465,26
1657527688.73801,4754.4384706,40
1657527688.73801,4754.4384793,33
1657527688.73801,4754.4384855,28
1657527688.73801,4754.4384952,40
1657527688.73801,4754.438504,40
1657527688.73801,4754.4385122,33
1657527688.73801,4754.4385201,38
1657527688.75995,4754.4385268,47
1657527688.75995,4754.4385352,59
1657527688.75995,4754.4385434,74
1657527688.75995,4754.4385491,88
1657527688.75995,4754.4385574,83
1657527688.75995,4754.4385636,74
1657527688.75995,4754.4385717,79
1657527688.75995,4754.438577,91
1657527688.75995,4754.438584,100
1657527688.75995,4754.4385909,107
1657527688.75995,4754.4385991,115
1657527688.75995,4754.4386077,115
1657527688.75995,4754.4386149,117
1657527688.75995,4754.4386225,115
1657527688.75995,4754.4386284,105
1657527688.75995,4754.4386345,98
1657527688.75995,4754.4386444,93
1657527688.75995,4754.4386539,88
1657527688.75995,4754.4386566,83
1657527688.75995,4754.4386633,81
1657527688.75995,4754.438675,76
1657527688.75995,4754.4386805,64
1657527688.75995,4754.4386827,57
1657527688.75995,4754.4386848,55
1657527689.33633,4754.4386872,52
1657527689.33633,4754.438695,52
1657527689.33633,4754.4387045,50
1657527689.33633,4754.4387086,55
1657527689.33633,4754.4387183,57
1657527689.33633,4754.4387258,50
1657527689.33633,4754.4387384,47
1657527689.33633,4754.4387486,52
1657527689.33633,4754.438757,62
1657527689.33633,4754.4387766,74
1657527689.33633,4754.4387864,69
1657527689.33633,4754.4387931,62
1657527689.33633,4754.4388055,74
1657527689.33633,4754.4388156,79
1657527689.33633,4754.4388229,74
1657527689.33633,4754.4388358,79
1657527689.33633,4754.4388461,91
1657527689.33633,4754.4388533,95
1657527689.33633,4754.4388573,95
1657527689.33633,4754.4388711,91
1657527689.33633,4754.438881,88
1657527689.33633,4754.4388922,95
1657527689.33633,4754.4389047,91
1657527689.33633,4754.4389144,81
1657527689.33633,4754.4389219,83
1657527689.33633,4754.4389318,93
1657527689.33633,4754.4389437,107
1657527689.33633,4754.4389571,110
1657527689.33633,4754.4389667,103
1657527689.33633,4754.4389765,100
1657527689.33633,4754.4389888,105
1657527689.33633,4754.4389976,107
1657527689.33633,4754.439005,110
1657527689.33633,4754.4390172,112
1657527689.33633,4754.4390269,98
1657527689.33633,4754.4390332,86
1657527689.33633,4754.4390462,103
1657527689.33633,4755.0220177,134
1657527689.33633,4755.0220523,153
1657527689.33633,4755.0220637,146
1657527689.33633,4755.022077,127
1657527689.33633,4755.0220912,112
1657527689.33633,4755.0221004,107
1657527689.33633,4755.0221073,103
1657527689.33633,4755.0221146,93
1657527689.33633,4755.0221185,76
1657527689.33633,4755.0221224,67
1657527689.33633,4755.022128,74
1657527689.33633,4755.0221335,76
1657527689.33633,4755.022139,74
1657527689.35844,4755.0221456,50
1657527689.35844,4755.0221529,45
1657527689.35844,4755.0221617,182
1657527689.35844,4755.0221734,476
1657527689.35844,4755.0221868,781
1657527689.35844,4755.0222017,857
1657527689.35844,4755.0222146,515
1657527689.35844,4755.0222283,31
1657527689.35844,4755.0222424,-117
1657527689.35844,4755.022256,-19
1657527689.35844,4755.0222698,11
1657527689.35844,4755.0222836,-28
1657527689.35844,4755.0222971,-23
1657527689.35844,4755.0223247,-7
1657527689.35844,4755.0223486,-19
1657527689.35844,4755.0223512,-31
1657527689.35844,4755.0223676,-16
1657527689.35844,4755.0223697,-4
1657527689.35844,4755.0223716,-9
1657527689.35844,4755.0223735,-7
1657527689.35844,4755.0223754,4
1657527689.35844,4755.0223926,2
1657527689.35844,4755.0223946,0
1657527689.35844,4755.0223966,19
1657527689.85731,4755.0223985,38
1657527689.85731,4755.0224006,40
1657527689.85731,4755.022408,43
1657527689.85731,4755.0224191,59
1657527689.85731,4755.0224273,76
1657527689.85731,4755.0224319,86
1657527689.85731,4755.0224354,91
1657527689.85731,4755.0224404,98
1657527689.85731,4755.0224456,100
1657527689.85731,4755.0224511,86
1657527689.85731,4755.0224623,76
1657527689.85731,4755.0224728,83
1657527689.85731,4755.022481,86
1657527689.85731,4755.022494,71
1657527689.85731,4755.022508,59
1657527689.85731,4755.0225217,52
1657527689.85731,4755.0225351,33
1657527689.85731,4755.0225487,21
1657527689.85731,4755.0225628,26
1657527689.85731,4755.022571,26
1657527689.85731,4755.0225735,14
1657527689.85731,4755.0225756,2
1657527689.85731,4755.0225776,9
1657527689.85731,4755.0225831,33
1657527689.85731,4755.0225949,35
1657527689.85731,4755.0226004,28
1657527689.85731,4755.0226048,33
1657527689.85731,4755.0226077,43
1657527689.85731,4755.0226159,52
1657527689.85731,4755.0226246,76
1657527689.85731,4755.022629,98
1657527689.85731,4755.0226328,88
1657527689.85731,4755.0226379,67
1657527689.85731,4755.0226415,71
1657527689.85731,4755.0226451,83
1657527689.85731,4755.0226486,88
1657527689.85731,4755.5587875,103
1657527689.85731,4755.558807,110
1657527689.85731,4755.5588127,83
1657527689.85731,4755.5588185,71
1657527689.85731,4755.5588218,91
1657527689.85731,4755.5588258,98
1657527689.85731,4755.5588287,83
1657527689.85731,4755.5588317,67
1657527689.85731,4755.5588345,69
1657527689.85731,4755.5588375,91
1657527689.85731,4755.5588404,91
1657527689.85731,4755.5588432,67
1657527689.85731,4755.558846,59
1657527689.85731,4755.5588489,64
1657527689.86828,4755.5588518,47
1657527689.86828,4755.5588546,38
1657527689.86828,4755.5588575,62
1657527689.86828,4755.5588603,86
1657527689.86828,4755.5588633,86
1657527689.86828,4755.5588661,93
1657527689.86828,4755.558869,93
1657527689.86828,4755.558872,67
1657527689.86828,4755.5588749,55
1657527689.86828,4755.5588777,62
1657527689.86828,4755.5588807,47
1657527689.86828,4755.5588836,38
1657527689.86828,4755.5588867,40
1657527689.86828,4755.5588895,28
1657527689.86828,4755.5588929,23
1657527689.86828,4755.5589038,35
1657527689.86828,4755.5589099,26
1657527689.86828,4755.5589157,-19
1657527689.86828,4755.5589237,21
1657527689.86828,4755.5589293,268
1657527689.86828,4755.5589347,663
1657527689.86828,4755.5589401,1023
1657527689.86828,4755.5589457,1016
1657527689.86828,4755.5589531,476
1657527690.50972,4755.5589628,-45
1657527690.50972,4755.5589706,-76
1657527690.50972,4755.5589778,43
1657527690.50972,4755.5589857,2
1657527690.50972,4755.5589929,-45
1657527690.50972,4755.5589995,-11
1657527690.50972,4755.5590058,4
1657527690.50972,4755.5590126,7
1657527690.50972,4755.5590197,21
1657527690.50972,4755.5590267,31
1657527690.50972,4755.5590372,33
1657527690.50972,4755.5590496,35
1657527690.50972,4755.5590629,43
1657527690.50972,4755.5590724,55
1657527690.50972,4755.5590813,67
1657527690.50972,4755.5590887,83
1657527690.50972,4755.5590984,86
1657527690.50972,4755.5591057,79
1657527690.50972,4755.5591111,98
1657527690.50972,4755.5591185,139
1657527690.50972,4755.5591242,153
1657527690.50972,4755.5591296,141
1657527690.50972,4755.5591369,153
1657527690.50972,4755.559144,186
1657527690.50972,4755.559151,196
1657527690.50972,4755.5591567,179
1657527690.50972,4755.5591639,179
1657527690.50972,4755.5591696,184
1657527690.50972,4755.559179,170
1657527690.50972,4755.5591891,155
1657527690.50972,4755.559196,129
1657527690.50972,4755.5592063,98
1657527690.50972,4755.5592183,93
1657527690.50972,4755.5592305,91
1657527690.50972,4755.5592389,76
1657527690.50972,4756.1946148,71
1657527690.50972,4756.1946395,69
1657527690.50972,4756.1946431,59
1657527690.50972,4756.1946619,64
1657527690.50972,4756.194664,74
1657527690.50972,4756.194666,79
1657527690.50972,4756.1946681,91
1657527690.50972,4756.1946708,83
1657527690.50972,4756.194673,69
1657527690.50972,4756.1946749,76
1657527690.50972,4756.194677,100
1657527690.50972,4756.194679,95
1657527690.50972,4756.194681,76
1657527690.50972,4756.1946831,88
1657527690.50972,4756.1946852,95
1657527690.53167,4756.1946872,64
1657527690.53167,4756.1946893,47
1657527690.53167,4756.1946912,67
1657527690.53167,4756.1946933,64
1657527690.53167,4756.1946953,47
1657527690.53167,4756.1946973,38
1657527690.53167,4756.1946998,31
1657527690.53167,4756.1947061,33
1657527690.53167,4756.194718,40
1657527690.53167,4756.1947217,47
1657527690.53167,4756.1947249,45
1657527690.53167,4756.1947269,33
1657527690.53167,4756.1947291,33
1657527690.53167,4756.1947387,47
1657527690.53167,4756.1947486,38
1657527690.53167,4756.1947512,19
1657527690.53167,4756.1947533,35
1657527690.53167,4756.1947564,74
1657527690.53167,4756.1947672,88
1657527690.53167,4756.1947751,74
1657527690.53167,4756.1947774,69
1657527690.53167,4756.1947796,57
1657527690.53167,4756.1947816,40
1657527690.53167,4756.1947837,50
1657527690.97812,4756.1947857,43
1657527690.97812,4756.1947894,19
1657527690.97812,4756.1948008,38
1657527690.97812,4756.1948058,57
1657527690.97812,4756.1948081,38
1657527690.97812,4756.1948149,14
1657527690.97812,4756.1948253,-23
1657527690.97812,4756.1948295,-2
1657527690.97812,4756.1948336,258
1657527690.97812,4756.1948356,697
1657527690.97812,4756.1948376,1049
1657527690.97812,4756.1948396,1004
1657527690.97812,4756.1948417,469
1657527690.97812,4756.1948437,-38
1657527690.97812,4756.1948506,-91
1657527690.97812,4756.1948615,19
1657527690.97812,4756.1948705,-7
1657527690.97812,4756.1948793,-52
1657527690.97812,4756.1948919,-28
1657527690.97812,4756.1949008,-9
1657527690.97812,4756.1949107,-9
1657527690.97812,4756.1949163,-4
1657527690.97812,4756.1949186,0
1657527690.97812,4756.1949213,21
1657527690.97812,4756.1949235,47
1657527690.97812,4756.1949256,47
1657527690.97812,4756.1949276,31
1657527690.97812,4756.1949313,43
1657527690.97812,4756.1949443,67
1657527690.97812,4756.1949502,79
1657527690.97812,4756.1949525,88
1657527690.97812,4756.1949546,95
1657527690.97812,4756.1949567,110
1657527690.97812,4756.1949588,143
1657527690.97812,4756.6804303,155
1657527690.97812,4756.6804457,146
1657527690.97812,4756.680451,160
1657527690.97812,4756.6804548,174
1657527690.97812,4756.6804584,165
1657527690.97812,4756.6804621,141
1657527690.97812,4756.6804655,119
1657527690.97812,4756.680482,112
1657527690.97812,4756.680497,117
1657527690.97812,4756.6805033,112
1657527690.97812,4756.6805079,95
1657527690.97812,4756.680512,81
1657527690.97812,4756.6805161,62
1657527690.97812,4756.6805203,43
1657527690.97812,4756.6805254,26
1657527690.97812,4756.6805321,21
1657527691.00106,4756.6805359,26
1657527691.00106,4756.6805398,21
1657527691.00106,4756.6805438,23
1657527691.00106,4756.6805475,40
1657527691.00106,4756.6805516,43
1657527691.00106,4756.6805555,38
1657527691.00106,4756.6805596,55
1657527691.00106,4756.6805635,59
1657527691.00106,4756.6805673,45
1657527691.00106,4756.6805719,47
1657527691.00106,4756.6805764,64
1657527691.00106,4756.6805804,74
1657527691.00106,4756.6805845,88
1657527691.00106,4756.6805883,93
1657527691.00106,4756.6805921,71
1657527691.00106,4756.6805958,55
1657527691.00106,4756.6805996,50
1657527691.00106,4756.6806035,40
1657527691.00106,4756.6806072,35
1657527691.00106,4756.6806109,38
1657527691.00106,4756.6806147,38
1657527691.00106,4756.6806185,47
1657527691.00106,4756.6806223,47
1657527691.00106,4756.6806283,23
1657527691.56984,4756.6806318,26
1657527691.56984,4756.680636,86
1657527691.56984,4756.68064,136
1657527691.56984,4756.6806432,117
1657527691.56984,4756.6806487,81
1657527691.56984,4756.6806538,69
1657527691.56984,4756.6806595,76
1657527691.56984,4756.6806657,83
1657527691.56984,4756.6806728,57
1657527691.56984,4756.6806814,23
1657527691.56984,4756.6806939,33
1657527691.56984,4756.6807079,45
1657527691.56984,4756.6807172,43
1657527691.56984,4756.6807228,43
1657527691.56984,4756.6807303,28
1657527691.56984,4756.6807352,-9
1657527691.56984,4756.680748,47
1657527691.56984,4756.6807567,328
1657527691.56984,4756.6807649,730
1657527691.56984,4756.6807695,1028
1657527691.56984,4756.6807747,917
1657527691.56984,4756.6807798,357
1657527691.56984,4756.6807835,-88
1657527691.56984,4756.6807878,-69
1657527691.56984,4756.6807932,33
1657527691.56984,4756.6807969,-19
1657527691.56984,4756.6808006,-47
1657527691.56984,4756.6808063,-21
1657527691.56984,4756.6808101,-21
1657527691.56984,4756.6808134,-23
1657527691.56984,4756.6808168,-2
1657527691.56984,4756.6808338,16
1657527691.56984,4756.6808372,26
1657527691.56984,4757.2644393,19
1657527691.56984,4757.264451,16
1657527691.56984,4757.2644546,35
1657527691.56984,4757.2644568,35
1657527691.56984,4757.2644589,14
1657527691.56984,4757.2644609,28
1657527691.56984,4757.264463,67

1657527691.56984,4757.2644651,69
1657527691.56984,4757.2644672,52
1657527691.56984,4757.2644692,79
1657527691.56984,4757.2644713,115
1657527691.56984,4757.2644733,103
1657527691.56984,4757.2644762,93
1657527691.56984,4757.2644838,105
1657527691.56984,4757.2644947,86
1657527691.56984,4757.2645019,55
1657527691.56984,4757.2645041,71
1657527691.59078,4757.264506,100
1657527691.59078,4757.2645171,86
1657527691.59078,4757.264526,57
1657527691.59078,4757.2645286,47
1657527691.59078,4757.2645307,43
1657527691.59078,4757.2645328,38
1657527691.59078,4757.2645348,38
1657527691.59078,4757.2645376,26
1657527691.59078,4757.2645481,23
1657527691.59078,4757.2645564,31
1657527691.59078,4757.264559,35
1657527691.59078,4757.2645612,28
1657527691.59078,4757.2645633,23
1657527691.59078,4757.2645654,45
1657527691.59078,4757.2645689,76
1657527691.59078,4757.2645819,83
1657527691.59078,4757.2645879,76
1657527691.59078,4757.2645911,76
1657527691.59078,4757.2645932,81
1657527691.59078,4757.2645957,88
1657527691.59078,4757.2646057,107
1657527691.59078,4757.2646148,119
1657527691.59078,4757.2646175,117
1657527691.59078,4757.2646196,105
1657527692.1543,4757.2646218,76
1657527692.1543,4757.2646239,47
1657527692.1543,4757.2646258,59
1657527692.1543,4757.2646277,91
1657527692.1543,4757.2646301,91
1657527692.1543,4757.2646387,67
1657527692.1543,4757.2646486,59
1657527692.1543,4757.2646523,83
1657527692.1543,4757.2646545,107
1657527692.1543,4757.2646566,124
1657527692.1543,4757.2646587,136
1657527692.1543,4757.2646609,127
1657527692.1543,4757.2646688,110
1657527692.1543,4757.2646796,103
1657527692.1543,4757.2646837,88
1657527692.1543,4757.2646873,81
1657527692.1543,4757.2646893,86
1657527692.1543,4757.264697,76
1657527692.1543,4757.2647081,69
1657527692.1543,4757.2647113,76
1657527692.1543,4757.2647135,74
1657527692.1543,4757.2647156,62
1657527692.1543,4757.2647231,19
1657527692.1543,4757.2647342,-9
1657527692.1543,4757.2647383,158
1657527692.1543,4757.2647422,539
1657527692.1543,4757.2647443,951
1657527692.1543,4757.2647495,1126
1657527692.1543,4757.264761,771
1657527692.1543,4757.2647665,153
1657527692.1543,4757.2647697,-100
1657527692.1543,4757.264772,-19
1657527692.1543,4757.8504934,-11
1657527692.1543,4757.8505126,-74
1657527692.1543,4757.850528,-55
1657527692.1543,4757.8505449,-11
1657527692.1543,4757.8505538,-23
1657527692.1543,4757.8505576,-40
1657527692.1543,4757.8505612,-19
1657527692.1543,4757.8505655,2
1657527692.1543,4757.850569,-21
1657527692.1543,4757.8505736,-52
1657527692.1543,4757.8505781,-35
1657527692.1543,4757.8505816,-11
1657527692.1543,4757.850585,-11
1657527692.1543,4757.8505884,-7
1657527692.1543,4757.850594,19
1657527692.1543,4757.8505994,40
1657527692.1543,4757.8506052,50
1657527692.1543,4757.8506104,76
1657527692.17324,4757.8506153,107
1657527692.17324,4757.8506193,86
1657527692.17324,4757.850626,59
1657527692.17324,4757.8506326,55
1657527692.17324,4757.8506426,57
1657527692.17324,4757.8506509,81
1657527692.17324,4757.8506798,88
1657527692.17324,4757.8506928,55
1657527692.17324,4757.8506986,38
1657527692.17324,4757.850706,47
1657527692.17324,4757.850712,55
1657527692.17324,4757.8507185,64
1657527692.17324,4757.8507229,62
1657527692.17324,4757.8507295,31
1657527692.17324,4757.8507334,19
1657527692.17324,4757.8507396,28
1657527692.17324,4757.8507431,16
1657527692.17324,4757.8507463,9
1657527692.17324,4757.8507495,19
1657527692.17324,4757.8507552,31
1657527692.17324,4757.8507609,45
1657527692.17324,4757.8507646,59
1657527692.17324,4757.8507703,55
1657527692.17324,4757.8507746,47
1657527692.74333,4757.85078,50
1657527692.74333,4757.8507851,40
1657527692.74333,4757.8507893,40
1657527692.74333,4757.8507927,52
1657527692.74333,4757.8507967,45
1657527692.74333,4757.8508,47
1657527692.74333,4757.8508058,59
1657527692.74333,4757.8508106,35
1657527692.74333,4757.8508138,28
1657527692.74333,4757.8508173,50
1657527692.74333,4757.8508207,43
1657527692.74333,4757.8508249,26
1657527692.74333,4757.85083,38
1657527692.74333,4757.8508337,43
1657527692.74333,4757.8508394,38
1657527692.74333,4757.8508463,62
1657527692.74333,4757.8508525,79
1657527692.74333,4757.8508563,64
1657527692.74333,4757.8508595,43
1657527692.74333,4757.850864,23
1657527692.74333,4757.8508678,16
1657527692.74333,4757.8508718,19
1657527692.74333,4757.8508772,11
1657527692.74333,4757.8508838,-4
1657527692.74333,4757.85089,-16
1657527692.74333,4757.8508936,-4
1657527692.74333,4757.8508971,7
1657527692.74333,4757.8509006,-19
1657527692.74333,4757.8509045,-50
1657527692.74333,4757.8509081,-16
1657527692.74333,4757.8509126,162
1657527692.74333,4758.4361737,498
1657527692.74333,4758.4362007,865
1657527692.74333,4758.4362034,946
1657527692.74333,4758.4362055,536
1657527692.74333,4758.4362092,21
1657527692.74333,4758.4362126,-124
1657527692.74333,4758.4362147,-79
1657527692.74333,4758.4362167,-110
1657527692.74333,4758.4362187,-112
1657527692.74333,4758.4362207,-83
1657527692.74333,4758.4362228,-107
1657527692.74333,4758.4362248,-107
1657527692.74333,4758.4362268,-69
1657527692.74333,4758.4362288,-74
1657527692.74333,4758.4362308,-103
1657527692.74333,4758.436233,-103
1657527692.74333,4758.4362351,-79
1657527692.74333,4758.4362378,-57
1657527692.74333,4758.4362448,-62
1657527692.76526,4758.4362569,-79
1657527692.76526,4758.4362644,-81
1657527692.76526,4758.4362673,-67
1657527692.76526,4758.4362695,-52
1657527692.76526,4758.4362715,-33
1657527692.76526,4758.436279,-16
1657527692.76526,4758.4362904,-16
1657527692.76526,4758.4362945,-16
1657527692.76526,4758.4362984,-7
1657527692.76526,4758.4363004,-9
1657527692.76526,4758.4363024,-16
1657527692.76526,4758.4363046,-4
1657527692.76526,4758.4363068,7
1657527692.76526,4758.4363088,-4
1657527692.76526,4758.4363108,-23
1657527692.76526,4758.4363129,-28
1657527692.76526,4758.4363149,-19
1657527692.76526,4758.4363169,-23
1657527692.76526,4758.436319,-21
1657527692.76526,4758.4363212,0
1657527692.76526,4758.4363233,-4
1657527692.76526,4758.4363254,-33
1657527692.76526,4758.4363274,-43
1657527692.76526,4758.4363295,-23
1657527693.23445,4758.4363315,-9
1657527693.23445,4758.4363336,-26
1657527693.23445,4758.4363355,-43
1657527693.23445,4758.4363429,-26
1657527693.23445,4758.436345,16
1657527693.23445,4758.4363469,21
1657527693.23445,4758.4363488,2
1657527693.23445,4758.4363507,14
1657527693.23445,4758.4363525,23
1657527693.23445,4758.4363545,19
1657527693.23445,4758.4363564,21
1657527693.23445,4758.4363583,19
1657527693.23445,4758.4363602,7
1657527693.23445,4758.4363621,0
1657527693.23445,4758.436364,-19
1657527693.23445,4758.4363659,-11
1657527693.23445,4758.4363696,11
1657527693.23445,4758.4363717,9
1657527693.23445,4758.4363757,31
1657527693.23445,4758.4363828,76
1657527693.23445,4758.4363877,83
1657527693.23445,4758.4363948,69
1657527693.23445,4758.4364021,57
1657527693.23445,4758.4364076,45
1657527693.23445,4758.4364121,28
1657527693.23445,4758.4364141,23
1657527693.23445,4758.4364161,45
1657527693.23445,4758.4364189,57
1657527693.23445,4758.4364209,52
1657527693.23445,4758.436423,74
1657527693.23445,4758.9221274,86
1657527693.23445,4758.9221471,55
1657527693.23445,4758.9221601,16
1657527693.23445,4758.9221646,52
1657527693.23445,4758.9221669,256
1657527693.23445,4758.9221691,594
1657527693.23445,4758.9221712,920
1657527693.23445,4758.9221733,925
1657527693.23445,4758.9221754,457
1657527693.23445,4758.9221774,9
1657527693.23445,4758.9221795,-40
1657527693.23445,4758.9221816,23
1657527693.23445,4758.9221836,-2
1657527693.23445,4758.9221859,-21
1657527693.23445,4758.9221884,-4
1657527693.23445,4758.9221905,11
1657527693.23445,4758.9221925,23
1657527693.23445,4758.9221946,19
1657527693.23445,4758.9221968,0
1657527693.23445,4758.9222006,-2
1657527693.2584,4758.9222134,23
1657527693.2584,4758.9222225,50
1657527693.2584,4758.9222252,43
1657527693.2584,4758.9222274,23
1657527693.2584,4758.9222295,26
1657527693.2584,4758.9222317,43
1657527693.2584,4758.9222343,50
1657527693.2584,4758.9222445,40
1657527693.2584,4758.9222538,35
1657527693.2584,4758.9222563,47
1657527693.2584,4758.9222584,64
1657527693.2584,4758.9222606,71
1657527693.2584,4758.9222627,74
1657527693.2584,4758.9222648,71
1657527693.2584,4758.922271,55
1657527693.2584,4758.9222824,35
1657527693.2584,4758.922287,31
1657527693.2584,4758.9222892,40
1657527693.2584,4758.9222914,50
1657527693.2584,4758.9222935,57
1657527693.2584,4758.9223087,55
1657527693.2584,4758.9223108,52
1657527693.2584,4758.9223129,47
1657527693.2584,4758.9223149,31
1657527693.82484,4758.9223169,33
1657527693.82484,4758.9223189,62
1657527693.82484,4758.9223208,64
1657527693.82484,4758.9223227,40
1657527693.82484,4758.9223246,38
1657527693.82484,4758.9223264,47
1657527693.82484,4758.9223283,57
1657527693.82484,4758.9223302,62
1657527693.82484,4758.922332,64
1657527693.82484,4758.9223339,79
1657527693.82484,4758.9223511,91
1657527693.82484,4758.9223531,88
1657527693.82484,4758.922355,86
1657527693.82484,4758.9223616,88
1657527693.82484,4758.9223712,86
1657527693.82484,4758.922375,76
1657527693.82484,4758.9223773,74
1657527693.82484,4758.9223793,69
1657527693.82484,4758.9223814,62
1657527693.82484,4758.9223834,69
1657527693.82484,4758.9223855,79
1657527693.82484,4758.9223876,79
1657527693.82484,4758.9223897,93
1657527693.82484,4758.9223939,105
1657527693.82484,4758.9224048,81
1657527693.82484,4758.9224114,59
1657527693.82484,4758.9224189,52
1657527693.82484,4758.9224239,38
1657527693.82484,4758.922433,23
1657527693.82484,4759.5073811,28
1657527693.82484,4759.5073997,26
1657527693.82484,4759.5074096,26
1657527693.82484,4759.5074184,35
1657527693.82484,4759.5074268,33
1657527693.82484,4759.5074357,14
1657527693.82484,4759.5074464,-16
1657527693.82484,4759.5074518,-35
1657527693.82484,4759.5074571,69
1657527693.82484,4759.5074626,369
1657527693.82484,4759.5074678,740
1657527693.82484,4759.507473,891
1657527693.82484,4759.5074781,568
1657527693.82484,4759.5074852,35
1657527693.82484,4759.507491,-167
1657527693.82484,4759.507497,-74
1657527693.82484,4759.5075022,-47
1657527693.82484,4759.5075075,-100
1657527693.82484,4759.5075128,-86
1657527693.82484,4759.5075183,-35
1657527693.82484,4759.5075259,-28
1657527693.84678,4759.5075332,-50
1657527693.84678,4759.5075411,-55
1657527693.84678,4759.5075473,-52
1657527693.84678,4759.5075525,-67
1657527693.84678,4759.5075578,-67
1657527693.84678,4759.5075632,-50
1657527693.84678,4759.5075705,-23
1657527693.84678,4759.5075754,-4
1657527693.84678,4759.5075803,-2
1657527693.84678,4759.5075851,7
1657527693.84678,4759.5075898,23
1657527693.84678,4759.5075947,35
1657527693.84678,4759.5075998,47
1657527693.84678,4759.5076062,55
1657527693.84678,4759.5076108,59
1657527693.84678,4759.5076173,67
1657527693.84678,4759.5076221,71
1657527693.84678,4759.5076281,74
1657527693.84678,4759.5076343,64
1657527693.84678,4759.5076426,55
1657527693.84678,4759.5076475,57
1657527693.84678,4759.507654,57
1657527693.84678,4759.5076586,52
1657527693.84678,4759.5076644,38
1657527694.35697,4759.5076717,23
1657527694.35697,4759.5076867,33
1657527694.35697,4759.5076973,35
1657527694.35697,4759.5077033,21
1657527694.35697,4759.5077083,23
1657527694.35697,4759.5077131,26
1657527694.35697,4759.5077181,26
1657527694.35697,4759.5077232,40
1657527694.35697,4759.5077279,52
1657527694.35697,4759.5077325,62
1657527694.35697,4759.5077375,76
1657527694.35697,4759.5077426,71
1657527694.35697,4759.5077513,55
1657527694.35697,4759.5077587,62
1657527694.35697,4759.5077644,83
1657527694.35697,4759.50777,71
1657527694.35697,4759.5077772,50
1657527694.35697,4759.5077827,57
1657527694.35697,4759.507789,83
1657527694.35697,4759.5079409,76
1657527694.35697,4759.5079589,47
1657527694.35697,4759.5079654,64
1657527694.35697,4759.507969,91
1657527694.35697,4759.5079723,86
1657527694.35697,4759.5079757,88
1657527694.35697,4759.507979,115
1657527694.35697,4759.5079822,127
1657527694.35697,4759.5079855,107
1657527694.35697,4760.043736,71
1657527694.35697,4760.0437477,69
1657527694.35697,4760.0437504,91
1657527694.35697,4760.0437527,74
1657527694.35697,4760.0437548,47
1657527694.35697,4760.043757,69
1657527694.35697,4760.0437591,67
1657527694.35697,4760.0437611,38
1657527694.35697,4760.0437631,52
1657527694.35697,4760.0437651,57
1657527694.35697,4760.043767,23
1657527694.35697,4760.043769,141
1657527694.35697,4760.043771,486
1657527694.35697,4760.0437737,869
1657527694.35697,4760.0437796,987
1657527694.35697,4760.0437892,625
1657527694.35697,4760.0437947,95
1657527694.35697,4760.0438057,-103
1657527694.35697,4760.0438163,-40
1657527694.35697,4760.0438296,-11
1657527694.35697,4760.043837,-43
1657527694.35697,4760.0438466,-45
1657527694.37892,4760.0438588,-11
1657527694.37892,4760.0438692,-2
1657527694.37892,4760.0438794,-19
1657527694.37892,4760.0438886,-11
1657527694.37892,4760.0438994,0
1657527694.37892,4760.0439071,-2
1657527694.37892,4760.04391,0
1657527694.37892,4760.0439122,16
1657527694.37892,4760.0439143,23
1657527694.37892,4760.043918,43
1657527694.37892,4760.0439311,69
1657527694.37892,4760.0439374,67
1657527694.37892,4760.0439396,52
1657527694.37892,4760.0439418,35
1657527694.37892,4760.0439438,38
1657527694.37892,4760.0439459,59
1657527694.37892,4760.0439533,67
1657527694.37892,4760.0439643,69
1657527694.37892,4760.0439691,81
1657527694.37892,4760.0439842,69
1657527694.37892,4760.0439865,47
1657527694.37892,4760.0439884,57
1657527694.37892,4760.0439903,81
1657527694.37892,4760.0439923,88
1657527694.88588,4760.0440076,93
1657527694.88588,4760.0440156,64
1657527694.88588,4760.0440247,11
1657527694.88588,4760.0440276,9
1657527694.88588,4760.0440297,40
1657527694.88588,4760.0440318,28
1657527694.88588,4760.0440338,19
1657527694.88588,4760.0440359,59
1657527694.88588,4760.0440378,71
1657527694.88588,4760.0440397,0
1657527694.88588,4760.0440417,-38
1657527694.88588,4760.044046,26
1657527694.88588,4760.0440513,64
1657527694.88588,4760.0440566,21
1657527694.88588,4760.044062,14
1657527694.88588,4760.0440672,26
1657527694.88588,4760.0440694,4
1657527694.88588,4760.0440715,-2
1657527694.88588,4760.0440735,28
1657527694.88588,4760.0440755,38
1657527694.88588,4760.0440776,23
1657527694.88588,4760.0440796,23
1657527694.88588,4760.0440823,19
1657527694.88588,4760.0440921,11
1657527694.88588,4760.0441012,35
1657527694.88588,4760.044117,67
1657527694.88588,4760.044119,45
1657527694.88588,4760.57978,31
1657527694.88588,4760.5797928,52
1657527694.88588,4760.5797952,35
1657527694.88588,4760.5797975,-9
1657527694.88588,4760.5797994,-31
1657527694.88588,4760.5798013,-19
1657527694.88588,4760.5798032,0
1657527694.88588,4760.5798051,-4
1657527694.88588,4760.579807,-28
1657527694.88588,4760.5798089,-38
1657527694.88588,4760.5798349,-52
1657527694.88588,4760.579837,-81
1657527694.88588,4760.5798389,0
1657527694.88588,4760.5798409,285
1657527694.88588,4760.5798428,678
1657527694.88588,4760.5798448,922
1657527694.88588,4760.5798475,707
1657527694.88588,4760.5798497,146
1657527694.88588,4760.5798518,-177
1657527694.88588,4760.5798538,-136
1657527694.88588,4760.5798558,-117
1657527694.88588,4760.5798579,-174
1657527694.88588,4760.5798598,-153
1657527694.90782,4760.5798619,-139
1657527694.90782,4760.5798683,-177
1657527694.90782,4760.5798805,-170
1657527694.90782,4760.579885,-165
1657527694.90782,4760.579889,-184
1657527694.90782,4760.579891,-153
1657527694.90782,4760.579893,-112
1657527694.90782,4760.5798949,-124
1657527694.90782,4760.5798982,-139
1657527694.90782,4760.5799225,-134
1657527694.90782,4760.579945,-119
1657527694.90782,4760.5799476,-100
1657527694.90782,4760.5799499,-88
1657527694.90782,4760.5799519,-91
1657527694.90782,4760.579954,-81
1657527694.90782,4760.579956,-50
1657527694.90782,4760.5799581,-47
1657527694.90782,4760.5799601,-74
1657527694.90782,4760.5799621,-62
1657527694.90782,4760.5799641,-38
1657527694.90782,4760.5799793,-43
1657527694.90782,4760.5799813,-64
1657527694.90782,4760.5799834,-81
1657527694.90782,4760.5799854,-52
1657527695.46467,4760.5799875,-14
1657527695.46467,4760.5800045,-45
1657527695.46467,4760.5800065,-81
1657527695.46467,4760.5800083,-69
1657527695.46467,4760.5800102,-62
1657527695.46467,4760.5800121,-71
1657527695.46467,4760.580014,-74
1657527695.46467,4760.5800159,-62
1657527695.46467,4760.5800177,-47
1657527695.46467,4760.5800197,-52
1657527695.46467,4760.5800217,-40
1657527695.46467,4760.5800235,-14
1657527695.46467,4760.5800254,-9
1657527695.46467,4760.5800273,-14
1657527695.46467,4760.5800292,9
1657527695.46467,4760.580031,19
1657527695.46467,4760.5800329,7
1657527695.46467,4760.5800348,7
1657527695.46467,4760.5800367,4
1657527695.46467,4760.5800388,-9
1657527695.46467,4760.5800408,-19
1657527695.46467,4760.5800438,-14
1657527695.46467,4760.5800459,-4
1657527695.46467,4760.580048,4
1657527695.46467,4760.58005,14
1657527695.46467,4760.5800521,16
1657527695.46467,4761.1648196,19
1657527695.46467,4761.1648378,14
1657527695.46467,4761.1648459,-2
1657527695.46467,4761.1648515,-19
1657527695.46467,4761.1648546,-21
1657527695.46467,4761.1648632,-26
1657527695.46467,4761.1648739,-40
1657527695.46467,4761.1648809,-28
1657527695.46467,4761.1648878,-9
1657527695.46467,4761.1648937,-31
1657527695.46467,4761.1649049,-100
1657527695.46467,4761.1649363,-139
1657527695.46467,4761.1649428,21
1657527695.46467,4761.1649457,393
1657527695.46467,4761.1649485,790
1657527695.46467,4761.1649513,927
1657527695.46467,4761.164954,563
1657527695.46467,4761.1649566,-2
1657527695.46467,4761.1649594,-208
1657527695.46467,4761.1649621,-100
1657527695.46467,4761.1649647,-57
1657527695.46467,4761.1649674,-86
1657527695.46467,4761.16497,-67
1657527695.46467,4761.1649726,-47
1657527695.48634,4761.1649753,-57
1657527695.48634,4761.1649779,-43
1657527695.48634,4761.1649805,-23
1657527695.48634,4761.1649832,-31
1657527695.48634,4761.1649858,-40
1657527695.48634,4761.1649884,-33
1657527695.48634,4761.1649914,-23
1657527695.48634,4761.1649946,0
1657527695.48634,4761.1649972,23
1657527695.48634,4761.1649997,38
1657527695.48634,4761.1650024,45
1657527695.48634,4761.1650051,47
1657527695.48634,4761.1650077,57
1657527695.48634,4761.1650103,86
1657527695.48634,4761.1650129,107
1657527695.48634,4761.1650173,100
1657527695.48634,4761.1650206,86
1657527695.48634,4761.165024,88
1657527695.48634,4761.1650274,93
1657527695.48634,4761.1650327,88
1657527695.48634,4761.1650387,88
1657527695.48634,4761.1650419,88
1657527695.48634,4761.1650447,95
1657527695.48634,4761.1650473,117
1657527696.11163,4761.1650499,115
1657527696.11163,4761.1650525,74
1657527696.11163,4761.1650552,50
1657527696.11163,4761.1650579,62
1657527696.11163,4761.1650605,76
1657527696.11163,4761.1650631,67
1657527696.11163,4761.1650658,59
1657527696.11163,4761.1650683,64
1657527696.11163,4761.165071,76
1657527696.11163,4761.1650736,83
1657527696.11163,4761.1650763,76
1657527696.11163,4761.1650789,83
1657527696.11163,4761.1650818,112
1657527696.11163,4761.1650845,112
1657527696.11163,4761.1650871,93
1657527696.11163,4761.1650897,98
1657527696.11163,4761.1650923,95
1657527696.11163,4761.165095,88
1657527696.11163,4761.1650979,100
1657527696.11163,4761.1651005,100
1657527696.11163,4761.1651032,88
1657527696.11163,4761.1651058,103
1657527696.11163,4761.1651085,127
1657527696.11163,4761.1651111,122
1657527696.11163,4761.1651139,112
1657527696.11163,4761.7985203,115
1657527696.11163,4761.7985324,95
1657527696.11163,4761.7985349,69
1657527696.11163,4761.7985383,55
1657527696.11163,4761.7985405,55
1657527696.11163,4761.7985424,74
1657527696.11163,4761.7985444,86
1657527696.11163,4761.7985465,57
1657527696.11163,4761.7985484,26
1657527696.11163,4761.7985505,19
1657527696.11163,4761.7985531,-19
1657527696.11163,4761.7985564,-28
1657527696.11163,4761.7985674,172
1657527696.11163,4761.7985743,570
1657527696.11163,4761.7985843,913
1657527696.11163,4761.7985939,889
1657527696.11163,4761.798603,421
1657527696.11163,4761.7986157,-43
1657527696.11163,4761.798622,-115
1657527696.11163,4761.7986302,-7
1657527696.11163,4761.7986414,-11
1657527696.11163,4761.7986576,-50
1657527696.11163,4761.7986599,-16
1657527696.11163,4761.798662,11
1657527696.11163,4761.798664,2
1657527696.13358,4761.7986661,0
1657527696.13358,4761.7986834,9
1657527696.13358,4761.7986855,16
1657527696.13358,4761.7986875,31
1657527696.13358,4761.7986896,43
1657527696.13358,4761.7986917,57
1657527696.13358,4761.7986937,76
1657527696.13358,4761.7986958,86
1657527696.13358,4761.7986979,93
1657527696.13358,4761.7987002,103
1657527696.13358,4761.7987023,107
1657527696.13358,4761.7987044,115
1657527696.13358,4761.7987064,124
1657527696.13358,4761.7987084,129
1657527696.13358,4761.7987104,131
1657527696.13358,4761.7987124,129
1657527696.13358,4761.7987145,124
1657527696.13358,4761.7987165,124
1657527696.13358,4761.7987186,122
1657527696.13358,4761.7987213,112
1657527696.13358,4761.7987234,105
1657527696.13358,4761.7987255,117
