Time,TimeLsl,Value
1657532538.59218,9602.8805027,362
1657532538.59218,9602.8805222,863
1657532538.59218,9602.8805298,1275
1657532538.59218,9602.8805365,949
1657532538.59218,9602.8805429,38
1657532538.59218,9602.8805492,-426
1657532538.59218,9602.880556,-104
1657532538.59218,9602.8805623,157
1657532538.59218,9602.8805661,40
1657532538.59218,9602.8805692,7
1657532538.59218,9602.8805723,92
1657532538.59218,9602.8805786,78
1657532538.59218,9602.880585,42
1657532538.59218,9602.8805891,66
1657532538.59218,9602.880593,83
1657532538.59218,9602.8805965,85
1657532538.59218,9602.8805997,92
1657532538.59218,9602.8806059,92
1657532538.59218,9602.8806102,81
1657532538.59218,9602.8806133,88
1657532538.59218,9602.8806194,102
1657532538.59218,9602.8806227,114
1657532538.59218,9602.8806295,128
1657532538.59218,9602.8806355,145
1657532538.59218,9602.8806408,154
1657532538.59218,9602.880644,164
1657532538.59218,9602.8806498,181
1657532538.59218,9602.8806547,193
1657532538.59218,9602.8806611,209
1657532538.59218,9602.8806665,228
1657532538.59218,9602.8806739,247
1657532538.59218,9602.8806961,269
1657532538.59218,9602.8807078,290
1657532538.59218,9602.8807125,312
1657532538.59218,9602.8807158,331
1657532538.59218,9602.8807206,333
1657532538.59218,9602.8807271,329
1657532538.59218,9602.8807303,321
1657532538.59218,9602.8807413,302
1657532538.59218,9602.8807505,274
1657532538.59218,9602.8807593,221
1657532538.59218,9602.8807657,143
1657532538.59218,9602.8807738,66
1657532538.59218,9602.8807833,11
1657532538.59218,9602.8807905,-28
1657532538.59218,9602.8807996,-59
1657532538.59218,9602.880806,-73
1657532538.59218,9602.8808125,-73
1657532538.59218,9602.8808204,-76
1657532538.59218,9602.8808262,-76
1657532538.68793,9602.8808332,-73
1657532538.68793,9602.8808428,-66
1657532538.68793,9602.8808507,-57
1657532538.68793,9602.880855,-52
1657532538.68793,9602.8808582,-45
1657532538.68793,9602.8808641,-30
1657532538.68793,9602.8808678,-23
1657532538.68793,9602.8808727,-19
1657532538.68793,9602.8808794,-14
1657532538.68793,9602.8808853,-11
1657532538.68793,9602.8808946,-9
1657532538.68793,9602.8809033,2
1657532538.68793,9602.8809121,7
1657532538.68793,9602.8809208,7
1657532538.68793,9602.880928,9
1657532538.68793,9602.8809322,14
1657532538.68793,9602.8809353,19
1657532538.68793,9602.8809383,21
1657532538.68793,9602.8809412,21
1657532538.68793,9602.880945,21
1657532538.68793,9602.8809499,26
1657532538.68793,9602.8809576,26
1657532538.68793,9602.8809644,23
1657532538.68793,9603.3672503,28
1657532538.68793,9603.3672714,33
1657532538.68793,9603.3672803,38
1657532538.68793,9603.3672882,38
1657532538.68793,9603.3672971,38
1657532538.68793,9603.3673049,38
1657532538.68793,9603.3673118,45
1657532538.68793,9603.3673184,54
1657532538.68793,9603.3673243,50
1657532538.68793,9603.3673306,38
1657532538.68793,9603.3673384,35
1657532538.68793,9603.367346,40
1657532538.68793,9603.367352,47
1657532538.68793,9603.3673627,50
1657532538.68793,9603.3673719,47
1657532538.68793,9603.3673843,35
1657532538.68793,9603.3673934,26
1657532538.68793,9603.3674028,30
1657532538.68793,9603.367409,28
1657532538.68793,9603.3674229,26
1657532538.68793,9603.3674301,33
1657532538.68793,9603.3674326,26
1657532538.68793,9603.3674404,11
1657532538.68793,9603.3674518,16
1657532538.68793,9603.3674606,30
1657532538.68793,9603.3674685,33
1657532538.68793,9603.367476,38
1657532538.72184,9603.3674827,38
1657532538.72184,9603.3674922,33
1657532538.72184,9603.3675004,35
1657532538.72184,9603.3675099,42
1657532538.72184,9603.3675147,47
1657532538.72184,9603.3675214,52
1657532538.72184,9603.3675247,54
1657532538.72184,9603.3675371,54
1657532538.72184,9603.3675487,57
1657532538.72184,9603.3675581,59
1657532538.72184,9603.3675722,66
1657532538.72184,9603.3675869,66
1657532538.72184,9603.367605,69
1657532538.72184,9603.3676173,66
1657532538.72184,9603.3676286,66
1657532538.72184,9603.3676409,71
1657532538.72184,9603.3676523,76
1657532538.72184,9603.3676617,81
1657532538.72184,9603.3676743,81
1657532538.72184,9603.367685,81
1657532538.72184,9603.3676954,78
1657532538.72184,9603.3677067,81
1657532538.72184,9603.367716,83
1657532538.72184,9603.3677264,81
1657532538.72184,9603.3677374,76
1657532538.72184,9603.367747,73
1657532538.72184,9603.3677576,64
1657532538.72184,9603.3677659,59
1657532538.72184,9603.3677718,78
1657532538.72184,9603.3677776,109
1657532538.72184,9603.367785,138
1657532538.72184,9603.3677952,147
1657532538.72184,9603.367806,128
1657532538.72184,9603.3678172,104
1657532538.72184,9603.3678285,97
1657532538.72184,9603.3678396,90
1657532538.72184,9603.3678483,83
1657532538.72184,9603.3678614,76
1657532538.72184,9603.3678727,76
1657532538.72184,9603.3678835,81
1657532538.72184,9603.3678939,88
1657532538.72184,9603.3679033,92
1657532538.72184,9603.3679112,95
1657532538.72184,9603.3679245,102
1657532538.72184,9603.3679337,176
1657532538.72184,9603.3679443,469
1657532538.72184,9603.9526589,991
1657532538.72184,9603.9526778,1208
1657532539.02992,9603.9526834,586
1657532539.02992,9603.9526918,-317
1657532539.02992,9603.9526963,-453
1657532539.02992,9603.9527005,-4
1657532539.02992,9603.9527046,97
1657532539.02992,9603.9527087,-50
1657532539.02992,9603.9527131,-7
1657532539.02992,9603.9527173,45
1657532539.02992,9603.9527213,7
1657532539.02992,9603.9527253,14
1657532539.02992,9603.9527293,35
1657532539.02992,9603.9527353,23
1657532539.02992,9603.9527415,26
1657532539.02992,9603.9527455,42
1657532539.02992,9603.9527494,50
1657532539.02992,9603.9527534,61
1657532539.02992,9603.9527574,73
1657532539.02992,9603.9527612,78
1657532539.02992,9603.9527651,90
1657532539.02992,9603.952769,107
1657532539.02992,9603.9527728,112
1657532539.02992,9603.9527768,121
1657532539.02992,9603.9527807,135
1657532539.02992,9603.9527866,152
1657532539.02992,9603.9527908,164
1657532539.02992,9603.9527966,176
1657532539.02992,9603.9528006,197
1657532539.02992,9603.9528065,226
1657532539.02992,9603.9528122,243
1657532539.02992,9603.9528172,250
1657532539.02992,9603.9528213,267
1657532539.02992,9603.9528272,288
1657532539.02992,9603.9528322,298
1657532539.02992,9603.9528362,295
1657532539.02992,9603.9528403,286
1657532539.02992,9603.9528479,271
1657532539.02992,9603.9528536,233
1657532539.02992,9603.9528581,174
1657532539.02992,9603.9528623,102
1657532539.02992,9603.9528681,33
1657532539.02992,9603.9528723,-21
1657532539.02992,9603.9528763,-57
1657532539.02992,9603.9528805,-81
1657532539.02992,9603.9528865,-100
1657532539.02992,9603.9528907,-109
1657532539.02992,9603.9528978,-107
1657532539.02992,9603.9529037,-92
1657532539.02992,9603.9529078,-81
1657532539.02992,9603.9529135,-81
1657532539.02992,9603.9529174,-76
1657532539.08078,9603.9529215,-64
1657532539.08078,9603.9529268,-59
1657532539.08078,9603.9529315,-45
1657532539.08078,9603.9529374,-30
1657532539.08078,9603.9529433,-30
1657532539.08078,9603.9529499,-33
1657532539.08078,9603.952954,-21
1657532539.08078,9603.9529596,-9
1657532539.08078,9603.9529658,-4
1657532539.08078,9603.9529715,2
1657532539.08078,9603.9529756,11
1657532539.08078,9603.9529796,9
1657532539.08078,9603.9529858,4
1657532539.08078,9603.9529899,4
1657532539.08078,9603.9529941,2
1657532539.08078,9603.9529995,2
1657532539.08078,9603.9530056,4
1657532539.08078,9603.9530111,-7
1657532539.08078,9603.9530152,-11
1657532539.08078,9603.9530211,2
1657532539.08078,9603.9530249,9
1657532539.08078,9604.6365381,0
1657532539.08078,9604.6365618,-4
1657532539.08078,9604.6365725,-2
1657532539.41869,9604.6365813,7
1657532539.41869,9604.6365878,11
1657532539.41869,9604.6365919,9
1657532539.41869,9604.6365962,11
1657532539.41869,9604.6366026,21
1657532539.41869,9604.6366081,16
1657532539.41869,9604.6366123,-2
1657532539.41869,9604.6366172,0
1657532539.41869,9604.6366236,11
1657532539.41869,9604.6366282,14
1657532539.41869,9604.6366338,11
1657532539.41869,9604.6366422,14
1657532539.41869,9604.6366511,9
1657532539.41869,9604.636659,4
1657532539.41869,9604.6366679,7
1657532539.41869,9604.6366749,9
1657532539.41869,9604.6366812,11
1657532539.41869,9604.6366888,19
1657532539.41869,9604.636695,21
1657532539.41869,9604.6367049,23
1657532539.41869,9604.6367118,30
1657532539.41869,9604.6367198,33
1657532539.41869,9604.6367242,30
1657532539.41869,9604.6367289,35
1657532539.41869,9604.6367359,38
1657532539.41869,9604.6367412,40
1657532539.41869,9604.6367453,47
1657532539.41869,9604.636751,57
1657532539.41869,9604.636757,54
1657532539.41869,9604.6367617,47
1657532539.41869,9604.6367671,47
1657532539.41869,9604.6367734,50
1657532539.41869,9604.6367794,52
1657532539.41869,9604.6367882,59
1657532539.41869,9604.6367964,61
1657532539.41869,9604.6368033,59
1657532539.41869,9604.6368096,64
1657532539.41869,9604.6368154,66
1657532539.41869,9604.6368194,66
1657532539.41869,9604.6368242,73
1657532539.41869,9604.6368326,76
1657532539.41869,9604.6368399,73
1657532539.41869,9604.6368481,76
1657532539.41869,9604.6368553,81
1657532539.41869,9604.6368632,78
1657532539.41869,9604.6368694,76
1657532539.41869,9604.6368759,71
1657532539.41869,9604.6368826,66
1657532539.41869,9604.6368897,76
1657532539.41869,9604.6368978,109
1657532539.42866,9604.6369041,143
1657532539.42866,9604.6369114,150
1657532539.42866,9604.6369185,126
1657532539.42866,9604.6369259,97
1657532539.42866,9604.6369331,88
1657532539.42866,9604.6369385,78
1657532539.42866,9604.6369464,59
1657532539.42866,9604.6369547,50
1657532539.42866,9604.6369608,57
1657532539.42866,9604.636969,61
1657532539.42866,9604.6369759,59
1657532539.42866,9604.6369842,57
1657532539.42866,9604.6369909,61
1657532539.42866,9604.6369989,73
1657532539.42866,9604.6370071,154
1657532539.42866,9604.6370123,453
1657532539.42866,9604.6370215,960
1657532539.42866,9604.63703,1115
1657532539.42866,9604.6370382,443
1657532539.42866,9604.6370458,-424
1657532539.42866,9605.1230604,-486
1657532539.42866,9605.12308,0
1657532539.42866,9605.1230866,121
1657532539.42866,9605.1230925,-9
1657532540.09956,9605.1230973,35
1657532540.09956,9605.1231023,92
1657532540.09956,9605.1231063,54
1657532540.09956,9605.1231092,54
1657532540.09956,9605.1231123,88
1657532540.09956,9605.1231152,85
1657532540.09956,9605.1231205,85
1657532540.09956,9605.1231257,92
1657532540.09956,9605.1231326,83
1657532540.09956,9605.1231365,78
1657532540.09956,9605.1231414,97
1657532540.09956,9605.1231469,112
1657532540.09956,9605.1231538,116
1657532540.09956,9605.1231607,133
1657532540.09956,9605.123168,143
1657532540.09956,9605.1231754,147
1657532540.09956,9605.1231822,164
1657532540.09956,9605.1231871,185
1657532540.09956,9605.1231929,205
1657532540.09956,9605.1231981,216
1657532540.09956,9605.1232033,228
1657532540.09956,9605.1232077,245
1657532540.09956,9605.1232252,267
1657532540.09956,9605.123231,286
1657532540.09956,9605.1232398,305
1657532540.09956,9605.1232494,324
1657532540.09956,9605.1232594,326
1657532540.09956,9605.1232697,314
1657532540.09956,9605.1232788,300
1657532540.09956,9605.1232891,286
1657532540.09956,9605.1232958,259
1657532540.09956,9605.1233014,207
1657532540.09956,9605.123307,133
1657532540.09956,9605.1233129,52
1657532540.09956,9605.1233207,-9
1657532540.09956,9605.1233282,-40
1657532540.09956,9605.1233419,-57
1657532540.09956,9605.1233528,-73
1657532540.09956,9605.1233594,-81
1657532540.09956,9605.1233634,-83
1657532540.09956,9605.1233708,-78
1657532540.09956,9605.1233747,-69
1657532540.09956,9605.1233811,-59
1657532540.09956,9605.1233871,-50
1657532540.09956,9605.1233921,-45
1657532540.09956,9605.1233956,-35
1657532540.09956,9605.1234014,-23
1657532540.09956,9605.1234067,-19
1657532540.09956,9605.1234097,-21
1657532540.09956,9605.1234128,-23
1657532540.11053,9605.1234158,-19
1657532540.11053,9605.1234207,-19
1657532540.11053,9605.1234241,-21
1657532540.11053,9605.1234271,-14
1657532540.11053,9605.1234316,-4
1657532540.11053,9605.123436,-2
1657532540.11053,9605.1234391,0
1657532540.11053,9605.1234444,0
1657532540.11053,9605.1234544,0
1657532540.11053,9605.1234637,0
1657532540.11053,9605.1234714,2
1657532540.11053,9605.123481,9
1657532540.11053,9605.1234884,11
1657532540.11053,9605.1234955,11
1657532540.11053,9605.1235072,14
1657532540.11053,9605.1235225,16
1657532540.11053,9605.1235343,21
1657532540.11053,9605.1235427,26
1657532540.11053,9605.1235486,28
1657532540.11053,9605.8053114,30
1657532540.11053,9605.8053341,35
1657532540.11053,9605.8053402,38
1657532540.11053,9605.8053457,38
1657532540.11053,9605.8053498,42
1657532540.48774,9605.8053533,45
1657532540.48774,9605.8053569,45
1657532540.48774,9605.8053604,50
1657532540.48774,9605.8053865,45
1657532540.48774,9605.8053994,28
1657532540.48774,9605.8054043,26
1657532540.48774,9605.8054076,35
1657532540.48774,9605.8054108,33
1657532540.48774,9605.8054139,35
1657532540.48774,9605.8054171,38
1657532540.48774,9605.8054204,28
1657532540.48774,9605.8054243,26
1657532540.48774,9605.8054279,35
1657532540.48774,9605.8054316,38
1657532540.48774,9605.8054349,38
1657532540.48774,9605.8054383,42
1657532540.48774,9605.8054418,33
1657532540.48774,9605.8054464,19
1657532540.48774,9605.8054501,23
1657532540.48774,9605.8054537,33
1657532540.48774,9605.8054573,33
1657532540.48774,9605.805461,35
1657532540.48774,9605.8054644,40
1657532540.48774,9605.8054681,38
1657532540.48774,9605.8054746,40
1657532540.48774,9605.8054809,45
1657532540.48774,9605.8054847,50
1657532540.48774,9605.8054901,52
1657532540.48774,9605.8054946,54
1657532540.48774,9605.8054982,57
1657532540.48774,9605.8055019,57
1657532540.48774,9605.8055054,57
1657532540.48774,9605.8055091,61
1657532540.48774,9605.8055128,64
1657532540.48774,9605.8055165,61
1657532540.48774,9605.8055211,59
1657532540.48774,9605.8055246,59
1657532540.48774,9605.8055282,59
1657532540.48774,9605.8055325,59
1657532540.48774,9605.8055367,54
1657532540.48774,9605.805541,35
1657532540.48774,9605.8055448,21
1657532540.48774,9605.8055486,33
1657532540.48774,9605.8055525,71
1657532540.48774,9605.8055563,104
1657532540.48774,9605.8055621,104
1657532540.48774,9605.8055663,83
1657532540.48774,9605.8055728,73
1657532540.48774,9605.8055797,64
1657532540.48774,9605.8055865,50
1657532540.49871,9605.8055909,47
1657532540.49871,9605.8055947,52
1657532540.49871,9605.8055987,54
1657532540.49871,9605.8056019,57
1657532540.49871,9605.8056049,54
1657532540.49871,9605.8056081,52
1657532540.49871,9605.8056111,57
1657532540.49871,9605.805614,78
1657532540.49871,9605.8056171,209
1657532540.49871,9605.8056212,617
1657532540.49871,9605.8056274,1134
1657532540.49871,9605.8056315,1094
1657532540.49871,9605.8056375,271
1657532540.49871,9605.8056431,-438
1657532540.49871,9605.8056467,-293
1657532540.49871,9605.8056781,95
1657532540.49871,9605.8056867,57
1657532540.49871,9605.8056909,-47
1657532540.49871,9606.1966484,35
1657532540.49871,9606.1966695,59
1657532540.49871,9606.1966843,26
1657532540.49871,9606.1966972,52
1657532540.49871,9606.1967105,73
1657532540.49871,9606.1967236,57
1657532541.0755,9606.1967321,61
1657532541.0755,9606.1967348,81
1657532541.0755,9606.1967368,85
1657532541.0755,9606.1967389,92
1657532541.0755,9606.1967456,107
1657532541.0755,9606.1967515,114
1657532541.0755,9606.1967563,116
1657532541.0755,9606.196761,128
1657532541.0755,9606.196766,147
1657532541.0755,9606.196771,162
1657532541.0755,9606.1967769,176
1657532541.0755,9606.1967821,188
1657532541.0755,9606.1967892,195
1657532541.0755,9606.1968003,200
1657532541.0755,9606.1968064,219
1657532541.0755,9606.1968161,247
1657532541.0755,9606.1968247,267
1657532541.0755,9606.1968322,283
1657532541.0755,9606.1968347,293
1657532541.0755,9606.196837,288
1657532541.0755,9606.1968392,286
1657532541.0755,9606.1968412,290
1657532541.0755,9606.1968434,281
1657532541.0755,9606.1968455,257
1657532541.0755,9606.1968476,226
1657532541.0755,9606.1968497,166
1657532541.0755,9606.1968518,95
1657532541.0755,9606.1968539,33
1657532541.0755,9606.1968561,-9
1657532541.0755,9606.1968583,-42
1657532541.0755,9606.1968604,-64
1657532541.0755,9606.1968626,-81
1657532541.0755,9606.1968647,-95
1657532541.0755,9606.1968668,-100
1657532541.0755,9606.1968689,-90
1657532541.0755,9606.196871,-83
1657532541.0755,9606.1968736,-78
1657532541.0755,9606.1968758,-71
1657532541.0755,9606.1968779,-64
1657532541.0755,9606.1968801,-54
1657532541.0755,9606.1968822,-47
1657532541.0755,9606.1968843,-38
1657532541.0755,9606.1968864,-28
1657532541.0755,9606.1969362,-26
1657532541.0755,9606.1969473,-19
1657532541.0755,9606.1969578,-9
1657532541.0755,9606.1969616,-2
1657532541.0755,9606.1969715,0
1657532541.0755,9606.1969821,4
1657532541.0755,9606.1969868,9
1657532541.08846,9606.1969891,11
1657532541.08846,9606.1969912,11
1657532541.08846,9606.1969934,14
1657532541.08846,9606.1970038,19
1657532541.08846,9606.1970061,21
1657532541.08846,9606.1970088,23
1657532541.08846,9606.197011,23
1657532541.08846,9606.1970132,26
1657532541.08846,9606.1970153,28
1657532541.08846,9606.1970175,30
1657532541.08846,9606.1970195,33
1657532541.08846,9606.1970217,38
1657532541.08846,9606.1970237,42
1657532541.08846,9606.1970258,42
1657532541.08846,9606.1970279,42
1657532541.08846,9606.1970301,42
1657532541.08846,9606.1970323,47
1657532541.08846,9606.7795444,52
1657532541.08846,9606.7795566,52
1657532541.08846,9606.7795607,50
1657532541.08846,9606.7795634,52
1657532541.08846,9606.7795657,54
1657532541.08846,9606.779568,57
1657532541.08846,9606.7795702,61
1657532541.60938,9606.7795725,64
1657532541.60938,9606.7795747,61
1657532541.60938,9606.7795768,61
1657532541.60938,9606.7795789,61
1657532541.60938,9606.7795809,66
1657532541.60938,9606.7795832,69
1657532541.60938,9606.7795853,71
1657532541.60938,9606.7795875,69
1657532541.60938,9606.7795898,54
1657532541.60938,9606.7795931,45
1657532541.60938,9606.7796008,54
1657532541.60938,9606.7796061,59
1657532541.60938,9606.7796103,59
1657532541.60938,9606.7796149,61
1657532541.60938,9606.7796205,54
1657532541.60938,9606.7796259,40
1657532541.60938,9606.7796377,40
1657532541.60938,9606.779644,45
1657532541.60938,9606.7796463,45
1657532541.60938,9606.7796485,45
1657532541.60938,9606.7796507,47
1657532541.60938,9606.7796527,45
1657532541.60938,9606.7796548,42
1657532541.60938,9606.779657,40
1657532541.60938,9606.779659,33
1657532541.60938,9606.7796611,26
1657532541.60938,9606.7796632,28
1657532541.60938,9606.7796654,30
1657532541.60938,9606.7796674,30
1657532541.60938,9606.7796696,35
1657532541.60938,9606.7796717,45
1657532541.60938,9606.7796738,50
1657532541.60938,9606.7796759,50
1657532541.60938,9606.779678,38
1657532541.60938,9606.7796801,23
1657532541.60938,9606.7796822,38
1657532541.60938,9606.7796844,66
1657532541.60938,9606.7796915,88
1657532541.60938,9606.7797009,104
1657532541.60938,9606.7797076,95
1657532541.60938,9606.7797119,69
1657532541.60938,9606.7797171,59
1657532541.60938,9606.7797216,52
1657532541.60938,9606.7797268,40
1657532541.60938,9606.7797306,35
1657532541.60938,9606.7797399,33
1657532541.60938,9606.7797451,33
1657532541.60938,9606.7797472,40
1657532541.60938,9606.7797494,45
1657532541.60938,9606.7797515,50
1657532541.62134,9606.7797536,59
1657532541.62134,9606.7797557,92
1657532541.62134,9606.7797578,262
1657532541.62134,9606.7797601,715
1657532541.62134,9606.7797623,1161
1657532541.62134,9606.7797643,920
1657532541.62134,9606.7797664,2
1657532541.62134,9606.7797686,-541
1657532541.62134,9606.7797708,-214
1657532541.62134,9606.7797729,128
1657532541.62134,9606.779775,33
1657532541.62134,9606.7797771,-19
1657532541.62134,9606.7797793,66
1657532541.62134,9606.7797814,64
1657532541.62134,9606.7797835,45
1657532541.62134,9606.7797857,76
1657532541.62134,9607.3161439,88
1657532541.62134,9607.316196,83
1657532541.62134,9607.3162086,100
1657532541.62134,9607.316215,114
1657532541.62134,9607.3162205,116
1657532541.62134,9607.3162261,119
1657532541.62134,9607.3162323,128
1657532541.62134,9607.3162417,140
1657532542.19553,9607.3162485,154
1657532542.19553,9607.3162546,164
1657532542.19553,9607.3162605,176
1657532542.19553,9607.3162666,185
1657532542.19553,9607.3162727,193
1657532542.19553,9607.3162791,207
1657532542.19553,9607.3162854,226
1657532542.19553,9607.3162917,240
1657532542.19553,9607.3162977,262
1657532542.19553,9607.3163042,283
1657532542.19553,9607.3163107,290
1657532542.19553,9607.3163167,293
1657532542.19553,9607.3163225,309
1657532542.19553,9607.316329,321
1657532542.19553,9607.3163349,321
1657532542.19553,9607.3163402,314
1657532542.19553,9607.3163453,286
1657532542.19553,9607.3163503,247
1657532542.19553,9607.3163983,216
1657532542.19553,9607.3164072,162
1657532542.19553,9607.3164116,85
1657532542.19553,9607.3164168,21
1657532542.19553,9607.3164211,-19
1657532542.19553,9607.3164278,-50
1657532542.19553,9607.3164327,-66
1657532542.19553,9607.3164361,-71
1657532542.19553,9607.3164392,-71
1657532542.19553,9607.3164422,-71
1657532542.19553,9607.3164452,-64
1657532542.19553,9607.3164483,-50
1657532542.19553,9607.3164514,-42
1657532542.19553,9607.3164544,-38
1657532542.19553,9607.3164575,-28
1657532542.19553,9607.3164605,-19
1657532542.19553,9607.3164635,-4
1657532542.19553,9607.3164669,2
1657532542.19553,9607.3164698,0
1657532542.19553,9607.3164737,4
1657532542.19553,9607.3164784,14
1657532542.19553,9607.3164815,16
1657532542.19553,9607.3164846,23
1657532542.19553,9607.3164875,33
1657532542.19553,9607.3164905,30
1657532542.19553,9607.3164936,21
1657532542.19553,9607.3164966,26
1657532542.19553,9607.3164996,33
1657532542.19553,9607.3165025,30
1657532542.19553,9607.3165054,28
1657532542.19553,9607.3165096,38
1657532542.19553,9607.3165228,38
1657532542.2065,9607.316532,38
1657532542.2065,9607.3165395,45
1657532542.2065,9607.3165486,42
1657532542.2065,9607.3165535,40
1657532542.2065,9607.3165639,52
1657532542.2065,9607.3165751,57
1657532542.2065,9607.3165832,57
1657532542.2065,9607.3165967,57
1657532542.2065,9607.3166091,57
1657532542.2065,9607.3166448,64
1657532542.2065,9607.316666,76
1657532542.2065,9607.3166785,69
1657532542.2065,9607.3166863,64
1657532542.2065,9607.3166907,76
1657532542.2065,9607.3166966,81
1657532542.2065,9607.9014763,81
1657532542.2065,9607.9014956,83
1657532542.2065,9607.9015067,83
1657532542.2065,9607.9015116,81
1657532542.2065,9607.9015182,83
1657532542.2065,9607.9015248,92
1657532542.2065,9607.9015333,97
1657532542.2065,9607.9015395,95
1657532542.2065,9607.9015463,81
1657532542.78758,9607.901552,71
1657532542.78758,9607.9015607,71
1657532542.78758,9607.9015703,66
1657532542.78758,9607.9015766,61
1657532542.78758,9607.9015809,69
1657532542.78758,9607.9015867,61
1657532542.78758,9607.9015965,45
1657532542.78758,9607.9016027,30
1657532542.78758,9607.901614,33
1657532542.78758,9607.9016185,38
1657532542.78758,9607.9016314,38
1657532542.78758,9607.9016439,40
1657532542.78758,9607.901656,47
1657532542.78758,9607.9016692,47
1657532542.78758,9607.9016756,45
1657532542.78758,9607.901679,52
1657532542.78758,9607.9016812,61
1657532542.78758,9607.9016834,64
1657532542.78758,9607.9016855,61
1657532542.78758,9607.9016876,66
1657532542.78758,9607.9016898,66
1657532542.78758,9607.9016952,54
1657532542.78758,9607.9017066,57
1657532542.78758,9607.9017119,90
1657532542.78758,9607.9017142,126
1657532542.78758,9607.9017163,133
1657532542.78758,9607.9017185,114
1657532542.78758,9607.9017206,95
1657532542.78758,9607.9017233,81
1657532542.78758,9607.9017333,66
1657532542.78758,9607.9017481,61
1657532542.78758,9607.9017576,61
1657532542.78758,9607.9017668,59
1657532542.78758,9607.9017698,59
1657532542.78758,9607.9017721,59
1657532542.78758,9607.9017744,64
1657532542.78758,9607.9017765,73
1657532542.78758,9607.9017787,95
1657532542.78758,9607.9017808,171
1657532542.78758,9607.9017829,455
1657532542.78758,9607.901785,951
1657532542.78758,9607.9017871,1127
1657532542.78758,9607.9017892,493
1657532542.78758,9607.9017914,-369
1657532542.78758,9607.9017935,-460
1657532542.78758,9607.9017957,16
1657532542.78758,9607.9017979,147
1657532542.78758,9607.9017999,16
1657532542.78758,9607.901802,59
1657532542.78758,9607.9018042,121
1657532542.79855,9607.9018064,85
1657532542.79855,9607.9018085,90
1657532542.79855,9607.9018106,123
1657532542.79855,9607.9018127,121
1657532542.79855,9607.9018148,121
1657532542.79855,9607.9018168,138
1657532542.79855,9607.9018189,145
1657532542.79855,9607.9018215,150
1657532542.79855,9607.9018236,159
1657532542.79855,9607.9018257,164
1657532542.79855,9607.9018278,174
1657532542.79855,9607.9018299,190
1657532542.79855,9607.901832,202
1657532542.79855,9607.9018341,209
1657532542.79855,9608.4867056,224
1657532542.79855,9608.4867189,238
1657532542.79855,9608.4867245,247
1657532542.79855,9608.486728,262
1657532542.79855,9608.4867312,281
1657532542.79855,9608.4867344,295
1657532542.79855,9608.4867387,307
1657532542.79855,9608.4867432,321
1657532542.79855,9608.4867469,336
1657532542.79855,9608.486749,340
1657532543.32054,9608.4867514,331
1657532543.32054,9608.4867535,317
1657532543.32054,9608.4867554,293
1657532543.32054,9608.4867574,269
1657532543.32054,9608.4867594,247
1657532543.32054,9608.4867613,205
1657532543.32054,9608.4867633,138
1657532543.32054,9608.4867652,69
1657532543.32054,9608.4867672,2
1657532543.32054,9608.4867692,-42
1657532543.32054,9608.4867711,-59
1657532543.32054,9608.486773,-66
1657532543.32054,9608.4867749,-73
1657532543.32054,9608.4867769,-71
1657532543.32054,9608.4867801,-69
1657532543.32054,9608.4867903,-69
1657532543.32054,9608.4868,-57
1657532543.32054,9608.4868036,-42
1657532543.32054,9608.4868058,-33
1657532543.32054,9608.4868085,-23
1657532543.32054,9608.4868107,-19
1657532543.32054,9608.4868128,-11
1657532543.32054,9608.4868181,-4
1657532543.32054,9608.4868298,0
1657532543.32054,9608.4868352,0
1657532543.32054,9608.4868376,2
1657532543.32054,9608.4868398,9
1657532543.32054,9608.4868419,9
1657532543.32054,9608.486844,9
1657532543.32054,9608.4868463,16
1657532543.32054,9608.4868547,21
1657532543.32054,9608.486866,23
1657532543.32054,9608.4868704,28
1657532543.32054,9608.4868726,26
1657532543.32054,9608.4868745,23
1657532543.32054,9608.4868766,28
1657532543.32054,9608.4868806,33
1657532543.32054,9608.4868919,35
1657532543.32054,9608.4868994,35
1657532543.32054,9608.4869019,38
1657532543.32054,9608.486904,38
1657532543.32054,9608.4869061,42
1657532543.32054,9608.4869096,47
1657532543.32054,9608.4869228,50
1657532543.32054,9608.4869288,52
1657532543.32054,9608.4869313,54
1657532543.32054,9608.4869334,54
1657532543.32054,9608.4869355,54
1657532543.32054,9608.4869438,59
1657532543.32054,9608.4869548,64
1657532543.33225,9608.4869594,66
1657532543.33225,9608.4869615,64
1657532543.33225,9608.4869635,66
1657532543.33225,9608.4869655,69
1657532543.33225,9608.4869676,71
1657532543.33225,9608.4869697,71
1657532543.33225,9608.4869718,66
1657532543.33225,9608.4869739,61
1657532543.33225,9608.4869761,69
1657532543.33225,9608.4869781,73
1657532543.33225,9608.4869802,71
1657532543.33225,9608.4869822,71
1657532543.33225,9608.4869844,76
1657532543.33225,9609.0223788,76
1657532543.33225,9609.0224053,66
1657532543.33225,9609.0224081,59
1657532543.33225,9609.0224105,61
1657532543.33225,9609.0224126,66
1657532543.33225,9609.0224147,66
1657532543.33225,9609.0224168,59
1657532543.33225,9609.0224189,59
1657532543.33225,9609.0224209,52
1657532543.33225,9609.0224229,38
1657532543.33225,9609.0224251,38
1657532543.85418,9609.0224271,42
1657532543.85418,9609.0224292,45
1657532543.85418,9609.0224311,50
1657532543.85418,9609.0224331,45
1657532543.85418,9609.022435,30
1657532543.85418,9609.0224369,28
1657532543.85418,9609.0224388,35
1657532543.85418,9609.0224408,35
1657532543.85418,9609.0224427,33
1657532543.85418,9609.0224447,28
1657532543.85418,9609.0224466,19
1657532543.85418,9609.0224486,21
1657532543.85418,9609.0224504,45
1657532543.85418,9609.0224523,78
1657532543.85418,9609.0224543,95
1657532543.85418,9609.0224564,88
1657532543.85418,9609.0224584,57
1657532543.85418,9609.0224606,30
1657532543.85418,9609.0224627,23
1657532543.85418,9609.0224647,23
1657532543.85418,9609.0224668,21
1657532543.85418,9609.0224689,21
1657532543.85418,9609.022471,28
1657532543.85418,9609.0224732,30
1657532543.85418,9609.0224753,33
1657532543.85418,9609.0224773,38
1657532543.85418,9609.0224794,57
1657532543.85418,9609.0224815,131
1657532543.85418,9609.0224836,410
1657532543.85418,9609.0224857,920
1657532543.85418,9609.0224878,1156
1657532543.85418,9609.0224899,600
1657532543.85418,9609.0224921,-259
1657532543.85418,9609.0225074,-431
1657532543.85418,9609.0225095,-4
1657532543.85418,9609.0225115,128
1657532543.85418,9609.0225136,-19
1657532543.85418,9609.0225291,9
1657532543.85418,9609.0225313,78
1657532543.85418,9609.0225334,47
1657532543.85418,9609.0225355,50
1657532543.85418,9609.0225376,81
1657532543.85418,9609.0225397,81
1657532543.85418,9609.0225418,81
1657532543.85418,9609.0225439,95
1657532543.85418,9609.0225459,102
1657532543.85418,9609.022548,104
1657532543.85418,9609.0225501,114
1657532543.85418,9609.0225521,121
1657532543.85418,9609.0225543,126
1657532543.86414,9609.0225565,138
1657532543.86414,9609.0225719,152
1657532543.86414,9609.022574,169
1657532543.86414,9609.022576,183
1657532543.86414,9609.0225781,195
1657532543.86414,9609.0225936,207
1657532543.86414,9609.0225957,221
1657532543.86414,9609.0225979,233
1657532543.86414,9609.0226,245
1657532543.86414,9609.0226021,262
1657532543.86414,9609.0226043,278
1657532543.86414,9609.0226064,290
1657532543.86414,9609.5597514,300
1657532543.86414,9609.5597859,307
1657532543.86414,9609.5597955,302
1657532543.86414,9609.5598027,295
1657532543.86414,9609.5598097,286
1657532543.86414,9609.5598156,252
1657532543.86414,9609.5598209,202
1657532543.86414,9609.5598275,147
1657532543.86414,9609.5598319,90
1657532543.86414,9609.5598381,38
1657532543.86414,9609.559844,-2
1657532543.86414,9609.5598474,-35
1657532544.44275,9609.5598504,-64
1657532544.44275,9609.5598535,-71
1657532544.44275,9609.5598567,-61
1657532544.44275,9609.5598599,-57
1657532544.44275,9609.5598629,-61
1657532544.44275,9609.5598666,-64
1657532544.44275,9609.5598702,-66
1657532544.44275,9609.5598736,-64
1657532544.44275,9609.559877,-52
1657532544.44275,9609.5598804,-42
1657532544.44275,9609.5598868,-35
1657532544.44275,9609.5598923,-30
1657532544.44275,9609.5598956,-26
1657532544.44275,9609.5599021,-23
1657532544.44275,9609.5599087,-14
1657532544.44275,9609.5599151,-4
1657532544.44275,9609.5599216,0
1657532544.44275,9609.5599281,0
1657532544.44275,9609.5599356,2
1657532544.44275,9609.5599422,4
1657532544.44275,9609.5599473,9
1657532544.44275,9609.5599525,14
1657532544.44275,9609.559958,14
1657532544.44275,9609.5599631,14
1657532544.44275,9609.559969,16
1657532544.44275,9609.5599723,19
1657532544.44275,9609.5599776,21
1657532544.44275,9609.5599822,26
1657532544.44275,9609.5599873,28
1657532544.44275,9609.5599935,30
1657532544.44275,9609.5600001,30
1657532544.44275,9609.5600059,30
1657532544.44275,9609.560009,35
1657532544.44275,9609.5600121,42
1657532544.44275,9609.5600151,40
1657532544.44275,9609.5600181,40
1657532544.44275,9609.5600211,40
1657532544.44275,9609.5600243,38
1657532544.44275,9609.5600295,40
1657532544.44275,9609.5600328,45
1657532544.44275,9609.560044,45
1657532544.44275,9609.5600481,42
1657532544.44275,9609.5600514,50
1657532544.44275,9609.5600546,54
1657532544.44275,9609.5600579,50
1657532544.44275,9609.5600614,52
1657532544.44275,9609.5600657,57
1657532544.44275,9609.5600705,57
1657532544.44275,9609.5600737,52
1657532544.44275,9609.5600794,45
1657532544.45372,9609.560086,40
1657532544.45372,9609.5600932,50
1657532544.45372,9609.5601002,54
1657532544.45372,9609.5601139,50
1657532544.45372,9609.5601175,52
1657532544.45372,9609.5601206,61
1657532544.45372,9609.5601251,59
1657532544.45372,9609.5601301,54
1657532544.45372,9609.5601358,59
1657532544.45372,9609.5601398,64
1657532544.45372,9609.5601443,64
1657532544.45372,9610.1450383,61
1657532544.45372,9610.145054,66
1657532544.45372,9610.1450587,71
1657532544.45372,9610.1450642,66
1657532544.45372,9610.1450689,61
1657532544.45372,9610.1450739,61
1657532544.45372,9610.1450787,61
1657532544.45372,9610.1450839,54
1657532544.45372,9610.1450877,40
1657532544.45372,9610.1450936,30
1657532544.45372,9610.1450974,30
1657532544.45372,9610.1451024,35
1657532544.45372,9610.1451069,30
1657532545.03089,9610.1451107,23
1657532545.03089,9610.1451143,16
1657532545.03089,9610.1451178,11
1657532545.03089,9610.1451214,26
1657532545.03089,9610.1451386,66
1657532545.03089,9610.145142,90
1657532545.03089,9610.1451453,71
1657532545.03089,9610.1451646,52
1657532545.03089,9610.1451679,40
1657532545.03089,9610.1451713,21
1657532545.03089,9610.1451745,16
1657532545.03089,9610.1451778,16
1657532545.03089,9610.1451812,9
1657532545.03089,9610.1451851,16
1657532545.03089,9610.1451885,21
1657532545.03089,9610.1451936,9
1657532545.03089,9610.1451969,16
1657532545.03089,9610.1452002,45
1657532545.03089,9610.1452035,135
1657532545.03089,9610.1452071,450
1657532545.03089,9610.1452128,956
1657532545.03089,9610.1452163,1061
1657532545.03089,9610.1452212,355
1657532545.03089,9610.1452261,-469
1657532545.03089,9610.1452295,-476
1657532545.03089,9610.145233,4
1657532545.03089,9610.1452379,90
1657532545.03089,9610.1452414,-54
1657532545.03089,9610.1452448,-4
1657532545.03089,9610.1452482,61
1657532545.03089,9610.1452516,33
1657532545.03089,9610.1452564,40
1657532545.03089,9610.1452596,71
1657532545.03089,9610.145263,73
1657532545.03089,9610.1452664,73
1657532545.03089,9610.1452698,83
1657532545.03089,9610.1452745,95
1657532545.03089,9610.1452797,104

1657532545.03089,9610.1452872,121
1657532545.03089,9610.145291,126
1657532545.03089,9610.1452944,119
1657532545.03089,9610.1452977,128
1657532545.03089,9610.145301,152
1657532545.03089,9610.1453043,171
1657532545.03089,9610.1453075,183
1657532545.03089,9610.1453108,197
1657532545.03089,9610.145314,219
1657532545.03089,9610.1453268,240
1657532545.03089,9610.1453302,259
1657532545.03089,9610.1453337,286
1657532545.04186,9610.1453371,302
1657532545.04186,9610.1453404,312
1657532545.04186,9610.1453437,326
1657532545.04186,9610.145347,348
1657532545.04186,9610.1453502,355
1657532545.04186,9610.1453536,345
1657532545.04186,9610.145357,333
1657532545.04186,9610.145362,312
1657532545.04186,9610.1453654,262
1657532545.04186,9610.145369,197
1657532545.04186,9610.7304734,133
1657532545.04186,9610.7304947,69
1657532545.04186,9610.7305096,9
1657532545.04186,9610.7305246,-30
1657532545.04186,9610.7305579,-52
1657532545.04186,9610.7305737,-69
1657532545.04186,9610.7305896,-76
1657532545.04186,9610.7306398,-71
1657532545.04186,9610.7306535,-64
1657532545.04186,9610.7306667,-57
1657532545.04186,9610.7306937,-47
1657532545.04186,9610.7307042,-50
1657532545.04186,9610.7307136,-59
1657532545.04186,9610.7307232,-52
1657532545.66314,9610.7307515,-40
1657532545.66314,9610.7307673,-35
1657532545.66314,9610.7307709,-28
1657532545.66314,9610.7307748,-19
1657532545.66314,9610.7307799,-16
1657532545.66314,9610.7307823,-14
1657532545.66314,9610.7307842,-9
1657532545.66314,9610.730787,-7
1657532545.66314,9610.7307917,2
1657532545.66314,9610.7307955,4
1657532545.66314,9610.7307983,-2
1657532545.66314,9610.730803,-7
1657532545.66314,9610.7308071,-4
1657532545.66314,9610.7308091,-7
1657532545.66314,9610.7308112,-2
1657532545.66314,9610.7308132,7
1657532545.66314,9610.7308153,9
1657532545.66314,9610.7308174,7
1657532545.66314,9610.7308196,9
1657532545.66314,9610.7308216,11
1657532545.66314,9610.7308238,14
1657532545.66314,9610.7308294,21
1657532545.66314,9610.7308404,26
1657532545.66314,9610.7308444,26
1657532545.66314,9610.7308479,30
1657532545.66314,9610.7308514,33
1657532545.66314,9610.7308554,30
1657532545.66314,9610.7308575,35
1657532545.66314,9610.7308596,47
1657532545.66314,9610.7308617,50
1657532545.66314,9610.7308638,40
1657532545.66314,9610.7308659,33
1657532545.66314,9610.7308679,30
1657532545.66314,9610.73087,38
1657532545.66314,9610.7308729,42
1657532545.66314,9610.730875,45
1657532545.66314,9610.7308772,42
1657532545.66314,9610.7308794,45
1657532545.66314,9610.7308815,52
1657532545.66314,9610.7308836,57
1657532545.66314,9610.7308857,59
1657532545.66314,9610.7308878,64
1657532545.66314,9610.7308899,64
1657532545.66314,9610.730892,61
1657532545.66314,9610.7308941,64
1657532545.66314,9610.7308962,71
1657532545.66314,9610.7308983,71
1657532545.66314,9610.7309004,73
1657532545.66314,9610.7309025,73
1657532545.66314,9610.7309047,69
1657532545.67511,9610.7309067,71
1657532545.67511,9610.7309089,73
1657532545.67511,9610.730911,78
1657532545.67511,9610.7309131,81
1657532545.67511,9610.7309154,83
1657532545.67511,9610.7309175,83
1657532545.67511,9610.7309203,85
1657532545.67511,9610.7309224,88
1657532545.67511,9610.7309245,88
1657532545.67511,9611.3626269,85
1657532545.67511,9611.3626476,73
1657532545.67511,9611.3626632,57
1657532545.67511,9611.3626888,59
1657532545.67511,9611.3627201,88
1657532545.67511,9611.362744,126
1657532545.67511,9611.3627708,150
1657532545.67511,9611.3628628,138
1657532545.67511,9611.3628857,102
1657532545.67511,9611.3628956,81
1657532545.67511,9611.3629006,76
1657532545.67511,9611.3629041,71
1657532545.67511,9611.3629174,69
1657532545.67511,9611.3629232,69
1657532545.67511,9611.3629284,64
1657532546.09728,9611.3629347,52
1657532546.09728,9611.3629402,54
1657532546.09728,9611.3629449,66
1657532546.09728,9611.3629504,83
1657532546.09728,9611.3629559,147
1657532546.09728,9611.3629609,383
1657532546.09728,9611.3629657,856
1657532546.09728,9611.3629709,1120
1657532546.09728,9611.3629758,603
1657532546.09728,9611.3629807,-300
1657532546.09728,9611.3629855,-529
1657532546.09728,9611.3629919,-73
1657532546.09728,9611.3629957,116
1657532546.09728,9611.3630222,-28
1657532546.09728,9611.3630275,-9
1657532546.09728,9611.3630298,71
1657532546.09728,9611.363032,42
1657532546.09728,9611.363034,35
1657532546.09728,9611.3630497,66
1657532546.09728,9611.3630739,66
1657532546.09728,9611.3630826,71
1657532546.09728,9611.3630856,90
1657532546.09728,9611.3630878,92
1657532546.09728,9611.3630909,88
1657532546.09728,9611.3631026,92
1657532546.09728,9611.3631075,104
1657532546.09728,9611.3631118,114
1657532546.09728,9611.3631178,126
1657532546.09728,9611.3631217,143
1657532546.09728,9611.3631272,154
1657532546.09728,9611.3631316,166
1657532546.09728,9611.3631353,183
1657532546.09728,9611.3631425,202
1657532546.09728,9611.3631499,221
1657532546.09728,9611.3631524,240
1657532546.09728,9611.3631554,255
1657532546.09728,9611.3631576,269
1657532546.09728,9611.3631598,288
1657532546.09728,9611.3631619,302
1657532546.09728,9611.3631641,307
1657532546.09728,9611.3631663,309
1657532546.09728,9611.3631685,305
1657532546.09728,9611.3631706,295
1657532546.09728,9611.3631727,283
1657532546.09728,9611.3631748,259
1657532546.09728,9611.363177,216
1657532546.09728,9611.3631791,157
1657532546.09728,9611.3631812,92
1657532546.09728,9611.3631833,40
1657532546.09728,9611.3631854,4
1657532546.10725,9611.3631878,-21
1657532546.10725,9611.3631904,-35
1657532546.10725,9611.3631925,-40
1657532546.10725,9611.3631947,-42
1657532546.10725,9611.3631968,-38
1657532546.10725,9611.363199,-28
1657532546.10725,9611.3632012,-21
1657532546.10725,9611.3632039,-19
1657532546.10725,9611.8010135,-11
1657532546.10725,9611.8010315,-2
1657532546.10725,9611.8010406,7
1657532546.10725,9611.8010489,14
1657532546.10725,9611.8010553,16
1657532546.10725,9611.8010609,21
1657532546.10725,9611.8010699,23
1657532546.10725,9611.8010775,26
1657532546.10725,9611.8010908,33
1657532546.10725,9611.8011032,38
1657532546.10725,9611.801109,40
1657532546.10725,9611.8011114,42
1657532546.10725,9611.8011136,40
1657532546.10725,9611.8011193,35
1657532546.10725,9611.801131,38
1657532546.10725,9611.8011348,40
1657532546.68548,9611.8011389,40
1657532546.68548,9611.801141,38
1657532546.68548,9611.8011433,21
1657532546.68548,9611.8011512,11
1657532546.68548,9611.8011605,21
1657532546.68548,9611.8011636,28
1657532546.68548,9611.8011665,30
1657532546.68548,9611.8011744,38
1657532546.68548,9611.8011834,26
1657532546.68548,9611.8011931,7
1657532546.68548,9611.801204,14
1657532546.68548,9611.8012098,26
1657532546.68548,9611.8012205,26
1657532546.68548,9611.8012326,28
1657532546.68548,9611.8012383,30
1657532546.68548,9611.8012404,21
1657532546.68548,9611.8012425,23
1657532546.68548,9611.8012463,33
1657532546.68548,9611.8012595,35
1657532546.68548,9611.8012658,38
1657532546.68548,9611.8012682,42
1657532546.68548,9611.8012703,45
1657532546.68548,9611.8012725,42
1657532546.68548,9611.8012761,47
1657532546.68548,9611.8012892,52
1657532546.68548,9611.8013012,57
1657532546.68548,9611.8013145,64
1657532546.68548,9611.8013278,59
1657532546.68548,9611.801341,50
1657532546.68548,9611.8013484,47
1657532546.68548,9611.801356,54
1657532546.68548,9611.80137,64
1657532546.68548,9611.8013788,61
1657532546.68548,9611.8013858,61
1657532546.68548,9611.8013956,69
1657532546.68548,9611.8014086,73
1657532546.68548,9611.8014418,69
1657532546.68548,9611.8014479,71
1657532546.68548,9611.8014521,78
1657532546.68548,9611.8014574,78
1657532546.68548,9611.8014611,78
1657532546.68548,9611.801467,83
1657532546.68548,9611.8014707,85
1657532546.68548,9611.8014757,85
1657532546.68548,9611.80148,90
1657532546.68548,9611.8014852,92
1657532546.68548,9611.8014889,90
1657532546.68548,9611.8014931,90
1657532546.68548,9611.8014983,92
1657532546.68548,9611.801502,88
1657532546.69745,9611.8015064,76
1657532546.69745,9611.80151,76
1657532546.69745,9611.8015152,95
1657532546.69745,9611.8015196,121
1657532546.69745,9611.8015247,145
1657532546.69745,9611.8015282,150
1657532546.69745,9611.8015318,121
1657532546.69745,9612.3867439,92
1657532546.69745,9612.3867661,85
1657532546.69745,9612.3867781,85
1657532546.69745,9612.3867826,81
1657532546.69745,9612.3867862,73
1657532546.69745,9612.3867919,73
1657532546.69745,9612.3867952,76
1657532546.69745,9612.3867985,76
1657532546.69745,9612.3868022,69
1657532546.69745,9612.38681,69
1657532546.69745,9612.3868142,138
1657532546.69745,9612.3868201,407
1657532546.69745,9612.3868273,915
1657532546.69745,9612.3868376,1204
1657532546.69745,9612.3868427,698
1657532546.69745,9612.3868549,-212
1657532546.69745,9612.3868671,-472
1657532547.31961,9612.3868732,-57
1657532547.31961,9612.3868829,112
1657532547.31961,9612.3868949,-40
1657532547.31961,9612.3869038,-30
1657532547.31961,9612.3869092,40
1657532547.31961,9612.386915,7
1657532547.31961,9612.3869227,-9
1657532547.31961,9612.3869302,19
1657532547.31961,9612.3869368,30
1657532547.31961,9612.3869457,33
1657532547.31961,9612.3869526,40
1657532547.31961,9612.3869736,50
1657532547.31961,9612.3869926,61
1657532547.31961,9612.3869984,71
1657532547.31961,9612.3870081,81
1657532547.31961,9612.3870207,100
1657532547.31961,9612.3870288,109
1657532547.31961,9612.3870379,119
1657532547.31961,9612.3870435,133
1657532547.31961,9612.3870504,143
1657532547.31961,9612.3870593,154
1657532547.31961,9612.3870655,181
1657532547.31961,9612.3870748,202
1657532547.31961,9612.387083,216
1657532547.31961,9612.3870899,233
1657532547.31961,9612.3870932,250
1657532547.31961,9612.3870981,269
1657532547.31961,9612.3871117,288
1657532547.31961,9612.3871243,300
1657532547.31961,9612.387132,307
1657532547.31961,9612.387137,300
1657532547.31961,9612.3871456,286
1657532547.31961,9612.3871519,276
1657532547.31961,9612.3871558,255
1657532547.31961,9612.3871625,214
1657532547.31961,9612.3871681,157
1657532547.31961,9612.3871736,90
1657532547.31961,9612.3871773,38
1657532547.31961,9612.3871813,7
1657532547.31961,9612.3871852,-11
1657532547.31961,9612.3871911,-30
1657532547.31961,9612.387195,-35
1657532547.31961,9612.3872002,-40
1657532547.31961,9612.3872042,-42
1657532547.31961,9612.3872081,-33
1657532547.31961,9612.3872134,-26
1657532547.31961,9612.387217,-16
1657532547.31961,9612.3872209,-4
1657532547.31961,9612.3872265,-2
1657532547.31961,9612.3872303,0
1657532547.32958,9612.3872343,4
1657532547.32958,9612.38724,4
1657532547.32958,9612.3872443,11
1657532547.32958,9612.3872499,19
1657532547.32958,9612.3872541,19
1657532547.32958,9612.3872595,16
1657532547.32958,9613.0210945,26
1657532547.32958,9613.0211223,33
1657532547.32958,9613.0211255,33
1657532547.32958,9613.0211288,35
1657532547.32958,9613.0211311,33
1657532547.32958,9613.0211333,26
1657532547.32958,9613.0211355,23
1657532547.32958,9613.0211377,28
1657532547.32958,9613.0211398,30
1657532547.32958,9613.0211419,35
1657532547.32958,9613.021144,33
1657532547.32958,9613.021146,19
1657532547.32958,9613.02115,7
1657532547.32958,9613.0211527,9
1657532547.32958,9613.0211592,21
1657532547.32958,9613.0211811,23
1657532547.32958,9613.0211888,9
1657532547.32958,9613.0211929,-7
1657532547.80771,9613.0211983,-14
1657532547.80771,9613.0212016,-14
1657532547.80771,9613.021205,-7
1657532547.80771,9613.0212083,0
1657532547.80771,9613.0212117,7
1657532547.80771,9613.021215,4
1657532547.80771,9613.0212182,-2
1657532547.80771,9613.0212216,2
1657532547.80771,9613.0212248,14
1657532547.80771,9613.0212281,11
1657532547.80771,9613.0212319,7
1657532547.80771,9613.0212351,7
1657532547.80771,9613.0212384,11
1657532547.80771,9613.0212417,16
1657532547.80771,9613.021245,21
1657532547.80771,9613.0212482,26
1657532547.80771,9613.0212515,30
1657532547.80771,9613.0212549,33
1657532547.80771,9613.0212582,33
1657532547.80771,9613.0212616,35
1657532547.80771,9613.0212648,45
1657532547.80771,9613.0212681,47
1657532547.80771,9613.0212721,42
1657532547.80771,9613.0212754,42
1657532547.80771,9613.0212787,54
1657532547.80771,9613.021282,57
1657532547.80771,9613.0212862,54
1657532547.80771,9613.0212912,54
1657532547.80771,9613.0212945,54
1657532547.80771,9613.0212979,57
1657532547.80771,9613.0213026,73
1657532547.80771,9613.0213074,76
1657532547.80771,9613.0213107,64
1657532547.80771,9613.0213141,66
1657532547.80771,9613.021319,71
1657532547.80771,9613.0213222,64
1657532547.80771,9613.0213256,59
1657532547.80771,9613.0213303,64
1657532547.80771,9613.0213337,83
1657532547.80771,9613.0213371,116
1657532547.80771,9613.0213418,133
1657532547.80771,9613.0213467,126
1657532547.80771,9613.0213502,102
1657532547.80771,9613.0213548,76
1657532547.80771,9613.0213581,64
1657532547.80771,9613.0213616,64
1657532547.80771,9613.0213663,69
1657532547.80771,9613.0213696,66
1657532547.80771,9613.0213731,61
1657532547.80771,9613.0213782,64
1657532547.81868,9613.0213817,71
1657532547.81868,9613.0213852,81
1657532547.81868,9613.0213904,102
1657532547.81868,9613.0213951,202
1657532547.81868,9613.0213986,531
1657532547.81868,9613.5078713,1008
1657532547.81868,9613.5078903,1032
1657532547.81868,9613.5078993,252
1657532547.81868,9613.5079083,-526
1657532547.81868,9613.5079156,-414
1657532547.81868,9613.5079257,64
1657532547.81868,9613.507935,109
1657532547.81868,9613.5079435,7
1657532547.81868,9613.5079504,71
1657532547.81868,9613.5079597,90
1657532547.81868,9613.5079681,54
1657532547.81868,9613.5079751,81
1657532547.81868,9613.5079834,102
1657532547.81868,9613.507992,95
1657532547.81868,9613.5080003,92
1657532547.81868,9613.5080082,95
1657532547.81868,9613.5080171,97
1657532547.81868,9613.5080258,104
1657532547.81868,9613.5080332,104
1657532548.34093,9613.5080411,109
1657532548.34093,9613.5080482,123
1657532548.34093,9613.5080545,121
1657532548.34093,9613.5080616,116
1657532548.34093,9613.5080683,138
1657532548.34093,9613.5080752,164
1657532548.34093,9613.5080818,176
1657532548.34093,9613.508091,195
1657532548.34093,9613.5080997,216
1657532548.34093,9613.5081065,233
1657532548.34093,9613.5081149,252
1657532548.34093,9613.5081217,278
1657532548.34093,9613.5081306,295
1657532548.34093,9613.5081381,317
1657532548.34093,9613.5081464,329
1657532548.34093,9613.5081535,312
1657532548.34093,9613.5081619,295
1657532548.34093,9613.5081708,293
1657532548.34093,9613.5081792,264
1657532548.34093,9613.5081865,221
1657532548.34093,9613.5081959,162
1657532548.34093,9613.5082038,78
1657532548.34093,9613.5082101,7
1657532548.34093,9613.5082183,-33
1657532548.34093,9613.5082238,-64
1657532548.34093,9613.5082281,-92
1657532548.34093,9613.508233,-95
1657532548.34093,9613.5082382,-100
1657532548.34093,9613.5082458,-104
1657532548.34093,9613.5082506,-100
1657532548.34093,9613.5082593,-90
1657532548.34093,9613.5082661,-85
1657532548.34093,9613.5082729,-76
1657532548.34093,9613.5082792,-69
1657532548.34093,9613.5082856,-61
1657532548.34093,9613.5082919,-50
1657532548.34093,9613.5083008,-40
1657532548.34093,9613.5083073,-33
1657532548.34093,9613.5083138,-23
1657532548.34093,9613.5083222,-21
1657532548.34093,9613.5083288,-19
1657532548.34093,9613.5083354,-14
1657532548.34093,9613.5083436,-9
1657532548.34093,9613.508371,-4
1657532548.34093,9613.5083811,-4
1657532548.34093,9613.5083866,-4
1657532548.34093,9613.5083907,-2
1657532548.34093,9613.5083947,2
1657532548.34093,9613.5083992,7
1657532548.34093,9613.5084033,7
1657532548.35151,9613.5084095,7
1657532548.35151,9613.5084138,9
1657532548.35151,9613.5084191,14
1657532548.35151,9613.5084228,11
1657532548.35151,9614.0442386,11
1657532548.35151,9614.0442564,7
1657532548.35151,9614.0442685,2
1657532548.35151,9614.044279,4
1657532548.35151,9614.0442869,7
1657532548.35151,9614.0442932,-4
1657532548.35151,9614.044301,-9
1657532548.35151,9614.0443068,-2
1657532548.35151,9614.0443101,2
1657532548.35151,9614.0443135,-2
1657532548.35151,9614.0443215,-2
1657532548.35151,9614.0443268,-9
1657532548.35151,9614.0443338,-19
1657532548.35151,9614.0443417,-14
1657532548.35151,9614.0443508,-2
1657532548.35151,9614.0443572,-2
1657532548.35151,9614.0443647,0
1657532548.35151,9614.0443722,7
1657532548.35151,9614.0443847,11
1657532548.35151,9614.0443963,16
1657532548.92885,9614.0444054,21
1657532548.92885,9614.0444159,23
1657532548.92885,9614.0444246,26
1657532548.92885,9614.0444322,30
1657532548.92885,9614.0444386,33
1657532548.92885,9614.0444511,35
1657532548.92885,9614.0444603,42
1657532548.92885,9614.0444791,45
1657532548.92885,9614.044491,47
1657532548.92885,9614.0444959,52
1657532548.92885,9614.0444999,52
1657532548.92885,9614.0445035,52
1657532548.92885,9614.0445071,50
1657532548.92885,9614.0445107,40
1657532548.92885,9614.0445143,35
1657532548.92885,9614.0445178,50
1657532548.92885,9614.0445214,81
1657532548.92885,9614.044525,112
1657532548.92885,9614.0445285,131
1657532548.92885,9614.0445321,114
1657532548.92885,9614.0445356,78
1657532548.92885,9614.0445401,61
1657532548.92885,9614.0445436,64
1657532548.92885,9614.0445489,66
1657532548.92885,9614.0445526,61
1657532548.92885,9614.0445568,59
1657532548.92885,9614.0445605,64
1657532548.92885,9614.0445642,73
1657532548.92885,9614.0445695,78
1657532548.92885,9614.0445729,90
1657532548.92885,9614.0445766,128
1657532548.92885,9614.0445817,295
1657532548.92885,9614.0445863,732
1657532548.92885,9614.0445917,1158
1657532548.92885,9614.0445955,918
1657532548.92885,9614.044599,16
1657532548.92885,9614.0446025,-522
1657532548.92885,9614.0446062,-200
1657532548.92885,9614.0446114,147
1657532548.92885,9614.0446149,54
1657532548.92885,9614.0446184,4
1657532548.92885,9614.0446305,102
1657532548.92885,9614.044634,90
1657532548.92885,9614.0446374,52
1657532548.92885,9614.0446408,83
1657532548.92885,9614.0446443,95
1657532548.92885,9614.0446477,90
1657532548.92885,9614.0446511,107
1657532548.92885,9614.0446545,109
1657532548.92885,9614.0446578,104
1657532548.94081,9614.0446612,112
1657532548.94081,9614.0446648,126
1657532548.94081,9614.0446685,131
1657532548.94081,9614.6287929,135
1657532548.94081,9614.628812,140
1657532548.94081,9614.6288193,147
1657532548.94081,9614.628824,154
1657532548.94081,9614.6288292,169
1657532548.94081,9614.6288326,190
1657532548.94081,9614.6288369,212
1657532548.94081,9614.6288493,224
1657532548.94081,9614.6288553,224
1657532548.94081,9614.6288601,228
1657532548.94081,9614.6288692,247
1657532548.94081,9614.628876,269
1657532548.94081,9614.6288837,281
1657532548.94081,9614.6288898,283
1657532548.94081,9614.6288945,274
1657532548.94081,9614.6288996,250
1657532548.94081,9614.6289045,236
1657532548.94081,9614.6289098,219
1657532548.94081,9614.6289169,176
1657532548.94081,9614.6289243,114
1657532548.94081,9614.6289305,45
1657532549.56204,9614.6289374,-19
1657532549.56204,9614.6289429,-59
1657532549.56204,9614.6289482,-76
1657532549.56204,9614.6289534,-85
1657532549.56204,9614.6289587,-92
1657532549.56204,9614.6289639,-95
1657532549.56204,9614.6289692,-90
1657532549.56204,9614.6289742,-81
1657532549.56204,9614.6289806,-69
1657532549.56204,9614.6289863,-61
1657532549.56204,9614.6289928,-54
1657532549.56204,9614.6290073,-52
1657532549.56204,9614.6290163,-50
1657532549.56204,9614.6290191,-42
1657532549.56204,9614.6290214,-30
1657532549.56204,9614.6290234,-21
1657532549.56204,9614.6290255,-14
1657532549.56204,9614.6290277,-9
1657532549.56204,9614.6290304,-4
1657532549.56204,9614.6290326,0
1657532549.56204,9614.6290347,4
1657532549.56204,9614.6290367,7
1657532549.56204,9614.6290387,14
1657532549.56204,9614.6290408,16
1657532549.56204,9614.629043,16
1657532549.56204,9614.629045,14
1657532549.56204,9614.629047,21
1657532549.56204,9614.629049,26
1657532549.56204,9614.6290511,23
1657532549.56204,9614.6290531,23
1657532549.56204,9614.6290559,30
1657532549.56204,9614.629058,35
1657532549.56204,9614.62906,35
1657532549.56204,9614.6290621,38
1657532549.56204,9614.6290641,42
1657532549.56204,9614.6290662,45
1657532549.56204,9614.6290683,50
1657532549.56204,9614.6290704,52
1657532549.56204,9614.6290724,52
1657532549.56204,9614.6290746,45
1657532549.56204,9614.6290774,38
1657532549.56204,9614.62908,42
1657532549.56204,9614.6290821,47
1657532549.56204,9614.6290842,45
1657532549.56204,9614.6290862,38
1657532549.56204,9614.6290883,40
1657532549.56204,9614.6290904,47
1657532549.56204,9614.6290925,50
1657532549.56204,9614.6290946,52
1657532549.56204,9614.6290967,57
1657532549.574,9614.6290988,57
1657532549.574,9614.6291009,54
1657532549.574,9615.2625644,59
1657532549.574,9615.2625865,64
1657532549.574,9615.2625977,64
1657532549.574,9615.2626063,66
1657532549.574,9615.2626141,71
1657532549.574,9615.2626216,71
1657532549.574,9615.2626311,71
1657532549.574,9615.2626434,76
1657532549.574,9615.2626569,81
1657532549.574,9615.262663,76
1657532549.574,9615.2626684,73
1657532549.574,9615.2626753,69
1657532549.574,9615.2626793,59
1657532549.574,9615.2626839,59
1657532549.574,9615.2626909,64
1657532549.574,9615.2626972,66
1657532549.574,9615.2627036,71
1657532549.574,9615.2627085,64
1657532549.574,9615.2627148,42
1657532549.574,9615.2627191,30
1657532549.574,9615.2627257,30
1657532549.574,9615.2627297,33
1657532550.05062,9615.2627358,47
1657532550.05062,9615.2627398,78
1657532550.05062,9615.262744,102
1657532550.05062,9615.2627495,102
1657532550.05062,9615.2628225,76
1657532550.05062,9615.262845,52
1657532550.05062,9615.2628514,50
1657532550.05062,9615.2628576,54
1657532550.05062,9615.2628621,52
1657532550.05062,9615.2628668,42
1657532550.05062,9615.262873,45
1657532550.05062,9615.2628769,59
1657532550.05062,9615.2628941,71
1657532550.05062,9615.2628982,78
1657532550.05062,9615.2629163,95
1657532550.05062,9615.2629209,174
1657532550.05062,9615.262925,488
1657532550.05062,9615.2629296,1022
1657532550.05062,9615.2629342,1194
1657532550.05062,9615.262941,522
1657532550.05062,9615.2629453,-345
1657532550.05062,9615.2629514,-417
1657532550.05062,9615.2629562,35
1657532550.05062,9615.2629625,128
1657532550.05062,9615.2629671,0
1657532550.05062,9615.2629725,52
1657532550.05062,9615.262976,92
1657532550.05062,9615.2629814,47
1657532550.05062,9615.2629854,66
1657532550.05062,9615.262989,100
1657532550.05062,9615.2629928,90
1657532550.05062,9615.2629973,90
1657532550.05062,9615.2630063,102
1657532550.05062,9615.2630121,95
1657532550.05062,9615.2630171,100
1657532550.05062,9615.2630214,121
1657532550.05062,9615.2630273,126
1657532550.05062,9615.2630355,131
1657532550.05062,9615.2630406,152
1657532550.05062,9615.2630469,164
1657532550.05062,9615.2630549,166
1657532550.05062,9615.2630604,188
1657532550.05062,9615.2630689,214
1657532550.05062,9615.2630753,228
1657532550.05062,9615.2630828,236
1657532550.05062,9615.2630896,247
1657532550.05062,9615.2630981,269
1657532550.05062,9615.2631034,290
1657532550.05062,9615.2631122,305
1657532550.05062,9615.2631198,317
1657532550.06259,9615.2631222,333
1657532550.06259,9615.7506094,340
1657532550.06259,9615.7506298,333
1657532550.06259,9615.7506394,312
1657532550.06259,9615.7506443,286
1657532550.06259,9615.7506488,255
1657532550.06259,9615.7506542,197
1657532550.06259,9615.7506605,119
1657532550.06259,9615.7506673,45
1657532550.06259,9615.7506747,-14
1657532550.06259,9615.7506861,-59
1657532550.06259,9615.7506928,-73
1657532550.06259,9615.7506986,-73
1657532550.06259,9615.750707,-85
1657532550.06259,9615.7507157,-92
1657532550.06259,9615.750721,-88
1657532550.06259,9615.7507334,-83
1657532550.06259,9615.7507431,-78
1657532550.06259,9615.7508322,-61
1657532550.06259,9615.7508447,-47
1657532550.06259,9615.7508528,-38
1657532550.06259,9615.7508597,-33
1657532550.06259,9615.7508678,-35
1657532550.06259,9615.7508741,-30
1657532550.62868,9615.7508981,-14
1657532550.62868,9615.75091,-11
1657532550.62868,9615.7509202,-23
1657532550.62868,9615.7509254,-14
1657532550.62868,9615.7509303,0
1657532550.62868,9615.7509523,-9
1657532550.62868,9615.7509799,-16
1657532550.62868,9615.7510032,-9
1657532550.62868,9615.751019,-7
1657532550.62868,9615.7510282,-4
1657532550.62868,9615.7510432,2
1657532550.62868,9615.751077,0
1657532550.62868,9615.7510886,-4
1657532550.62868,9615.7510962,0
1657532550.62868,9615.751107,7
1657532550.62868,9615.7511199,14
1657532550.62868,9615.7511332,21
1657532550.62868,9615.7511464,21
1657532550.62868,9615.7511604,16
1657532550.62868,9615.7511781,21
1657532550.62868,9615.7511882,30
1657532550.62868,9615.7511959,28
1657532550.62868,9615.7512016,16
1657532550.62868,9615.7512078,9
1657532550.62868,9615.7512148,14
1657532550.62868,9615.7512224,16
1657532550.62868,9615.7512295,21
1657532550.62868,9615.7512374,30
1657532550.62868,9615.7512503,35
1657532550.62868,9615.7512635,33
1657532550.62868,9615.7512765,35
1657532550.62868,9615.7512897,45
1657532550.62868,9615.7513029,45
1657532550.62868,9615.7513113,42
1657532550.62868,9615.7513139,47
1657532550.62868,9615.7513161,57
1657532550.62868,9615.7513182,54
1657532550.62868,9615.7513204,54
1657532550.62868,9615.7513225,61
1657532550.62868,9615.7513245,64
1657532550.62868,9615.7513266,64
1657532550.62868,9615.7513295,69
1657532550.62868,9615.7513318,71
1657532550.62868,9615.7513339,69
1657532550.62868,9615.7513359,73
1657532550.62868,9615.751338,81
1657532550.62868,9615.7513401,81
1657532550.62868,9615.7513421,78
1657532550.62868,9615.7513442,88
1657532550.62868,9615.7513464,88
1657532550.63965,9616.3358036,78
1657532550.63965,9616.3358244,78
1657532550.63965,9616.3358321,81
1657532550.63965,9616.3358369,73
1657532550.63965,9616.3358406,73
1657532550.63965,9616.335846,97
1657532550.63965,9616.3358496,131
1657532550.63965,9616.335853,145
1657532550.63965,9616.3358575,126
1657532550.63965,9616.3358625,97
1657532550.63965,9616.3358675,83
1657532550.63965,9616.335873,73
1657532550.63965,9616.3358799,57
1657532550.63965,9616.3358869,54
1657532550.63965,9616.3358934,61
1657532550.63965,9616.3359,66
1657532550.63965,9616.3359041,69
1657532550.63965,9616.3359093,66
1657532550.63965,9616.3359162,59
1657532550.63965,9616.3359228,92
1657532550.63965,9616.3359273,255
1657532550.63965,9616.3359338,653
1657532550.63965,9616.3359379,1077
1657532550.63965,9616.3359431,887
1657532551.1167,9616.3359484,-19
1657532551.1167,9616.3359552,-610
1657532551.1167,9616.3359591,-281
1657532551.1167,9616.3359637,128
1657532551.1167,9616.3359682,66
1657532551.1167,9616.3359734,7
1657532551.1167,9616.3359776,92
1657532551.1167,9616.3359864,95
1657532551.1167,9616.3359906,71
1657532551.1167,9616.3359956,102
1657532551.1167,9616.3360002,116
1657532551.1167,9616.3360049,107
1657532551.1167,9616.3360095,119
1657532551.1167,9616.3360131,123
1657532551.1167,9616.3360185,114
1657532551.1167,9616.3360605,119
1657532551.1167,9616.336079,133
1657532551.1167,9616.3360935,138
1657532551.1167,9616.3361006,145
1657532551.1167,9616.3361034,157
1657532551.1167,9616.3361056,169
1657532551.1167,9616.3361097,185
1657532551.1167,9616.3361227,200
1657532551.1167,9616.3361289,214
1657532551.1167,9616.3361525,231
1657532551.1167,9616.3361687,245
1657532551.1167,9616.3361822,264
1657532551.1167,9616.3361956,283
1657532551.1167,9616.3362112,298
1657532551.1167,9616.3362575,314
1657532551.1167,9616.3362689,326
1657532551.1167,9616.3362758,331
1657532551.1167,9616.3362805,324
1657532551.1167,9616.336287,309
1657532551.1167,9616.3362925,290
1657532551.1167,9616.3362955,262
1657532551.1167,9616.3362988,214
1657532551.1167,9616.336305,147
1657532551.1167,9616.3363094,71
1657532551.1167,9616.3363135,16
1657532551.1167,9616.3363188,-26
1657532551.1167,9616.3363262,-59
1657532551.1167,9616.3363333,-78
1657532551.1167,9616.3363397,-85
1657532551.1167,9616.3363431,-90
1657532551.1167,9616.3363499,-95
1657532551.1167,9616.336358,-92
1657532551.1167,9616.3363648,-85
1657532551.1167,9616.3363734,-76
1657532551.1167,9616.8231727,-64
1657532551.12768,9616.823192,-57
1657532551.12768,9616.8231973,-47
1657532551.12768,9616.8232019,-40
1657532551.12768,9616.8232064,-38
1657532551.12768,9616.8232109,-26
1657532551.12768,9616.823219,-16
1657532551.12768,9616.823227,-9
1657532551.12768,9616.8232315,-7
1657532551.12768,9616.8232406,-7
1657532551.12768,9616.8232651,-2
1657532551.12768,9616.8232691,4
1657532551.12768,9616.8232728,7
1657532551.12768,9616.8232765,2
1657532551.12768,9616.8232803,-7
1657532551.12768,9616.823284,-16
1657532551.12768,9616.8232876,-16
1657532551.12768,9616.8232912,-9
1657532551.12768,9616.8232951,-7
1657532551.12768,9616.8232988,-7
1657532551.12768,9616.8233182,-7
1657532551.12768,9616.823332,-19
1657532551.12768,9616.8233368,-23
1657532551.12768,9616.8233406,-14
1657532551.12768,9616.8233442,-4
1657532551.70469,9616.8233479,-2
1657532551.70469,9616.8233515,0
1657532551.70469,9616.823355,0
1657532551.70469,9616.8233586,-4
1657532551.70469,9616.8233622,-7
1657532551.70469,9616.8233657,-11
1657532551.70469,9616.8233692,-14
1657532551.70469,9616.8233727,-7
1657532551.70469,9616.8233762,0
1657532551.70469,9616.8233801,0
1657532551.70469,9616.8233836,7
1657532551.70469,9616.8233871,11
1657532551.70469,9616.8233906,14
1657532551.70469,9616.8233941,23
1657532551.70469,9616.8233975,23
1657532551.70469,9616.8234011,21
1657532551.70469,9616.8234046,26
1657532551.70469,9616.823408,35
1657532551.70469,9616.8234114,40
1657532551.70469,9616.8234149,45
1657532551.70469,9616.8234184,50
1657532551.70469,9616.8234219,47
1657532551.70469,9616.8234255,50
1657532551.70469,9616.823429,57
1657532551.70469,9616.8234323,59
1657532551.70469,9616.8234359,61
1657532551.70469,9616.8234394,64
1657532551.70469,9616.8234431,64
1657532551.70469,9616.8234466,64
1657532551.70469,9616.8234526,73
1657532551.70469,9616.8234589,81
1657532551.70469,9616.8234626,81
1657532551.70469,9616.8234683,78
1657532551.70469,9616.823472,69
1657532551.70469,9616.8234771,57
1657532551.70469,9616.8234808,57
1657532551.70469,9616.8234861,69
1657532551.70469,9616.8234898,100
1657532551.70469,9616.8234934,128
1657532551.70469,9616.8234968,128
1657532551.70469,9616.8235016,102
1657532551.70469,9616.8235051,83
1657532551.70469,9616.8235103,81
1657532551.70469,9616.8235138,83
1657532551.70469,9616.8235173,78
1657532551.70469,9616.8235208,76
1657532551.70469,9616.8235243,78
1657532551.70469,9616.8235277,83
1657532551.70469,9617.4080466,85
1657532551.70469,9617.4080723,100
1657532551.71666,9617.4080757,121
1657532551.71666,9617.4080794,185
1657532551.71666,9617.4080818,457
1657532551.71666,9617.408084,972
1657532551.71666,9617.408086,1213
1657532551.71666,9617.4080881,653
1657532551.71666,9617.4080903,-216
1657532551.71666,9617.4080924,-402
1657532551.71666,9617.4080945,9
1657532551.71666,9617.4080967,133
1657532551.71666,9617.4080988,-23
1657532551.71666,9617.4081009,4
1657532551.71666,9617.4081029,78
1657532551.71666,9617.4081049,47
1657532551.71666,9617.408107,42
1657532551.71666,9617.4081091,71
1657532551.71666,9617.4081112,71
1657532551.71666,9617.4081132,73
1657532551.71666,9617.4081154,83
1657532551.71666,9617.4081174,85
1657532551.71666,9617.4081194,90
1657532551.71666,9617.4081214,97
1657532551.71666,9617.4081235,95
1657532551.71666,9617.4081255,97
1657532552.38434,9617.4081275,112
1657532552.38434,9617.4081295,121
1657532552.38434,9617.4081314,138
1657532552.38434,9617.4081333,154
1657532552.38434,9617.4081353,166
1657532552.38434,9617.4081372,183
1657532552.38434,9617.4081392,205
1657532552.38434,9617.4081412,221
1657532552.38434,9617.4081431,238
1657532552.38434,9617.4081452,262
1657532552.38434,9617.4081471,278
1657532552.38434,9617.408149,293
1657532552.38434,9617.408151,305
1657532552.38434,9617.4081529,307
1657532552.38434,9617.4081548,298
1657532552.38434,9617.4081566,290
1657532552.38434,9617.4081585,278
1657532552.38434,9617.4081604,250
1657532552.38434,9617.4081624,205
1657532552.38434,9617.4081643,133
1657532552.38434,9617.4081664,61
1657532552.38434,9617.4081684,11
1657532552.38434,9617.4081705,-23
1657532552.38434,9617.4081726,-54
1657532552.38434,9617.4081746,-71
1657532552.38434,9617.4081767,-78
1657532552.38434,9617.4081787,-83
1657532552.38434,9617.4081808,-81
1657532552.38434,9617.4081829,-71
1657532552.38434,9617.408185,-66
1657532552.38434,9617.4081871,-66
1657532552.38434,9617.4081891,-61
1657532552.38434,9617.4081911,-50
1657532552.38434,9617.4081932,-38
1657532552.38434,9617.4081954,-30
1657532552.38434,9617.4081974,-26
1657532552.38434,9617.4081994,-19
1657532552.38434,9617.4082015,-11
1657532552.38434,9617.4082036,-7
1657532552.38434,9617.4082057,0
1657532552.38434,9617.4082078,7
1657532552.38434,9617.4082099,7
1657532552.38434,9617.408212,7
1657532552.38434,9617.4082141,9
1657532552.38434,9617.4082161,14
1657532552.38434,9617.4082181,19
1657532552.38434,9617.4082202,21
1657532552.38434,9618.0909378,21
1657532552.38434,9618.0909718,21
1657532552.38434,9618.0909834,19
1657532552.39432,9618.0909877,21
1657532552.39432,9618.090993,28
1657532552.39432,9618.0909968,30
1657532552.39432,9618.0910006,33
1657532552.39432,9618.0910058,33
1657532552.39432,9618.0910111,14
1657532552.39432,9618.0910147,2
1657532552.39432,9618.0910186,11
1657532552.39432,9618.0910221,16
1657532552.39432,9618.0910258,11
1657532552.39432,9618.0910292,16
1657532552.39432,9618.0910329,7
1657532552.39432,9618.0910389,-7
1657532552.39432,9618.0910425,-4
1657532552.39432,9618.0910462,-4
1657532552.39432,9618.0910499,-4
1657532552.39432,9618.0910563,0
1657532552.39432,9618.0910744,2
1657532552.39432,9618.0910819,0
1657532552.39432,9618.0910857,4
1657532552.39432,9618.0910911,14
1657532552.39432,9618.0910946,16
1657532552.39432,9618.0911008,19
1657532552.39432,9618.091108,21
1657532552.82733,9618.0911215,23
1657532552.82733,9618.09113,28

1657532552.82733,9618.0911368,33
1657532552.82733,9618.0911415,33
1657532552.82733,9618.0911479,45
1657532552.82733,9618.091152,57
1657532552.82733,9618.0911553,45
1657532552.82733,9618.091164,40
1657532552.82733,9618.0911707,52
1657532552.82733,9618.0911752,59
1657532552.82733,9618.0911808,57
1657532552.82733,9618.0911869,54
1657532552.82733,9618.0911912,57
1657532552.82733,9618.091202,69
1657532552.82733,9618.0912069,83
1657532552.82733,9618.0912184,85
1657532552.82733,9618.0912288,64
1657532552.82733,9618.091236,45
1657532552.82733,9618.091242,54
1657532552.82733,9618.0912508,64
1657532552.82733,9618.0912629,61
1657532552.82733,9618.0912789,52
1657532552.82733,9618.091291,54
1657532552.82733,9618.0913043,78
1657532552.82733,9618.0913135,107
1657532552.82733,9618.0913181,123
1657532552.82733,9618.0913238,128
1657532552.82733,9618.091328,112
1657532552.82733,9618.0913335,83
1657532552.82733,9618.0913376,69
1657532552.82733,9618.091343,73
1657532552.82733,9618.0913488,81
1657532552.82733,9618.0913543,71
1657532552.82733,9618.0913587,66
1657532552.82733,9618.0913643,78
1657532552.82733,9618.0913771,88
1657532552.82733,9618.0913811,88
1657532552.82733,9618.0913851,100
1657532552.82733,9618.0913888,152
1657532552.82733,9618.0913928,367
1657532552.82733,9618.0913984,832
1657532552.82733,9618.0914022,1151
1657532552.82733,9618.0914059,703
1657532552.82733,9618.0914112,-255
1657532552.82733,9618.0914145,-603
1657532552.82733,9618.0914182,-133
1657532552.82733,9618.5293114,166
1657532552.82733,9618.5293379,50
1657532552.82733,9618.529341,40
1657532552.82733,9618.5293442,119
1657532552.8383,9618.5293464,102
1657532552.8383,9618.5293485,90
1657532552.8383,9618.5293506,123
1657532552.8383,9618.5293527,131
1657532552.8383,9618.5293546,121
1657532552.8383,9618.5293567,126
1657532552.8383,9618.5293588,128
1657532552.8383,9618.5293608,116
1657532552.8383,9618.5293628,114
1657532552.8383,9618.529366,128
1657532552.8383,9618.5293791,143
1657532552.8383,9618.5294,150
1657532552.8383,9618.5294027,162
1657532552.8383,9618.5294049,171
1657532552.8383,9618.5294069,178
1657532552.8383,9618.5294222,195
1657532552.8383,9618.5294243,209
1657532552.8383,9618.5294262,231
1657532552.8383,9618.5294284,259
1657532552.8383,9618.5294305,276
1657532552.8383,9618.5294325,278
1657532552.8383,9618.5294346,288
1657532552.8383,9618.5294367,317
1657532552.8383,9618.5294387,338
1657532553.41561,9618.5294408,340
1657532553.41561,9618.5294429,333
1657532553.41561,9618.5294448,324
1657532553.41561,9618.5294467,298
1657532553.41561,9618.5294486,259
1657532553.41561,9618.5294506,205
1657532553.41561,9618.5294525,133
1657532553.41561,9618.5294545,52
1657532553.41561,9618.5294565,-16
1657532553.41561,9618.5294584,-59
1657532553.41561,9618.5294604,-88
1657532553.41561,9618.5294631,-109
1657532553.41561,9618.5294651,-119
1657532553.41561,9618.529467,-128
1657532553.41561,9618.5294689,-143
1657532553.41561,9618.5294709,-150
1657532553.41561,9618.5294728,-138
1657532553.41561,9618.5294747,-97
1657532553.41561,9618.5294766,-50
1657532553.41561,9618.5294785,-35
1657532553.41561,9618.5294805,-45
1657532553.41561,9618.5294826,-47
1657532553.41561,9618.5294847,-40
1657532553.41561,9618.5294868,-35
1657532553.41561,9618.5294888,-33
1657532553.41561,9618.5294909,-26
1657532553.41561,9618.5294929,-19
1657532553.41561,9618.529495,-23
1657532553.41561,9618.5294971,-23
1657532553.41561,9618.5294991,-19
1657532553.41561,9618.5295012,-16
1657532553.41561,9618.5295033,-9
1657532553.41561,9618.5295054,-7
1657532553.41561,9618.5295074,-9
1657532553.41561,9618.5295101,-11
1657532553.41561,9618.5295121,-4
1657532553.41561,9618.5295142,-2
1657532553.41561,9618.5295163,-4
1657532553.41561,9618.5295185,-7
1657532553.41561,9618.5295206,-7
1657532553.41561,9618.5295227,-4
1657532553.41561,9618.5295249,0
1657532553.41561,9618.529527,4
1657532553.41561,9618.5295292,9
1657532553.41561,9618.5295313,9
1657532553.41561,9619.1160797,9
1657532553.41561,9619.1161076,2
1657532553.41561,9619.1161105,0
1657532553.41561,9619.1161127,7
1657532553.41561,9619.1161148,14
1657532553.42658,9619.1161169,14
1657532553.42658,9619.116119,14
1657532553.42658,9619.1161211,14
1657532553.42658,9619.1161232,4
1657532553.42658,9619.1161254,-2
1657532553.42658,9619.1161275,7
1657532553.42658,9619.1161298,16
1657532553.42658,9619.1161319,14
1657532553.42658,9619.116134,11
1657532553.42658,9619.1161362,2
1657532553.42658,9619.1161384,-9
1657532553.42658,9619.1161405,4
1657532553.42658,9619.1161426,28
1657532553.42658,9619.1161448,30
1657532553.42658,9619.1161469,23
1657532553.42658,9619.1161499,30
1657532553.42658,9619.1161521,30
1657532553.42658,9619.1161542,30
1657532553.42658,9619.1161563,38
1657532553.42658,9619.1161585,40
1657532553.42658,9619.1161607,35
1657532553.42658,9619.1161647,38
1657532553.42658,9619.1161671,40
1657532553.42658,9619.1161692,35
1657532553.94494,9619.1161714,26
1657532553.94494,9619.1161735,23
1657532553.94494,9619.1161755,42
1657532553.94494,9619.1161776,73
1657532553.94494,9619.1161839,100
1657532553.94494,9619.1161915,114
1657532553.94494,9619.1162301,90
1657532553.94494,9619.1162411,57
1657532553.94494,9619.116247,57
1657532553.94494,9619.1162532,69
1657532553.94494,9619.1162578,66
1657532553.94494,9619.1162664,61
1657532553.94494,9619.1162723,64
1657532553.94494,9619.1162771,71
1657532553.94494,9619.1162822,76
1657532553.94494,9619.1162871,85
1657532553.94494,9619.1162915,104
1657532553.94494,9619.1162964,164
1657532553.94494,9619.1163016,407
1657532553.94494,9619.1163064,884
1657532553.94494,9619.1163117,1144
1657532553.94494,9619.1163175,646
1657532553.94494,9619.1163241,-221
1657532553.94494,9619.1163292,-450
1657532553.94494,9619.1163379,-19
1657532553.94494,9619.1163464,171
1657532553.94494,9619.1163558,33
1657532553.94494,9619.116365,45
1657532553.94494,9619.1163741,116
1657532553.94494,9619.1163828,81
1657532553.94494,9619.1163909,66
1657532553.94494,9619.116396,95
1657532553.94494,9619.1164002,95
1657532553.94494,9619.1164039,92
1657532553.94494,9619.1164077,114
1657532553.94494,9619.1164117,126
1657532553.94494,9619.1164155,121
1657532553.94494,9619.1164193,123
1657532553.94494,9619.1164232,119
1657532553.94494,9619.1164269,107
1657532553.94494,9619.1164309,121
1657532553.94494,9619.1164353,166
1657532553.94494,9619.1164389,202
1657532553.94494,9619.1164424,200
1657532553.94494,9619.6515159,197
1657532553.94494,9619.6515385,212
1657532553.94494,9619.6515435,224
1657532553.94494,9619.651547,245
1657532553.94494,9619.6515503,271
1657532553.94494,9619.6515533,276
1657532553.9569,9619.6515564,278
1657532553.9569,9619.6515593,295
1657532553.9569,9619.6515626,314
1657532553.9569,9619.6515669,317
1657532553.9569,9619.6515706,300
1657532553.9569,9619.6515744,276
1657532553.9569,9619.6515784,267
1657532553.9569,9619.6515987,264
1657532553.9569,9619.6516182,216
1657532553.9569,9619.651623,135
1657532553.9569,9619.6516264,59
1657532553.9569,9619.6516298,-4
1657532553.9569,9619.651633,-54
1657532553.9569,9619.6516365,-76
1657532553.9569,9619.6516399,-83
1657532553.9569,9619.6516432,-88
1657532553.9569,9619.6516466,-88
1657532553.9569,9619.6516499,-95
1657532553.9569,9619.6516532,-107
1657532553.9569,9619.6516564,-104
1657532553.9569,9619.6516597,-90
1657532553.9569,9619.6516629,-88
1657532553.9569,9619.6516672,-85
1657532553.9569,9619.6516812,-81
1657532554.48266,9619.6516864,-81
1657532554.48266,9619.6516913,-71
1657532554.48266,9619.6516976,-54
1657532554.48266,9619.6517022,-47
1657532554.48266,9619.6517073,-52
1657532554.48266,9619.6517137,-47
1657532554.48266,9619.6517172,-35
1657532554.48266,9619.6517229,-45
1657532554.48266,9619.6517279,-59
1657532554.48266,9619.6517339,-30
1657532554.48266,9619.6517407,9
1657532554.48266,9619.6517471,4
1657532554.48266,9619.6517512,-9
1657532554.48266,9619.6517555,-4
1657532554.48266,9619.6517594,0
1657532554.48266,9619.6517688,0
1657532554.48266,9619.6517747,0
1657532554.48266,9619.6517803,-4
1657532554.48266,9619.6517861,-4
1657532554.48266,9619.6517923,-4
1657532554.48266,9619.6517968,0
1657532554.48266,9619.651802,4
1657532554.48266,9619.6518088,7
1657532554.48266,9619.651829,11
1657532554.48266,9619.6518412,19
1657532554.48266,9619.6518543,21
1657532554.48266,9619.651864,21
1657532554.48266,9619.6518721,21
1657532554.48266,9619.6518769,26
1657532554.48266,9619.6518824,23
1657532554.48266,9619.6518862,19
1657532554.48266,9619.6518919,21
1657532554.48266,9619.6518954,28
1657532554.48266,9619.6519004,28
1657532554.48266,9619.6519046,33
1657532554.48266,9619.6519082,35
1657532554.48266,9619.6519119,38
1657532554.48266,9619.6519184,42
1657532554.48266,9619.6519259,47
1657532554.48266,9619.6519383,50
1657532554.48266,9619.6519654,50
1657532554.48266,9619.6519707,52
1657532554.48266,9619.6519746,59
1657532554.48266,9620.1888458,61
1657532554.48266,9620.1888616,64
1657532554.48266,9620.1888667,64
1657532554.48266,9620.1888724,64
1657532554.48266,9620.1888766,69
1657532554.48266,9620.1888823,71
1657532554.48266,9620.1888862,71
1657532554.49263,9620.18889,59
1657532554.49263,9620.1888938,28
1657532554.49263,9620.1888977,19
1657532554.49263,9620.188903,42
1657532554.49263,9620.1889069,78
1657532554.49263,9620.1889124,109
1657532554.49263,9620.1889161,119
1657532554.49263,9620.1889204,88
1657532554.49263,9620.1889259,42
1657532554.49263,9620.1889314,38
1657532554.49263,9620.188938,52
1657532554.49263,9620.1889437,50
1657532554.49263,9620.1889483,47
1657532554.49263,9620.1889535,52
1657532554.49263,9620.1889573,47
1657532554.49263,9620.1889613,47
1657532554.49263,9620.1889652,57
1657532554.49263,9620.1889705,73
1657532554.49263,9620.1889745,131
1657532554.49263,9620.1889785,388
1657532554.49263,9620.1889838,915
1657532554.49263,9620.1889886,1216
1657532554.49263,9620.1889944,703
1657532554.49263,9620.1889982,-205
1657532555.11551,9620.1890019,-457
1657532555.11551,9620.1890058,-33
1657532555.11551,9620.1890097,135
1657532555.11551,9620.1890134,-14
1657532555.11551,9620.1890172,7
1657532555.11551,9620.189021,76
1657532555.11551,9620.1890247,33
1657532555.11551,9620.1890285,38
1657532555.11551,9620.1890322,88
1657532555.11551,9620.1890363,78
1657532555.11551,9620.1890459,85
1657532555.11551,9620.1890514,140
1657532555.11551,9620.1890554,147
1657532555.11551,9620.1890608,109
1657532555.11551,9620.1890644,121
1657532555.11551,9620.1890691,154
1657532555.11551,9620.1890766,157
1657532555.11551,9620.1890839,159
1657532555.11551,9620.1890899,185
1657532555.11551,9620.189094,205
1657532555.11551,9620.1890969,202
1657532555.11551,9620.1890999,214
1657532555.11551,9620.1891091,238
1657532555.11551,9620.1891158,257
1657532555.11551,9620.1891239,271
1657532555.11551,9620.1891302,300
1657532555.11551,9620.1891366,324
1657532555.11551,9620.189143,333
1657532555.11551,9620.1891494,355
1657532555.11551,9620.1891553,386
1657532555.11551,9620.1891597,388
1657532555.11551,9620.1891643,376
1657532555.11551,9620.1891677,367
1657532555.11551,9620.1891725,343
1657532555.11551,9620.1891761,298
1657532555.11551,9620.18918,231
1657532555.11551,9620.1891847,159
1657532555.11551,9620.189188,88
1657532555.11551,9620.189193,19
1657532555.11551,9620.1891998,-21
1657532555.11551,9620.189238,-40
1657532555.11551,9620.1892439,-52
1657532555.11551,9620.8212047,-57
1657532555.11551,9620.821224,-57
1657532555.11551,9620.821232,-61
1657532555.11551,9620.821245,-54
1657532555.11551,9620.8212511,-50
1657532555.11551,9620.821256,-61
1657532555.11551,9620.8212608,-76
1657532555.11551,9620.8212655,-81
1657532555.12548,9620.8212701,-66
1657532555.12548,9620.8212746,-50
1657532555.12548,9620.8212799,-52
1657532555.12548,9620.8212843,-61
1657532555.12548,9620.8212887,-54
1657532555.12548,9620.8212937,-40
1657532555.12548,9620.821299,-38
1657532555.12548,9620.8213065,-42
1657532555.12548,9620.821313,-38
1657532555.12548,9620.82132,-35
1657532555.12548,9620.8213248,-45
1657532555.12548,9620.8213292,-40
1657532555.12548,9620.8213352,-33
1657532555.12548,9620.8213405,-30
1657532555.12548,9620.8213448,-23
1657532555.12548,9620.821349,-21
1657532555.12548,9620.8213532,-23
1657532555.12548,9620.8213572,-19
1657532555.12548,9620.8213635,-9
1657532555.12548,9620.8213683,-9
1657532555.12548,9620.8213747,-9
1657532555.12548,9620.8213785,2
1657532555.12548,9620.8213824,4
1657532555.12548,9620.8213865,-2
1657532555.65563,9620.8213913,0
1657532555.65563,9620.8213957,7
1657532555.65563,9620.8214003,9
1657532555.65563,9620.8214045,11
1657532555.65563,9620.8214094,21
1657532555.65563,9620.8214131,21
1657532555.65563,9620.8214169,21
1657532555.65563,9620.8214207,28
1657532555.65563,9620.8214248,33
1657532555.65563,9620.8214288,33
1657532555.65563,9620.8214334,33
1657532555.65563,9620.8214374,33
1657532555.65563,9620.8214411,33
1657532555.65563,9620.8214449,26
1657532555.65563,9620.8214487,21
1657532555.65563,9620.8214531,30
1657532555.65563,9620.821457,35
1657532555.65563,9620.8214617,30
1657532555.65563,9620.8214655,26
1657532555.65563,9620.8214693,33
1657532555.65563,9620.8214818,30
1657532555.65563,9620.8214862,26
1657532555.65563,9620.8214918,42
1657532555.65563,9620.8214956,83
1657532555.65563,9620.8215013,102
1657532555.65563,9620.8215054,73
1657532555.65563,9620.8215115,47
1657532555.65563,9620.8215152,54
1657532555.65563,9620.8215197,61
1657532555.65563,9620.8215253,47
1657532555.65563,9620.8215291,35
1657532555.65563,9620.8215357,38
1657532555.65563,9620.8215394,45
1657532555.65563,9620.8215461,52
1657532555.65563,9620.8215498,66
1657532555.65563,9620.8215532,97
1657532555.65563,9620.8215598,195
1657532555.65563,9620.8215705,495
1657532555.65563,9620.821579,946
1657532555.65563,9620.8215837,975
1657532555.65563,9620.82159,243
1657532555.65563,9621.3568064,-462
1657532555.65563,9621.3568238,-345
1657532555.65563,9621.3568312,76
1657532555.65563,9621.3568372,107
1657532555.65563,9621.3568423,19
1657532555.65563,9621.3568493,85
1657532555.65563,9621.3568585,112
1657532555.65563,9621.3568657,73
1657532555.65563,9621.3568764,71
1657532555.6666,9621.3568877,81
1657532555.6666,9621.3568988,85
1657532555.6666,9621.3569037,95
1657532555.6666,9621.3569059,104
1657532555.6666,9621.3569092,107
1657532555.6666,9621.3569115,100
1657532555.6666,9621.3569136,95
1657532555.6666,9621.3569159,109
1657532555.6666,9621.356918,128
1657532555.6666,9621.3569258,138
1657532555.6666,9621.3569369,147
1657532555.6666,9621.3569416,159
1657532555.6666,9621.3569439,171
1657532555.6666,9621.356946,181
1657532555.6666,9621.3569492,195
1657532555.6666,9621.3569622,216
1657532555.6666,9621.3569687,233
1657532555.6666,9621.3569718,243
1657532555.6666,9621.3569739,255
1657532555.6666,9621.356982,271
1657532555.6666,9621.3569928,286
1657532555.6666,9621.3569974,293
1657532555.6666,9621.3569996,295
1657532555.6666,9621.3570034,290
1657532556.23682,9621.3570166,278
1657532556.23682,9621.3570212,255
1657532556.23682,9621.3570235,219
1657532556.23682,9621.3570256,162
1657532556.23682,9621.3570281,85
1657532556.23682,9621.3570354,16
1657532556.23682,9621.3570424,-28
1657532556.23682,9621.3570472,-50
1657532556.23682,9621.3570524,-61
1657532556.23682,9621.3570579,-71
1657532556.23682,9621.3570636,-83
1657532556.23682,9621.3570725,-85
1657532556.23682,9621.3570767,-78
1657532556.23682,9621.357081,-71
1657532556.23682,9621.357083,-64
1657532556.23682,9621.3570851,-52
1657532556.23682,9621.3570874,-45
1657532556.23682,9621.3570894,-40
1657532556.23682,9621.3570915,-33
1657532556.23682,9621.3570976,-28
1657532556.23682,9621.357109,-26
1657532556.23682,9621.3571146,-28
1657532556.23682,9621.3571202,-21
1657532556.23682,9621.3571342,-9
1657532556.23682,9621.3571466,-11
1657532556.23682,9621.3571597,-21
1657532556.23682,9621.3571725,-21
1657532556.23682,9621.3571895,-11
1657532556.23682,9621.3572318,-7
1657532556.23682,9621.3572408,-14
1657532556.23682,9621.3572477,-16
1657532556.23682,9621.3572579,-16
1657532556.23682,9621.3572649,-19
1657532556.23682,9621.3572744,-19
1657532556.23682,9621.3572809,-19
1657532556.23682,9621.3572894,-19
1657532556.23682,9621.357296,-14
1657532556.23682,9621.3573046,-9
1657532556.23682,9621.3573108,-11
1657532556.23682,9621.3573192,-11
1657532556.23682,9621.943094,-7
1657532556.23682,9621.9431125,-7
1657532556.23682,9621.9431214,-4
1657532556.23682,9621.9431284,0
1657532556.23682,9621.9431356,4
1657532556.23682,9621.9431411,7
1657532556.23682,9621.9431477,7
1657532556.23682,9621.9431566,9
1657532556.23682,9621.9431699,16
1657532556.23682,9621.9431856,26
1657532556.24879,9621.9431966,19
1657532556.24879,9621.9432051,7
1657532556.24879,9621.9432089,0
1657532556.24879,9621.9432223,0
1657532556.24879,9621.943232,4
1657532556.24879,9621.9432417,9
1657532556.24879,9621.9432504,4
1657532556.24879,9621.9432578,-16
1657532556.24879,9621.9432685,-30
1657532556.24879,9621.9432762,-14
1657532556.24879,9621.9432856,16
1657532556.24879,9621.9432967,42
1657532556.24879,9621.9433075,66
1657532556.24879,9621.9433198,61
1657532556.24879,9621.9433262,26
1657532556.24879,9621.9433325,16
1657532556.24879,9621.9433456,28
1657532556.24879,9621.9433541,35
1657532556.24879,9621.9433577,35
1657532556.24879,9621.9433718,40
1657532556.24879,9621.9433788,33
1657532556.24879,9621.9433848,33
1657532556.24879,9621.9433912,50
1657532556.24879,9621.9433969,78
1657532556.76991,9621.9434043,140
1657532556.76991,9621.9434111,383
1657532556.76991,9621.943417,889
1657532556.76991,9621.9434212,1201
1657532556.76991,9621.9434261,717
1657532556.76991,9621.9434298,-140
1657532556.76991,9621.9434335,-326
1657532556.76991,9621.9434373,59
1657532556.76991,9621.9434413,131
1657532556.76991,9621.943445,-19
1657532556.76991,9621.9434488,28
1657532556.76991,9621.9434526,90
1657532556.76991,9621.9434564,52
1657532556.76991,9621.9434601,57
1657532556.76991,9621.9434638,90
1657532556.76991,9621.9434676,85
1657532556.76991,9621.9434716,81
1657532556.76991,9621.9434756,104
1657532556.76991,9621.9434819,114
1657532556.76991,9621.9434862,116
1657532556.76991,9621.9434901,131
1657532556.76991,9621.943494,140
1657532556.76991,9621.9434998,143
1657532556.76991,9621.9435037,159
1657532556.76991,9621.9435078,178
1657532556.76991,9621.9435466,188
1657532556.76991,9621.9435599,195
1657532556.76991,9621.9435677,207
1657532556.76991,9621.9435731,221
1657532556.76991,9621.9435875,236
1657532556.76991,9621.9435928,250
1657532556.76991,9621.9435999,267
1657532556.76991,9621.9436049,281
1657532556.76991,9621.9436118,288
1657532556.76991,9621.9436186,298
1657532556.76991,9621.9436243,302
1657532556.76991,9621.9436308,307
1657532556.76991,9621.9436361,312
1657532556.76991,9621.9436426,312
1657532556.76991,9622.4781101,298
1657532556.76991,9622.4781267,262
1657532556.76991,9622.478137,205
1657532556.76991,9622.4781434,143
1657532556.76991,9622.4781457,88
1657532556.76991,9622.4781477,45
1657532556.76991,9622.4781498,23
1657532556.76991,9622.4781519,14
1657532556.76991,9622.4781541,0
1657532556.76991,9622.4781563,-4
1657532556.76991,9622.4781585,0
1657532556.78088,9622.4781606,4
1657532556.78088,9622.4781628,0
1657532556.78088,9622.4781719,-2
1657532556.78088,9622.4781804,-7
1657532556.78088,9622.478183,-11
1657532556.78088,9622.4781851,4
1657532556.78088,9622.4781873,23
1657532556.78088,9622.4781895,26
1657532556.78088,9622.4781915,33
1657532556.78088,9622.4781937,52
1657532556.78088,9622.4781958,54
1657532556.78088,9622.478198,40
1657532556.78088,9622.4782,28
1657532556.78088,9622.4782021,26
1657532556.78088,9622.4782042,19
1657532556.78088,9622.4782115,-4
1657532556.78088,9622.4782247,-7
1657532556.78088,9622.478236,28
1657532556.78088,9622.4782531,50
1657532556.78088,9622.4782645,40
1657532556.78088,9622.4782822,42
1657532556.78088,9622.4782912,42
1657532556.78088,9622.4782943,30
1657532556.78088,9622.4783033,26
1657532557.35821,9622.4783133,33
1657532557.35821,9622.478316,28
1657532557.35821,9622.478318,16
1657532557.35821,9622.47832,19
1657532557.35821,9622.4783219,23
1657532557.35821,9622.4783239,30
1657532557.35821,9622.4783258,57
1657532557.35821,9622.4783278,73
1657532557.35821,9622.4783348,54
1657532557.35821,9622.4783474,45
1657532557.35821,9622.4783575,59
1657532557.35821,9622.4783727,61
1657532557.35821,9622.4783868,54
1657532557.35821,9622.4783945,47
1657532557.35821,9622.4783984,35
1657532557.35821,9622.4784148,33
1657532557.35821,9622.478418,40
1657532557.35821,9622.4784211,45
1657532557.35821,9622.4784403,57
1657532557.35821,9622.4784547,76
1657532557.35821,9622.4784611,73
1657532557.35821,9622.4784647,47
1657532557.35821,9622.47847,30
1657532557.35821,9622.478478,42
1657532557.35821,9622.4784837,61
1657532557.35821,9622.4784924,71
1657532557.35821,9622.4784992,88
1657532557.35821,9622.4785085,119
1657532557.35821,9622.4785209,131
1657532557.35821,9622.478531,97
1657532557.35821,9622.4785406,73
1657532557.35821,9622.4785459,85
1657532557.35821,9622.4785591,78
1657532557.35821,9622.4785675,61
1657532557.35821,9622.4785806,71
1657532557.35821,9622.4785896,76
1657532557.35821,9622.4785921,66
1657532557.35821,9622.4785943,71
1657532557.35821,9623.0646364,107
1657532557.35821,9623.0646576,147
1657532557.35821,9623.0646714,276
1657532557.35821,9623.0646815,681
1657532557.35821,9623.0646894,1165
1657532557.35821,9623.064698,1001
1657532557.35821,9623.0647028,88
1657532557.35821,9623.0647083,-467
1657532557.35821,9623.0647121,-135
1657532557.35821,9623.0647174,171
1657532557.35821,9623.064723,40
1657532557.35821,9623.064728,-11
1657532557.36918,9623.0647327,85
1657532557.36918,9623.06474,88
1657532557.36918,9623.0647474,54
1657532557.36918,9623.0647575,66
1657532557.36918,9623.0647823,66
1657532557.36918,9623.0647929,47
1657532557.36918,9623.0647983,52
1657532557.36918,9623.0648034,69
1657532557.36918,9623.0648085,81
1657532557.36918,9623.0648136,97
1657532557.36918,9623.0648188,109
1657532557.36918,9623.0648271,95
1657532557.36918,9623.0648347,95
1657532557.36918,9623.0648416,126
1657532557.36918,9623.0648504,133
1657532557.36918,9623.0648562,126
1657532557.36918,9623.0648633,140
1657532557.36918,9623.0648684,157
1657532557.36918,9623.0648755,174
1657532557.36918,9623.0648842,200
1657532557.36918,9623.06489,202
1657532557.36918,9623.0648942,197
1657532557.36918,9623.0649001,228
1657532557.36918,9623.064908,264
1657532557.84922,9623.0649168,259
1657532557.84922,9623.0649227,247
1657532557.84922,9623.0649758,243
1657532557.84922,9623.0649853,224
1657532557.84922,9623.0649928,209
1657532557.84922,9623.065029,190
1657532557.84922,9623.0650612,150
1657532557.84922,9623.0650687,116
1657532557.84922,9623.0650722,73
1657532557.84922,9623.0650754,-4
1657532557.84922,9623.0650787,-61
1657532557.84922,9623.0650819,-52
1657532557.84922,9623.0650849,-47
1657532557.84922,9623.0650881,-69
1657532557.84922,9623.0650911,-64
1657532557.84922,9623.0650943,-33
1657532557.84922,9623.0650974,-28
1657532557.84922,9623.0651005,-35
1657532557.84922,9623.0651038,-30
1657532557.84922,9623.0651069,-33
1657532557.84922,9623.0651102,-9
1657532557.84922,9623.0651135,33
1657532557.84922,9623.0651248,28
1657532557.84922,9623.0651362,2
1657532557.84922,9623.0651435,7
1657532557.84922,9623.0651497,19
1657532557.84922,9623.0651537,-2
1657532557.84922,9623.0651594,-26
1657532557.84922,9623.0651634,11
1657532557.84922,9623.0651693,54
1657532557.84922,9623.065173,30
1657532557.84922,9623.0651796,11
1657532557.84922,9623.0651867,38
1657532557.84922,9623.065195,50
1657532557.84922,9623.0652033,38
1657532557.84922,9623.0652071,28
1657532557.84922,9623.0652117,35
1657532557.84922,9623.5501974,35
1657532557.84922,9623.5502126,16
1657532557.84922,9623.550218,11
1657532557.84922,9623.550222,50
1657532557.84922,9623.550227,83
1657532557.84922,9623.5502322,61
1657532557.84922,9623.5502358,33
1657532557.84922,9623.5502396,35
1657532557.84922,9623.5502451,9
1657532557.84922,9623.5502489,4
1657532557.84922,9623.550254,83
1657532557.84922,9623.5502577,109
1657532557.84922,9623.5502614,40
1657532557.86917,9623.5502648,7
1657532557.86917,9623.5502699,-7
1657532557.86917,9623.5502744,-21
1657532557.86917,9623.550278,-7
1657532557.86917,9623.5502816,14
1657532557.86917,9623.5502853,42
1657532557.86917,9623.5502888,50
1657532557.86917,9623.5502923,14
1657532557.86917,9623.5502973,-9
1657532557.86917,9623.5503015,-21
1657532557.86917,9623.5503049,-9
1657532557.86917,9623.5503096,19
1657532557.86917,9623.5503132,-4
1657532557.86917,9623.5503181,-7
1657532557.86917,9623.5503218,19
1657532557.86917,9623.5503267,4
1657532557.86917,9623.5503321,38
1657532557.86917,9623.5503367,95
1657532557.86917,9623.5503408,54
1657532557.86917,9623.5503458,-23
1657532557.86917,9623.5503492,-40
1657532557.86917,9623.5503526,-19
1657532557.86917,9623.5503561,-33
1657532557.86917,9623.5503596,-45
1657532558.49224,9623.5503643,35
1657532558.49224,9623.5503677,73
1657532558.49224,9623.5503839,4
1657532558.49224,9623.5503872,2
1657532558.49224,9623.5503904,81
1657532558.49224,9623.5504094,219
1657532558.49224,9623.5504127,593
1657532558.49224,9623.5504161,1020
1657532558.49224,9623.5504193,760
1657532558.49224,9623.5504238,-205
1657532558.49224,9623.550431,-698
1657532558.49224,9623.5504422,-295
1657532558.49224,9623.5504663,61
1657532558.49224,9623.5504712,-4
1657532558.49224,9623.5504932,-23
1657532558.49224,9623.5504977,83
1657532558.49224,9623.5505033,109
1657532558.49224,9623.5505068,78
1657532558.49224,9623.5505119,88
1657532558.49224,9623.5505153,102
1657532558.49224,9623.5505203,95
1657532558.49224,9623.5505248,121
1657532558.49224,9623.5505298,150
1657532558.49224,9623.5505336,123
1657532558.49224,9623.5505387,109
1657532558.49224,9623.5505423,164
1657532558.49224,9623.5505471,190
1657532558.49224,9623.5505512,164
1657532558.49224,9623.550571,181
1657532558.49224,9623.5505766,205
1657532558.49224,9623.5505985,197
1657532558.49224,9623.5506076,252
1657532558.49224,9623.550619,298
1657532558.49224,9623.5506324,259
1657532558.49224,9623.5506431,250
1657532558.49224,9623.5506475,300
1657532558.49224,9624.186461,340
1657532558.49224,9624.1864819,348
1657532558.49224,9624.1864913,331
1657532558.49224,9624.1864975,333
1657532558.49224,9624.186502,348
1657532558.49224,9624.1865061,317
1657532558.49224,9624.1865093,298
1657532558.49224,9624.1865121,312
1657532558.49224,9624.186515,274
1657532558.49224,9624.1865178,212
1657532558.49224,9624.1865351,164
1657532558.49224,9624.1865417,78
1657532558.49224,9624.186546,2
1657532558.49224,9624.1865498,-38
1657532558.51518,9624.1865534,-71
1657532558.51518,9624.1865566,-73
1657532558.51518,9624.1865596,-47
1657532558.51518,9624.1865627,-42
1657532558.51518,9624.1865658,-50
1657532558.51518,9624.1865689,-54
1657532558.51518,9624.1865718,-38
1657532558.51518,9624.1865748,-19
1657532558.51518,9624.1865779,-26
1657532558.51518,9624.1865809,-7
1657532558.51518,9624.1865842,30
1657532558.51518,9624.1865872,19
1657532558.51518,9624.1865909,-9
1657532558.51518,9624.1866017,-19
1657532558.51518,9624.1866056,-4
1657532558.51518,9624.1866092,42
1657532558.51518,9624.1866127,85
1657532558.51518,9624.1866165,78
1657532558.51518,9624.1866186,42
1657532558.51518,9624.1866208,21
1657532558.51518,9624.1866229,16
1657532558.51518,9624.186625,9
1657532558.51518,9624.1866271,4
1657532558.51518,9624.1866292,14
1657532559.0697,9624.1866313,33
1657532559.0697,9624.1866334,21
1657532559.0697,9624.1866354,14
1657532559.0697,9624.1866374,52
1657532559.0697,9624.1866393,61
1657532559.0697,9624.1866413,30
1657532559.0697,9624.1866433,19
1657532559.0697,9624.1866454,9
1657532559.0697,9624.1866474,0
1657532559.0697,9624.1866494,14
1657532559.0697,9624.1866514,28
1657532559.0697,9624.1866533,47
1657532559.0697,9624.1866553,78
1657532559.0697,9624.1866573,66
1657532559.0697,9624.1866593,35
1657532559.0697,9624.1866612,42
1657532559.0697,9624.1866631,54
1657532559.0697,9624.186665,33
1657532559.0697,9624.186667,28
1657532559.0697,9624.1866691,50
1657532559.0697,9624.186671,57
1657532559.0697,9624.1866729,66
1657532559.0697,9624.1866749,90
1657532559.0697,9624.1866769,66
1657532559.0697,9624.1866825,35
1657532559.0697,9624.1866846,57
1657532559.0697,9624.1866867,61
1657532559.0697,9624.1866889,45
1657532559.0697,9624.1866909,92
1657532559.0697,9624.186693,143
1657532559.0697,9624.1866952,90
1657532559.0697,9624.1866973,38
1657532559.0697,9624.1866994,66
1657532559.0697,9624.1867016,76
1657532559.0697,9624.1867037,52
1657532559.0697,9624.7696246,40
1657532559.0697,9624.7696439,11
1657532559.0697,9624.7696522,11
1657532559.0697,9624.7696566,92
1657532559.0697,9624.7696634,195
1657532559.0697,9624.7696678,467
1657532559.0697,9624.7696738,1013
1657532559.0697,9624.7696785,1165
1657532559.0697,9624.7696839,410
1657532559.0697,9624.7696878,-383
1657532559.0697,9624.7696927,-286
1657532559.0697,9624.7696968,107
1657532559.0697,9624.7697009,66
1657532559.0697,9624.7697067,-38
1657532559.0697,9624.7697116,61
1657532559.09163,9624.7697169,76
1657532559.09163,9624.7697208,9
1657532559.09163,9624.7697257,40
1657532559.09163,9624.7697289,83
1657532559.09163,9624.7697334,59
1657532559.09163,9624.7697364,38
1657532559.09163,9624.7697394,11
1657532559.09163,9624.7697424,9
1657532559.09163,9624.7697454,81
1657532559.09163,9624.7697625,114
1657532559.09163,9624.7697837,85
1657532559.09163,9624.7697905,88
1657532559.09163,9624.7698624,95
1657532559.09163,9624.7698678,76
1657532559.09163,9624.769884,66
1657532559.09163,9624.7698869,100
1657532559.09163,9624.7698929,171
1657532559.09163,9624.7699051,181
1657532559.09163,9624.7699279,140
1657532559.09163,9624.7699315,171
1657532559.09163,9624.769953,233
1657532559.09163,9624.7699564,231
1657532559.09163,9624.7699599,216
1657532559.09163,9624.7699634,228
1657532559.60777,9624.769967,216
1657532559.60777,9624.7699691,195
1657532559.60777,9624.7699712,228
1657532559.60777,9624.7699867,288
1657532559.60777,9624.7699886,274
1657532559.60777,9624.7699905,188
1657532559.60777,9624.7699924,123
1657532559.60777,9624.7699944,90
1657532559.60777,9624.7700101,35
1657532559.60777,9624.7700122,-26
1657532559.60777,9624.7700141,-71
1657532559.60777,9624.770016,-66
1657532559.60777,9624.7700179,-26
1657532559.60777,9624.77002,-30
1657532559.60777,9624.7700219,-52
1657532559.60777,9624.7700238,-33
1657532559.60777,9624.7700257,-14
1657532559.60777,9624.7700306,-14
1657532559.60777,9624.7700327,-11
1657532559.60777,9624.7700348,-19
1657532559.60777,9624.7700369,-19
1657532559.60777,9624.7700391,-14
1657532559.60777,9624.7700412,-21
1657532559.60777,9624.7700563,-19
1657532559.60777,9624.7700583,4
1657532559.60777,9624.7700603,16
1657532559.60777,9624.7700624,-7
1657532559.60777,9624.7700779,-35
1657532559.60777,9624.7700802,2
1657532559.60777,9624.7700826,57
1657532559.60777,9624.7700848,35
1657532559.60777,9624.7700869,2
1657532559.60777,9624.770089,0
1657532559.60777,9624.7700912,-11
1657532559.60777,9625.3053809,-9
1657532559.60777,9625.3054067,7
1657532559.60777,9625.3054122,23
1657532559.60777,9625.3054162,47
1657532559.60777,9625.30542,47
1657532559.60777,9625.3054235,30
1657532559.60777,9625.3054268,33
1657532559.60777,9625.3054311,23
1657532559.60777,9625.305436,-2
1657532559.60777,9625.3054425,14
1657532559.60777,9625.3054487,57
1657532559.60777,9625.305453,66
1657532559.60777,9625.3054574,35
1657532559.60777,9625.305462,11
1657532559.60777,9625.3054668,14
1657532559.60777,9625.3054708,45
1657532559.62472,9625.3054739,54
1657532559.62472,9625.3054774,2
1657532559.62472,9625.3054806,-33
1657532559.62472,9625.3054855,9
1657532559.62472,9625.3054922,30
1657532559.62472,9625.3055025,0
1657532559.62472,9625.3055055,23
1657532559.62472,9625.3055077,61
1657532559.62472,9625.3055098,64
1657532559.62472,9625.3055118,85
1657532559.62472,9625.3055139,88
1657532559.62472,9625.3055159,30
1657532559.62472,9625.3055184,-4
1657532559.62472,9625.3055266,45
1657532559.62472,9625.3055377,90
1657532559.62472,9625.3055418,42
1657532559.62472,9625.3055457,9
1657532559.62472,9625.3055477,54
1657532559.62472,9625.305552,90
1657532559.62472,9625.3055654,71
1657532559.62472,9625.305572,57
1657532559.62472,9625.3055751,104
1657532559.62472,9625.3055776,355
1657532559.62472,9625.3055797,841
1657532560.13589,9625.3055819,1094
1657532560.13589,9625.305584,569
1657532560.13589,9625.3055918,-302
1657532560.13589,9625.3056005,-517
1657532560.13589,9625.3056081,-69
1657532560.13589,9625.3056346,152
1657532560.13589,9625.3056483,33
1657532560.13589,9625.3056582,35
1657532560.13589,9625.3056634,107
1657532560.13589,9625.3056694,81
1657532560.13589,9625.3056795,66
1657532560.13589,9625.3056848,85
1657532560.13589,9625.3056869,73
1657532560.13589,9625.3056904,47
1657532560.13589,9625.3057115,42
1657532560.13589,9625.3057198,85
1657532560.13589,9625.305736,154
1657532560.13589,9625.3057424,166
1657532560.13589,9625.3057483,133
1657532560.13589,9625.3057562,135
1657532560.13589,9625.3057705,154
1657532560.13589,9625.3057835,150
1657532560.13589,9625.3057942,157
1657532560.13589,9625.3058072,181
1657532560.13589,9625.3058213,200
1657532560.13589,9625.3058313,214
1657532560.13589,9625.3058377,233
1657532560.13589,9625.3058417,255
1657532560.13589,9625.3058482,274
1657532560.13589,9625.3058603,286
1657532560.13589,9625.305869,300
1657532560.13589,9625.3058767,319
1657532560.13589,9625.3058856,331
1657532560.13589,9625.8423759,321
1657532560.13589,9625.8423969,305
1657532560.13589,9625.8424117,288
1657532560.13589,9625.8424253,262
1657532560.13589,9625.8424376,228
1657532560.13589,9625.8424471,181
1657532560.13589,9625.8424563,114

1657532560.13589,9625.8424651,40
1657532560.13589,9625.842471,-16
1657532560.13589,9625.8424773,-59
1657532560.13589,9625.842481,-85
1657532560.13589,9625.8424845,-88
1657532560.13589,9625.8424894,-76
1657532560.13589,9625.8424966,-73
1657532560.13589,9625.842503,-90
1657532560.13589,9625.84251,-100
1657532560.13589,9625.8425157,-85
1657532560.15796,9625.8425206,-71
1657532560.15796,9625.8425258,-64
1657532560.15796,9625.8425304,-59
1657532560.15796,9625.8425349,-64
1657532560.15796,9625.8425391,-76
1657532560.15796,9625.8425427,-69
1657532560.15796,9625.842548,-54
1657532560.15796,9625.8425517,-57
1657532560.15796,9625.8425558,-54
1657532560.15796,9625.8425681,-50
1657532560.15796,9625.842574,-47
1657532560.15796,9625.8425782,-47
1657532560.15796,9625.8425835,-42
1657532560.15796,9625.8425889,-35
1657532560.15796,9625.8425945,-33
1657532560.15796,9625.8425982,-33
1657532560.15796,9625.8426022,-23
1657532560.15796,9625.8426077,-9
1657532560.15796,9625.8426116,-11
1657532560.15796,9625.8426178,-16
1657532560.15796,9625.8426237,-7
1657532560.15796,9625.8426277,4
1657532560.15796,9625.8426314,11
1657532560.15796,9625.8426368,19
1657532560.6779,9625.8426407,30
1657532560.6779,9625.8426448,33
1657532560.6779,9625.8426525,26
1657532560.6779,9625.8426563,28
1657532560.6779,9625.8426603,35
1657532560.6779,9625.8426645,38
1657532560.6779,9625.8426683,42
1657532560.6779,9625.8426762,50
1657532560.6779,9625.8426804,57
1657532560.6779,9625.8426844,57
1657532560.6779,9625.8426881,52
1657532560.6779,9625.8426918,42
1657532560.6779,9625.8426957,38
1657532560.6779,9625.8426997,50
1657532560.6779,9625.8427035,76
1657532560.6779,9625.8427073,107
1657532560.6779,9625.8427112,131
1657532560.6779,9625.8427151,126
1657532560.6779,9625.8427189,100
1657532560.6779,9625.8427233,76
1657532560.6779,9625.8427273,76
1657532560.6779,9625.8427339,81
1657532560.6779,9625.8427379,73
1657532560.6779,9625.8427595,76
1657532560.6779,9625.8427691,85
1657532560.6779,9625.8427787,81
1657532560.6779,9625.842784,81
1657532560.6779,9625.8427899,100
1657532560.6779,9625.8427994,166
1657532560.6779,9625.8428068,417
1657532560.6779,9625.8428146,872
1657532560.6779,9625.8428212,1049
1657532560.6779,9626.3798155,457
1657532560.6779,9626.37984,-407
1657532560.6779,9626.3798517,-550
1657532560.6779,9626.379858,-66
1657532560.6779,9626.379877,140
1657532560.6779,9626.3798978,28
1657532560.6779,9626.3799036,45
1657532560.6779,9626.3799094,114
1657532560.6779,9626.3799156,90
1657532560.6779,9626.3799241,83
1657532560.6779,9626.3799323,102
1657532560.6779,9626.3799401,88
1657532560.6779,9626.3799464,88
1657532560.6779,9626.3799565,114
1657532560.6779,9626.3799817,121
1657532560.6779,9626.3799861,123
1657532560.6779,9626.3799903,133
1657532560.6779,9626.3799973,123
1657532560.68887,9626.3800009,119
1657532560.68887,9626.3800043,145
1657532560.68887,9626.3800118,171
1657532560.68887,9626.3800201,183
1657532560.68887,9626.3800252,207
1657532560.68887,9626.3800305,228
1657532560.68887,9626.3800357,236
1657532560.68887,9626.3800404,259
1657532560.68887,9626.3800467,293
1657532560.68887,9626.3800546,319
1657532560.68887,9626.3800632,340
1657532560.68887,9626.38007,357
1657532560.68887,9626.3800787,369
1657532560.68887,9626.3800854,379
1657532560.68887,9626.3800922,371
1657532560.68887,9626.3801012,360
1657532560.68887,9626.3801098,360
1657532560.68887,9626.3801171,329
1657532560.68887,9626.3801234,240
1657532560.68887,9626.38013,150
1657532560.68887,9626.3801367,71
1657532560.68887,9626.3801446,2
1657532560.68887,9626.3801511,-35
1657532560.68887,9626.3801571,-54
1657532561.2131,9626.3801628,-83
1657532561.2131,9626.3801691,-112
1657532561.2131,9626.3801752,-109
1657532561.2131,9626.3801813,-83
1657532561.2131,9626.3801872,-61
1657532561.2131,9626.3801931,-61
1657532561.2131,9626.380199,-64
1657532561.2131,9626.3802048,-54
1657532561.2131,9626.380211,-45
1657532561.2131,9626.3802169,-40
1657532561.2131,9626.3802231,-42
1657532561.2131,9626.3802293,-45
1657532561.2131,9626.3802348,-45
1657532561.2131,9626.3802415,-42
1657532561.2131,9626.3802504,-33
1657532561.2131,9626.3802601,-21
1657532561.2131,9626.3802675,-28
1657532561.2131,9626.3802741,-35
1657532561.2131,9626.3802777,-26
1657532561.2131,9626.3802847,-21
1657532561.2131,9626.3802933,-28
1657532561.2131,9626.3803026,-26
1657532561.2131,9626.3803138,-16
1657532561.2131,9626.3803261,-19
1657532561.2131,9626.3803403,-19
1657532561.2131,9626.3803535,-14
1657532561.2131,9626.3803671,-21
1657532561.2131,9626.3803773,-26
1657532561.2131,9626.3803915,-28
1657532561.2131,9626.380404,-26
1657532561.2131,9626.3804133,-21
1657532561.2131,9626.9140128,-11
1657532561.2131,9626.9140409,-11
1657532561.2131,9626.9140439,-19
1657532561.2131,9626.9140463,-16
1657532561.2131,9626.9140485,-19
1657532561.2131,9626.9140507,-30
1657532561.2131,9626.9140528,-23
1657532561.2131,9626.914055,0
1657532561.2131,9626.9140572,16
1657532561.2131,9626.9140593,30
1657532561.2131,9626.9140615,47
1657532561.2131,9626.9140637,35
1657532561.2131,9626.9140658,7
1657532561.2131,9626.9140679,4
1657532561.2131,9626.914071,7
1657532561.2131,9626.9140804,-9
1657532561.2131,9626.9140913,-16
1657532561.2131,9626.9140941,-11
1657532561.2131,9626.9140964,9
1657532561.22308,9626.9140987,47
1657532561.22308,9626.9141008,50
1657532561.22308,9626.9141029,35
1657532561.22308,9626.9141064,135
1657532561.22308,9626.9141195,507
1657532561.22308,9626.9141253,1039
1657532561.22308,9626.9141297,1080
1657532561.22308,9626.914132,281
1657532561.22308,9626.914142,-495
1657532561.22308,9626.914151,-383
1657532561.22308,9626.9141536,52
1657532561.22308,9626.9141567,54
1657532561.22308,9626.9141588,-64
1657532561.22308,9626.9141609,-2
1657532561.22308,9626.914163,23
1657532561.22308,9626.9141689,-2
1657532561.22308,9626.9141803,30
1657532561.22308,9626.9141837,54
1657532561.22308,9626.9141876,38
1657532561.22308,9626.9141896,47
1657532561.22308,9626.9141916,66
1657532561.22308,9626.9141937,66
1657532561.22308,9626.9141971,83
1657532561.22308,9626.9142098,104
1657532561.89062,9626.9142156,104
1657532561.89062,9626.9142179,104
1657532561.89062,9626.9142199,133
1657532561.89062,9626.9142218,159
1657532561.89062,9626.9142246,162
1657532561.89062,9626.9142355,174
1657532561.89062,9626.9142461,197
1657532561.89062,9626.9142594,216
1657532561.89062,9626.9142686,245
1657532561.89062,9626.9142713,274
1657532561.89062,9626.9142735,281
1657532561.89062,9626.9142756,293
1657532561.89062,9626.9142777,309
1657532561.89062,9626.9142853,331
1657532561.89062,9626.9142961,345
1657532561.89062,9626.9143002,340
1657532561.89062,9626.9143042,324
1657532561.89062,9626.9143148,305
1657532561.89062,9626.9143238,262
1657532561.89062,9626.9143282,195
1657532561.89062,9626.9143303,116
1657532561.89062,9626.9143326,38
1657532561.89062,9626.9143349,-4
1657532561.89062,9626.914337,-4
1657532561.89062,9626.9143392,-19
1657532561.89062,9626.9143414,-45
1657532561.89062,9626.9143436,-57
1657532561.89062,9626.9143458,-59
1657532561.89062,9626.9143479,-50
1657532561.89062,9626.9143502,-33
1657532561.89062,9627.597683,-30
1657532561.89062,9627.5977032,-35
1657532561.89062,9627.5977114,-23
1657532561.89062,9627.5977406,-16
1657532561.89062,9627.597748,-28
1657532561.89062,9627.5977553,-40
1657532561.89062,9627.5977604,-33
1657532561.89062,9627.5977668,-21
1657532561.89062,9627.5977717,-19
1657532561.89062,9627.5977787,-14
1657532561.89062,9627.5977842,-19
1657532561.89062,9627.5977889,-33
1657532561.89062,9627.5977936,-35
1657532561.89062,9627.5978011,-23
1657532561.89062,9627.5978097,-21
1657532561.89062,9627.5978169,-23
1657532561.89062,9627.5978228,-11
1657532561.89062,9627.5978281,-11
1657532561.89062,9627.5978348,-16
1657532561.89062,9627.5978383,-14
1657532561.90159,9627.5978417,-14
1657532561.90159,9627.5978468,-19
1657532561.90159,9627.5978512,-28
1657532561.90159,9627.5978562,-40
1657532561.90159,9627.5978594,-40
1657532561.90159,9627.5978643,-30
1657532561.90159,9627.5978677,-30
1657532561.90159,9627.5978708,-33
1657532561.90159,9627.5978758,-30
1657532561.90159,9627.5978801,-26
1657532561.90159,9627.5978847,-28
1657532561.90159,9627.597888,-38
1657532561.90159,9627.5978934,-38
1657532561.90159,9627.5978975,-38
1657532561.90159,9627.5979023,-38
1657532561.90159,9627.5979055,-23
1657532561.90159,9627.5979087,2
1657532561.90159,9627.597912,26
1657532561.90159,9627.5979153,42
1657532561.90159,9627.597921,38
1657532561.90159,9627.5979248,7
1657532561.90159,9627.5979302,-16
1657532561.90159,9627.5979337,-7
1657532561.90159,9627.5979387,11
1657532562.3846,9627.5979421,23
1657532562.3846,9627.5979454,33
1657532562.3846,9627.5979488,35
1657532562.3846,9627.597952,30
1657532562.3846,9627.5979552,28
1657532562.3846,9627.5979586,30
1657532562.3846,9627.5979618,104
1657532562.3846,9627.5979651,379
1657532562.3846,9627.5979682,875
1657532562.3846,9627.5979715,1134
1657532562.3846,9627.5979748,603
1657532562.3846,9627.597978,-286
1657532562.3846,9627.5979812,-476
1657532562.3846,9627.5979843,-33
1657532562.3846,9627.5979875,126
1657532562.3846,9627.5979909,-4
1657532562.3846,9627.5979946,35
1657532562.3846,9627.5979979,104
1657532562.3846,9627.598001,59
1657532562.3846,9627.598004,52
1657532562.3846,9627.5980076,88
1657532562.3846,9627.5980136,97
1657532562.3846,9627.5980173,107
1657532562.3846,9627.5980209,128
1657532562.3846,9627.5980254,133
1657532562.3846,9627.5980301,126
1657532562.3846,9627.5980332,131
1657532562.3846,9627.5980363,147
1657532562.3846,9627.5980394,166
1657532562.3846,9628.0841128,171
1657532562.3846,9628.0841339,171
1657532562.3846,9628.0841487,197
1657532562.3846,9628.084165,238
1657532562.3846,9628.0841783,257
1657532562.3846,9628.0841903,269
1657532562.3846,9628.084199,293
1657532562.3846,9628.0842033,317
1657532562.3846,9628.08421,338
1657532562.3846,9628.0842154,357
1657532562.3846,9628.0842218,383
1657532562.3846,9628.0842279,398
1657532562.3846,9628.0842363,410
1657532562.3846,9628.084243,414
1657532562.3846,9628.0842506,391
1657532562.3846,9628.0842542,348
1657532562.3846,9628.0842577,312
1657532562.3846,9628.0842632,267
1657532562.3846,9628.0842687,185
1657532562.3846,9628.0842725,102
1657532562.3846,9628.0842761,38
1657532562.39656,9628.0842798,-16
1657532562.39656,9628.0842835,-47
1657532562.39656,9628.0842874,-64
1657532562.39656,9628.0842941,-73
1657532562.39656,9628.0842987,-71
1657532562.39656,9628.084302,-59
1657532562.39656,9628.084308,-61
1657532562.39656,9628.0843134,-66
1657532562.39656,9628.0843187,-50
1657532562.39656,9628.0843242,-35
1657532562.39656,9628.0843301,-33
1657532562.39656,9628.0843333,-35
1657532562.39656,9628.0843382,-33
1657532562.39656,9628.0843444,-33
1657532562.39656,9628.0843476,-33
1657532562.39656,9628.0843534,-21
1657532562.39656,9628.0843566,-2
1657532562.39656,9628.0843632,11
1657532562.39656,9628.0843685,14
1657532562.39656,9628.084372,-2
1657532562.39656,9628.084378,-11
1657532562.39656,9628.0843828,-2
1657532562.39656,9628.0843858,-4
1657532562.39656,9628.0843888,-19
1657532562.92291,9628.0843924,-21
1657532562.92291,9628.0843992,-16
1657532562.92291,9628.0844063,-14
1657532562.92291,9628.084414,-9
1657532562.92291,9628.0844213,4
1657532562.92291,9628.0844262,2
1657532562.92291,9628.0844326,-11
1657532562.92291,9628.0844366,-9
1657532562.92291,9628.0844416,7
1657532562.92291,9628.0844468,26
1657532562.92291,9628.0844541,30
1657532562.92291,9628.0844628,23
1657532562.92291,9628.0844702,16
1657532562.92291,9628.0844734,14
1657532562.92291,9628.0844803,21
1657532562.92291,9628.0844879,33
1657532562.92291,9628.0844945,21
1657532562.92291,9628.0845063,-7
1657532562.92291,9628.0845182,-9
1657532562.92291,9628.0845254,11
1657532562.92291,9628.084534,35
1657532562.92291,9628.0845403,69
1657532562.92291,9628.0845459,92
1657532562.92291,9628.0845531,78
1657532562.92291,9628.0845617,38
1657532562.92291,9628.0845711,9
1657532562.92291,9628.08458,9
1657532562.92291,9628.0845827,26
1657532562.92291,9628.6208091,38
1657532562.92291,9628.6208282,45
1657532562.92291,9628.6208347,40
1657532562.92291,9628.6208402,23
1657532562.92291,9628.6208458,33
1657532562.92291,9628.6208513,61
1657532562.92291,9628.620857,123
1657532562.92291,9628.6208647,362
1657532562.92291,9628.6208703,829
1657532562.92291,9628.6208758,1075
1657532562.92291,9628.6208813,557
1657532562.92291,9628.620887,-345
1657532562.92291,9628.6208926,-577
1657532562.92291,9628.6208981,-107
1657532562.92291,9628.6209045,112
1657532562.92291,9628.6209099,-16
1657532562.92291,9628.6209154,-9
1657532562.92291,9628.620921,40
1657532562.92291,9628.6209289,7
1657532562.92291,9628.6209346,33
1657532562.92291,9628.6209403,78
1657532562.92291,9628.6209476,66
1657532562.93388,9628.6209552,59
1657532562.93388,9628.6209606,81
1657532562.93388,9628.6209664,97
1657532562.93388,9628.620974,104
1657532562.93388,9628.6209797,116
1657532562.93388,9628.6209871,131
1657532562.93388,9628.6209944,147
1657532562.93388,9628.6210002,159
1657532562.93388,9628.6210076,166
1657532562.93388,9628.6210134,188
1657532562.93388,9628.6210206,209
1657532562.93388,9628.6210263,216
1657532562.93388,9628.6210338,240
1657532562.93388,9628.6210417,286
1657532562.93388,9628.6210491,290
1657532562.93388,9628.6210558,288
1657532562.93388,9628.6210635,331
1657532562.93388,9628.6210693,371
1657532562.93388,9628.6210769,374
1657532562.93388,9628.6210825,376
1657532562.93388,9628.6210884,386
1657532562.93388,9628.6210958,379
1657532562.93388,9628.6211027,352
1657532562.93388,9628.62111,309
1657532563.55541,9628.6211164,255
1657532563.55541,9628.621122,183
1657532563.55541,9628.6211273,107
1657532563.55541,9628.621133,50
1657532563.55541,9628.6211381,7
1657532563.55541,9628.621156,-21
1657532563.55541,9628.6211613,-21
1657532563.55541,9628.6211796,-23
1657532563.55541,9628.6211828,-40
1657532563.55541,9628.621186,-35
1657532563.55541,9628.6211892,-19
1657532563.55541,9628.6211933,-16
1657532563.55541,9628.6211967,-19
1657532563.55541,9628.6212017,0
1657532563.55541,9628.6212051,28
1657532563.55541,9628.6212084,28
1657532563.55541,9628.6212119,9
1657532563.55541,9628.6212173,19
1657532563.55541,9628.6212239,38
1657532563.55541,9628.6212311,33
1657532563.55541,9628.6212404,33
1657532563.55541,9628.6212473,35
1657532563.55541,9628.6212559,23
1657532563.55541,9628.6212686,38
1657532563.55541,9628.6212831,71
1657532563.55541,9628.6212956,81
1657532563.55541,9628.6213068,59
1657532563.55541,9629.2541206,47
1657532563.55541,9629.2541423,57
1657532563.55541,9629.2541578,61
1657532563.55541,9629.2541713,54
1657532563.55541,9629.2541868,47
1657532563.55541,9629.2541991,50
1657532563.55541,9629.2542049,71
1657532563.55541,9629.2542095,71
1657532563.55541,9629.2542135,45
1657532563.55541,9629.2542177,45
1657532563.55541,9629.2542218,61
1657532563.55541,9629.2542258,59
1657532563.55541,9629.2542297,54
1657532563.55541,9629.254234,61
1657532563.55541,9629.254238,64
1657532563.55541,9629.2542419,59
1657532563.55541,9629.2542459,59
1657532563.55541,9629.25425,59
1657532563.55541,9629.254254,52
1657532563.55541,9629.254258,52
1657532563.55541,9629.2542628,47
1657532563.55541,9629.2542673,47
1657532563.55541,9629.2542748,76
1657532563.56638,9629.254279,107
1657532563.56638,9629.2542832,126
1657532563.56638,9629.2542888,123
1657532563.56638,9629.254293,92
1657532563.56638,9629.2542991,61
1657532563.56638,9629.2543026,57
1657532563.56638,9629.2543061,59
1657532563.56638,9629.2543115,42
1657532563.56638,9629.254316,40
1657532563.56638,9629.2543215,66
1657532563.56638,9629.2543256,66
1657532563.56638,9629.2543291,50
1657532563.56638,9629.2543326,54
1657532563.56638,9629.2543379,107
1657532563.56638,9629.2543411,362
1657532563.56638,9629.2543453,853
1657532563.56638,9629.2543505,1082
1657532563.56638,9629.2543538,538
1657532563.56638,9629.2543573,-281
1657532563.56638,9629.2543608,-417
1657532563.56638,9629.254366,-9
1657532563.56638,9629.2543697,114
1657532563.56638,9629.2543733,-9
1657532563.56638,9629.2543783,16
1657532564.09111,9629.2543824,71
1657532564.09111,9629.2543855,47
1657532564.09111,9629.2543887,40
1657532564.09111,9629.2543922,69
1657532564.09111,9629.2543954,83
1657532564.09111,9629.2543988,85
1657532564.09111,9629.2544024,81
1657532564.09111,9629.254406,71
1657532564.09111,9629.2544095,90
1657532564.09111,9629.2544127,126
1657532564.09111,9629.2544157,126
1657532564.09111,9629.2544191,121
1657532564.09111,9629.2544235,143
1657532564.09111,9629.2544271,154
1657532564.09111,9629.2544304,152
1657532564.09111,9629.2544338,171
1657532564.09111,9629.2544392,193
1657532564.09111,9629.2544424,202
1657532564.09111,9629.2544459,226
1657532564.09111,9629.2544493,252
1657532564.09111,9629.2544529,259
1657532564.09111,9629.2544563,264
1657532564.09111,9629.2544597,288
1657532564.09111,9629.254465,321
1657532564.09111,9629.2544701,324
1657532564.09111,9629.2544751,312
1657532564.09111,9629.7908105,319
1657532564.09111,9629.7908272,307
1657532564.09111,9629.7908311,257
1657532564.09111,9629.7908335,205
1657532564.09111,9629.7908357,138
1657532564.09111,9629.7908378,61
1657532564.09111,9629.7908398,9
1657532564.09111,9629.790842,-21
1657532564.09111,9629.7908441,-45
1657532564.09111,9629.7908461,-47
1657532564.09111,9629.7908481,-59
1657532564.09111,9629.7908504,-85
1657532564.09111,9629.7908569,-81
1657532564.09111,9629.7908663,-59
1657532564.09111,9629.7908731,-47
1657532564.09111,9629.7908836,-45
1657532564.09111,9629.7908928,-47
1657532564.09111,9629.790905,-45
1657532564.09111,9629.7909146,-33
1657532564.09111,9629.7909173,-40
1657532564.09111,9629.7909213,-21
1657532564.09111,9629.7909335,14
1657532564.09111,9629.7909448,-2
1657532564.09111,9629.7909484,-26
1657532564.10009,9629.7909578,-11
1657532564.10009,9629.7909698,-4
1657532564.10009,9629.7909751,-7
1657532564.10009,9629.7909832,-7
1657532564.10009,9629.7909958,-4
1657532564.10009,9629.7910023,-4
1657532564.10009,9629.7910115,0
1657532564.10009,9629.7910241,14
1657532564.10009,9629.7910307,14
1657532564.10009,9629.791033,7
1657532564.10009,9629.7910379,11
1657532564.10009,9629.7910511,23
1657532564.10009,9629.7910597,21
1657532564.10009,9629.7910628,21
1657532564.10009,9629.7910657,28
1657532564.10009,9629.7910679,33
1657532564.10009,9629.7910699,47
1657532564.10009,9629.7910733,61
1657532564.10009,9629.7910864,59
1657532564.10009,9629.7910923,50
1657532564.10009,9629.7910953,47
1657532564.10009,9629.7910975,42
1657532564.10009,9629.7910996,54
1657532564.10009,9629.7911027,69
1657532564.57695,9629.7911156,59
1657532564.57695,9629.7911199,38
1657532564.57695,9629.7911221,28
1657532564.57695,9629.791124,42
1657532564.57695,9629.7911259,57
1657532564.57695,9629.7911278,52
1657532564.57695,9629.7911298,69
1657532564.57695,9629.7911317,107
1657532564.57695,9629.7911336,109
1657532564.57695,9629.7911354,95
1657532564.57695,9629.7911373,88
1657532564.57695,9629.7911392,54
1657532564.57695,9629.7911413,35
1657532564.57695,9629.7911432,54
1657532564.57695,9629.7911452,61
1657532564.57695,9629.7911472,66
1657532564.57695,9629.7911492,66
1657532564.57695,9629.7911595,50
1657532564.57695,9629.7911745,61
1657532564.57695,9629.7911774,83
1657532564.57695,9629.7911793,140
1657532564.57695,9629.7911815,419
1657532564.57695,9629.7911993,910
1657532564.57695,9629.7912015,1053
1657532564.57695,9629.7912036,407
1657532564.57695,9630.2786362,-367
1657532564.57695,9630.278652,-374
1657532564.57695,9630.2786566,42
1657532564.57695,9630.2786605,112
1657532564.57695,9630.2786642,-9
1657532564.57695,9630.2786703,35
1657532564.57695,9630.2786751,81
1657532564.57695,9630.27868,42
1657532564.57695,9630.2786864,54
1657532564.57695,9630.2787062,92
1657532564.57695,9630.2787255,88
1657532564.57695,9630.2787303,83
1657532564.57695,9630.2787351,95
1657532564.57695,9630.2787407,88
1657532564.57695,9630.2787454,85
1657532564.57695,9630.2787517,100
1657532564.57695,9630.2787565,119
1657532564.57695,9630.2787627,126
1657532564.57695,9630.2787666,128
1657532564.57695,9630.2787729,145
1657532564.57695,9630.2787772,166
1657532564.57695,9630.2787819,174
1657532564.57695,9630.2787857,185
1657532564.57695,9630.2787902,202
1657532564.57695,9630.2787946,216
1657532564.58891,9630.2787985,243
1657532564.58891,9630.2788031,278
1657532564.58891,9630.2788202,300
1657532564.58891,9630.2788259,312
1657532564.58891,9630.2788447,333
1657532564.58891,9630.2788512,355
1657532564.58891,9630.2788579,348
1657532564.58891,9630.2788643,321
1657532564.58891,9630.2788692,300
1657532564.58891,9630.2788891,269
1657532564.58891,9630.2789062,205
1657532564.58891,9630.2789112,131
1657532564.58891,9630.2789147,69
