Time,TimeLsl,Value
1657531715.43244,8779.517202,59
1657531715.43244,8779.5172229,50
1657531715.43244,8779.5172381,40
1657531715.43244,8779.5172682,38
1657531715.43244,8779.5172776,47
1657531715.43244,8779.5172836,57
1657531715.43244,8779.5173002,59
1657531715.43244,8779.5173098,73
1657531715.43244,8779.5173367,214
1657531715.43244,8779.5173481,641
1657531715.43244,8779.5173548,1127
1657531715.43244,8779.5173612,1006
1657531715.43244,8779.5173679,162
1657531715.43244,8779.517374,-469
1657531715.43244,8779.5173787,-269
1657531715.43244,8779.5173851,78
1657531715.43244,8779.5173896,23
1657531715.43244,8779.5173959,-47
1657531715.43244,8779.5174023,33
1657531715.43244,8779.5174076,40
1657531715.43244,8779.5174146,11
1657531715.43244,8779.5174199,38
1657531715.43244,8779.5174302,57
1657531715.43244,8779.5174347,54
1657531715.43244,8779.5174404,69
1657531715.43244,8779.5174486,81
1657531715.43244,8779.5174544,83
1657531715.43244,8779.5174584,88
1657531715.43244,8779.5174639,102
1657531715.43244,8779.517468,116
1657531715.43244,8779.5174736,123
1657531715.43244,8779.5174775,131
1657531715.43244,8779.5174846,140
1657531715.43244,8779.5174885,154
1657531715.43244,8779.5174935,171
1657531715.43244,8779.5174971,188
1657531715.43244,8779.517504,207
1657531715.43244,8779.5175078,224
1657531715.43244,8779.5175144,238
1657531715.43244,8779.517519,250
1657531715.43244,8779.5175247,267
1657531715.43244,8779.5175295,286
1657531715.43244,8779.5175357,298
1657531715.43244,8779.5175415,305
1657531715.43244,8779.5175479,302
1657531715.43244,8779.5175517,290
1657531715.43244,8779.5175569,276
1657531715.43244,8779.5175609,262
1657531715.43244,8779.5175667,228
1657531715.43244,8779.5175709,176
1657531715.64537,8779.5175765,114
1657531715.64537,8779.5175807,54
1657531715.64537,8779.5175865,11
1657531715.64537,8779.5175907,-11
1657531715.64537,8779.5176004,-26
1657531715.64537,8779.5176063,-33
1657531715.64537,8779.5176103,-38
1657531715.64537,8779.517622,-45
1657531715.64537,8779.5176283,-45
1657531715.64537,8779.5176321,-35
1657531715.64537,8779.5176376,-28
1657531715.64537,8779.5176417,-23
1657531715.64537,8779.5176455,-19
1657531715.64537,8779.5176503,-21
1657531715.64537,8779.5176542,-23
1657531715.64537,8779.5176583,-16
1657531715.64537,8779.5176639,-7
1657531715.64537,8779.5176688,-9
1657531715.64537,8779.5176775,-14
1657531715.64537,8779.5176935,-7
1657531715.64537,8779.5177085,-4
1657531715.64537,8779.5177232,-7
1657531715.64537,8779.5177372,0
1657531715.64537,8780.1981479,4
1657531715.64537,8780.1981668,7
1657531715.64537,8780.1981748,9
1657531715.64537,8780.198181,9
1657531715.64537,8780.1981875,-2
1657531715.64537,8780.1981927,-4
1657531715.64537,8780.1981973,7
1657531715.64537,8780.1982031,4
1657531715.64537,8780.1982096,-4
1657531715.64537,8780.1982152,-7
1657531715.64537,8780.1982216,-7
1657531715.64537,8780.1982287,-4
1657531715.64537,8780.1982358,0
1657531715.64537,8780.1982424,0
1657531715.64537,8780.1982518,0
1657531715.64537,8780.1982611,2
1657531715.64537,8780.1982688,-9
1657531715.64537,8780.1982763,-19
1657531715.64537,8780.1982834,-11
1657531715.64537,8780.1982913,-2
1657531715.64537,8780.1982991,-4
1657531715.64537,8780.1983025,-7
1657531715.64537,8780.1983147,-14
1657531715.64537,8780.1983263,-26
1657531715.64537,8780.1983398,-23
1657531715.64537,8780.1983514,-16
1657531715.64537,8780.1983565,-16
1657531715.70022,8780.1983628,-14
1657531715.70022,8780.198377,-7
1657531715.70022,8780.198388,-4
1657531715.70022,8780.198397,0
1657531715.70022,8780.1984028,4
1657531715.70022,8780.1984167,7
1657531715.70022,8780.1984293,11
1657531715.70022,8780.1984389,19
1657531715.70022,8780.1984428,21
1657531715.70022,8780.1984481,21
1657531715.70022,8780.1984533,19
1657531715.70022,8780.1984565,11
1657531715.70022,8780.1984614,7
1657531715.70022,8780.1984648,11
1657531715.70022,8780.1984681,28
1657531715.70022,8780.1984715,59
1657531715.70022,8780.1984763,92
1657531715.70022,8780.1984796,104
1657531715.70022,8780.1984834,83
1657531715.70022,8780.198487,59
1657531715.70022,8780.1984907,59
1657531715.70022,8780.1984945,61
1657531715.70022,8780.1984982,59
1657531715.70022,8780.198502,59
1657531715.70022,8780.1985057,64
1657531715.70022,8780.1985091,73
1657531715.70022,8780.1985126,76
1657531715.70022,8780.1985184,73
1657531715.70022,8780.1985217,85
1657531715.70022,8780.1985248,193
1657531715.70022,8780.198529,557
1657531715.70022,8780.1985346,1106
1657531715.70022,8780.1985383,1218
1657531715.70022,8780.1985421,503
1657531715.70022,8780.1985477,-293
1657531715.70022,8780.1985521,-298
1657531715.70022,8780.1985569,73
1657531715.70022,8780.1985622,85
1657531715.70022,8780.1985656,-28
1657531715.70022,8780.1985736,30
1657531715.70022,8780.1985818,54
1657531715.70022,8780.1985881,16
1657531715.70022,8780.1985964,33
1657531715.70022,8780.1986008,71
1657531715.70022,8780.1986045,78
1657531715.70022,8780.1986081,76
1657531715.70022,8780.6370033,81
1657531715.70022,8780.6370225,97
1657531715.70022,8780.6370286,107
1657531715.70022,8780.6370332,112
1657531715.72615,8780.6370824,123
1657531715.72615,8780.6370966,135
1657531715.72615,8780.6371032,143
1657531715.72615,8780.6372568,169
1657531715.72615,8780.6372663,195
1657531715.72615,8780.6372737,200
1657531715.72615,8780.6372791,214
1657531715.72615,8780.6372856,243
1657531715.72615,8780.6372912,245
1657531715.72615,8780.6372975,243
1657531715.72615,8780.6373036,271
1657531715.72615,8780.6373112,312
1657531715.72615,8780.6373199,340
1657531715.72615,8780.6373259,364
1657531715.72615,8780.6373312,379
1657531715.72615,8780.6373358,371
1657531715.72615,8780.6373419,352
1657531715.72615,8780.6373471,338
1657531715.72615,8780.637353,321
1657531715.72615,8780.6373568,283
1657531715.72615,8780.6373617,221
1657531715.72615,8780.6373683,145
1657531715.72615,8780.6373726,64
1657531715.72615,8780.6373779,4
1657531715.72615,8780.6373835,-19
1657531715.72615,8780.6373887,-33
1657531715.72615,8780.6373948,-45
1657531715.72615,8780.6373987,-57
1657531715.72615,8780.6374037,-64
1657531715.72615,8780.6374099,-50
1657531715.72615,8780.6374148,-38
1657531715.72615,8780.6375112,-40
1657531715.72615,8780.6375245,-33
1657531715.72615,8780.6375346,-23
1657531715.72615,8780.6375408,-26
1657531715.72615,8780.6375484,-21
1657531715.72615,8780.6375551,-14
1657531715.72615,8780.6375641,-11
1657531715.72615,8780.6375732,-2
1657531715.72615,8780.6375819,4
1657531715.72615,8780.6375886,2
1657531715.72615,8780.637597,0
1657531715.72615,8780.6376039,0
1657531715.72615,8780.6376124,7
1657531715.72615,8780.6376195,16
1657531715.72615,8780.6376282,16
1657531715.72615,8780.6376366,9
1657531715.72615,8780.6376409,9
1657531715.72615,8780.6376462,11
1657531715.72615,8780.6376494,4
1657531715.73712,8780.6376529,0
1657531715.73712,8780.6376564,7
1657531715.73712,8780.6376605,14
1657531715.73712,8780.6376637,11
1657531715.73712,8780.6376671,11
1657531715.73712,8780.6376708,23
1657531715.73712,8780.6376775,28
1657531715.73712,8780.6376829,23
1657531715.73712,8780.6376873,28
1657531715.73712,8780.6376904,33
1657531715.73712,8780.6376945,28
1657531715.73712,8780.6377001,30
1657531715.73712,8780.6377095,33
1657531715.73712,8780.6377163,26
1657531715.73712,8780.63772,28
1657531715.73712,8780.6377248,33
1657531715.73712,8780.6377305,35
1657531715.73712,8780.6377381,38
1657531715.73712,8780.6377455,35
1657531715.73712,8781.177302,35
1657531715.73712,8781.1773207,38
1657531715.73712,8781.1773285,45
1657531716.10455,8781.1773351,45
1657531716.10455,8781.1773403,26
1657531716.10455,8781.1773467,16
1657531716.10455,8781.1773531,30
1657531716.10455,8781.1773596,52
1657531716.10455,8781.1773661,76
1657531716.10455,8781.1773727,102
1657531716.10455,8781.1773796,100
1657531716.10455,8781.1773857,47
1657531716.10455,8781.1773902,11
1657531716.10455,8781.1773941,35
1657531716.10455,8781.1773988,57
1657531716.10455,8781.177406,40
1657531716.10455,8781.1774131,26
1657531716.10455,8781.1774186,30
1657531716.10455,8781.1774238,30
1657531716.10455,8781.1774291,35
1657531716.10455,8781.1774343,52
1657531716.10455,8781.1774395,83
1657531716.10455,8781.1774449,190
1657531716.10455,8781.1774526,512
1657531716.10455,8781.177458,980
1657531716.10455,8781.1774625,1003
1657531716.10455,8781.1774666,247
1657531716.10455,8781.1774707,-498
1657531716.10455,8781.1774748,-391
1657531716.10455,8781.1774789,52
1657531716.10455,8781.1774831,90
1657531716.10455,8781.1774872,0
1657531716.10455,8781.1774911,69
1657531716.10455,8781.1774958,97
1657531716.10455,8781.1775003,71
1657531716.10455,8781.1775046,88
1657531716.10455,8781.1775096,97
1657531716.10455,8781.1775149,88
1657531716.10455,8781.1775212,100
1657531716.10455,8781.1775266,119
1657531716.10455,8781.1775345,121
1657531716.10455,8781.1775426,116
1657531716.10455,8781.177549,123
1657531716.10455,8781.1775585,138
1657531716.10455,8781.1775698,140
1657531716.10455,8781.1775783,135
1657531716.10455,8781.1775837,147
1657531716.10455,8781.1775876,162
1657531716.10455,8781.1775907,171
1657531716.10455,8781.177595,183
1657531716.10455,8781.177598,205
1657531716.10455,8781.1776007,221
1657531716.10455,8781.1776035,238
1657531716.11584,8781.1776062,252
1657531716.11584,8781.1776095,264
1657531716.11584,8781.1776122,274
1657531716.11584,8781.1776149,290
1657531716.11584,8781.1776175,298
1657531716.11584,8781.1776201,295
1657531716.11584,8781.1776228,286
1657531716.11584,8781.1776255,269
1657531716.11584,8781.1776281,245
1657531716.11584,8781.1776307,212
1657531716.11584,8781.1776333,159
1657531716.11584,8781.1776359,95
1657531716.11584,8781.1776387,40
1657531716.11584,8781.1776416,4
1657531716.11584,8781.1776444,-26
1657531716.11584,8781.177647,-50
1657531716.11584,8781.1776512,-59
1657531716.11584,8781.1776539,-54
1657531716.11584,8781.1776566,-52
1657531716.11584,8781.1776592,-52
1657531716.11584,8781.8087141,-47
1657531716.11584,8781.8087298,-38
1657531716.11584,8781.8087341,-26
1657531716.11584,8781.8087395,-14
1657531716.64646,8781.8087432,-4
1657531716.64646,8781.8087469,-2
1657531716.64646,8781.8087504,-2
1657531716.64646,8781.8087539,-9
1657531716.64646,8781.8087574,-7
1657531716.64646,8781.8087609,4
1657531716.64646,8781.8087644,11
1657531716.64646,8781.8087679,11
1657531716.64646,8781.8087713,11
1657531716.64646,8781.8087748,2
1657531716.64646,8781.8087783,-2
1657531716.64646,8781.8087818,2
1657531716.64646,8781.8087854,7
1657531716.64646,8781.8087888,7
1657531716.64646,8781.8087924,7
1657531716.64646,8781.8087959,7
1657531716.64646,8781.8087995,0
1657531716.64646,8781.8088031,0
1657531716.64646,8781.8088066,4
1657531716.64646,8781.8088101,4
1657531716.64646,8781.8088136,7
1657531716.64646,8781.8088172,11
1657531716.64646,8781.8088209,11
1657531716.64646,8781.8088247,9
1657531716.64646,8781.8088282,9
1657531716.64646,8781.8088317,9
1657531716.64646,8781.8088352,16
1657531716.64646,8781.8088386,23
1657531716.64646,8781.8088421,23
1657531716.64646,8781.8088458,26
1657531716.64646,8781.8088494,33
1657531716.64646,8781.8088529,38
1657531716.64646,8781.8088564,40
1657531716.64646,8781.8088598,40
1657531716.64646,8781.8088633,30
1657531716.64646,8781.8088669,30
1657531716.64646,8781.8088703,40
1657531716.64646,8781.8088737,38
1657531716.64646,8781.8088773,26
1657531716.64646,8781.8088808,19
1657531716.64646,8781.8088845,19
1657531716.64646,8781.8088902,21
1657531716.64646,8781.8088945,35
1657531716.64646,8781.8088997,69
1657531716.64646,8781.8089043,92
1657531716.64646,8781.8089094,71
1657531716.64646,8781.808913,40
1657531716.64646,8781.8089183,45
1657531716.64646,8781.808922,52
1657531716.64646,8781.8089731,45
1657531716.65743,8781.8089801,45
1657531716.65743,8781.8089842,57
1657531716.65743,8781.8089881,64
1657531716.65743,8781.8089915,66
1657531716.65743,8781.8089946,73
1657531716.65743,8781.8089978,97
1657531716.65743,8781.8090013,181
1657531716.65743,8781.8090048,486
1657531716.65743,8781.8090084,984
1657531716.65743,8781.8090115,1106
1657531716.65743,8781.8090146,472
1657531716.65743,8781.8090177,-262
1657531716.65743,8781.8090209,-262
1657531716.65743,8781.8090239,107
1657531716.65743,8781.8090271,123
1657531716.65743,8781.8090302,2
1657531716.65743,8781.809034,61
1657531716.65743,8781.8090375,97
1657531716.65743,8781.8090411,64
1657531716.65743,8782.3435675,81
1657531716.65743,8782.3435873,109
1657531716.65743,8782.3435971,104
1657531716.65743,8782.3436059,107
1657531716.65743,8782.3436143,119
1657531717.27145,8782.3436213,126
1657531717.27145,8782.3436261,131
1657531717.27145,8782.3436308,143
1657531717.27145,8782.3436355,152
1657531717.27145,8782.34364,157
1657531717.27145,8782.3436444,157
1657531717.27145,8782.3436488,162
1657531717.27145,8782.3436536,178
1657531717.27145,8782.3436598,193
1657531717.27145,8782.3436643,207
1657531717.27145,8782.3436704,219
1657531717.27145,8782.3436741,224
1657531717.27145,8782.3436794,228
1657531717.27145,8782.3436834,240
1657531717.27145,8782.3436901,252
1657531717.27145,8782.3436939,264
1657531717.27145,8782.3436992,276
1657531717.27145,8782.3437028,271
1657531717.27145,8782.343708,250
1657531717.27145,8782.3437118,243
1657531717.27145,8782.3437173,245
1657531717.27145,8782.3437229,233
1657531717.27145,8782.3437283,205
1657531717.27145,8782.3437329,150
1657531717.27145,8782.3437391,78
1657531717.27145,8782.3437443,16
1657531717.27145,8782.3437482,-21
1657531717.27145,8782.3437547,-42
1657531717.27145,8782.3437592,-50
1657531717.27145,8782.3437664,-57
1657531717.27145,8782.3437736,-59
1657531717.27145,8782.343777,-52
1657531717.27145,8782.343785,-45
1657531717.27145,8782.3437942,-38
1657531717.27145,8782.3438034,-33
1657531717.27145,8782.3438104,-28
1657531717.27145,8782.3438136,-23
1657531717.27145,8782.3438186,-19
1657531717.27145,8782.3438265,-7
1657531717.27145,8782.3438344,0
1657531717.27145,8782.3438427,4
1657531717.27145,8782.3438493,11
1657531717.27145,8782.3438524,16
1657531717.27145,8782.3438552,19
1657531717.27145,8782.3438581,23
1657531717.27145,8782.343861,23
1657531717.27145,8782.3438639,21
1657531717.27145,8782.3438667,23
1657531717.27145,8782.3438696,28
1657531717.27145,8782.3438725,28
1657531717.28142,8782.3438753,30
1657531717.28142,8782.3438782,35
1657531717.28142,8782.343881,38
1657531717.28142,8782.343884,40
1657531717.28142,8782.3438868,45
1657531717.28142,8782.3438898,47
1657531717.28142,8782.3438927,45
1657531717.28142,8782.3438955,50
1657531717.28142,8782.3438984,54
1657531717.28142,8782.3439013,54
1657531717.28142,8782.3439041,57
1657531717.28142,8782.343907,61
1657531717.28142,8782.3439099,64
1657531717.28142,8782.3439128,64
1657531717.28142,8782.3439157,69
1657531717.28142,8782.3439185,71
1657531717.28142,8782.3439215,73
1657531717.28142,8782.3439243,76
1657531717.28142,8782.9768163,76
1657531717.28142,8782.9769058,76
1657531717.28142,8782.9769179,78
1657531717.28142,8782.9769244,78
1657531717.28142,8782.9769285,83
1657531717.28142,8782.9769338,85
1657531717.76051,8782.9769375,81
1657531717.76051,8782.9769415,73
1657531717.76051,8782.9769453,71
1657531717.76051,8782.9769488,69
1657531717.76051,8782.9769528,64
1657531717.76051,8782.9769565,66
1657531717.76051,8782.9769602,61
1657531717.76051,8782.9770507,42
1657531717.76051,8782.9770612,23
1657531717.76051,8782.9770678,16
1657531717.76051,8782.9770742,21
1657531717.76051,8782.9771004,40
1657531717.76051,8782.9771126,71
1657531717.76051,8782.9771207,90
1657531717.76051,8782.977128,83
1657531717.76051,8782.9771357,50
1657531717.76051,8782.977143,26
1657531717.76051,8782.9771504,26
1657531717.76051,8782.9771566,21
1657531717.76051,8782.977161,14
1657531717.76051,8782.9771666,11
1657531717.76051,8782.9771718,9
1657531717.76051,8782.9771982,11
1657531717.76051,8782.9772146,19
1657531717.76051,8782.9772228,23
1657531717.76051,8782.9772287,45
1657531717.76051,8782.9772342,138
1657531717.76051,8782.9772398,443
1657531717.76051,8782.977245,918
1657531717.76051,8782.9772545,1013
1657531717.76051,8782.9772631,350
1657531717.76051,8782.9772703,-410
1657531717.76051,8782.9772773,-386
1657531717.76051,8782.9772845,40
1657531717.76051,8782.9772901,81
1657531717.76051,8782.9772955,-50
1657531717.76051,8782.9773008,9
1657531717.76051,8782.977308,57
1657531717.76051,8782.9773135,23
1657531717.76051,8782.9773189,33
1657531717.76051,8782.9773244,61
1657531717.76051,8782.9773321,64
1657531717.76051,8782.9773398,66
1657531717.76051,8782.9773454,81
1657531717.76051,8782.9773511,90
1657531717.76051,8782.9773565,92
1657531717.76051,8782.9773617,104
1657531717.76051,8782.977367,119
1657531717.76051,8782.9773725,131
1657531717.76051,8782.9773773,143
1657531717.77247,8782.9773816,157
1657531717.77247,8782.9773856,166
1657531717.77247,8782.9773897,178
1657531717.77247,8782.9773938,195
1657531717.77247,8782.977398,212
1657531717.77247,8782.9774047,224
1657531717.77247,8782.9774097,240
1657531717.77247,8782.9774213,257
1657531717.77247,8782.9774254,269
1657531717.77247,8782.9774296,283
1657531717.77247,8782.9774336,295
1657531717.77247,8782.9774382,295
1657531717.77247,8782.9774433,290
1657531717.77247,8782.9774478,281
1657531717.77247,8782.9774525,262
1657531717.77247,8782.9774576,240
1657531717.77247,8782.9774629,212
1657531717.77247,8783.4660737,159
1657531717.77247,8783.4660962,95
1657531717.77247,8783.466105,42
1657531717.77247,8783.4661119,2
1657531717.77247,8783.4661205,-21
1657531717.77247,8783.4661288,-33
1657531717.77247,8783.4661371,-35
1657531718.3024,8783.4662178,-38
1657531718.3024,8783.4662225,-35
1657531718.3024,8783.4662253,-38
1657531718.3024,8783.466228,-47
1657531718.3024,8783.4662314,-47
1657531718.3024,8783.466234,-35
1657531718.3024,8783.4662368,-30
1657531718.3024,8783.4662395,-28
1657531718.3024,8783.4662422,-21
1657531718.3024,8783.4662448,-21
1657531718.3024,8783.4662474,-28
1657531718.3024,8783.4662502,-21
1657531718.3024,8783.4662528,-11
1657531718.3024,8783.4662555,-9
1657531718.3024,8783.4662582,-7
1657531718.3024,8783.466261,0
1657531718.3024,8783.4662639,2
1657531718.3024,8783.4662667,7
1657531718.3024,8783.4662693,9
1657531718.3024,8783.466272,9
1657531718.3024,8783.4662747,11
1657531718.3024,8783.4662773,7
1657531718.3024,8783.46628,-4
1657531718.3024,8783.4662827,-9
1657531718.3024,8783.4662853,0
1657531718.3024,8783.4662886,-4
1657531718.3024,8783.4663882,-9
1657531718.3024,8783.4663996,-2
1657531718.3024,8783.4664034,2
1657531718.3024,8783.4664063,0
1657531718.3024,8783.4664091,4
1657531718.3024,8783.4664118,9
1657531718.3024,8783.4664345,11
1657531718.3024,8783.4664423,16
1657531718.3024,8783.4664714,21
1657531718.3024,8783.4664795,23
1657531718.3024,8783.4664837,26
1657531718.3024,8783.4664879,28
1657531718.3024,8783.4664928,33
1657531718.3024,8783.4664998,38
1657531718.3024,8783.4665215,40
1657531718.3024,8783.4665311,38
1657531718.3024,8783.466535,40
1657531718.3024,8783.4665396,42
1657531718.3024,8783.4665435,47
1657531718.3024,8783.4665469,52
1657531718.3024,8783.4665537,54
1657531718.3024,8783.4665569,54
1657531718.3024,8783.4665626,54
1657531718.3024,8783.4665657,57
1657531718.31237,8783.4665709,61
1657531718.31237,8783.466575,64
1657531718.31237,8783.4665785,69
1657531718.31237,8783.4665827,69
1657531718.31237,8783.466587,66
1657531718.31237,8783.4665906,69
1657531718.31237,8783.4665957,69
1657531718.31237,8783.4666024,61
1657531718.31237,8783.4666055,45
1657531718.31237,8783.4666084,30
1657531718.31237,8783.4666113,23
1657531718.31237,8783.4666141,28
1657531718.31237,8783.4666169,59
1657531718.31237,8783.4666197,100
1657531718.31237,8783.4666225,121
1657531718.31237,8783.4666263,107
1657531718.31237,8784.0011467,71
1657531718.31237,8784.0011643,52
1657531718.31237,8784.0011704,57
1657531718.31237,8784.0011763,59
1657531718.31237,8784.0011819,57
1657531718.31237,8784.0011877,61
1657531718.31237,8784.0011921,61
1657531718.31237,8784.0011973,59
1657531718.83896,8784.001201,59
1657531718.83896,8784.0012045,61
1657531718.83896,8784.0012077,83
1657531718.83896,8784.0012111,221
1657531718.83896,8784.0012145,629
1657531718.83896,8784.0012179,1106
1657531718.83896,8784.0012219,989
1657531718.83896,8784.0012253,143
1657531718.83896,8784.0012291,-484
1657531718.83896,8784.0012328,-264
1657531718.83896,8784.001236,88
1657531718.83896,8784.0012391,7
1657531718.83896,8784.0012428,-73
1657531718.83896,8784.0012463,14
1657531718.83896,8784.0012498,23
1657531718.83896,8784.0012533,-11
1657531718.83896,8784.0012571,9
1657531718.83896,8784.0012604,19
1657531718.83896,8784.0012636,-2
1657531718.83896,8784.0012669,7
1657531718.83896,8784.0012702,30
1657531718.83896,8784.0012755,38
1657531718.83896,8784.0012792,42
1657531718.83896,8784.0012828,54
1657531718.83896,8784.0012866,64
1657531718.83896,8784.0012897,76
1657531718.83896,8784.001294,90
1657531718.83896,8784.0012974,109
1657531718.83896,8784.0013008,123
1657531718.83896,8784.0013038,138
1657531718.83896,8784.0013089,154
1657531718.83896,8784.0013125,171
1657531718.83896,8784.0013182,185
1657531718.83896,8784.0013213,202
1657531718.83896,8784.0013466,221
1657531718.83896,8784.0013538,236
1657531718.83896,8784.0013606,245
1657531718.83896,8784.0013654,255
1657531718.83896,8784.0013694,259
1657531718.83896,8784.0013757,259
1657531718.83896,8784.0013804,250
1657531718.83896,8784.0013862,233
1657531718.83896,8784.0013907,219
1657531718.83896,8784.0013959,193
1657531718.83896,8784.0014,143
1657531718.83896,8784.0014068,88
1657531718.83896,8784.0014127,45
1657531718.83896,8784.0014165,7
1657531718.83896,8784.0014216,-23
1657531718.83896,8784.001425,-38
1657531718.84893,8784.0014283,-42
1657531718.84893,8784.0014347,-40
1657531718.84893,8784.0014396,-35
1657531718.84893,8784.0014452,-30
1657531718.84893,8784.0014489,-23
1657531718.84893,8784.0014526,-11
1657531718.84893,8784.0014583,-7
1657531718.84893,8784.0014637,-9
1657531718.84893,8784.0014701,-2
1657531718.84893,8784.0014753,2
1657531718.84893,8784.0014807,7
1657531718.84893,8784.0014852,14
1657531718.84893,8784.0014906,19
1657531718.84893,8784.0014949,21
1657531718.84893,8784.001499,21
1657531718.84893,8784.5367983,23
1657531718.84893,8784.5368227,28
1657531718.84893,8784.5368377,21
1657531718.84893,8784.5368512,11
1657531718.84893,8784.5368612,14
1657531718.84893,8784.5368703,21
1657531718.84893,8784.5368794,16
1657531718.84893,8784.5368841,16
1657531718.84893,8784.5368974,23
1657531719.41539,8784.5369072,21
1657531719.41539,8784.5369104,7
1657531719.41539,8784.5369183,2
1657531719.41539,8784.5369263,9
1657531719.41539,8784.5369355,11
1657531719.41539,8784.5369466,11
1657531719.41539,8784.5369557,14
1657531719.41539,8784.5369586,0
1657531719.41539,8784.5369666,-14
1657531719.41539,8784.5369798,-2
1657531719.41539,8784.5369925,9
1657531719.41539,8784.5370052,7
1657531719.41539,8784.5370107,11
1657531719.41539,8784.5370129,14
1657531719.41539,8784.5370182,14
1657531719.41539,8784.5370312,21
1657531719.41539,8784.5370403,28
1657531719.41539,8784.5370442,28
1657531719.41539,8784.5370463,35
1657531719.41539,8784.5370525,45
1657531719.41539,8784.5371141,42
1657531719.41539,8784.5371263,42
1657531719.41539,8784.5371395,50
1657531719.41539,8784.5371532,50
1657531719.41539,8784.5371663,52
1657531719.41539,8784.5371793,61
1657531719.41539,8784.5371934,64
1657531719.41539,8784.5372065,59
1657531719.41539,8784.53722,61
1657531719.41539,8784.5372883,64
1657531719.41539,8784.537343,61
1657531719.41539,8784.5373696,61
1657531719.41539,8784.537393,71
1657531719.41539,8784.537405,64
1657531719.41539,8784.5374097,61
1657531719.41539,8784.5374152,76
1657531719.41539,8784.5374191,73
1657531719.41539,8784.5374245,61
1657531719.41539,8784.5374282,61
1657531719.41539,8784.5374324,69
1657531719.41539,8784.5374378,71
1657531719.41539,8784.5374417,73
1657531719.41539,8784.5374471,69
1657531719.41539,8784.5374515,69
1657531719.41539,8784.5374564,73
1657531719.41539,8784.5374597,76
1657531719.41539,8784.5374631,78
1657531719.41539,8784.5374681,81
1657531719.41539,8784.5374725,83
1657531719.41539,8784.5374778,81
1657531719.42636,8784.5374825,57
1657531719.42636,8784.5374872,47
1657531719.42636,8784.537493,57
1657531719.42636,8784.5374963,78
1657531719.42636,8784.5374997,116
1657531719.42636,8784.5375031,135
1657531719.42636,8784.5375066,104
1657531719.42636,8784.5375121,76
1657531719.42636,8784.5375164,66
1657531719.42636,8784.5375217,50
1657531719.42636,8784.5375276,45
1657531719.42636,8784.5375313,52
1657531719.42636,8784.5375374,47
1657531719.42636,8784.5375414,50
1657531719.42636,8785.1218778,59
1657531719.42636,8785.121902,61
1657531719.42636,8785.1219161,71
1657531719.42636,8785.1219263,112
1657531719.42636,8785.1219356,264
1657531719.42636,8785.1219447,665
1657531719.42636,8785.1219531,1080
1657531719.42636,8785.1219599,844
1657531719.42636,8785.1219634,-54
1657531719.42636,8785.1219684,-572
1657531720.00551,8785.1219742,-238
1657531720.00551,8785.1219814,102
1657531720.00551,8785.1219853,23
1657531720.00551,8785.1219887,-33
1657531720.00551,8785.121992,45
1657531720.00551,8785.1219954,50
1657531720.00551,8785.1219991,23
1657531720.00551,8785.1220026,52
1657531720.00551,8785.122008,73
1657531720.00551,8785.1220172,69
1657531720.00551,8785.1220245,81
1657531720.00551,8785.1220328,102
1657531720.00551,8785.1220413,104
1657531720.00551,8785.1220464,104
1657531720.00551,8785.1220503,121
1657531720.00551,8785.1220536,138
1657531720.00551,8785.1220582,143
1657531720.00551,8785.1220635,152
1657531720.00551,8785.1220667,171
1657531720.00551,8785.1220698,181
1657531720.00551,8785.1220729,193
1657531720.00551,8785.122077,209
1657531720.00551,8785.1220833,226
1657531720.00551,8785.1220868,240
1657531720.00551,8785.1220902,257
1657531720.00551,8785.122095,271
1657531720.00551,8785.1220982,283
1657531720.00551,8785.1221017,298
1657531720.00551,8785.1221068,305
1657531720.00551,8785.1221114,300
1657531720.00551,8785.1221166,295
1657531720.00551,8785.1221202,286
1657531720.00551,8785.1221237,267
1657531720.00551,8785.1221282,245
1657531720.00551,8785.1221331,216
1657531720.00551,8785.1221376,171
1657531720.00551,8785.1221409,116
1657531720.00551,8785.1221445,69
1657531720.00551,8785.1221511,28
1657531720.00551,8785.1221546,2
1657531720.00551,8785.1221579,-16
1657531720.00551,8785.1221613,-26
1657531720.00551,8785.1221647,-30
1657531720.00551,8785.1221681,-28
1657531720.00551,8785.1221715,-23
1657531720.00551,8785.1221763,-14
1657531720.00551,8785.1221805,-7
1657531720.00551,8785.1221839,-2
1657531720.00551,8785.1221872,2
1657531720.00551,8785.1221905,4
1657531720.01549,8785.1221947,2
1657531720.01549,8785.1222014,0
1657531720.01549,8785.1222075,7
1657531720.01549,8785.1222132,14
1657531720.01549,8785.1222168,14
1657531720.01549,8785.1222206,16
1657531720.01549,8785.1222259,21
1657531720.01549,8785.1222293,21
1657531720.01549,8785.1222327,23
1657531720.01549,8785.1222376,23
1657531720.01549,8785.1222409,19
1657531720.01549,8785.1222442,14
1657531720.01549,8785.1222476,16
1657531720.01549,8785.7066248,21
1657531720.01549,8785.7066382,21
1657531720.01549,8785.706642,23
1657531720.01549,8785.7066444,26
1657531720.01549,8785.7066466,23
1657531720.01549,8785.7066487,23
1657531720.01549,8785.7066508,30
1657531720.01549,8785.7066529,35
1657531720.01549,8785.706655,38
1657531720.01549,8785.7066571,33
1657531720.01549,8785.7066592,16
1657531720.59208,8785.7066612,9
1657531720.59208,8785.7066632,14
1657531720.59208,8785.7066652,16
1657531720.59208,8785.7066671,16
1657531720.59208,8785.7066691,14
1657531720.59208,8785.7066711,0
1657531720.59208,8785.7066732,-9
1657531720.59208,8785.7066765,0
1657531720.59208,8785.7066842,9
1657531720.59208,8785.7066908,9
1657531720.59208,8785.7066953,9
1657531720.59208,8785.7067027,9
1657531720.59208,8785.7067081,9
1657531720.59208,8785.7067154,14
1657531720.59208,8785.7067249,21
1657531720.59208,8785.7067306,23
1657531720.59208,8785.7067335,26
1657531720.59208,8785.7067358,28
1657531720.59208,8785.7067391,28
1657531720.59208,8785.7067519,26
1657531720.59208,8785.7067587,28
1657531720.59208,8785.7067612,28
1657531720.59208,8785.7067637,28
1657531720.59208,8785.7067734,23
1657531720.59208,8785.7067835,19
1657531720.59208,8785.7067875,19
1657531720.59208,8785.7067953,26
1657531720.59208,8785.706806,28
1657531720.59208,8785.706818,28
1657531720.59208,8785.7068311,28
1657531720.59208,8785.706839,16
1657531720.59208,8785.7068468,2
1657531720.59208,8785.7068552,4
1657531720.59208,8785.7068621,30
1657531720.59208,8785.7068732,71
1657531720.59208,8785.7068866,100
1657531720.59208,8785.7068931,100
1657531720.59208,8785.7068965,69
1657531720.59208,8785.7068986,45
1657531720.59208,8785.7069084,50
1657531720.59208,8785.706932,52
1657531720.59208,8785.7069382,42
1657531720.59208,8785.7069413,30
1657531720.59208,8785.706944,30
1657531720.59208,8785.7069466,40
1657531720.59208,8785.7069503,45
1657531720.59208,8785.7069533,52
1657531720.59208,8785.7069561,71
1657531720.59208,8785.7069589,135
1657531720.59208,8785.7069619,369
1657531720.60503,8785.7069648,825
1657531720.60503,8785.7069676,1075
1657531720.60503,8785.7069703,591
1657531720.60503,8785.7069732,-240
1657531720.60503,8785.706976,-438
1657531720.60503,8785.7069788,-16
1657531720.60503,8785.7069816,143
1657531720.60503,8785.7069845,0
1657531720.60503,8785.7069873,23
1657531720.60503,8785.7069902,95
1657531720.60503,8785.7069933,64
1657531720.60503,8785.7070076,61
1657531720.60503,8786.2932268,95
1657531720.60503,8786.2932475,95
1657531720.60503,8786.293257,92
1657531720.60503,8786.2932599,107
1657531720.60503,8786.2932622,114
1657531720.60503,8786.2932642,119
1657531720.60503,8786.2932667,121
1657531720.60503,8786.2932688,114
1657531720.60503,8786.2932709,119
1657531720.60503,8786.293273,135
1657531720.60503,8786.2932751,147
1657531720.60503,8786.2932772,162
1657531721.12564,8786.2932792,174
1657531721.12564,8786.2932812,174
1657531721.12564,8786.2932833,181
1657531721.12564,8786.2932851,200
1657531721.12564,8786.2932871,219
1657531721.12564,8786.2932889,228
1657531721.12564,8786.2932909,245
1657531721.12564,8786.2932929,262
1657531721.12564,8786.2932948,267
1657531721.12564,8786.2932968,267
1657531721.12564,8786.2932987,267
1657531721.12564,8786.2933005,262
1657531721.12564,8786.2933025,250
1657531721.12564,8786.2933045,233
1657531721.12564,8786.2933064,212
1657531721.12564,8786.2933083,181
1657531721.12564,8786.2933102,135
1657531721.12564,8786.2933121,88
1657531721.12564,8786.293314,45
1657531721.12564,8786.2933159,14
1657531721.12564,8786.2933178,-7
1657531721.12564,8786.2933197,-19
1657531721.12564,8786.2933217,-21
1657531721.12564,8786.2933237,-19
1657531721.12564,8786.2933274,-11
1657531721.12564,8786.2933294,-4
1657531721.12564,8786.2933315,-2
1657531721.12564,8786.2933336,2
1657531721.12564,8786.2933356,9
1657531721.12564,8786.2933376,19
1657531721.12564,8786.2933407,23
1657531721.12564,8786.2933489,28
1657531721.12564,8786.2933576,30
1657531721.12564,8786.2933625,26
1657531721.12564,8786.2933685,19
1657531721.12564,8786.2933726,21
1657531721.12564,8786.2933888,28
1657531721.12564,8786.2933921,35
1657531721.12564,8786.2933954,35
1657531721.12564,8786.2934142,30
1657531721.12564,8786.2934175,28
1657531721.12564,8786.2934212,28
1657531721.12564,8786.2934302,33
1657531721.12564,8786.293435,38
1657531721.12564,8786.2934371,38
1657531721.12564,8786.2934391,35
1657531721.12564,8786.2934488,38
1657531721.12564,8786.2934599,40
1657531721.12564,8786.2934646,38
1657531721.12564,8786.29347,40
1657531721.13761,8786.2934733,42
1657531721.13761,8786.2934768,42
1657531721.13761,8786.2934801,40
1657531721.13761,8786.2934835,45
1657531721.13761,8786.2934963,50
1657531721.13761,8786.2935076,52
1657531721.13761,8786.2935118,54
1657531721.13761,8786.2935391,57
1657531721.13761,8786.2935559,54
1657531721.13761,8786.2935658,57
1657531721.13761,8786.2935732,64
1657531721.13761,8786.8276337,66
1657531721.13761,8786.8276502,66
1657531721.13761,8786.8276567,69
1657531721.13761,8786.8276637,69
1657531721.13761,8786.8276695,71
1657531721.13761,8786.8276783,71
1657531721.13761,8786.8276847,73
1657531721.13761,8786.8276924,69
1657531721.13761,8786.8276987,64
1657531721.13761,8786.8277059,57
1657531721.13761,8786.8277127,42
1657531721.13761,8786.8277204,35
1657531721.13761,8786.8277275,35
1657531721.6652,8786.827734,35
1657531721.6652,8786.8277388,35
1657531721.6652,8786.8277434,35
1657531721.6652,8786.8277483,35
1657531721.6652,8786.8277531,35
1657531721.6652,8786.8277593,38
1657531721.6652,8786.827764,40
1657531721.6652,8786.8277685,42
1657531721.6652,8786.8277732,42
1657531721.6652,8786.8277779,33
1657531721.6652,8786.8277825,19
1657531721.6652,8786.8277871,26
1657531721.6652,8786.8277929,35
1657531721.6652,8786.8277997,33
1657531721.6652,8786.8278061,35
1657531721.6652,8786.8278109,35
1657531721.6652,8786.8278177,28
1657531721.6652,8786.8278226,21
1657531721.6652,8786.8278291,16
1657531721.6652,8786.827834,7
1657531721.6652,8786.8278408,16
1657531721.6652,8786.8278462,50
1657531721.6652,8786.8278525,88
1657531721.6652,8786.8278576,109
1657531721.6652,8786.8278644,95
1657531721.6652,8786.8278699,59
1657531721.6652,8786.8278763,38
1657531721.6652,8786.8278815,38
1657531721.6652,8786.8278884,40
1657531721.6652,8786.8278935,35
1657531721.6652,8786.8279005,33
1657531721.6652,8786.8279057,33
1657531721.6652,8786.8279128,42
1657531721.6652,8786.8279185,52
1657531721.6652,8786.8279258,57
1657531721.6652,8786.827932,76
1657531721.6652,8786.8279394,183
1657531721.6652,8786.8279449,529

1657531721.6652,8786.8279517,1034
1657531721.6652,8786.8279571,1082
1657531721.6652,8786.8279639,350
1657531721.6652,8786.8279692,-386
1657531721.6652,8786.827976,-307
1657531721.6652,8786.8279829,95
1657531721.6652,8786.8279884,100
1657531721.6652,8786.8279951,-11
1657531721.6652,8786.8280017,57
1657531721.6652,8786.8280071,88
1657531721.6652,8786.8280139,50
1657531721.6652,8786.8280189,69
1657531721.67617,8786.8280278,95
1657531721.67617,8786.8280386,90
1657531721.67617,8786.8280439,97
1657531721.67617,8786.8280488,114
1657531721.67617,8786.8280535,114
1657531721.67617,8786.8280584,119
1657531721.67617,8786.8280636,133
1657531721.67617,8786.8280686,143
1657531721.67617,8786.8280738,150
1657531721.67617,8786.8280788,162
1657531721.67617,8787.3642068,171
1657531721.67617,8787.3642263,178
1657531721.67617,8787.3642355,188
1657531721.67617,8787.3642444,200
1657531721.67617,8787.3642572,214
1657531721.67617,8787.3642668,231
1657531721.67617,8787.3642696,238
1657531721.67617,8787.3642717,247
1657531721.67617,8787.3642739,262
1657531721.67617,8787.3642759,276
1657531721.67617,8787.364278,286
1657531721.67617,8787.3642809,290
1657531721.67617,8787.3642938,281
1657531721.67617,8787.3642997,255
1657531722.20279,8787.3643023,233
1657531722.20279,8787.3643045,228
1657531722.20279,8787.3643065,212
1657531722.20279,8787.3643119,176
1657531722.20279,8787.3643236,123
1657531722.20279,8787.364331,59
1657531722.20279,8787.3643357,4
1657531722.20279,8787.3643415,-21
1657531722.20279,8787.3643471,-30
1657531722.20279,8787.3643533,-42
1657531722.20279,8787.3643641,-50
1657531722.20279,8787.3643711,-52
1657531722.20279,8787.3643735,-54
1657531722.20279,8787.3643756,-47
1657531722.20279,8787.3643815,-38
1657531722.20279,8787.3643928,-30
1657531722.20279,8787.3643981,-28
1657531722.20279,8787.3644023,-35
1657531722.20279,8787.3644086,-42
1657531722.20279,8787.3644153,-33
1657531722.20279,8787.3644208,-26
1657531722.20279,8787.364426,-30
1657531722.20279,8787.3644332,-26
1657531722.20279,8787.3644393,-19
1657531722.20279,8787.3644474,-16
1657531722.20279,8787.3644534,-14
1657531722.20279,8787.3644602,-9
1657531722.20279,8787.3644654,-4
1657531722.20279,8787.3644784,-2
1657531722.20279,8787.3644861,-2
1657531722.20279,8787.3644934,0
1657531722.20279,8787.3645026,0
1657531722.20279,8787.3645092,-2
1657531722.20279,8787.3645159,-2
1657531722.20279,8787.3645197,-2
1657531722.20279,8787.3645247,-4
1657531722.20279,8787.3645307,-7
1657531722.20279,8787.3645362,-4
1657531722.20279,8787.3645452,0
1657531722.20279,8787.3645542,2
1657531722.20279,8787.3645617,4
1657531722.20279,8787.3645671,7
1657531722.20279,8787.3645758,9
1657531722.20279,8787.3646148,11
1657531722.20279,8787.3646229,14
1657531722.20279,8787.3646264,21
1657531722.20279,8787.3646301,23
1657531722.20279,8787.3646332,23
1657531722.20279,8787.3646365,30
1657531722.20279,8787.3646398,30
1657531722.21377,8787.364643,33
1657531722.21377,8787.3646462,38
1657531722.21377,8787.3646508,38
1657531722.21377,8787.3646542,30
1657531722.21377,8787.3646579,33
1657531722.21377,8787.3646616,42
1657531722.21377,8787.3646699,45
1657531722.21377,8787.3646735,45
1657531722.21377,8787.3646805,50
1657531722.21377,8787.902376,54
1657531722.21377,8787.9023951,59
1657531722.21377,8787.9024042,61
1657531722.21377,8787.9024108,61
1657531722.21377,8787.902417,61
1657531722.21377,8787.9024209,66
1657531722.21377,8787.9024272,69
1657531722.21377,8787.9024315,71
1657531722.21377,8787.9024371,76
1657531722.21377,8787.9024418,71
1657531722.21377,8787.9024461,54
1657531722.21377,8787.9024518,52
1657531722.21377,8787.9024564,61
1657531722.21377,8787.9024617,64
1657531722.21377,8787.9024666,66
1657531722.83747,8787.9024727,69
1657531722.83747,8787.9024772,54
1657531722.83747,8787.9024816,45
1657531722.83747,8787.902486,50
1657531722.83747,8787.9024904,52
1657531722.83747,8787.9024948,38
1657531722.83747,8787.9024981,38
1657531722.83747,8787.9025016,59
1657531722.83747,8787.902505,92
1657531722.83747,8787.9025083,112
1657531722.83747,8787.9025176,102
1657531722.83747,8787.9025246,78
1657531722.83747,8787.9025348,61
1657531722.83747,8787.902546,57
1657531722.83747,8787.9025569,52
1657531722.83747,8787.9025662,42
1657531722.83747,8787.9025737,45
1657531722.83747,8787.9025844,52
1657531722.83747,8787.9025904,59
1657531722.83747,8787.902601,66
1657531722.83747,8787.9026126,69
1657531722.83747,8787.9026181,76
1657531722.83747,8787.9026203,116
1657531722.83747,8787.9026243,305
1657531722.83747,8787.9026276,755
1657531722.83747,8787.9026396,1158
1657531722.83747,8787.9026497,860
1657531722.83747,8787.9026564,-33
1657531722.83747,8787.9026607,-476
1657531722.83747,8787.9026646,-121
1657531722.83747,8787.9026684,162
1657531722.83747,8787.9026736,54
1657531722.83747,8787.9026777,26
1657531722.83747,8787.9026933,104
1657531722.83747,8787.9027025,88
1657531722.83747,8787.9027054,69
1657531722.83747,8787.9027075,104
1657531722.83747,8787.9027096,121
1657531722.83747,8787.9027123,114
1657531722.83747,8787.9027219,121
1657531722.83747,8787.9027305,135
1657531722.83747,8787.9027333,138
1657531722.83747,8787.9027355,140
1657531722.83747,8787.9027376,145
1657531722.83747,8787.9027436,154
1657531722.83747,8787.902755,169
1657531722.83747,8787.9027587,176
1657531722.83747,8787.9027683,185
1657531722.83747,8787.902777,195
1657531722.83747,8787.9027898,205
1657531722.84745,8787.9028032,216
1657531722.84745,8787.9028118,231
1657531722.84745,8787.9028143,240
1657531722.84745,8787.9028165,252
1657531722.84745,8787.9028187,269
1657531722.84745,8787.9028219,288
1657531722.84745,8787.9028347,300
1657531722.84745,8787.9028413,300
1657531722.84745,8788.5366654,300
1657531722.84745,8788.5366832,300
1657531722.84745,8788.5366994,283
1657531722.84745,8788.5367129,264
1657531722.84745,8788.536725,247
1657531722.84745,8788.5367367,216
1657531722.84745,8788.5367422,166
1657531722.84745,8788.5367444,109
1657531722.84745,8788.536747,59
1657531722.84745,8788.5367492,26
1657531722.84745,8788.5367512,2
1657531722.84745,8788.5367534,-21
1657531722.84745,8788.5367555,-47
1657531722.84745,8788.5367576,-71
1657531722.84745,8788.5367597,-76
1657531722.84745,8788.5367617,-66
1657531723.32486,8788.5367638,-71
1657531723.32486,8788.5367657,-85
1657531723.32486,8788.5367677,-76
1657531723.32486,8788.5367696,-71
1657531723.32486,8788.5367716,-85
1657531723.32486,8788.5367735,-76
1657531723.32486,8788.5367754,-59
1657531723.32486,8788.5367773,-61
1657531723.32486,8788.5367792,-57
1657531723.32486,8788.5367811,-45
1657531723.32486,8788.536783,-42
1657531723.32486,8788.5367849,-42
1657531723.32486,8788.5367894,-35
1657531723.32486,8788.5367914,-28
1657531723.32486,8788.5367933,-26
1657531723.32486,8788.5367958,-23
1657531723.32486,8788.5368006,-21
1657531723.32486,8788.5368064,-16
1657531723.32486,8788.5368121,-14
1657531723.32486,8788.5368168,-11
1657531723.32486,8788.536819,-9
1657531723.32486,8788.5368211,-2
1657531723.32486,8788.5368232,2
1657531723.32486,8788.5368252,7
1657531723.32486,8788.536831,11
1657531723.32486,8788.5368426,14
1657531723.32486,8788.5368479,14
1657531723.32486,8788.53685,23
1657531723.32486,8788.5368521,26
1657531723.32486,8788.5368542,26
1657531723.32486,8788.5368562,33
1657531723.32486,8788.5368584,35
1657531723.32486,8788.5368668,35
1657531723.32486,8788.5368899,33
1657531723.32486,8788.5369001,35
1657531723.32486,8788.5369046,38
1657531723.32486,8788.5369085,42
1657531723.32486,8788.536912,45
1657531723.32486,8788.5369155,50
1657531723.32486,8788.5369189,54
1657531723.32486,8788.5369223,59
1657531723.32486,8788.5369266,59
1657531723.32486,8788.5369303,59
1657531723.32486,8788.5369338,64
1657531723.32486,8788.5369396,69
1657531723.32486,8788.5369433,71
1657531723.32486,8788.5369483,76
1657531723.32486,8788.5369526,78
1657531723.32486,8788.5369576,76
1657531723.32486,8788.536961,76
1657531723.33782,8788.5369644,81
1657531723.33782,8788.5369692,83
1657531723.33782,8788.5369726,88
1657531723.33782,8788.5369759,90
1657531723.33782,8788.5369806,88
1657531723.33782,8788.5369839,88
1657531723.33782,8788.5369873,90
1657531723.33782,8789.0233046,95
1657531723.33782,8789.0233204,97
1657531723.33782,8789.0233239,100
1657531723.33782,8789.0233262,100
1657531723.33782,8789.0233282,92
1657531723.33782,8789.0233303,88
1657531723.33782,8789.0233325,78
1657531723.33782,8789.0233346,73
1657531723.33782,8789.0233366,90
1657531723.33782,8789.0233387,123
1657531723.33782,8789.0233426,143
1657531723.33782,8789.0233534,131
1657531723.33782,8789.0233595,107
1657531723.33782,8789.0233657,95
1657531723.33782,8789.023376,88
1657531723.33782,8789.0233805,78
1657531723.33782,8789.0233845,66
1657531723.95872,8789.0233866,61
1657531723.95872,8789.0233887,71
1657531723.95872,8789.0233907,78
1657531723.95872,8789.0233927,81
1657531723.95872,8789.0233947,83
1657531723.95872,8789.0233967,83
1657531723.95872,8789.0233987,126
1657531723.95872,8789.0234007,348
1657531723.95872,8789.0234026,817
1657531723.95872,8789.0234045,1103
1657531723.95872,8789.0234065,634
1657531723.95872,8789.0234086,-247
1657531723.95872,8789.0234106,-507
1657531723.95872,8789.0234126,-73
1657531723.95872,8789.0234146,135
1657531723.95872,8789.0234168,4
1657531723.95872,8789.0234238,14
1657531723.95872,8789.023434,85
1657531723.95872,8789.0234458,54
1657531723.95872,8789.0234528,45
1657531723.95872,8789.0234551,78
1657531723.95872,8789.0234572,83
1657531723.95872,8789.0234593,76
1657531723.95872,8789.0234653,81
1657531723.95872,8789.0234766,85
1657531723.95872,8789.0234819,92
1657531723.95872,8789.0234898,104
1657531723.95872,8789.0235026,116
1657531723.95872,8789.0235101,126
1657531723.95872,8789.0235137,135
1657531723.95872,8789.0235256,145
1657531723.95872,8789.0235365,157
1657531723.95872,8789.0235407,169
1657531723.95872,8789.023551,185
1657531723.95872,8789.0235633,200
1657531723.95872,8789.0235695,212
1657531723.95872,8789.0235719,226
1657531723.95872,8789.0235809,238
1657531723.95872,8789.0235916,245
1657531723.95872,8789.0235958,252
1657531723.95872,8789.0235997,257
1657531723.95872,8789.0236019,259
1657531723.95872,8789.0236049,252
1657531723.95872,8789.0236072,240
1657531723.95872,8789.0236094,228
1657531723.95872,8789.0236144,216
1657531723.95872,8789.0236166,200
1657531723.95872,8789.0236204,171
1657531723.95872,8789.0236226,126
1657531723.95872,8789.0236248,71
1657531723.96868,8789.0236296,23
1657531723.96868,8789.0236393,-7
1657531723.96868,8789.0236484,-28
1657531723.96868,8789.0236614,-45
1657531723.96868,8789.0236746,-54
1657531723.96868,8789.023688,-57
1657531723.96868,8789.6558768,-59
1657531723.96868,8789.6559129,-57
1657531723.96868,8789.6559299,-54
1657531723.96868,8789.6559416,-57
1657531723.96868,8789.6559493,-47
1657531723.96868,8789.6559793,-38
1657531723.96868,8789.6559864,-42
1657531723.96868,8789.6559975,-47
1657531723.96868,8789.6560019,-38
1657531723.96868,8789.656006,-28
1657531723.96868,8789.6560096,-26
1657531723.96868,8789.6560139,-19
1657531723.96868,8789.6560189,-21
1657531723.96868,8789.6560225,-35
1657531723.96868,8789.6560272,-33
1657531723.96868,8789.6560323,-23
1657531723.96868,8789.6560399,-23
1657531723.96868,8789.6560438,-21
1657531724.53399,8789.6560621,-19
1657531724.53399,8789.6560745,-26
1657531724.53399,8789.6560836,-30
1657531724.53399,8789.6560931,-21
1657531724.53399,8789.6561012,-14
1657531724.53399,8789.6561075,-11
1657531724.53399,8789.6561218,-4
1657531724.53399,8789.6561303,0
1657531724.53399,8789.6561344,0
1657531724.53399,8789.6561378,4
1657531724.53399,8789.6561414,11
1657531724.53399,8789.6561448,16
1657531724.53399,8789.6561493,19
1657531724.53399,8789.6561553,16
1657531724.53399,8789.6561602,11
1657531724.53399,8789.6561642,16
1657531724.53399,8789.6561675,23
1657531724.53399,8789.656171,30
1657531724.53399,8789.6561744,38
1657531724.53399,8789.6561778,42
1657531724.53399,8789.6561815,40
1657531724.53399,8789.6561849,40
1657531724.53399,8789.6561881,47
1657531724.53399,8789.6561915,52
1657531724.53399,8789.6561951,57
1657531724.53399,8789.6561986,61
1657531724.53399,8789.6562021,64
1657531724.53399,8789.6562056,64
1657531724.53399,8789.6562091,66
1657531724.53399,8789.6562126,71
1657531724.53399,8789.6562183,73
1657531724.53399,8789.6562254,78
1657531724.53399,8789.6562343,81
1657531724.53399,8789.6562426,78
1657531724.53399,8789.6562521,81
1657531724.53399,8789.6562607,85
1657531724.53399,8789.6562674,88
1657531724.53399,8789.6562747,90
1657531724.53399,8789.6562786,95
1657531724.53399,8789.6562844,95
1657531724.53399,8789.6562875,92
1657531724.53399,8789.6562954,97
1657531724.53399,8789.6563255,100
1657531724.53399,8789.6563351,102
1657531724.53399,8789.6563417,102
1657531724.53399,8789.6563496,97
1657531724.53399,8789.6563562,90
1657531724.53399,8789.6563641,85
1657531724.53399,8789.6563705,76
1657531724.53399,8789.6563788,76
1657531724.54396,8789.6563855,92
1657531724.54396,8789.6563935,116
1657531724.54396,8789.6563997,143
1657531724.54396,8789.6564078,143
1657531724.54396,8789.6564141,114
1657531724.54396,8790.2411176,92
1657531724.54396,8790.2411534,90
1657531724.54396,8790.2411742,88
1657531724.54396,8790.2411848,81
1657531724.54396,8790.2412189,83
1657531724.54396,8790.2412322,90
1657531724.54396,8790.2412387,97
1657531724.54396,8790.2412471,100
1657531724.54396,8790.2412532,100
1657531724.54396,8790.2412622,107
1657531724.54396,8790.2412717,169
1657531724.54396,8790.2412798,462
1657531724.54396,8790.2412863,984
1657531724.54396,8790.2412894,1154
1657531724.54396,8790.2413465,517
1657531724.54396,8790.2413575,-314
1657531724.54396,8790.2413649,-398
1657531724.54396,8790.2413796,21
1657531724.54396,8790.2413877,104
1657531724.54396,8790.241392,-28
1657531725.02431,8790.2413956,14
1657531725.02431,8790.241399,66
1657531725.02431,8790.2414041,30
1657531725.02431,8790.2414095,33
1657531725.02431,8790.2414161,64
1657531725.02431,8790.2414213,66
1657531725.02431,8790.2414279,66
1657531725.02431,8790.2414328,83
1657531725.02431,8790.2414382,90
1657531725.02431,8790.2414443,95
1657531725.02431,8790.2414487,104
1657531725.02431,8790.241452,114
1657531725.02431,8790.2414553,123
1657531725.02431,8790.2414584,133
1657531725.02431,8790.2414614,143
1657531725.02431,8790.2414656,150
1657531725.02431,8790.2414688,162
1657531725.02431,8790.2414724,171
1657531725.02431,8790.2414786,181
1657531725.02431,8790.2414832,193
1657531725.02431,8790.2414866,209
1657531725.02431,8790.2414902,221
1657531725.02431,8790.2414937,228
1657531725.02431,8790.2414974,240
1657531725.02431,8790.2415014,252
1657531725.02431,8790.241505,257
1657531725.02431,8790.2415095,257
1657531725.02431,8790.2415159,247
1657531725.02431,8790.2415193,236
1657531725.02431,8790.2415258,221
1657531725.02431,8790.2415301,200
1657531725.02431,8790.2415337,169
1657531725.02431,8790.2415372,123
1657531725.02431,8790.2415411,71
1657531725.02431,8790.2415457,21
1657531725.02431,8790.2415524,-11
1657531725.02431,8790.2415566,-30
1657531725.02431,8790.2415657,-42
1657531725.02431,8790.2415745,-45
1657531725.02431,8790.2415793,-40
1657531725.02431,8790.2415888,-42
1657531725.02431,8790.2415983,-47
1657531725.02431,8790.2416072,-45
1657531725.02431,8790.2416159,-30
1657531725.02431,8790.241625,-21
1657531725.02431,8790.2416335,-19
1657531725.02431,8790.2416399,-11
1657531725.02431,8790.2416476,-7
1657531725.02431,8790.2416553,-4
1657531725.02431,8790.2416693,2
1657531725.03528,8790.2416826,9
1657531725.03528,8790.2416965,14
1657531725.03528,8790.2417112,16
1657531725.03528,8790.7289413,19
1657531725.03528,8790.7289615,19
1657531725.03528,8790.7289709,21
1657531725.03528,8790.7289787,23
1657531725.03528,8790.7289834,28
1657531725.03528,8790.7289902,30
1657531725.03528,8790.728994,26
1657531725.03528,8790.728998,23
1657531725.03528,8790.7290035,28
1657531725.03528,8790.7290081,33
1657531725.03528,8790.7290132,35
1657531725.03528,8790.7290173,38
1657531725.03528,8790.7290228,38
1657531725.03528,8790.7290277,33
1657531725.03528,8790.7290312,30
1657531725.03528,8790.7290348,38
1657531725.03528,8790.7290399,45
1657531725.03528,8790.7290454,45
1657531725.03528,8790.72905,42
1657531725.03528,8790.7290538,33
1657531725.5575,8790.729057,30
1657531725.5575,8790.72906,35
1657531725.5575,8790.729065,40
1657531725.5575,8790.7290688,42
1657531725.5575,8790.729072,42
1657531725.5575,8790.7290753,30
1657531725.5575,8790.7290796,19
1657531725.5575,8790.7290831,23
1657531725.5575,8790.7290866,35
1657531725.5575,8790.7290902,35
1657531725.5575,8790.7290938,33
1657531725.5575,8790.7290971,30
1657531725.5575,8790.7291006,28
1657531725.5575,8790.7291043,30
1657531725.5575,8790.7291099,40
1657531725.5575,8790.7291136,42
1657531725.5575,8790.7291169,45
1657531725.5575,8790.7291201,47
1657531725.5575,8790.7291234,42
1657531725.5575,8790.7291266,47
1657531725.5575,8790.7291297,54
1657531725.5575,8790.7291333,57
1657531725.5575,8790.7291387,57
1657531725.5575,8790.7291424,61
1657531725.5575,8790.7291478,61
1657531725.5575,8790.7291515,59
1657531725.5575,8790.7291562,59
1657531725.5575,8790.7291617,61
1657531725.5575,8790.7291667,66
1657531725.5575,8790.7291717,66
1657531725.5575,8790.7291752,64
1657531725.5575,8790.7291784,64
1657531725.5575,8790.7291834,57
1657531725.5575,8790.7291865,40
1657531725.5575,8790.72919,30
1657531725.5575,8790.7291932,52
1657531725.5575,8790.7291983,95
1657531725.5575,8790.7292016,121
1657531725.5575,8790.7292052,116
1657531725.5575,8790.7292085,90
1657531725.5575,8790.729212,69
1657531725.5575,8790.7292156,64
1657531725.5575,8790.7292191,66
1657531725.5575,8790.7292241,64
1657531725.5575,8790.7292272,59
1657531725.5575,8790.7292413,66
1657531725.5575,8790.729245,71
1657531725.5575,8790.7292484,69
1657531725.5575,8790.7292521,76
1657531725.5575,8790.7292558,92
1657531725.56747,8790.7292591,147
1657531725.56747,8790.7292624,398
1657531725.56747,8790.7292674,901
1657531725.56747,8791.2650972,1161
1657531725.56747,8791.2651196,622
1657531725.56747,8791.265128,-255
1657531725.56747,8791.2651366,-443
1657531725.56747,8791.2651419,-9
1657531725.56747,8791.265151,147
1657531725.56747,8791.2651584,11
1657531725.56747,8791.2651664,28
1657531725.56747,8791.2651713,88
1657531725.56747,8791.2651777,52
1657531725.56747,8791.2651829,35
1657531725.56747,8791.2651895,59
1657531725.56747,8791.2651943,71
1657531725.56747,8791.2652012,73
1657531725.56747,8791.2652063,78
1657531725.56747,8791.2652131,81
1657531725.56747,8791.2652185,76
1657531725.56747,8791.265226,78
1657531725.56747,8791.2652321,90
1657531725.56747,8791.2652393,107
1657531725.56747,8791.2652447,121
1657531726.20128,8791.2652515,133
1657531726.20128,8791.2652564,140
1657531726.20128,8791.2652611,152
1657531726.20128,8791.2652664,166
1657531726.20128,8791.2652738,183
1657531726.20128,8791.2652802,195
1657531726.20128,8791.2652861,207
1657531726.20128,8791.2652919,221
1657531726.20128,8791.2652986,238
1657531726.20128,8791.2653081,250
1657531726.20128,8791.2653179,252
1657531726.20128,8791.2653319,259
1657531726.20128,8791.2653466,269
1657531726.20128,8791.2653599,262
1657531726.20128,8791.2653729,240
1657531726.20128,8791.265387,216
1657531726.20128,8791.2654005,195
1657531726.20128,8791.2654142,157
1657531726.20128,8791.2654281,97
1657531726.20128,8791.2654428,42
1657531726.20128,8791.2654568,4
1657531726.20128,8791.2654704,-33
1657531726.20128,8791.2654845,-57
1657531726.20128,8791.2654982,-64
1657531726.20128,8791.265512,-81
1657531726.20128,8791.2655266,-92
1657531726.20128,8791.2655407,-88
1657531726.20128,8791.2655547,-81
1657531726.20128,8791.2655688,-78
1657531726.20128,8791.2655827,-64
1657531726.20128,8791.2655978,-42
1657531726.20128,8791.265609,-40
1657531726.20128,8791.2656134,-47
1657531726.20128,8791.2656155,-38
1657531726.20128,8791.2656177,-23
1657531726.20128,8791.2656201,-16
1657531726.20128,8791.2656276,-9
1657531726.20128,8791.2656398,0
1657531726.20128,8791.2656458,2
1657531726.20128,8791.2656482,0
1657531726.20128,8791.2656503,0
1657531726.20128,8791.2656524,2
1657531726.20128,8791.2656545,7
1657531726.20128,8791.2656566,11
1657531726.20128,8791.2656587,16
1657531726.20128,8791.2656608,11
1657531726.20128,8791.2656629,4
1657531726.20128,8791.265665,9
1657531726.20128,8791.2656671,11
1657531726.20128,8791.2656692,11
1657531726.21225,8791.2656713,19
1657531726.21225,8791.2656734,19
1657531726.21225,8791.9005468,21
1657531726.21225,8791.9005594,26
1657531726.21225,8791.9005626,28
1657531726.21225,8791.9005654,33
1657531726.21225,8791.9005679,40
1657531726.21225,8791.9005703,35
1657531726.21225,8791.9005726,19
1657531726.21225,8791.9005749,14
1657531726.21225,8791.9005772,26
1657531726.21225,8791.9005794,33
1657531726.21225,8791.9005816,28
1657531726.21225,8791.9005839,30
1657531726.21225,8791.9005861,28
1657531726.21225,8791.9005884,11
1657531726.21225,8791.9005907,11
1657531726.21225,8791.900593,30
1657531726.21225,8791.9005952,33
1657531726.21225,8791.9005975,26
1657531726.21225,8791.9006008,35
1657531726.21225,8791.9006031,40
1657531726.21225,8791.9006053,35
1657531726.21225,8791.9006075,40
1657531726.6805,8791.9006098,50
1657531726.6805,8791.9006119,52
1657531726.6805,8791.9006141,52
1657531726.6805,8791.9006162,54
1657531726.6805,8791.9006183,59
1657531726.6805,8791.9006204,54
1657531726.6805,8791.9006225,52
1657531726.6805,8791.9006247,54
1657531726.6805,8791.9006269,57
1657531726.6805,8791.900629,59
1657531726.6805,8791.900631,61
1657531726.6805,8791.9006331,64
1657531726.6805,8791.9006352,66
1657531726.6805,8791.9006374,69
1657531726.6805,8791.9006395,66
1657531726.6805,8791.9006416,57
1657531726.6805,8791.9006437,50
1657531726.6805,8791.9006469,57
1657531726.6805,8791.9006492,83
1657531726.6805,8791.9006514,116
1657531726.6805,8791.9006536,123
1657531726.6805,8791.9006558,100
1657531726.6805,8791.9006581,76
1657531726.6805,8791.9006603,69
1657531726.6805,8791.9006625,69
1657531726.6805,8791.9006648,64
1657531726.6805,8791.900667,64
1657531726.6805,8791.9006692,69
1657531726.6805,8791.9006715,71
1657531726.6805,8791.9006738,71
1657531726.6805,8791.900676,78
1657531726.6805,8791.9006782,92
1657531726.6805,8791.9006825,133
1657531726.6805,8791.9006849,319
1657531726.6805,8791.9006871,755
1657531726.6805,8791.9006894,1113
1657531726.6805,8791.9006918,758
1657531726.6805,8791.900695,-157
1657531726.6805,8791.9007029,-548
1657531726.6805,8791.9007168,-138
1657531726.6805,8791.9007238,150
1657531726.6805,8791.9007262,38
1657531726.6805,8791.9007283,19
1657531726.6805,8791.9007304,97
1657531726.6805,8791.9007325,81
1657531726.6805,8791.9007361,66
1657531726.6805,8791.9007496,97
1657531726.6805,8791.9007559,104
1657531726.6805,8791.9007589,95
1657531726.6805,8791.9007611,104
1657531726.69047,8791.9007633,116
1657531726.69047,8792.3862526,121
1657531726.69047,8792.3862733,131
1657531726.69047,8792.3862841,140
1657531726.69047,8792.3862943,145
1657531726.69047,8792.386302,152
1657531726.69047,8792.3863139,164
1657531726.69047,8792.3863254,178
1657531726.69047,8792.3863338,193
1657531726.69047,8792.3863458,205
1657531726.69047,8792.3863568,212
1657531726.69047,8792.3863689,214
1657531726.69047,8792.3863773,224
1657531726.69047,8792.3863844,238
1657531726.69047,8792.3863927,245
1657531726.69047,8792.3864,252
1657531726.69047,8792.3864091,255
1657531726.69047,8792.3864165,245
1657531726.69047,8792.3864258,238
1657531726.69047,8792.3864325,233
1657531726.69047,8792.3864372,219
1657531726.69047,8792.3864393,202
1657531726.69047,8792.3864425,185
1657531726.69047,8792.3864446,150
1657531727.26764,8792.3864467,95
1657531727.26764,8792.3864488,45
1657531727.26764,8792.3864509,-2
1657531727.26764,8792.3864558,-38
1657531727.26764,8792.3864612,-66
1657531727.26764,8792.3864662,-95
1657531727.26764,8792.3864716,-116
1657531727.26764,8792.3864827,-112
1657531727.26764,8792.3864881,-104
1657531727.26764,8792.3864953,-112
1657531727.26764,8792.3865032,-112
1657531727.26764,8792.3865125,-100
1657531727.26764,8792.3865178,-88
1657531727.26764,8792.3865255,-78
1657531727.26764,8792.3865315,-66
1657531727.26764,8792.3865424,-54
1657531727.26764,8792.3865474,-47
1657531727.26764,8792.3865497,-42
1657531727.26764,8792.3865519,-38
1657531727.26764,8792.3865541,-30
1657531727.26764,8792.3865562,-21
1657531727.26764,8792.3865583,-16
1657531727.26764,8792.3865604,-14
1657531727.26764,8792.3865625,-9
1657531727.26764,8792.3865646,-7
1657531727.26764,8792.3865667,-7
1657531727.26764,8792.3865688,-4
1657531727.26764,8792.3865709,-4
1657531727.26764,8792.386573,-7
1657531727.26764,8792.3865751,-7
1657531727.26764,8792.3865771,-4
1657531727.26764,8792.3865793,0
1657531727.26764,8792.3865814,2
1657531727.26764,8792.3865835,7
1657531727.26764,8792.3865855,14
1657531727.26764,8792.3866174,16
1657531727.26764,8792.3866282,19
1657531727.26764,8792.386643,23
1657531727.26764,8792.3866564,28
1657531727.26764,8792.3866694,30
1657531727.26764,8792.3866826,33
1657531727.26764,8792.3866958,35
1657531727.26764,8792.3867089,40
1657531727.26764,8792.3867218,45
1657531727.26764,8792.386735,42
1657531727.26764,8792.3867481,50
1657531727.26764,8792.386761,54
1657531727.26764,8792.3867741,57
1657531727.26764,8792.3867871,57
1657531727.26764,8792.3868005,61
1657531727.27762,8792.9718421,61
1657531727.27762,8792.9718587,66
1657531727.27762,8792.9718634,71
1657531727.27762,8792.9718671,69
1657531727.27762,8792.9718722,71
1657531727.27762,8792.9718757,73
1657531727.27762,8792.971879,61
1657531727.27762,8792.9718849,52
1657531727.27762,8792.9718977,59
1657531727.27762,8792.9719068,59
1657531727.27762,8792.9719198,52
1657531727.27762,8792.9719335,54
1657531727.27762,8792.971947,52
1657531727.27762,8792.971961,38
1657531727.27762,8792.9719748,35
1657531727.27762,8792.9719882,42
1657531727.27762,8792.972002,47
1657531727.27762,8792.9720157,52
1657531727.27762,8792.9720319,54
1657531727.27762,8792.9720445,54
1657531727.27762,8792.9720535,57
1657531727.27762,8792.9720588,57
1657531727.27762,8792.9720635,47
1657531727.27762,8792.9720765,38
1657531727.85613,8792.9720895,42
1657531727.85613,8792.9721,64
1657531727.85613,8792.9721172,92
1657531727.85613,8792.9721312,116
1657531727.85613,8792.9721383,114
1657531727.85613,8792.972143,88
1657531727.85613,8792.9721472,71
1657531727.85613,8792.9721515,73
1657531727.85613,8792.9721554,71
1657531727.85613,8792.9721595,66
1657531727.85613,8792.9721661,69
1657531727.85613,8792.9721701,76
1657531727.85613,8792.9721761,81
1657531727.85613,8792.9721808,85
1657531727.85613,8792.9721863,90
1657531727.85613,8792.9721904,107
1657531727.85613,8792.9721959,195
1657531727.85613,8792.9721998,512
1657531727.85613,8792.9722055,1034
1657531727.85613,8792.9722094,1173
1657531727.85613,8792.9722149,505
1657531727.85613,8792.9722187,-295
1657531727.85613,8792.9722242,-319
1657531727.85613,8792.972228,90
1657531727.85613,8792.9722328,131
1657531727.85613,8792.9722367,0
1657531727.85613,8792.9722423,57
1657531727.85613,8792.9722474,97
1657531727.85613,8792.972253,57
1657531727.85613,8792.9722568,66
1657531727.85613,8792.9722621,95
1657531727.85613,8792.9722668,92
1657531727.85613,8792.9722874,92
1657531727.85613,8792.9722927,102
1657531727.85613,8792.9722963,107
1657531727.85613,8792.9723,114
1657531727.85613,8792.972306,126
1657531727.85613,8792.9723094,135
1657531727.85613,8792.9723149,145
1657531727.85613,8792.9723192,152
1657531727.85613,8792.9723226,162
1657531727.85613,8792.9723262,176
1657531727.85613,8792.9723298,190
1657531727.85613,8792.9723349,205
1657531727.85613,8792.9723392,221
1657531727.85613,8792.9723429,233
1657531727.85613,8792.9723468,245
1657531727.85613,8792.9723507,259
1657531727.85613,8792.9723559,276
1657531727.85613,8793.5561475,281
1657531727.8671,8793.5561904,281
1657531727.8671,8793.5562054,278
1657531727.8671,8793.55622,271
1657531727.8671,8793.5562341,262
1657531727.8671,8793.5562433,250
1657531727.8671,8793.5562461,236
1657531727.8671,8793.5562513,214
1657531727.8671,8793.5562543,169
1657531727.8671,8793.5562565,102
1657531727.8671,8793.5562587,33
1657531727.8671,8793.5562609,-9
1657531727.8671,8793.5562631,-35
1657531727.8671,8793.5562652,-57
1657531727.8671,8793.5562673,-71
1657531727.8671,8793.5562695,-83
1657531727.8671,8793.5562717,-95
1657531727.8671,8793.556287,-100
1657531727.8671,8793.5562891,-97
1657531727.8671,8793.5562912,-92
1657531727.8671,8793.5562933,-83
1657531727.8671,8793.5563085,-73
1657531727.8671,8793.5563106,-73
1657531727.8671,8793.5563128,-69
1657531727.8671,8793.556315,-54
1657531728.39012,8793.5563302,-45
1657531728.39012,8793.5563323,-40
1657531728.39012,8793.5563342,-33
1657531728.39012,8793.5563361,-23
1657531728.39012,8793.5563381,-19
1657531728.39012,8793.5563551,-11
1657531728.39012,8793.5563571,-4
1657531728.39012,8793.5563591,-7
1657531728.39012,8793.5563611,-11
1657531728.39012,8793.5563768,-9
1657531728.39012,8793.5563788,-4
1657531728.39012,8793.5563808,-2
1657531728.39012,8793.5563827,2
1657531728.39012,8793.5563847,7
1657531728.39012,8793.5563866,11
1657531728.39012,8793.5564021,14
1657531728.39012,8793.556404,19
1657531728.39012,8793.556406,21
1657531728.39012,8793.556408,26
1657531728.39012,8793.5564099,28
1657531728.39012,8793.5564119,30
1657531728.39012,8793.5564139,38
1657531728.39012,8793.5564159,42
1657531728.39012,8793.5564312,42
1657531728.39012,8793.5564332,45
1657531728.39012,8793.5564351,52
1657531728.39012,8793.5564371,54
1657531728.39012,8793.5564389,57
1657531728.39012,8793.556456,61
1657531728.39012,8793.556458,64
1657531728.39012,8793.55646,64
1657531728.39012,8793.5564619,66
1657531728.39012,8793.5564646,71
1657531728.39012,8793.5564667,76
1657531728.39012,8793.5564687,81
1657531728.39012,8793.5564707,81
1657531728.39012,8793.5564727,81
1657531728.39012,8793.5564747,83
1657531728.39012,8793.5564766,85
1657531728.39012,8793.5564786,88
1657531728.39012,8793.5564805,83
1657531728.39012,8793.5564825,78
1657531728.39012,8793.5564844,83
1657531728.39012,8793.5564865,83
1657531728.39012,8793.5564896,85
1657531728.39012,8793.5564917,90
1657531728.39012,8793.5564945,92
1657531728.39012,8793.5564966,92
1657531728.39012,8794.0943782,92
1657531728.39012,8794.0943954,92
1657531728.4001,8794.0944046,97
1657531728.4001,8794.0944149,100
1657531728.4001,8794.0944273,102
1657531728.4001,8794.0944406,104
1657531728.4001,8794.0944535,102
1657531728.4001,8794.0944624,100
1657531728.4001,8794.09447,104
1657531728.4001,8794.0944791,102
1657531728.4001,8794.0944833,90
1657531728.4001,8794.0944942,85
1657531728.4001,8794.0945079,81
1657531728.4001,8794.0945145,66
1657531728.4001,8794.0945198,61
1657531728.4001,8794.0945251,73
1657531728.4001,8794.0945282,76
1657531728.4001,8794.0945323,76
1657531728.4001,8794.0945367,73
1657531728.4001,8794.0945422,57
1657531728.4001,8794.0945464,40
1657531728.4001,8794.0945526,38
1657531728.4001,8794.094559,45
1657531728.4001,8794.0945645,69
1657531728.4001,8794.0945699,102
1657531728.4001,8794.0945749,119
1657531729.12136,8794.0945786,107
1657531729.12136,8794.0945824,88
1657531729.12136,8794.0945867,78
1657531729.12136,8794.0945921,71
1657531729.12136,8794.0945993,61
1657531729.12136,8794.0946064,59
1657531729.12136,8794.0946134,57
1657531729.12136,8794.0946172,64
1657531729.12136,8794.0946212,71
1657531729.12136,8794.0946245,76
1657531729.12136,8794.0946283,81
1657531729.12136,8794.0946314,90
1657531729.12136,8794.0946349,128
1657531729.12136,8794.0946384,329
1657531729.12136,8794.0946418,808
1657531729.12136,8794.0946455,1211
1657531729.12136,8794.094649,884
1657531729.12136,8794.0946553,-14
1657531729.12136,8794.0946616,-443
1657531729.12136,8794.0946649,-100
1657531729.12136,8794.0946682,152
1657531729.12136,8794.0946725,26
1657531729.12136,8794.0946761,0
1657531729.12136,8794.0946798,81
1657531729.12136,8794.0946834,64
1657531729.12136,8794.0946873,45
1657531729.12136,8794.094691,78
1657531729.12136,8794.0946948,88
1657531729.12136,8794.0946987,81
1657531729.12136,8794.0947022,90
1657531729.12136,8794.0947056,95
1657531729.12136,8794.0947262,95
1657531729.12136,8794.0947302,104
1657531729.12136,8794.0947339,121
1657531729.12136,8794.0947391,126
1657531729.12136,8794.0947455,131
1657531729.12136,8794.0947493,138
1657531729.12136,8794.0947548,145
1657531729.12136,8794.0947581,152
1657531729.12136,8794.0947618,164
1657531729.12136,8794.094767,178
1657531729.12136,8794.0947707,190
1657531729.12136,8794.0947741,205
1657531729.12136,8794.0947775,219
1657531729.12136,8794.0947812,231
1657531729.12136,8794.0947847,247
1657531729.12136,8794.094789,262
1657531729.12136,8794.8243895,274
1657531729.12136,8794.8244088,281
1657531729.12136,8794.8244192,278
1657531729.13133,8794.8244268,255
1657531729.13133,8794.8244316,233
1657531729.13133,8794.8244394,224
1657531729.13133,8794.8244462,200
1657531729.13133,8794.824457,150
1657531729.13133,8794.8244706,90
1657531729.13133,8794.8244841,40
1657531729.13133,8794.8244978,-2
1657531729.13133,8794.8245116,-30
1657531729.13133,8794.8245256,-47
1657531729.13133,8794.8245394,-59
1657531729.13133,8794.824566,-66
1657531729.13133,8794.8245925,-76
1657531729.13133,8794.8246058,-88
1657531729.13133,8794.8246324,-88
1657531729.13133,8794.8246587,-73
1657531729.13133,8794.8246724,-64
1657531729.13133,8794.8246814,-57
1657531729.13133,8794.8246857,-52
1657531729.13133,8794.8246878,-57
1657531729.13133,8794.8246905,-54
1657531729.13133,8794.8246928,-42
1657531729.13133,8794.824695,-38
1657531729.13133,8794.8246975,-28
1657531729.65534,8794.8246995,-19
1657531729.65534,8794.8247015,-16

1657531729.65534,8794.8247035,-11
1657531729.65534,8794.8247055,-4
1657531729.65534,8794.8247075,-7
1657531729.65534,8794.8247094,-4
1657531729.65534,8794.8247114,7
1657531729.65534,8794.8247134,9
1657531729.65534,8794.8247153,0
1657531729.65534,8794.8247173,4
1657531729.65534,8794.8247192,14
1657531729.65534,8794.8247212,16
1657531729.65534,8794.8247232,23
1657531729.65534,8794.8247251,30
1657531729.65534,8794.824727,30
1657531729.65534,8794.8247305,26
1657531729.65534,8794.8247415,30
1657531729.65534,8794.8247512,38
1657531729.65534,8794.824757,40
1657531729.65534,8794.8247679,40
1657531729.65534,8794.8247794,42
1657531729.65534,8794.824783,45
1657531729.65534,8794.8247875,47
1657531729.65534,8794.8247913,52
1657531729.65534,8794.824796,54
1657531729.65534,8794.8247993,57
1657531729.65534,8794.8248024,64
1657531729.65534,8794.8248055,66
1657531729.65534,8794.8248086,64
1657531729.65534,8794.8248118,66
1657531729.65534,8794.8248151,69
1657531729.65534,8794.8248184,73
1657531729.65534,8794.8248228,78
1657531729.65534,8794.8248259,76
1657531729.65534,8794.824829,73
1657531729.65534,8794.8248324,83
1657531729.65534,8794.8248357,90
1657531729.65534,8794.8248401,90
1657531729.65534,8794.8248442,88
1657531729.65534,8794.8248562,92
1657531729.65534,8794.8248602,90
1657531729.65534,8794.824881,85
1657531729.65534,8794.8248852,83
1657531729.65534,8794.8248881,78
1657531729.65534,8794.8248909,81
1657531729.65534,8794.8248939,81
1657531729.65534,8795.3600898,76
1657531729.65534,8795.3601053,78
1657531729.65534,8795.3601094,85
1657531729.65534,8795.3601187,90
1657531729.66632,8795.3601234,92
1657531729.66632,8795.360127,92
1657531729.66632,8795.3601307,88
1657531729.66632,8795.3601342,78
1657531729.66632,8795.3601377,83
1657531729.66632,8795.3601412,95
1657531729.66632,8795.3601752,95
1657531729.66632,8795.3601842,90
1657531729.66632,8795.3601936,83
1657531729.66632,8795.3602012,69
1657531729.66632,8795.3602095,71
1657531729.66632,8795.3602184,78
1657531729.66632,8795.3602207,61
1657531729.66632,8795.3602229,50
1657531729.66632,8795.3602259,66
1657531729.66632,8795.3602353,97
1657531729.66632,8795.3602476,133
1657531729.66632,8795.3602549,145
1657531729.66632,8795.360265,119
1657531729.66632,8795.3602794,100
1657531729.66632,8795.3602909,97
1657531729.66632,8795.3603012,81
1657531729.66632,8795.360314,64
1657531729.66632,8795.3603206,64
1657531730.04296,8795.3603265,59
1657531730.04296,8795.3603345,59
1657531730.04296,8795.3603393,64
1657531730.04296,8795.3603437,66
1657531730.04296,8795.3603481,66
1657531730.04296,8795.3603521,85
1657531730.04296,8795.3603562,166
1657531730.04296,8795.3603614,445
1657531730.04296,8795.3603654,939
1657531730.04296,8795.3603691,1103
1657531730.04296,8795.3603728,433
1657531730.04296,8795.3603763,-429
1657531730.04296,8795.3603799,-474
1657531730.04296,8795.3603834,7
1657531730.04296,8795.3603871,119
1657531730.04296,8795.3603908,-7
1657531730.04296,8795.3603958,40
1657531730.04296,8795.3604019,88
1657531730.04296,8795.360406,47
1657531730.04296,8795.3604115,50
1657531730.04296,8795.3604172,78
1657531730.04296,8795.3604211,78
1657531730.04296,8795.3604267,71
1657531730.04296,8795.3604305,81
1657531730.04296,8795.3604362,90
1657531730.04296,8795.3604401,95
1657531730.04296,8795.3604438,100
1657531730.04296,8795.3604475,114
1657531730.04296,8795.3604515,123
1657531730.04296,8795.3604573,133
1657531730.04296,8795.3604632,145
1657531730.04296,8795.3604683,152
1657531730.04296,8795.3604718,166
1657531730.04296,8795.360476,185
1657531730.04296,8795.3604789,190
1657531730.04296,8795.3604818,197
1657531730.04296,8795.3604847,214
1657531730.04296,8795.3604877,233
1657531730.04296,8795.3604907,252
1657531730.04296,8795.3604936,274
1657531730.04296,8795.3604965,288
1657531730.04296,8795.3604993,300
1657531730.04296,8795.3605024,302
1657531730.04296,8795.3605059,290
1657531730.04296,8795.3605103,276
1657531730.04296,8795.7499518,264
1657531730.04296,8795.7499703,238
1657531730.04296,8795.7499784,188
1657531730.04296,8795.7499864,123
1657531730.04296,8795.7499912,59
1657531730.05393,8795.7499979,11
1657531730.05393,8795.7500052,-23
1657531730.05393,8795.7500138,-47
1657531730.05393,8795.7500244,-64
1657531730.05393,8795.7500284,-88
1657531730.05393,8795.7500319,-104
1657531730.05393,8795.7500353,-95
1657531730.05393,8795.7500393,-83
1657531730.05393,8795.7500414,-76
1657531730.05393,8795.7500445,-66
1657531730.05393,8795.7500468,-64
1657531730.05393,8795.7500489,-69
1657531730.05393,8795.7500511,-61
1657531730.05393,8795.7500531,-45
1657531730.05393,8795.7500553,-38
1657531730.05393,8795.7500573,-30
1657531730.05393,8795.7500594,-23
1657531730.05393,8795.7500614,-26
1657531730.05393,8795.7500635,-21
1657531730.05393,8795.7500656,-11
1657531730.05393,8795.7500677,-7
1657531730.05393,8795.7500698,-4
1657531730.05393,8795.7500718,-2
1657531730.05393,8795.7500739,-2
1657531730.64051,8795.750076,-7
1657531730.64051,8795.7500781,-7
1657531730.64051,8795.75008,-2
1657531730.64051,8795.750082,2
1657531730.64051,8795.750084,2
1657531730.64051,8795.750086,0
1657531730.64051,8795.7500879,0
1657531730.64051,8795.7500898,4
1657531730.64051,8795.7500917,11
1657531730.64051,8795.7500936,16
1657531730.64051,8795.7500956,19
1657531730.64051,8795.7501015,19
1657531730.64051,8795.7501098,16
1657531730.64051,8795.7501175,21
1657531730.64051,8795.7501259,26
1657531730.64051,8795.7501387,30
1657531730.64051,8795.7501493,33
1657531730.64051,8795.750158,35
1657531730.64051,8795.7501673,38
1657531730.64051,8795.7501779,38
1657531730.64051,8795.7501856,40
1657531730.64051,8795.7501908,47
1657531730.64051,8795.7501974,50
1657531730.64051,8795.7502013,47
1657531730.64051,8795.7502057,50
1657531730.64051,8795.7502122,47
1657531730.64051,8795.7502167,38
1657531730.64051,8795.7502229,35
1657531730.64051,8795.750229,35
1657531730.64051,8795.7502334,35
1657531730.64051,8795.7502389,47
1657531730.64051,8795.7502427,47
1657531730.64051,8795.7502464,23
1657531730.64051,8795.7502505,38
1657531730.64051,8795.7502561,78
1657531730.64051,8795.7502601,73
1657531730.64051,8795.7502636,42
1657531730.64051,8795.7502672,57
1657531730.64051,8795.7502725,97
1657531730.64051,8795.7502763,100
1657531730.64051,8795.7502814,59
1657531730.64051,8795.7502852,52
1657531730.64051,8795.7502905,97
1657531730.64051,8795.7502944,112
1657531730.64051,8796.3344646,78
1657531730.64051,8796.3344825,64
1657531730.64051,8796.3344915,69
1657531730.64051,8796.3345002,59
1657531730.64051,8796.3345072,66
1657531730.64051,8796.3345171,104
1657531730.65148,8796.3345292,104
1657531730.65148,8796.3345426,57
1657531730.65148,8796.3345565,11
1657531730.65148,8796.3345697,-19
1657531730.65148,8796.3345835,0
1657531730.65148,8796.3345967,92
1657531730.65148,8796.3346065,159
1657531730.65148,8796.334614,135
1657531730.65148,8796.3346235,109
1657531730.65148,8796.3346302,102
1657531730.65148,8796.3346429,71
1657531730.65148,8796.3346559,50
1657531730.65148,8796.3346697,47
1657531730.65148,8796.3346838,42
1657531730.65148,8796.3346986,33
1657531730.65148,8796.334726,35
1657531730.65148,8796.3347524,42
1657531730.65148,8796.3347648,50
1657531730.65148,8796.3347738,61
1657531730.65148,8796.3347787,119
1657531730.65148,8796.3347821,355
1657531730.65148,8796.3347967,841
1657531730.65148,8796.3348108,1158
1657531730.65148,8796.3348199,736
1657531731.22128,8796.3348227,-128
1657531731.22128,8796.3348248,-436
1657531731.22128,8796.3348268,-52
1657531731.22128,8796.3348289,138
1657531731.22128,8796.3348308,-14
1657531731.22128,8796.3348328,-14
1657531731.22128,8796.3348347,61
1657531731.22128,8796.3348381,30
1657531731.22128,8796.3348482,16
1657531731.22128,8796.334862,45
1657531731.22128,8796.3348756,47
1657531731.22128,8796.3348891,47
1657531731.22128,8796.334898,64
1657531731.22128,8796.3349135,73
1657531731.22128,8796.3349155,71
1657531731.22128,8796.3349174,73
1657531731.22128,8796.3349193,78
1657531731.22128,8796.3349348,71
1657531731.22128,8796.3349368,59
1657531731.22128,8796.3349411,76
1657531731.22128,8796.334944,100
1657531731.22128,8796.3349835,76
1657531731.22128,8796.3349949,78
1657531731.22128,8796.335002,183
1657531731.22128,8796.3350108,255
1657531731.22128,8796.3350183,219
1657531731.22128,8796.3350272,216
1657531731.22128,8796.3350392,259
1657531731.22128,8796.3350487,255
1657531731.22128,8796.335054,250
1657531731.22128,8796.3350608,271
1657531731.22128,8796.3350668,271
1657531731.22128,8796.3350781,250
1657531731.22128,8796.3350919,240
1657531731.22128,8796.3351003,245
1657531731.22128,8796.335103,252
1657531731.22128,8796.3351053,214
1657531731.22128,8796.3351074,159
1657531731.22128,8796.335115,133
1657531731.22128,8796.3351286,85
1657531731.22128,8796.3351384,19
1657531731.22128,8796.3351436,-9
1657531731.22128,8796.33515,-19
1657531731.22128,8796.9195652,-30
1657531731.22128,8796.9195865,-35
1657531731.22128,8796.9195947,-35
1657531731.22128,8796.9196009,-38
1657531731.22128,8796.9196088,-33
1657531731.22128,8796.9196181,-23
1657531731.22128,8796.9196252,-19
1657531731.23325,8796.919631,-23
1657531731.23325,8796.9196392,-16
1657531731.23325,8796.9196454,-4
1657531731.23325,8796.9196532,4
1657531731.23325,8796.9196589,11
1657531731.23325,8796.9196668,7
1657531731.23325,8796.9196729,-4
1657531731.23325,8796.91968,-4
1657531731.23325,8796.9196909,0
1657531731.23325,8796.9197174,-7
1657531731.23325,8796.9197233,-14
1657531731.23325,8796.9197289,-30
1657531731.23325,8796.9197341,-28
1657531731.23325,8796.9197394,33
1657531731.23325,8796.9197443,71
1657531731.23325,8796.919749,30
1657531731.23325,8796.9197562,7
1657531731.23325,8796.9197611,28
1657531731.23325,8796.9197677,26
1657531731.23325,8796.9197729,11
1657531731.23325,8796.9197798,14
1657531731.23325,8796.9197866,30
1657531731.23325,8796.9197932,45
1657531731.23325,8796.9197998,52
1657531731.75031,8796.9198065,47
1657531731.75031,8796.9198115,45
1657531731.75031,8796.9198169,52
1657531731.75031,8796.9198221,54
1657531731.75031,8796.9198268,52
1657531731.75031,8796.9198316,50
1657531731.75031,8796.9198365,42
1657531731.75031,8796.9198414,45
1657531731.75031,8796.9198464,61
1657531731.75031,8796.9198532,66
1657531731.75031,8796.9198584,54
1657531731.75031,8796.9198655,54
1657531731.75031,8796.9198715,57
1657531731.75031,8796.9198784,47
1657531731.75031,8796.9198835,47
1657531731.75031,8796.9198906,61
1657531731.75031,8796.9198973,61
1657531731.75031,8796.9199022,57
1657531731.75031,8796.9199087,59
1657531731.75031,8796.9199137,64
1657531731.75031,8796.9199207,71
1657531731.75031,8796.9199282,66
1657531731.75031,8796.9199337,47
1657531731.75031,8796.9199409,52
1657531731.75031,8796.9199477,104
1657531731.75031,8796.9199543,131
1657531731.75031,8796.9199607,109
1657531731.75031,8796.9199684,92
1657531731.75031,8796.9199743,102
1657531731.75031,8796.9199827,100
1657531731.75031,8796.9199874,92
1657531731.75031,8796.9199948,97
1657531731.75031,8796.9200018,102
1657531731.75031,8796.9200087,102
1657531731.75031,8796.9200137,107
1657531731.75031,8796.9200187,109
1657531731.75031,8796.9200254,104
1657531731.75031,8796.9200304,104
1657531731.75031,8796.9200369,114
1657531731.75031,8796.9200422,119
1657531731.75031,8796.920049,112
1657531731.75031,8796.9200544,97
1657531731.75031,8797.4565397,85
1657531731.75031,8797.4565598,90
1657531731.75031,8797.456574,119
1657531731.75031,8797.4565902,157
1657531731.75031,8797.4566045,166
1657531731.75031,8797.4566145,140
1657531731.75031,8797.4566197,109
1657531731.75031,8797.456624,100
1657531731.76128,8797.4566262,92
1657531731.76128,8797.4566294,85
1657531731.76128,8797.4566358,78
1657531731.76128,8797.4566393,76
1657531731.76128,8797.4566428,61
1657531731.76128,8797.4566463,21
1657531731.76128,8797.4566498,7
1657531731.76128,8797.4566533,64
1657531731.76128,8797.4566553,121
1657531731.76128,8797.4566572,174
1657531731.76128,8797.4566594,426
1657531731.76128,8797.4566614,939
1657531731.76128,8797.4566634,1187
1657531731.76128,8797.4566655,619
1657531731.76128,8797.4566677,-278
1657531731.76128,8797.4566697,-453
1657531731.76128,8797.4566718,-19
1657531731.76128,8797.4566739,112
1657531731.76128,8797.456676,-26
1657531731.76128,8797.4566781,7
1657531731.76128,8797.4566801,66
1657531731.76128,8797.4566822,23
1657531731.76128,8797.4566842,23
1657531731.76128,8797.4566862,69
1657531732.28623,8797.4566883,69
1657531732.28623,8797.4566923,61
1657531732.28623,8797.4566942,78
1657531732.28623,8797.4566962,81
1657531732.28623,8797.4566981,85
1657531732.28623,8797.4567012,100
1657531732.28623,8797.4567097,107
1657531732.28623,8797.4567152,119
1657531732.28623,8797.4567189,135
1657531732.28623,8797.4567224,150
1657531732.28623,8797.4567259,159
1657531732.28623,8797.4567292,166
1657531732.28623,8797.4567327,185
1657531732.28623,8797.4567365,216
1657531732.28623,8797.4567399,236
1657531732.28623,8797.4567434,250
1657531732.28623,8797.4567474,269
1657531732.28623,8797.4567563,286
1657531732.28623,8797.4567664,298
1657531732.28623,8797.4567783,319
1657531732.28623,8797.4567904,338
1657531732.28623,8797.4568031,338
1657531732.28623,8797.4568075,338
1657531732.28623,8797.4568115,338
1657531732.28623,8797.4568135,324
1657531732.28623,8797.4568156,293
1657531732.28623,8797.4568177,259
1657531732.28623,8797.4568197,216
1657531732.28623,8797.4568219,150
1657531732.28623,8797.4568239,88
1657531732.28623,8797.4568263,54
1657531732.28623,8797.456829,33
1657531732.28623,8797.4568311,11
1657531732.28623,8797.4568332,2
1657531732.28623,8797.4568353,-4
1657531732.28623,8797.4568373,-11
1657531732.28623,8797.4568395,-2
1657531732.28623,8797.4568415,2
1657531732.28623,8797.4568436,7
1657531732.28623,8797.4568457,19
1657531732.28623,8797.4568477,26
1657531732.28623,8797.992164,26
1657531732.28623,8797.9921831,38
1657531732.28623,8797.9921884,47
1657531732.28623,8797.9921931,50
1657531732.28623,8797.9921985,57
1657531732.28623,8797.9922028,64
1657531732.28623,8797.9922086,66
1657531732.28623,8797.9922125,71
1657531732.28623,8797.9922164,71
1657531732.2982,8797.9922222,57
1657531732.2982,8797.9922262,50
1657531732.2982,8797.9922301,54
1657531732.2982,8797.9922341,59
1657531732.2982,8797.9922382,59
1657531732.2982,8797.9922441,59
1657531732.2982,8797.9922481,50
1657531732.2982,8797.9922546,35
1657531732.2982,8797.9922605,33
1657531732.2982,8797.9922702,42
1657531732.2982,8797.9922743,47
1657531732.2982,8797.9922783,50
1657531732.2982,8797.992282,52
1657531732.2982,8797.9922859,52
1657531732.2982,8797.99229,52
1657531732.2982,8797.9922939,47
1657531732.2982,8797.9922977,38
1657531732.2982,8797.9923032,38
1657531732.2982,8797.9923089,42
1657531732.2982,8797.9923127,42
1657531732.2982,8797.9923175,45
1657531732.2982,8797.9923232,47
1657531732.2982,8797.9923273,54
1657531732.2982,8797.9923327,61
1657531732.92021,8797.9923378,64
1657531732.92021,8797.9923416,64
1657531732.92021,8797.9923452,64
1657531732.92021,8797.9923488,69
1657531732.92021,8797.9923522,71
1657531732.92021,8797.9923559,78
1657531732.92021,8797.9923592,85
1657531732.92021,8797.9923633,88
1657531732.92021,8797.9923675,83
1657531732.92021,8797.9923709,83
1657531732.92021,8797.9923743,90
1657531732.92021,8797.9923811,92
1657531732.92021,8797.9923862,95
1657531732.92021,8797.9923931,92
1657531732.92021,8797.9924004,95
1657531732.92021,8797.9924097,102
1657531732.92021,8797.9924167,104
1657531732.92021,8797.9924249,102
1657531732.92021,8797.9924312,109
1657531732.92021,8797.9924447,109
1657531732.92021,8797.9924557,104
1657531732.92021,8797.9924648,102
1657531732.92021,8797.9924706,107
1657531732.92021,8797.9924783,116
1657531732.92021,8797.992488,114
1657531732.92021,8797.9925013,102
1657531732.92021,8797.9925146,90
1657531732.92021,8797.9925271,92
1657531732.92021,8797.9925365,95
1657531732.92021,8797.9925421,95
1657531732.92021,8797.9925531,92
1657531732.92021,8797.9925659,90
1657531732.92021,8797.9925795,95
1657531732.92021,8797.9925925,109
1657531732.92021,8797.9926476,138
1657531732.92021,8797.9926585,164
1657531732.92021,8797.9926634,152
1657531732.92021,8797.9926675,123
1657531732.92021,8797.9926717,119
1657531732.92021,8797.9926761,112
1657531732.92021,8798.6259705,95
1657531732.92021,8798.6259868,90
1657531732.92021,8798.6259934,95
1657531732.92021,8798.6259964,100
1657531732.92021,8798.6259991,97
1657531732.92021,8798.6260019,85
1657531732.92021,8798.6260046,69
1657531732.92021,8798.6260073,64
1657531732.92021,8798.6260101,102
1657531732.92021,8798.626014,286
1657531732.92819,8798.6260169,748
1657531732.92819,8798.6260197,1156
1657531732.92819,8798.6260225,829
1657531732.92819,8798.6260252,-114
1657531732.92819,8798.6260282,-581
1657531732.92819,8798.6260308,-205
1657531732.92819,8798.6260335,104
1657531732.92819,8798.6260362,-14
1657531732.92819,8798.6260403,-61
1657531732.92819,8798.6260435,21
1657531732.92819,8798.6260462,19
1657531732.92819,8798.6260491,11
1657531732.92819,8798.6260519,42
1657531732.92819,8798.6260547,45
1657531732.92819,8798.6260575,45
1657531732.92819,8798.6260602,69
1657531732.92819,8798.626063,83
1657531732.92819,8798.6260659,83
1657531732.92819,8798.6260688,90
1657531732.92819,8798.6260716,100
1657531732.92819,8798.6260745,107
1657531732.92819,8798.6260773,126
1657531732.92819,8798.6260803,150
1657531732.92819,8798.626083,169
1657531733.40874,8798.6260859,185
1657531733.40874,8798.6260887,202
1657531733.40874,8798.6260914,228
1657531733.40874,8798.626094,255
1657531733.40874,8798.6260968,269
1657531733.40874,8798.6260995,283
1657531733.40874,8798.6261021,305
1657531733.40874,8798.6261048,338
1657531733.40874,8798.6261075,364
1657531733.40874,8798.6261102,371
1657531733.40874,8798.6261128,379
1657531733.40874,8798.6261157,398
1657531733.40874,8798.6261184,398
1657531733.40874,8798.6261211,369
1657531733.40874,8798.6261254,329
1657531733.40874,8798.6261308,276
1657531733.40874,8798.6261366,207
1657531733.40874,8798.6261432,126
1657531733.40874,8798.626151,47
1657531733.40874,8798.62616,-4
1657531733.40874,8798.6262725,-11
1657531733.40874,8798.6262902,-11
1657531733.40874,8798.626308,-35
1657531733.40874,8798.6263221,-59
1657531733.40874,8798.6263336,-57
1657531733.40874,8798.626343,-42
1657531733.40874,8798.6263931,-42
1657531733.40874,8798.6264044,-52
1657531733.40874,8798.6264108,-42
1657531733.40874,8798.6264206,-9
1657531733.40874,8798.6264278,7
1657531733.40874,8798.6264423,0
1657531733.40874,8798.6264557,11
1657531733.40874,8798.626478,28
1657531733.40874,8798.6264898,23
1657531733.40874,8798.6264981,16
1657531733.40874,8798.626506,16
1657531733.40874,8798.6265131,11
1657531733.40874,8798.6265221,9
1657531733.40874,8799.1151618,23
1657531733.40874,8799.1152737,54
1657531733.40874,8799.1152845,66
1657531733.40874,8799.1152888,40
1657531733.40874,8799.1152927,26
1657531733.40874,8799.1152964,45
1657531733.40874,8799.1153,50
1657531733.40874,8799.1153051,38
1657531733.40874,8799.1153107,33
1657531733.40874,8799.1153144,23
1657531733.40874,8799.1153189,21
1657531733.42128,8799.1153242,26
1657531733.42128,8799.1153276,19
1657531733.42128,8799.1153311,19
1657531733.42128,8799.1153368,35
1657531733.42128,8799.1153403,28
1657531733.42128,8799.115344,7
1657531733.42128,8799.1153851,21
1657531733.42128,8799.1153911,52
1657531733.42128,8799.115395,38
1657531733.42128,8799.115399,-2
1657531733.42128,8799.1154027,-14
1657531733.42128,8799.1154065,-16
1657531733.42128,8799.1154127,-11
1657531733.42128,8799.1154166,16
1657531733.42128,8799.1154215,57
1657531733.42128,8799.1154274,88
1657531733.42128,8799.1154319,76
1657531733.42128,8799.1154371,35
1657531733.42128,8799.1154404,16
1657531733.42128,8799.115444,-7
1657531733.42128,8799.1154502,-28
1657531733.42128,8799.1154552,4
1657531733.42128,8799.1154606,71
1657531733.42128,8799.1154644,107
1657531734.04388,8799.1154701,107
1657531734.04388,8799.1154741,88
1657531734.04388,8799.1154779,66
1657531734.04388,8799.1154816,61
1657531734.04388,8799.1154852,57
1657531734.04388,8799.115489,35
1657531734.04388,8799.1154928,52
1657531734.04388,8799.1154965,88
1657531734.04388,8799.1155001,64
1657531734.04388,8799.1155172,47
1657531734.04388,8799.1155293,116
1657531734.04388,8799.1155359,166
1657531734.04388,8799.1155416,112
1657531734.04388,8799.1155496,47
1657531734.04388,8799.1155755,45
1657531734.04388,8799.1155837,47
1657531734.04388,8799.1155882,42
1657531734.04388,8799.1155947,69
1657531734.04388,8799.1155995,83
1657531734.04388,8799.1156064,69
1657531734.04388,8799.1156109,92
1657531734.04388,8799.115624,162
1657531734.04388,8799.1156373,259
1657531734.04388,8799.115648,529
1657531734.04388,8799.1156608,920
1657531734.04388,8799.1156688,884
1657531734.04388,8799.1156759,171
1657531734.04388,8799.1156888,-488
1657531734.04388,8799.1156961,-383
1657531734.04388,8799.1156999,30
1657531734.04388,8799.1157137,114
1657531734.04388,8799.1157211,57
1657531734.04388,8799.1157256,95
1657531734.04388,8799.1157328,121
1657531734.04388,8799.1157433,121
1657531734.04388,8799.1157517,128
1657531734.04388,8799.1157544,128
1657531734.04388,8799.1157567,131
1657531734.04388,8799.7473834,145
1657531734.04388,8799.7474071,145
1657531734.04388,8799.7474214,140
1657531734.04388,8799.7474272,150
1657531734.04388,8799.747434,154
1657531734.04388,8799.7474403,143
1657531734.04388,8799.7474477,152
1657531734.04388,8799.7474551,169
1657531734.04388,8799.7474628,150
1657531734.04388,8799.7474682,176
1657531734.04388,8799.7474719,264
1657531734.04388,8799.7474755,298
1657531734.05285,8799.7474808,255
1657531734.05285,8799.7474865,233
1657531734.05285,8799.7474912,288
1657531734.05285,8799.7474981,345
1657531734.05285,8799.7475047,355
1657531734.05285,8799.7475109,345
1657531734.05285,8799.7475168,345
1657531734.05285,8799.747521,345
1657531734.05285,8799.747525,357
1657531734.05285,8799.7475299,417
1657531734.05285,8799.7475345,453
1657531734.05285,8799.7475408,393
1657531734.05285,8799.7475447,293
1657531734.05285,8799.7475485,214
1657531734.05285,8799.7475543,133
1657531734.05285,8799.7475586,19
1657531734.05285,8799.7475644,-64
1657531734.05285,8799.7475698,-90
1657531734.05285,8799.7475777,-152
1657531734.05285,8799.7475838,-138
1657531734.05285,8799.7475926,19
1657531734.05285,8799.7476027,50
1657531734.05285,8799.7476113,-66
1657531734.05285,8799.7476178,-73
1657531734.58562,8799.7476264,-11
1657531734.58562,8799.7476333,-42
1657531734.58562,8799.7476401,-112
1657531734.58562,8799.7476469,-138
1657531734.58562,8799.747652,-126
1657531734.58562,8799.7476575,-85
1657531734.58562,8799.7476609,-2
1657531734.58562,8799.7476644,66
1657531734.58562,8799.7476679,57
1657531734.58562,8799.7476715,-11
1657531734.58562,8799.7476773,-45
1657531734.58562,8799.747681,21
1657531734.58562,8799.7476867,83
1657531734.58562,8799.7476905,64
1657531734.58562,8799.7476975,16
1657531734.58562,8799.7477062,42
1657531734.58562,8799.7477125,95
1657531734.58562,8799.747718,50
1657531734.58562,8799.7477245,69
1657531734.58562,8799.7477311,145
1657531734.58562,8799.7477401,26
1657531734.58562,8799.7477473,-81
1657531734.58562,8799.7477525,38
1657531734.58562,8799.7477613,61
1657531734.58562,8799.7477683,-7
1657531734.58562,8799.7477744,159
1657531734.58562,8799.7477829,267
1657531734.58562,8799.7477889,95
1657531734.58562,8799.7477922,-16
1657531734.58562,8799.7477972,33
1657531734.58562,8799.7478103,112
1657531734.58562,8799.7478226,152
1657531734.58562,8799.7478318,92
1657531734.58562,8799.7478399,26
1657531734.58562,8799.7478481,116
1657531734.58562,8799.7478541,150
1657531734.58562,8799.747863,42
1657531734.58562,8800.2833308,73
1657531734.58562,8800.2833427,116
1657531734.58562,8800.2833459,52
1657531734.58562,8800.2833482,90
1657531734.58562,8800.2833504,119
1657531734.58562,8800.2833525,35
1657531734.58562,8800.2833546,26
1657531734.58562,8800.2833568,73
1657531734.58562,8800.2833589,26
1657531734.58562,8800.2833611,-4
1657531734.58562,8800.2833633,176
1657531734.58562,8800.2833655,488
1657531734.58562,8800.2833675,782
1657531734.5956,8800.2833696,887
1657531734.5956,8800.2833717,374
1657531734.5956,8800.2833738,-448
1657531734.5956,8800.2833759,-577
1657531734.5956,8800.283378,-147
1657531734.5956,8800.2833802,35
1657531734.5956,8800.2833823,-42
1657531734.5956,8800.2833843,-64
1657531734.5956,8800.2833864,-81
1657531734.5956,8800.2833885,-33
1657531734.5956,8800.2833906,216
1657531734.5956,8800.2833933,267
1657531734.5956,8800.2833955,47
1657531734.5956,8800.2833976,-40
1657531734.5956,8800.2833997,-9
1657531734.5956,8800.2834018,42
1657531734.5956,8800.2834039,95
1657531734.5956,8800.283406,47
1657531734.5956,8800.283408,123
1657531734.5956,8800.2834101,324
1657531734.5956,8800.2834122,243
1657531734.5956,8800.2834142,78
1657531734.5956,8800.2834163,138
1657531734.5956,8800.2834184,147
1657531735.11442,8800.2834205,159
1657531735.11442,8800.2834225,367
1657531735.11442,8800.2834244,431
1657531735.11442,8800.2834263,264
1657531735.11442,8800.2834282,159
1657531735.11442,8800.2834301,283
1657531735.11442,8800.283432,467
1657531735.11442,8800.283434,391
1657531735.11442,8800.2834358,171
1657531735.11442,8800.2834378,264
1657531735.11442,8800.2834397,512
1657531735.11442,8800.2834416,450
1657531735.11442,8800.2834435,290
1657531735.11442,8800.2834454,243
1657531735.11442,8800.2834491,97
1657531735.11442,8800.2834512,-83
1657531735.11442,8800.2834533,-42
1657531735.11442,8800.2834553,78
1657531735.11442,8800.2834573,-9
1657531735.11442,8800.2834594,-150
1657531735.11442,8800.2834616,-152
1657531735.11442,8800.2834636,-116
1657531735.11442,8800.2834688,-114
1657531735.11442,8800.2834713,-123
1657531735.11442,8800.2834807,-121
1657531735.11442,8800.2834883,-119
1657531735.11442,8800.2834942,-121
1657531735.11442,8800.2835006,-104
1657531735.11442,8800.2835043,-100
1657531735.11442,8800.2835095,-140
1657531735.11442,8800.2835131,-190
1657531735.11442,8800.2835166,-147
1657531735.11442,8800.2835199,-30
1657531735.11442,8800.2835233,-45
1657531735.11442,8800.2835268,-157
1657531735.11442,8800.2835317,-143
1657531735.11442,8800.8200693,-47
1657531735.11442,8800.8200876,-107
1657531735.11442,8800.8200958,-178
1657531735.11442,8800.8201018,-71
1657531735.11442,8800.8201076,-59
1657531735.11442,8800.8201122,-126
1657531735.11442,8800.8201171,-90
1657531735.11442,8800.8201226,-57
1657531735.11442,8800.8201257,-109
1657531735.11442,8800.82013,-131
1657531735.11442,8800.8201372,-38
1657531735.11442,8800.8201419,-23
1657531735.11442,8800.8201465,-128
1657531735.11442,8800.8201534,-150
1657531735.12615,8800.8201607,-104
1657531735.12615,8800.8201679,-81
1657531735.12615,8800.8201733,-73
1657531735.12615,8800.82018,-76
1657531735.12615,8800.8201863,-59
1657531735.12615,8800.8201905,-73
1657531735.12615,8800.8201957,-131
1657531735.12615,8800.820201,-119
1657531735.12615,8800.8202107,-64
1657531735.12615,8800.8202201,-90
1657531735.12615,8800.820229,-102
1657531735.12615,8800.8202348,9
1657531735.12615,8800.8202422,9
1657531735.12615,8800.8202467,-140
1657531735.12615,8800.8202538,-100
1657531735.12615,8800.820261,28
1657531735.12615,8800.8202666,-45
1657531735.12615,8800.8202717,-107
1657531735.12615,8800.8202759,-16
1657531735.12615,8800.8202805,0
1657531735.12615,8800.8202864,-64
1657531735.12615,8800.8202916,-73
1657531735.12615,8800.820299,-104
1657531735.12615,8800.8203052,-131
1657531735.65875,8800.8203106,-14
1657531735.65875,8800.8203153,69
1657531735.65875,8800.8203202,-33
1657531735.65875,8800.8203259,-69
1657531735.65875,8800.8203335,109
1657531735.65875,8800.8203403,462
1657531735.65875,8800.8203456,875
1657531735.65875,8800.8203502,929
1657531735.65875,8800.8203559,290
1657531735.65875,8800.8203611,-371
1657531735.65875,8800.8203647,-221
1657531735.65875,8800.8203685,85
1657531735.65875,8800.8203718,-135
1657531735.65875,8800.8203752,-283
1657531735.65875,8800.820379,-42
1657531735.65875,8800.8203843,66
1657531735.65875,8800.8203881,-119
1657531735.65875,8800.8203941,-178
1657531735.65875,8800.8203997,-33
1657531735.65875,8800.8204037,11
1657531735.65875,8800.8204086,-66
1657531735.65875,8800.8204186,-81
1657531735.65875,8800.8204278,-50
1657531735.65875,8800.8204366,-54
1657531735.65875,8800.8204422,-23
1657531735.65875,8800.820449,9
1657531735.65875,8800.820459,-35
1657531735.65875,8800.8204653,-47
1657531735.65875,8800.8204709,-2
1657531735.65875,8800.8204786,66
1657531735.65875,8800.8204862,126
1657531735.65875,8800.8204962,66
1657531735.65875,8800.820504,35
1657531735.65875,8800.8205102,90
1657531735.65875,8800.8205166,50
1657531735.65875,8801.3558122,42
1657531735.65875,8801.3558339,159
1657531735.65875,8801.355849,193
1657531735.65875,8801.3558626,157
1657531735.65875,8801.355873,152
1657531735.65875,8801.3558824,114
1657531735.65875,8801.3558904,154
1657531735.65875,8801.3559022,193
1657531735.65875,8801.3559131,97
1657531735.65875,8801.3559207,104
1657531735.65875,8801.3559323,104
1657531735.65875,8801.3559413,-42
1657531735.65875,8801.3559497,-66
1657531735.65875,8801.3559607,-16
1657531735.65875,8801.3559716,-109
1657531735.67049,8801.3559821,-178
1657531735.67049,8801.3559938,-131
1657531735.67049,8801.3560024,-140
1657531735.67049,8801.3560139,-207
1657531735.67049,8801.3560243,-166
1657531735.67049,8801.3560313,-54
1657531735.67049,8801.3560443,-78
1657531735.67049,8801.3560534,-159
1657531735.67049,8801.356062,-121
1657531735.67049,8801.3560728,-90
1657531735.67049,8801.3560813,-152
1657531735.67049,8801.3560915,-183
1657531735.67049,8801.3561038,-135
1657531735.67049,8801.3561078,-112
1657531735.67049,8801.3561116,-166
1657531735.67049,8801.3561138,-150
1657531735.67049,8801.3561164,-71
1657531735.67049,8801.3561186,-121
1657531735.67049,8801.3561209,-193
1657531735.67049,8801.3561301,-112
1657531735.67049,8801.3561391,-47
1657531735.67049,8801.3561417,-138
1657531735.67049,8801.3561439,-171
1657531735.67049,8801.3561461,-121
1657531736.24086,8801.3561483,-145
1657531736.24086,8801.3561503,-135
1657531736.24086,8801.3561523,-109
1657531736.24086,8801.3561542,-162
1657531736.24086,8801.3561562,-123
1657531736.24086,8801.3561582,-45
1657531736.24086,8801.3561642,-109
1657531736.24086,8801.3561696,-154
1657531736.24086,8801.3561777,-112
1657531736.24086,8801.3561863,-126
1657531736.24086,8801.3561916,-174
1657531736.24086,8801.3561974,-145
1657531736.24086,8801.3562037,-78
1657531736.24086,8801.3562084,-69
1657531736.24086,8801.3562132,-116
1657531736.24086,8801.3562181,-138
1657531736.24086,8801.3562235,-102
1657531736.24086,8801.3562291,-59
1657531736.24086,8801.3562344,-47
1657531736.24086,8801.3562395,-69
1657531736.24086,8801.356245,-92
1657531736.24086,8801.3562497,-119
1657531736.24086,8801.3562543,-145
1657531736.24086,8801.3562591,-185
1657531736.24086,8801.3562637,-145
1657531736.24086,8801.3562684,-47
1657531736.24086,8801.3562743,-92
1657531736.24086,8801.3562824,-152
1657531736.24086,8801.3562911,-109
1657531736.24086,8801.3562977,-85
1657531736.24086,8801.3563029,-78
1657531736.24086,8801.3563086,81
1657531736.24086,8801.3563135,531
1657531736.24086,8801.3563196,1008
1657531736.24086,8801.9421266,844
1657531736.24086,8801.9421528,2
1657531736.24086,8801.9421604,-538
1657531736.24086,8801.9421659,-298
1657531736.24086,8801.9421729,-45
1657531736.24086,8801.9421785,-154
1657531736.24086,8801.9421854,-205
1657531736.24086,8801.9421904,-138
1657531736.24086,8801.9421959,-159
1657531736.24086,8801.9422015,-159
1657531736.24086,8801.9422077,-64
1657531736.24086,8801.9422115,-42
1657531736.24086,8801.9422175,-112
1657531736.24086,8801.9422211,-126
1657531736.24086,8801.9422266,-95
1657531736.24086,8801.9422302,-114
1657531736.25543,8801.9422357,-133
1657531736.25543,8801.9422397,-104
1657531736.25543,8801.9422459,-83
1657531736.25543,8801.9422501,-16
1657531736.25543,8801.9422589,73
1657531736.25543,8801.9422659,45
1657531736.25543,8801.9422722,9
1657531736.25543,8801.9422999,59
1657531736.25543,8801.9423078,88
1657531736.25543,8801.9423126,66
1657531736.25543,8801.9423178,59
1657531736.25543,8801.9423212,59
1657531736.25543,8801.9423246,100
1657531736.25543,8801.942328,245
1657531736.25543,8801.9423325,314
1657531736.25543,8801.9423359,212
1657531736.25543,8801.9423393,176
1657531736.25543,8801.9423427,219
1657531736.25543,8801.9423461,209
1657531736.25543,8801.9423494,190
1657531736.25543,8801.9423528,164
1657531736.25543,8801.9423561,92
1657531736.25543,8801.9423595,26
1657531736.25543,8801.9423628,-26
1657531736.78257,8801.9423661,-85
1657531736.78257,8801.9423695,-135
1657531736.78257,8801.9423729,-190
1657531736.78257,8801.9423761,-216
1657531736.78257,8801.9423801,-159
1657531736.78257,8801.9423834,-143
1657531736.78257,8801.9423867,-181
1657531736.78257,8801.9423899,-147
1657531736.78257,8801.9423932,-116
1657531736.78257,8801.9423964,-154
1657531736.78257,8801.9423997,-154
1657531736.78257,8801.9424028,-123
1657531736.78257,8801.9424061,-123
1657531736.78257,8801.9424094,-119
1657531736.78257,8801.9424127,-107
1657531736.78257,8801.942416,-92
1657531736.78257,8801.9424193,-71
1657531736.78257,8801.9424225,-57
1657531736.78257,8801.9424257,-45
1657531736.78257,8801.942429,-52
1657531736.78257,8801.9424324,-61
1657531736.78257,8801.9424357,-54
1657531736.78257,8801.9424389,-50
1657531736.78257,8801.9424422,-78
1657531736.78257,8801.9424455,-100
1657531736.78257,8801.9424488,-26
1657531736.78257,8801.942452,38
1657531736.78257,8801.9424553,-33
1657531736.78257,8801.9424587,-83
1657531736.78257,8801.942462,-16
1657531736.78257,8801.9424655,26
1657531736.78257,8801.9424687,-9
1657531736.78257,8801.942472,-28
1657531736.78257,8802.4773224,-4
1657531736.78257,8802.4773437,4
1657531736.78257,8802.4773579,14
1657531736.78257,8802.4773677,21
1657531736.78257,8802.4773706,-2
1657531736.78257,8802.4773729,-23
1657531736.78257,8802.477375,-19

1657531736.78257,8802.4773771,-14
1657531736.78257,8802.4773792,-9
1657531736.78257,8802.4773814,-16
1657531736.78257,8802.4773834,-26
1657531736.78257,8802.4773855,16
1657531736.78257,8802.4773876,73
1657531736.78257,8802.4773897,69
1657531736.78257,8802.4773919,16
1657531736.78257,8802.4773942,-35
1657531736.78257,8802.4773963,-28
1657531736.80551,8802.4773984,-35
1657531736.80551,8802.4774005,-76
1657531736.80551,8802.4774025,9
1657531736.80551,8802.4774046,83
1657531736.80551,8802.4774066,-9
1657531736.80551,8802.4774088,-54
1657531736.80551,8802.4774109,2
1657531736.80551,8802.4774129,14
1657531736.80551,8802.477415,50
1657531736.80551,8802.4774171,338
1657531736.80551,8802.4774193,863
1657531736.80551,8802.4774214,1125
1657531736.80551,8802.4774234,605
1657531736.80551,8802.4774255,-240
1657531736.80551,8802.4774276,-441
1657531736.80551,8802.4774296,-88
1657531736.80551,8802.4774316,40
1657531736.80551,8802.4774338,-66
1657531736.80551,8802.4774359,-71
1657531736.80551,8802.477438,-21
1657531736.80551,8802.4774401,-21
1657531736.80551,8802.4774422,-26
1657531736.80551,8802.4774442,-19
1657531736.80551,8802.4774463,-4
1657531737.36148,8802.4774483,7
1657531737.36148,8802.4774503,21
1657531737.36148,8802.4774522,38
1657531737.36148,8802.4774542,45
1657531737.36148,8802.4774561,47
1657531737.36148,8802.477458,71
1657531737.36148,8802.47746,107
1657531737.36148,8802.477462,104
1657531737.36148,8802.4774639,100
1657531737.36148,8802.4774671,128
1657531737.36148,8802.477478,145
1657531737.36148,8802.4774871,145
1657531737.36148,8802.477498,169
1657531737.36148,8802.4775104,185
1657531737.36148,8802.4775167,171
1657531737.36148,8802.4775189,174
1657531737.36148,8802.4775215,233
1657531737.36148,8802.4775317,295
1657531737.36148,8802.4775458,302
1657531737.36148,8802.4775596,295
1657531737.36148,8802.4775732,305
1657531737.36148,8802.4775868,312
1657531737.36148,8802.4776003,290
1657531737.36148,8802.4776136,247
1657531737.36148,8802.4776272,209
1657531737.36148,8802.4776407,152
1657531737.36148,8802.4776544,71
1657531737.36148,8802.4777016,19
1657531737.36148,8802.4777152,-16
1657531737.36148,8802.477729,-54
1657531737.36148,8802.4777377,-78
1657531737.36148,8802.4777405,-90
1657531737.36148,8803.06282,-112
1657531737.36148,8803.0628485,-104
1657531737.36148,8803.0628515,-57
1657531737.36148,8803.0628556,-45
1657531737.36148,8803.0628579,-54
1657531737.36148,8803.0628599,-52
1657531737.36148,8803.062862,-69
1657531737.36148,8803.0628639,-83
1657531737.36148,8803.0628659,-54
1657531737.36148,8803.062869,-38
1657531737.36148,8803.062878,-59
1657531737.36148,8803.0628979,-78
1657531737.36148,8803.0629132,-69
1657531737.36148,8803.062925,-57
1657531737.36148,8803.062948,-64
1657531737.36148,8803.0629696,-71
1657531737.36148,8803.0629775,-45
1657531737.36148,8803.0629832,-21
1657531737.37345,8803.062988,-33
1657531737.37345,8803.0629901,-42
1657531737.37345,8803.0629922,-42
1657531737.37345,8803.0629943,-40
1657531737.37345,8803.0629982,-26
1657531737.37345,8803.0630117,-9
1657531737.37345,8803.0630176,-16
1657531737.37345,8803.06302,-33
1657531737.37345,8803.0630221,-38
1657531737.37345,8803.0630242,-33
1657531737.37345,8803.0630264,-21
1657531737.37345,8803.0630296,-9
1657531737.37345,8803.0630424,-11
1657531737.37345,8803.0630488,-23
1657531737.37345,8803.0630513,-16
1657531737.37345,8803.0630533,-11
1657531737.37345,8803.0630561,-21
1657531737.37345,8803.0630668,-19
1657531737.37345,8803.0630753,-14
1657531737.37345,8803.063078,-19
1657531737.37345,8803.0630806,-7
1657531737.37345,8803.0630891,26
1657531737.37345,8803.0631002,54
1657531737.37345,8803.0631043,50
1657531737.95945,8803.0631083,14
1657531737.95945,8803.0631167,-14
1657531737.95945,8803.0631259,-14
1657531737.95945,8803.0631367,-2
1657531737.95945,8803.0631487,0
1657531737.95945,8803.0631586,0
1657531737.95945,8803.0631614,2
1657531737.95945,8803.0631636,4
1657531737.95945,8803.0631657,9
1657531737.95945,8803.0631728,0
1657531737.95945,8803.0631841,11
1657531737.95945,8803.0631872,245
1657531737.95945,8803.0631896,777
1657531737.95945,8803.0631918,1118
1657531737.95945,8803.063194,767
1657531737.95945,8803.0631961,-19
1657531737.95945,8803.0631993,-419
1657531737.95945,8803.0632129,-150
1657531737.95945,8803.0632199,92
1657531737.95945,8803.0632222,-2
1657531737.95945,8803.0632243,-21
1657531737.95945,8803.0632276,59
1657531737.95945,8803.0632306,52
1657531737.95945,8803.0632441,45
1657531737.95945,8803.0632563,112
1657531737.95945,8803.0632717,128
1657531737.95945,8803.0632863,83
1657531737.95945,8803.0633005,71
1657531737.95945,8803.0633149,83
1657531737.95945,8803.0633291,104
1657531737.95945,8803.0633434,140
1657531737.95945,8803.6476935,150
1657531737.95945,8803.6477138,131
1657531737.95945,8803.6477285,145
1657531737.95945,8803.6477386,174
1657531737.95945,8803.6477463,188
1657531737.95945,8803.6477556,205
1657531737.95945,8803.6477624,216
1657531737.95945,8803.6477751,226
1657531737.95945,8803.6477988,228
1657531737.95945,8803.6478045,236
1657531737.95945,8803.6478297,262
1657531737.95945,8803.6478398,295
1657531737.95945,8803.6478618,326
1657531737.95945,8803.647869,345
1657531737.95945,8803.6479063,352
1657531737.95945,8803.6479281,336
1657531737.95945,8803.6479368,307
1657531737.95945,8803.6479426,302
1657531737.95945,8803.6479502,288
1657531737.97342,8803.6479566,224
1657531737.97342,8803.6479608,116
1657531737.97342,8803.6479683,35
1657531737.97342,8803.6479746,42
1657531737.97342,8803.6479779,14
1657531737.97342,8803.6479822,-76
1657531737.97342,8803.64799,-66
1657531737.97342,8803.6479948,-47
1657531737.97342,8803.6480024,-109
1657531737.97342,8803.6480094,-131
1657531737.97342,8803.6480149,-107
1657531737.97342,8803.6480223,-61
1657531737.97342,8803.6480281,-14
1657531737.97342,8803.6480356,-38
1657531737.97342,8803.6480438,-50
1657531737.97342,8803.6480486,-14
1657531737.97342,8803.6480518,-45
1657531737.97342,8803.6480578,-83
1657531737.97342,8803.6480609,-35
1657531737.97342,8803.6480638,19
1657531737.97342,8803.6480668,19
1657531737.97342,8803.6480697,7
1657531737.97342,8803.6480725,-2
1657531737.97342,8803.6480754,-4
1657531738.5304,8803.6480794,16
1657531738.5304,8803.6480866,16
1657531738.5304,8803.648094,-9
1657531738.5304,8803.6481014,4
1657531738.5304,8803.6481071,21
1657531738.5304,8803.6481168,4
1657531738.5304,8803.6481259,2
1657531738.5304,8803.6481394,16
1657531738.5304,8803.6481528,16
1657531738.5304,8803.6481661,9
1657531738.5304,8803.6481724,16
1657531738.5304,8803.6481879,30
1657531738.5304,8803.64819,21
1657531738.5304,8803.6481923,9
1657531738.5304,8803.6482153,40
1657531738.5304,8803.6482228,81
1657531738.5304,8803.6482332,73
1657531738.5304,8803.6482439,47
1657531738.5304,8803.6482569,42
1657531738.5304,8803.6482835,50
1657531738.5304,8803.6483112,50
1657531738.5304,8803.6483253,45
1657531738.5304,8803.6483389,33
1657531738.5304,8803.6483526,33
1657531738.5304,8803.6483662,47
1657531738.5304,8803.6483799,71
1657531738.5304,8803.6483886,116
1657531738.5304,8803.6483921,140
1657531738.5304,8803.6483944,107
1657531738.5304,8803.6483967,57
1657531738.5304,8804.2334544,52
1657531738.5304,8804.2334705,85
1657531738.5304,8804.2334764,92
1657531738.5304,8804.2334835,69
1657531738.5304,8804.2334887,66
1657531738.5304,8804.2334939,88
1657531738.5304,8804.2334991,92
1657531738.5304,8804.2335042,81
1657531738.5304,8804.2335094,76
1657531738.5304,8804.2335145,164
1657531738.5304,8804.2335197,536
1657531738.5304,8804.2335247,1099
1657531738.5304,8804.2335299,1208
1657531738.5304,8804.2335352,507
1657531738.5304,8804.2335405,-309
1657531738.5304,8804.2335456,-364
1657531738.5304,8804.2335508,45
1657531738.5304,8804.2335577,123
1657531738.5304,8804.2335631,-4
1657531738.5304,8804.2335697,26
1657531738.56131,8804.233575,66
1657531738.56131,8804.233582,35
1657531738.56131,8804.2335895,45
1657531738.56131,8804.233593,73
1657531738.56131,8804.2335979,76
1657531738.56131,8804.2336038,71
1657531738.56131,8804.2336075,76
1657531738.56131,8804.2336119,92
1657531738.56131,8804.2336167,107
1657531738.56131,8804.2336198,109
1657531738.56131,8804.2336225,102
1657531738.56131,8804.2336253,109
1657531738.56131,8804.2336281,119
1657531738.56131,8804.2336311,95
1657531738.56131,8804.2336338,114
1657531738.56131,8804.2336369,207
1657531738.56131,8804.2336415,231
1657531738.56131,8804.2336442,195
1657531738.56131,8804.2336471,221
1657531738.56131,8804.2336498,267
1657531738.56131,8804.2336527,281
1657531738.56131,8804.2336555,257
1657531738.56131,8804.2336583,195
1657531738.56131,8804.2336611,231
1657531739.06471,8804.2336639,393
1657531739.06471,8804.233667,426
1657531739.06471,8804.2336725,274
1657531739.06471,8804.233679,216
1657531739.06471,8804.233686,312
1657531739.06471,8804.2336926,321
1657531739.06471,8804.2336991,183
1657531739.06471,8804.2337056,81
1657531739.06471,8804.2337121,57
1657531739.06471,8804.2337191,26
1657531739.06471,8804.2337226,-23
1657531739.06471,8804.2337273,-66
1657531739.06471,8804.2337313,-52
1657531739.06471,8804.2337347,-9
1657531739.06471,8804.233739,-16
1657531739.06471,8804.2337428,-54
1657531739.06471,8804.2337463,-54
1657531739.06471,8804.2337511,-7
1657531739.06471,8804.2337568,0
1657531739.06471,8804.2337635,-38
1657531739.06471,8804.2337703,-19
1657531739.06471,8804.2337757,14
1657531739.06471,8804.2337812,-7
1657531739.06471,8804.2337847,-9
1657531739.06471,8804.2337882,21
1657531739.06471,8804.2337952,16
1657531739.06471,8804.2337992,9
1657531739.06471,8804.2338044,21
1657531739.06471,8804.2338087,14
1657531739.06471,8804.7686983,7
1657531739.06471,8804.7687113,19
1657531739.06471,8804.7687144,35
1657531739.06471,8804.768717,26
1657531739.06471,8804.7687194,4
1657531739.06471,8804.7687217,7
1657531739.06471,8804.768724,19
1657531739.06471,8804.7687265,0
1657531739.06471,8804.7687288,-11
1657531739.06471,8804.768731,28
1657531739.06471,8804.7687333,76
1657531739.06471,8804.7687361,50
1657531739.06471,8804.768741,-14
1657531739.06471,8804.7687487,23
1657531739.06471,8804.7687559,102
1657531739.06471,8804.7687615,69
1657531739.06471,8804.7687716,9
1657531739.06471,8804.7687766,30
1657531739.06471,8804.7687789,61
1657531739.06471,8804.768781,76
1657531739.06471,8804.7687831,83
1657531739.08566,8804.7687853,40
1657531739.08566,8804.7687875,0
1657531739.08566,8804.7687897,19
1657531739.08566,8804.7687918,47
1657531739.08566,8804.768794,47
1657531739.08566,8804.768796,38
1657531739.08566,8804.7687994,54
1657531739.08566,8804.7688015,114
1657531739.08566,8804.7688036,145
1657531739.08566,8804.7688057,88
1657531739.08566,8804.7688078,47
1657531739.08566,8804.7688098,73
1657531739.08566,8804.7688119,69
1657531739.08566,8804.7688141,45
1657531739.08566,8804.7688161,47
1657531739.08566,8804.7688182,28
1657531739.08566,8804.7688203,33
1657531739.08566,8804.7688225,90
1657531739.08566,8804.7688246,119
1657531739.08566,8804.7688273,209
1657531739.08566,8804.7688295,581
1657531739.08566,8804.7688317,1108
1657531739.08566,8804.7688338,1168
1657531739.08566,8804.7688359,426
1657531739.61885,8804.768838,-362
1657531739.61885,8804.7688401,-286
1657531739.61885,8804.768842,157
1657531739.61885,8804.768844,126
1657531739.61885,8804.768846,-59
1657531739.61885,8804.768848,19
1657531739.61885,8804.7688499,97
1657531739.61885,8804.768852,40
1657531739.61885,8804.768854,14
1657531739.61885,8804.768856,52
1657531739.61885,8804.768858,100
1657531739.61885,8804.7688607,116
1657531739.61885,8804.768868,97
1657531739.61885,8804.7688744,66
1657531739.61885,8804.7688788,11
1657531739.61885,8804.7688836,-14
1657531739.61885,8804.7688895,76
1657531739.61885,8804.7688948,169
1657531739.61885,8804.7689068,164
1657531739.61885,8804.7689185,226
1657531739.61885,8804.7689222,288
1657531739.61885,8804.7689244,188
1657531739.61885,8804.7689265,109
1657531739.61885,8804.7689287,171
1657531739.61885,8804.7689364,219
1657531739.61885,8804.7689475,214
1657531739.61885,8804.7689523,226
1657531739.61885,8804.7689559,247
1657531739.61885,8805.305212,326
1657531739.61885,8805.3052314,393
1657531739.61885,8805.3052558,340
1657531739.61885,8805.3052586,276
1657531739.61885,8805.3052607,267
1657531739.61885,8805.3052627,267
1657531739.61885,8805.3052779,252
1657531739.61885,8805.30528,200
1657531739.61885,8805.305282,162
1657531739.61885,8805.305284,166
1657531739.61885,8805.3052864,104
1657531739.61885,8805.3052885,4
1657531739.61885,8805.3052907,-2
1657531739.61885,8805.3052928,26
1657531739.61885,8805.3052971,-16
1657531739.61885,8805.3053003,-78
1657531739.61885,8805.3053089,-88
1657531739.61885,8805.3053194,-23
1657531739.61885,8805.3053311,50
1657531739.61885,8805.3053411,14
1657531739.61885,8805.3053472,-64
1657531739.61885,8805.3053495,-71
1657531739.63935,8805.3053516,-64
1657531739.63935,8805.3053538,-23
1657531739.63935,8805.3053574,88
1657531739.63935,8805.305369,119
1657531739.63935,8805.305376,38
1657531739.63935,8805.3053795,16
1657531739.63935,8805.3053818,-14
1657531739.63935,8805.3053899,-73
1657531739.63935,8805.3054007,26
1657531739.63935,8805.305405,150
1657531739.63935,8805.3054072,61
1657531739.63935,8805.3054094,-30
1657531739.63935,8805.3054116,85
1657531739.63935,8805.3054137,178
1657531739.63935,8805.3054159,95
1657531739.63935,8805.305418,45
1657531739.63935,8805.3054204,83
1657531739.63935,8805.3054284,81
1657531739.63935,8805.3054417,57
1657531739.63935,8805.3054557,35
1657531739.63935,8805.3054687,19
1657531739.63935,8805.3054826,100
1657531739.63935,8805.3054948,185
1657531739.63935,8805.3055026,135
1657531740.14344,8805.3055157,104
1657531740.14344,8805.3055238,131
1657531740.14344,8805.3055312,107
1657531740.14344,8805.3055387,66
1657531740.14344,8805.3055451,81
1657531740.14344,8805.3055529,123
1657531740.14344,8805.305562,119
1657531740.14344,8805.3055756,81
1657531740.14344,8805.3055896,100
1657531740.14344,8805.3056026,114
1657531740.14344,8805.3056166,102
1657531740.14344,8805.3056287,150
1657531740.14344,8805.3056416,219
1657531740.14344,8805.3056519,185
1657531740.14344,8805.3056581,102
1657531740.14344,8805.3056619,104
1657531740.14344,8805.3056661,95
1657531740.14344,8805.3056716,16
1657531740.14344,8805.3056764,73
1657531740.14344,8805.3056802,185
1657531740.14344,8805.3056858,88
1657531740.14344,8805.3056894,45
1657531740.14344,8805.3056929,140
1657531740.14344,8805.3056979,81
1657531740.14344,8805.3057024,154
1657531740.14344,8805.3057076,653
1657531740.14344,8805.3057111,1115
1657531740.14344,8805.8416187,1115
1657531740.14344,8805.841666,536
1657531740.14344,8805.8416735,-236
1657531740.14344,8805.8416827,-355
1657531740.14344,8805.8416899,11
1657531740.14344,8805.8416969,61
1657531740.14344,8805.8417013,7
1657531740.14344,8805.841707,102
1657531740.14344,8805.841711,61
1657531740.14344,8805.8417251,-14
1657531740.14344,8805.8417373,21
1657531740.14344,8805.8417449,7
1657531740.14344,8805.8417537,-95
1657531740.14344,8805.8417626,-61
1657531740.14344,8805.8417703,100
1657531740.14344,8805.8417757,85
1657531740.14344,8805.8417833,40
1657531740.14344,8805.8417888,104
1657531740.14344,8805.8417962,66
1657531740.14344,8805.8418018,38
1657531740.14344,8805.8418072,81
1657531740.14344,8805.8418124,40
1657531740.14344,8805.8418192,78
1657531740.15441,8805.8418268,183
1657531740.15441,8805.8418322,178
1657531740.15441,8805.8418402,209
1657531740.15441,8805.8418458,233
1657531740.15441,8805.8418512,174
1657531740.15441,8805.8418572,214
1657531740.15441,8805.8418624,298
1657531740.15441,8805.8418698,257
1657531740.15441,8805.8418754,226
1657531740.15441,8805.8418819,300
1657531740.15441,8805.8418893,319
1657531740.15441,8805.8418949,259
1657531740.15441,8805.8419062,221
1657531740.15441,8805.8419183,193
1657531740.15441,8805.8419306,159
1657531740.15441,8805.8419435,135
1657531740.15441,8805.8419524,102
1657531740.15441,8805.8419631,52
1657531740.15441,8805.8419712,-7
1657531740.15441,8805.8419787,-57
1657531740.15441,8805.8419832,-52
1657531740.15441,8805.8419964,-33
1657531740.15441,8805.8420062,-42
1657531740.15441,8805.8420104,-88
1657531740.72529,8805.842026,-97
1657531740.72529,8805.8420338,-21
1657531740.72529,8805.8420403,35
1657531740.72529,8805.8420461,54
1657531740.72529,8805.8420517,-9
1657531740.72529,8805.8420571,-114
1657531740.72529,8805.8420635,-66
1657531740.72529,8805.8420691,-11
1657531740.72529,8805.8420746,-112
1657531740.72529,8805.8420799,-123
1657531740.72529,8805.8420878,19
1657531740.72529,8805.8420949,57
1657531740.72529,8805.8421005,-21
1657531740.72529,8805.8421077,28
1657531740.72529,8805.8421134,66
1657531740.72529,8805.842121,-114
1657531740.72529,8805.8421273,-109
1657531740.72529,8805.8421348,236
1657531740.72529,8805.8421421,255
1657531740.72529,8805.8421476,-50
1657531740.72529,8805.8421544,-76
1657531740.72529,8805.8421617,7
1657531740.72529,8805.8421677,-14
1657531740.72529,8805.8421749,30
1657531740.72529,8805.8421805,97
1657531740.72529,8805.8421878,166
1657531740.72529,8806.4283385,181
1657531740.72529,8806.4283596,61
1657531740.72529,8806.4283664,0
1657531740.72529,8806.4283722,71
1657531740.72529,8806.428378,92
1657531740.72529,8806.4283873,14
1657531740.72529,8806.4283932,30
1657531740.72529,8806.4283996,135
1657531740.72529,8806.4284062,57
1657531740.72529,8806.4284127,-119
1657531740.72529,8806.4284192,-16
1657531740.72529,8806.4284259,228
1657531740.72529,8806.4284328,181
1657531740.72529,8806.4284382,28
1657531740.72529,8806.4284436,112
1657531740.72529,8806.4284487,140
1657531740.72529,8806.4284571,-7
1657531740.72529,8806.4284642,26
1657531740.72529,8806.4284701,135
1657531740.72529,8806.4284753,9
1657531740.72529,8806.4284806,-9
1657531740.72529,8806.428486,195
1657531740.72529,8806.4284914,140
1657531740.72529,8806.4284971,-69
1657531740.73536,8806.4285028,4
1657531740.73536,8806.4285085,267
1657531740.73536,8806.4285139,546
1657531740.73536,8806.4285195,956
1657531740.73536,8806.4285252,1204
1657531740.73536,8806.4285307,631
1657531740.73536,8806.4285361,-295
1657531740.73536,8806.4285416,-422
1657531740.73536,8806.4285473,11
1657531740.73536,8806.4285557,78
1657531740.73536,8806.4285615,-7
1657531740.73536,8806.428567,109
1657531740.73536,8806.4285767,116
1657531740.73536,8806.4285842,16
1657531740.73536,8806.4285916,54
1657531740.73536,8806.4285983,71
1657531740.73536,8806.4286066,0
1657531740.73536,8806.4286134,83
1657531740.73536,8806.4286189,207
1657531740.73536,8806.4286247,104
1657531740.73536,8806.4286308,35
1657531740.73536,8806.4286366,147
1657531740.73536,8806.4286421,147
1657531740.73536,8806.4286527,57
1657531741.31184,8806.4286597,116
1657531741.31184,8806.4286654,231
1657531741.31184,8806.4286709,212
1657531741.31184,8806.4286764,176
1657531741.31184,8806.4286969,214
1657531741.31184,8806.4287055,231
1657531741.31184,8806.4287118,226
1657531741.31184,8806.4287211,226
1657531741.31184,8806.4287277,243
1657531741.31184,8806.4287332,331
1657531741.31184,8806.4287409,371
1657531741.31184,8806.4287493,331
1657531741.31184,8806.428757,340
1657531741.31184,8806.4287619,352
1657531741.31184,8806.4287658,281
1657531741.31184,8806.4287694,286
1657531741.31184,8806.4287731,364
1657531741.31184,8806.4287768,286
1657531741.31184,8806.4287807,152
1657531741.31184,8806.4287848,121
1657531741.31184,8806.4287886,69
1657531741.31184,8806.4287924,-7
1657531741.31184,8806.4287959,-42
1657531741.31184,8806.4287993,-54
1657531741.31184,8806.4288027,-35
1657531741.31184,8807.0116888,-7
1657531741.31184,8807.0117105,-16
1657531741.31184,8807.01172,-30
1657531741.31184,8807.0117259,-16
1657531741.31184,8807.0117335,-2
1657531741.31184,8807.0117397,0
1657531741.31184,8807.0117463,4
1657531741.31184,8807.011751,11
1657531741.31184,8807.0117572,9
1657531741.31184,8807.0117623,-7
1657531741.31184,8807.0117718,-7
1657531741.31184,8807.0118093,-9
1657531741.31184,8807.011817,-30
1657531741.31184,8807.0118215,-19
1657531741.31184,8807.011826,14
1657531741.31184,8807.0118309,0
1657531741.31184,8807.0118357,-16
1657531741.31184,8807.0118409,4
1657531741.31184,8807.0118482,7
1657531741.31184,8807.0118528,-28
1657531741.31184,8807.0118601,-71
1657531741.31184,8807.0118647,-33
1657531741.31184,8807.0118692,66
1657531741.31184,8807.0118739,66
1657531741.31184,8807.0118787,9
1657531741.32381,8807.0118835,9
1657531741.32381,8807.0118885,14
