Time,TimeLsl,Value
1657717990.67083,195057.2401656,31
1657717990.67083,195057.2401793,26
1657717990.67083,195057.2401856,21
1657717990.67083,195057.2401892,19
1657717990.67083,195057.2401945,16
1657717990.67083,195057.240198,16
1657717990.67083,195057.2402013,16
1657717990.67083,195057.240207,14
1657717990.67083,195057.2402104,9
1657717990.67083,195057.240217,14
1657717990.67083,195057.2402221,24
1657717990.67083,195057.2402256,19
1657717990.67083,195057.2402305,-7
1657717990.67083,195057.2402339,-36
1657717990.67083,195057.2402374,-55
1657717990.67083,195057.2402424,-60
1657717990.67083,195057.2402457,-50
1657717990.67083,195057.240249,-45
1657717990.67083,195057.2402525,-55
1657717990.67083,195057.2402567,-60
1657717990.67083,195057.2402602,-53
1657717990.67083,195057.2402636,-41
1657717990.67083,195057.2402669,-28
1657717990.67083,195057.2402701,-33
1657717990.67083,195057.2402734,-38
1657717990.67083,195057.2402767,-36
1657717990.67083,195057.24028,-45
1657717990.67083,195057.2402833,-41
1657717990.67083,195057.2402866,-24
1657717990.67083,195057.2402899,-28
1657717990.67083,195057.2402931,-31
1657717990.67083,195057.2402964,-26
1657717990.67083,195057.2402996,-28
1657717990.67083,195057.2403029,-33
1657717990.67083,195057.2403062,-31
1657717990.67083,195057.2403113,-36
1657717990.67083,195057.2403147,-36
1657717990.67083,195057.240318,-33
1657717990.67083,195057.2403213,-38
1657717990.67083,195057.2403247,-38
1657717990.67083,195057.2403293,-21
1657717990.67083,195057.2403327,-16
1657717990.67083,195057.2403375,-21
1657717990.67083,195057.2403408,-14
1657717990.67083,195057.2403442,-2
1657717990.67083,195057.2403476,-12
1657717990.67083,195057.2403512,-12
1657717990.67083,195057.2403547,-2
1657717990.67083,195057.240358,-7
1657717990.67083,195057.2403615,-9
1657717990.78959,195057.2403664,-4
1657717990.78959,195057.24037,0
1657717990.78959,195057.240375,16
1657717990.78959,195057.2403785,31
1657717990.78959,195057.2403818,24
1657717990.78959,195057.2403853,12
1657717990.78959,195057.2403886,7
1657717990.78959,195057.2403923,-2
1657717990.78959,195057.2403957,-7
1657717990.78959,195057.240399,-7
1657717990.78959,195057.2404025,-21
1657717990.78959,195057.240406,-26
1657717990.78959,195057.2404097,-21
1657717990.78959,195057.2404143,-24
1657717990.78959,195057.2404186,21
1657717990.78959,195057.2404236,214
1657717990.78959,195057.2404271,494
1657717990.78959,195057.2404549,629
1657717990.78959,195057.2404654,352
1657717990.78959,195057.2404729,-188
1657717990.78959,195057.2404791,-335
1657717990.78959,195057.2404861,-89
1657717990.78959,195057.2404914,-28
1657717990.78959,195057.7282043,-98
1657717990.78959,195057.7282211,-67
1657717990.78959,195057.7282251,-41
1657717990.78959,195057.7282287,-50
1657717990.78959,195057.7282322,-24
1657717990.78959,195057.7282357,-9
1657717990.78959,195057.7282393,-26
1657717990.78959,195057.7282429,-24
1657717990.78959,195057.7282464,-7
1657717990.78959,195057.72825,-12
1657717990.78959,195057.7282536,-33
1657717990.78959,195057.7282572,-33
1657717990.78959,195057.7282607,-21
1657717990.78959,195057.7282642,-19
1657717990.78959,195057.7282677,0
1657717990.78959,195057.7282713,33
1657717990.78959,195057.7282748,36
1657717990.78959,195057.7282785,31
1657717990.78959,195057.7282822,48
1657717990.78959,195057.7282862,53
1657717990.78959,195057.7282898,45
1657717990.78959,195057.7282934,62
1657717990.78959,195057.728297,67
1657717990.78959,195057.7283005,45
1657717990.78959,195057.728304,36
1657717990.78959,195057.7283077,43
1657717990.78959,195057.7283112,43
1657717990.82588,195057.7283148,33
1657717990.82588,195057.7283183,19
1657717990.82588,195057.7283219,12
1657717990.82588,195057.7283254,16
1657717990.82588,195057.7283289,21
1657717990.82588,195057.7283324,12
1657717990.82588,195057.7283359,-4
1657717990.82588,195057.7283397,0
1657717990.82588,195057.7283438,-2
1657717990.82588,195057.7283475,-14
1657717990.82588,195057.728351,-7
1657717990.82588,195057.7283546,0
1657717990.82588,195057.7283581,0
1657717990.82588,195057.7283616,4
1657717990.82588,195057.7283658,9
1657717990.82588,195057.7283694,28
1657717990.82588,195057.7283732,50
1657717990.82588,195057.7283787,38
1657717990.82588,195057.7283823,43
1657717990.82588,195057.728386,67
1657717990.82588,195057.7283911,67
1657717990.82588,195057.7283947,57
1657717990.82588,195057.7283998,65
1657717990.82588,195057.7284039,69
1657717990.82588,195057.7284091,79
1657717990.82588,195057.7284128,91
1657717990.82588,195057.7284177,101
1657717990.82588,195057.7284229,106
1657717990.82588,195057.7284266,110
1657717990.82588,195057.7284304,113
1657717990.82588,195057.728436,118
1657717990.82588,195057.7284417,127
1657717990.82588,195057.7284475,142
1657717990.82588,195057.7284519,161
1657717990.82588,195057.7284556,168
1657717990.82588,195057.7284609,178
1657717990.82588,195057.7284656,205
1657717990.82588,195057.7284708,224
1657717990.82588,195057.7284747,217
1657717990.82588,195057.7284798,209
1657717990.82588,195057.7284834,212
1657717990.82588,195057.7284892,221
1657717990.82588,195057.7284928,238
1657717990.82588,195057.7284988,263
1657717990.82588,195057.7285024,272
1657717990.82588,195057.7285062,253
1657717990.82588,195058.3134368,221
1657717990.82588,195058.3134565,207
1657717990.82588,195058.313469,217
1657717990.82588,195058.3134773,238
1657717990.85082,195058.3134857,263
1657717990.85082,195058.313494,263
1657717990.85082,195058.3134995,236
1657717990.85082,195058.3135038,229
1657717990.85082,195058.3135082,284
1657717990.85082,195058.3135119,468
1657717990.85082,195058.313516,750
1657717990.85082,195058.3135203,931
1657717990.85082,195058.3135239,699
1657717990.85082,195058.3135276,142
1657717990.85082,195058.3135323,-36
1657717990.85082,195058.3135361,205
1657717990.85082,195058.3135402,238
1657717990.85082,195058.3135449,130
1657717990.85082,195058.3135487,166
1657717990.85082,195058.3135543,188
1657717990.85082,195058.3135576,144
1657717990.85082,195058.313561,161
1657717990.85082,195058.3135642,190
1657717990.85082,195058.3135688,176
1657717990.85082,195058.3135757,176
1657717990.85082,195058.3135816,195
1657717990.85082,195058.3135905,195
1657717990.85082,195058.313599,197
1657717990.85082,195058.3136053,214
1657717990.85082,195058.3136136,217
1657717990.85082,195058.3136213,214
1657717990.85082,195058.3136279,221
1657717990.85082,195058.3136317,221
1657717990.85082,195058.3136372,219
1657717990.85082,195058.3136408,219
1657717990.85082,195058.313646,221
1657717990.85082,195058.3136495,221
1657717990.85082,195058.3136595,226
1657717990.85082,195058.3136663,226
1657717990.85082,195058.3136703,202
1657717990.85082,195058.3136756,185
1657717990.85082,195058.3136802,188
1657717990.85082,195058.3136861,188
1657717990.85082,195058.3136891,173
1657717990.85082,195058.3136921,156
1657717990.85082,195058.313695,156
1657717990.85082,195058.3136984,164
1657717990.85082,195058.3137042,161
1657717990.85082,195058.3137071,144
1657717990.85082,195058.3137101,125
1657717990.85082,195058.3137132,113
1657717990.85082,195058.3137162,101
1657717990.85082,195058.3137191,91
1657717990.85082,195058.313722,89
1657717990.86179,195058.3137249,94
1657717990.86179,195058.3137278,98
1657717990.86179,195058.3137307,103
1657717990.86179,195058.3137337,103
1657717990.86179,195058.3137367,98
1657717990.86179,195058.3137397,106
1657717990.86179,195058.3137426,123
1657717990.86179,195058.3137455,123
1657717990.86179,195058.3137484,110
1657717990.86179,195058.3137513,110
1657717990.86179,195058.3137542,118
1657717990.86179,195058.3137571,113
1657717990.86179,195058.3137601,113
1657717990.86179,195058.3137629,118
1657717990.86179,195058.3137659,123
1657717990.86179,195058.3137689,127
1657717990.86179,195058.3137718,120
1657717990.86179,195058.3137747,113
1657717990.86179,195058.3137777,115
1657717990.86179,195058.8513109,115
1657717990.86179,195058.8513315,127
1657717990.86179,195058.8513403,142
1657717990.86179,195058.8513452,142
1657717990.86179,195058.8513503,130
1657717990.86179,195058.851354,125
1657717990.86179,195058.8513585,132
1657717990.86179,195058.851363,132
1657717990.86179,195058.8513667,125
1657717990.86179,195058.851371,123
1657717990.86179,195058.8513792,106
1657717990.86179,195058.8513894,86
1657717990.86179,195058.8513999,96
1657717990.86179,195058.8514094,115
1657717990.86179,195058.8514222,127
1657717990.86179,195058.8514318,120
1657717990.86179,195058.8514406,89
1657717990.86179,195058.8514472,60
1657717990.86179,195058.851456,60
1657717990.86179,195058.8514632,62
1657717990.86179,195058.8514714,45
1657717990.86179,195058.8514794,45
1657717990.86179,195058.851488,74
1657717990.86179,195058.8515016,82
1657717990.86179,195058.8515096,62
1657717990.86179,195058.8515164,135
1657717990.86179,195058.8515254,383
1657717990.86179,195058.8515343,649
1657717990.86179,195058.8515426,675
1657717990.86179,195058.8515494,294
1657717990.86179,195058.8515581,-156
1657717990.87176,195058.8515662,-127
1657717990.87176,195058.8515735,94
1657717990.87176,195058.8515803,60
1657717990.87176,195058.8515876,14
1657717990.87176,195058.8515967,69
1657717990.87176,195058.8516053,79
1657717990.87176,195058.8516133,67
1657717990.87176,195058.8516211,84
1657717990.87176,195058.8516299,79
1657717990.87176,195058.8516372,74
1657717990.87176,195058.8516446,82
1657717990.87176,195058.8516519,77
1657717990.87176,195058.8516597,77
1657717990.87176,195058.8516686,91
1657717990.87176,195058.8516784,98
1657717990.87176,195058.8516901,98
1657717990.87176,195058.8517021,101
1657717990.87176,195058.8517112,96
1657717990.87176,195058.8517243,101
1657717990.87176,195058.8517398,125
1657717990.87176,195058.8517528,142
1657717990.87176,195058.8517642,135
1657717991.17961,195058.8517811,127
1657717991.17961,195058.851788,135
1657717991.17961,195058.8517943,137
1657717991.17961,195058.8518007,137
1657717991.17961,195058.8518074,137
1657717991.17961,195058.8518131,135
1657717991.17961,195058.8518203,137
1657717991.17961,195058.8518277,135
1657717991.17961,195058.851832,130
1657717991.17961,195058.8518379,149
1657717991.17961,195058.8518425,173
1657717991.17961,195058.8518481,161
1657717991.17961,195058.8518584,139
1657717991.17961,195058.8518666,135
1657717991.17961,195058.85188,127
1657717991.17961,195058.8518893,120
1657717991.17961,195058.851897,123
1657717991.17961,195058.8519041,127
1657717991.17961,195058.8519103,127
1657717991.17961,195058.8519198,132
1657717991.17961,195059.3849862,130
1657717991.17961,195059.3850073,115
1657717991.17961,195059.3850215,120
1657717991.17961,195059.38503,137
1657717991.86714,195059.3850374,137
1657717991.86714,195059.3850439,130
1657717991.86714,195059.3850505,123
1657717991.86714,195059.3850572,106
1657717991.86714,195059.3850642,106
1657717991.86714,195059.3850703,115
1657717991.86714,195059.3850742,108
1657717991.86714,195059.3850774,101
1657717991.86714,195059.385083,103
1657717991.86714,195059.3850869,103
1657717991.86714,195059.3850964,101
1657717991.86714,195059.3851062,108
1657717991.86714,195059.3851187,110
1657717991.86714,195059.3851314,103
1657717991.86714,195059.3851412,108
1657717991.86714,195059.3851468,103
1657717991.86714,195059.3851548,84
1657717991.86714,195059.3851625,86
1657717991.86714,195059.3851697,96
1657717991.86714,195059.3851757,94
1657717991.86714,195059.3851845,91
1657717991.86714,195059.3851909,91
1657717991.86714,195059.3852043,98
1657717991.86714,195059.3852163,110
1657717991.86714,195059.385227,118
1657717991.86714,195059.3852396,120
1657717991.86714,195059.3852464,110
1657717991.86714,195059.3852506,86
1657717991.86714,195059.3852564,72
1657717991.86714,195059.3852605,77
1657717991.86714,195059.3852662,77
1657717991.86714,195059.3852704,67
1657717991.86714,195059.3852813,69
1657717991.86714,195059.3852886,74
1657717991.86714,195059.3852961,74
1657717991.86714,195059.3853063,96
1657717991.86714,195059.3853125,236
1657717991.86714,195059.3853196,506
1657717991.86714,195059.3853282,716
1657717991.86714,195059.3853352,571
1657717991.86714,195059.3853426,72
1657717991.86714,195059.3853526,-209
1657717991.86714,195059.3853643,-16
1657717991.86714,195059.3853715,101
1657717991.86714,195059.3853775,9
1657717991.86714,195059.3853907,24
1657717991.86714,195059.3853991,79
1657717991.86714,195059.3854115,50
1657717991.86714,195059.3854232,33
1657717991.86714,195059.3854349,60
1657717991.90193,195059.3854476,69
1657717991.90193,195059.3854553,69
1657717991.90193,195059.3854674,84
1657717991.90193,195059.3854808,89
1657717991.90193,195059.3854944,82
1657717991.90193,195059.3855094,86
1657717991.90193,195059.3855227,98
1657717991.90193,195059.3855364,98
1657717991.90193,195059.3855493,101
1657717991.90193,195059.3855644,108
1657717991.90193,195059.3855739,101
1657717991.90193,195059.3855834,101
1657717991.90193,195059.3855927,120
1657717991.90193,195059.385599,130
1657717991.90193,195059.3856117,123
1657717991.90193,195059.3856259,130
1657717991.90193,195059.3856403,132
1657717991.90193,195059.3856502,125
1657717991.90193,195059.3856579,130
1657717991.90193,195060.0666291,130
1657717991.90193,195060.0666523,125
1657717991.90193,195060.0666711,125
1657717991.90193,195060.0666817,125
1657717991.90193,195060.0666937,118
1657717992.36476,195060.0667086,118
1657717992.36476,195060.066719,118
1657717992.36476,195060.0667262,108
1657717992.36476,195060.0667319,98
1657717992.36476,195060.0667368,86
1657717992.36476,195060.0667413,67
1657717992.36476,195060.0667478,57
1657717992.36476,195060.0667586,77
1657717992.36476,195060.066767,91
1657717992.36476,195060.0668001,86
1657717992.36476,195060.0668108,86
1657717992.36476,195060.0668173,101
1657717992.36476,195060.0668261,103
1657717992.36476,195060.0668307,94
1657717992.36476,195060.0668406,96
1657717992.36476,195060.0668521,106
1657717992.36476,195060.0668577,101
1657717992.36476,195060.0668671,96
1657717992.36476,195060.0668718,98
1657717992.36476,195060.0668794,98
1657717992.36476,195060.066887,94
1657717992.36476,195060.0668957,86
1657717992.36476,195060.0669072,82
1657717992.36476,195060.0669175,86
1657717992.36476,195060.0669242,89
1657717992.36476,195060.0669369,89
1657717992.36476,195060.0669455,89
1657717992.36476,195060.0669561,96
1657717992.36476,195060.0669669,103
1657717992.36476,195060.0669754,103
1657717992.36476,195060.0669843,101
1657717992.36476,195060.0669951,106
1657717992.36476,195060.0670031,115
1657717992.36476,195060.0670138,110
1657717992.36476,195060.0670259,108
1657717992.36476,195060.0670288,123
1657717992.36476,195060.067031,135
1657717992.36476,195060.0670338,137
1657717992.36476,195060.0670425,135
1657717992.36476,195060.067055,120
1657717992.36476,195060.0670611,108
1657717992.36476,195060.0670654,115
1657717992.36476,195060.0670779,118
1657717992.36476,195060.0670927,115
1657717992.36476,195060.0671059,120
1657717992.36476,195060.0671192,125
1657717992.36476,195060.0671323,118
1657717992.36476,195060.0671455,120
1657717992.36476,195060.0671585,193
1657717992.36476,195060.067167,412
1657717992.38968,195060.0671695,670
1657717992.38968,195060.0671716,699
1657717992.38968,195060.0671738,313
1657717992.38968,195060.0671759,-123
1657717992.38968,195060.067178,-67
1657717992.38968,195060.0671801,154
1657717992.38968,195060.0671822,110
1657717992.38968,195060.0671847,67
1657717992.38968,195060.0671868,125
1657717992.38968,195060.0671889,125
1657717992.38968,195060.0671909,103
1657717992.38968,195060.067193,127
1657717992.38968,195060.0671951,147
1657717992.38968,195060.0671972,142
1657717992.38968,195060.0671992,142
1657717992.38968,195060.0672013,152
1657717992.38968,195060.0672035,159
1657717992.38968,195060.0672062,159
1657717992.38968,195060.5558663,154
1657717992.38968,195060.5558859,152
1657717992.38968,195060.5558895,154
1657717992.38968,195060.5558969,156
1657717992.38968,195060.5559047,161
1657717992.38968,195060.5559085,168
1657717992.89722,195060.5559135,159
1657717992.89722,195060.5559185,147
1657717992.89722,195060.5559219,144
1657717992.89722,195060.5559252,159
1657717992.89722,195060.5559311,166
1657717992.89722,195060.5559404,154
1657717992.89722,195060.5559479,142
1657717992.89722,195060.5559525,135
1657717992.89722,195060.5559562,120
1657717992.89722,195060.555961,115
1657717992.89722,195060.5559659,118
1657717992.89722,195060.5559699,118
1657717992.89722,195060.5559795,113
1657717992.89722,195060.5559869,86
1657717992.89722,195060.5559938,55
1657717992.89722,195060.5560007,43
1657717992.89722,195060.556004,26
1657717992.89722,195060.556012,7
1657717992.89722,195060.5560159,14
1657717992.89722,195060.5560197,7
1657717992.89722,195060.5560263,-24
1657717992.89722,195060.5560294,-16
1657717992.89722,195060.5560324,7
1657717992.89722,195060.5560353,2
1657717992.89722,195060.5560382,4
1657717992.89722,195060.5560411,12
1657717992.89722,195060.556044,-2
1657717992.89722,195060.5560468,-12
1657717992.89722,195060.5560499,2
1657717992.89722,195060.5560528,14
1657717992.89722,195060.5560557,4
1657717992.89722,195060.5560586,-4
1657717992.89722,195060.5560615,-7
1657717992.89722,195060.5560644,-14
1657717992.89722,195060.5560674,-12
1657717992.89722,195060.5560703,-7
1657717992.89722,195060.5560731,-4
1657717992.89722,195060.5560785,-2
1657717992.89722,195060.5560864,-7
1657717992.89722,195060.5560923,-14
1657717992.89722,195060.5560966,-19
1657717992.89722,195060.5561006,-19
1657717992.89722,195060.5561193,-19
1657717992.89722,195060.5561341,-21
1657717992.89722,195060.5561425,-24
1657717992.89722,195060.5561472,-16
1657717992.89722,195060.5561517,2
1657717992.89722,195060.5561548,19
1657717992.89722,195060.5561577,7
1657717992.89722,195060.5561608,-19
1657717992.92115,195060.5561638,-24
1657717992.92115,195060.5561668,-19
1657717992.92115,195060.5561698,-26
1657717992.92115,195060.5561727,-21
1657717992.92115,195060.5561757,-4
1657717992.92115,195060.5561788,-4
1657717992.92115,195060.5561818,-7
1657717992.92115,195060.5561847,-4
1657717992.92115,195060.5561876,33
1657717992.92115,195060.5561905,217
1657717992.92115,195060.5561935,499
1657717992.92115,195060.5561965,624
1657717992.92115,195060.5561995,313
1657717992.92115,195060.5562024,-217
1657717992.92115,195060.5562055,-301
1657717992.92115,195060.5562128,-38
1657717992.92115,195060.5562182,-7
1657717992.92115,195061.0930078,-77
1657717992.92115,195061.0930194,-19
1657717992.92115,195061.0930221,4
1657717992.92115,195061.0930245,-33
1657717992.92115,195061.0930265,-16
1657717992.92115,195061.0930287,0
1657717992.92115,195061.0930308,-24
1657717993.47784,195061.0930329,-26
1657717993.47784,195061.0930349,-2
1657717993.47784,195061.0930368,-12
1657717993.47784,195061.0930389,-38
1657717993.47784,195061.093043,-48
1657717993.47784,195061.0930522,-41
1657717993.47784,195061.0930569,-33
1657717993.47784,195061.0930629,-21
1657717993.47784,195061.0930693,-7
1657717993.47784,195061.0930762,-12
1657717993.47784,195061.0930807,-14
1657717993.47784,195061.0930829,-2
1657717993.47784,195061.0930851,-2
1657717993.47784,195061.0930884,2
1657717993.47784,195061.0931014,19
1657717993.47784,195061.0931081,16
1657717993.47784,195061.0931112,-2
1657717993.47784,195061.0931134,0
1657717993.47784,195061.0931156,9
1657717993.47784,195061.0931184,-2
1657717993.47784,195061.0931285,-9
1657717993.47784,195061.0931372,7
1657717993.47784,195061.0931397,14
1657717993.47784,195061.0931419,-2
1657717993.47784,195061.0931442,-19
1657717993.47784,195061.093152,-31
1657717993.47784,195061.0931627,-36
1657717993.47784,195061.093167,-41
1657717993.47784,195061.0931691,-48
1657717993.47784,195061.0931712,-55
1657717993.47784,195061.0931734,-53
1657717993.47784,195061.0931805,-48
1657717993.47784,195061.0931917,-43
1657717993.47784,195061.0931964,-38
1657717993.47784,195061.0931987,-26
1657717993.47784,195061.0932012,-19
1657717993.47784,195061.0932036,-28
1657717993.47784,195061.0932112,-31
1657717993.47784,195061.0932221,-14
1657717993.47784,195061.0932265,0
1657717993.47784,195061.0932286,-2
1657717993.47784,195061.0932308,-7
1657717993.47784,195061.0932331,-7
1657717993.47784,195061.09324,-2
1657717993.47784,195061.0932512,4
1657717993.47784,195061.0932559,0
1657717993.47784,195061.0932581,-9
1657717993.47784,195061.0932608,-2
1657717993.47784,195061.0932629,12
1657717993.47784,195061.0932681,14
1657717993.48981,195061.0932799,14
1657717993.48981,195061.0932855,19
1657717993.48981,195061.0932875,19
1657717993.48981,195061.0932898,19
1657717993.48981,195061.0932918,36
1657717993.48981,195061.0932954,53
1657717993.48981,195061.0933084,55
1657717993.48981,195061.0933144,45
1657717993.48981,195061.0933167,31
1657717993.48981,195061.0933189,21
1657717993.48981,195061.093321,19
1657717993.48981,195061.0933232,19
1657717993.48981,195061.0933306,19
1657717993.48981,195061.0933414,26
1657717993.48981,195061.0933457,41
1657717993.48981,195061.0933478,41
1657717993.48981,195061.6765157,28
1657717993.48981,195061.6765324,86
1657717993.48981,195061.6765369,299
1657717993.48981,195061.6765451,574
1657717993.48981,195061.676552,656
1657717993.48981,195061.6765662,289
1657717993.48981,195061.6765725,-238
1657717993.48981,195061.676577,-263
1657717994.00774,195061.6765791,0
1657717994.00774,195061.6765812,-2
1657717994.00774,195061.6765832,-65
1657717994.00774,195061.6765852,-7
1657717994.00774,195061.6765872,2
1657717994.00774,195061.6765892,-31
1657717994.00774,195061.6765911,-12
1657717994.00774,195061.6765931,14
1657717994.00774,195061.6765961,24
1657717994.00774,195061.6766047,24
1657717994.00774,195061.6766091,19
1657717994.00774,195061.6766129,14
1657717994.00774,195061.6766162,7
1657717994.00774,195061.6766198,9
1657717994.00774,195061.6766232,19
1657717994.00774,195061.6766266,26
1657717994.00774,195061.6766302,26
1657717994.00774,195061.6766364,31
1657717994.00774,195061.6766409,36
1657717994.00774,195061.676646,43
1657717994.00774,195061.6766504,48
1657717994.00774,195061.6766541,38
1657717994.00774,195061.6766578,41
1657717994.00774,195061.6766627,60
1657717994.00774,195061.676666,60
1657717994.00774,195061.6766703,48
1657717994.00774,195061.6766758,43
1657717994.00774,195061.6766793,45
1657717994.00774,195061.6766841,43
1657717994.00774,195061.6766882,48
1657717994.00774,195061.6766929,74
1657717994.00774,195061.6767012,84
1657717994.00774,195061.6767069,55
1657717994.00774,195061.6767092,38
1657717994.00774,195061.6767112,41
1657717994.00774,195061.6767138,45
1657717994.00774,195061.676716,53
1657717994.00774,195061.6767181,48
1657717994.00774,195061.6767201,19
1657717994.00774,195061.6767222,-7
1657717994.00774,195061.6767242,0
1657717994.00774,195061.6767262,21
1657717994.00774,195061.6767283,31
1657717994.00774,195061.6767305,31
1657717994.00774,195061.6767326,38
1657717994.00774,195061.6767348,48
1657717994.00774,195061.6767373,60
1657717994.00774,195061.6767394,69
1657717994.00774,195061.6767422,55
1657717994.00774,195061.676753,24
1657717994.0187,195061.6767591,26
1657717994.0187,195061.6767628,45
1657717994.0187,195061.6767679,45
1657717994.0187,195061.6767714,36
1657717994.0187,195061.6767762,38
1657717994.0187,195061.6767807,41
1657717994.0187,195061.6767856,41
1657717994.0187,195061.6767941,38
1657717994.0187,195061.6767999,33
1657717994.0187,195061.6768026,38
1657717994.0187,195061.6768057,43
1657717994.0187,195061.6768078,28
1657717994.0187,195061.67681,19
1657717994.0187,195061.676812,48
1657717994.0187,195061.6768141,60
1657717994.0187,195062.211835,53
1657717994.0187,195062.2118503,67
1657717994.0187,195062.2118531,79
1657717994.0187,195062.2118554,72
1657717994.0187,195062.2118576,57
1657717994.0187,195062.2118597,48
1657717994.0187,195062.2118617,45
1657717994.0187,195062.2118638,55
1657717994.0187,195062.2118659,77
1657717994.54711,195062.2118713,82
1657717994.54711,195062.2118797,55
1657717994.54711,195062.2118845,41
1657717994.54711,195062.2118891,103
1657717994.54711,195062.2118945,304
1657717994.54711,195062.2118982,593
1657717994.54711,195062.2119021,721
1657717994.54711,195062.2119062,402
1657717994.54711,195062.2119145,-123
1657717994.54711,195062.2119191,-193
1657717994.54711,195062.2119274,36
1657717994.54711,195062.211938,28
1657717994.54711,195062.2119494,-28
1657717994.54711,195062.2119592,33
1657717994.54711,195062.2119685,41
1657717994.54711,195062.211974,12
1657717994.54711,195062.2119769,31
1657717994.54711,195062.2119862,57
1657717994.54711,195062.2119959,60
1657717994.54711,195062.2120047,60
1657717994.54711,195062.2120153,69
1657717994.54711,195062.2120201,84
1657717994.54711,195062.2120301,94
1657717994.54711,195062.212038,110
1657717994.54711,195062.2120469,115
1657717994.54711,195062.2120538,110
1657717994.54711,195062.2120592,118
1657717994.54711,195062.2120647,127
1657717994.54711,195062.2120685,137
1657717994.54711,195062.2120722,178
1657717994.54711,195062.2120757,205
1657717994.54711,195062.2120792,171
1657717994.54711,195062.2120826,142
1657717994.54711,195062.2120869,142
1657717994.54711,195062.2120914,154
1657717994.54711,195062.2120951,171
1657717994.54711,195062.2120986,156
1657717994.54711,195062.2121025,130
1657717994.54711,195062.2121054,154
1657717994.54711,195062.2121088,202
1657717994.54711,195062.212112,207
1657717994.54711,195062.2121152,195
1657717994.54711,195062.2121186,193
1657717994.54711,195062.2121245,173
1657717994.54711,195062.2121311,147
1657717994.54711,195062.2121366,149
1657717994.54711,195062.21214,161
1657717994.54711,195062.2121438,144
1657717994.54711,195062.2121476,135
1657717994.54711,195062.2121511,166
1657717994.55709,195062.2121547,188
1657717994.55709,195062.2121584,197
1657717994.55709,195062.2121642,207
1657717994.55709,195062.2121672,173
1657717994.55709,195062.21217,127
1657717994.55709,195062.2121729,144
1657717994.55709,195062.2121769,164
1657717994.55709,195062.2121798,154
1657717994.55709,195062.2121827,166
1657717994.55709,195062.2121858,183
1657717994.55709,195062.2121912,164
1657717994.55709,195062.2121964,132
1657717994.55709,195062.2121993,130
1657717994.55709,195062.2122022,144
1657717994.55709,195062.7480497,152
1657717994.55709,195062.7480627,166
1657717994.55709,195062.7480661,171
1657717994.55709,195062.7480689,152
1657717994.55709,195062.7480714,137
1657717994.55709,195062.7480739,149
1657717994.55709,195062.7480764,120
1657717994.55709,195062.7480788,84
1657717994.55709,195062.7480812,110
1657717994.55709,195062.7480836,147
1657717995.17791,195062.7480862,161
1657717995.17791,195062.7480888,159
1657717995.17791,195062.7480962,147
1657717995.17791,195062.748108,144
1657717995.17791,195062.7481162,142
1657717995.17791,195062.7481208,144
1657717995.17791,195062.7481246,152
1657717995.17791,195062.7481312,135
1657717995.17791,195062.7481353,115
1657717995.17791,195062.7481409,125
1657717995.17791,195062.7481497,127
1657717995.17791,195062.7481558,118
1657717995.17791,195062.7481676,137
1657717995.17791,195062.7481753,168
1657717995.17791,195062.7481778,183
1657717995.17791,195062.74818,171
1657717995.17791,195062.7481821,149
1657717995.17791,195062.7481842,231
1657717995.17791,195062.7481903,489
1657717995.17791,195062.7482017,740
1657717995.17791,195062.7482063,697
1657717995.17791,195062.7482085,277
1657717995.17791,195062.7482116,-84
1657717995.17791,195062.7482137,21
1657717995.17791,195062.748216,193
1657717995.17791,195062.748226,120
1657717995.17791,195062.7482347,79
1657717995.17791,195062.7482372,132
1657717995.17791,195062.7482393,139
1657717995.17791,195062.7482414,125
1657717995.17791,195062.7482435,147
1657717995.17791,195062.7482513,168
1657717995.17791,195062.748262,166
1657717995.17791,195062.7482656,166
1657717995.17791,195062.7482692,159
1657717995.17791,195062.7482756,152
1657717995.17791,195062.7482867,171
1657717995.17791,195062.7482915,173
1657717995.17791,195062.7482937,166
1657717995.17791,195062.7482965,183
1657717995.17791,195062.7482986,197
1657717995.17791,195062.7483008,185
1657717995.17791,195062.7483084,176
1657717995.17791,195062.748319,176
1657717995.17791,195062.7483225,176
1657717995.17791,195062.7483262,185
1657717995.17791,195062.7483318,188
1657717995.17791,195062.7483433,171
1657717995.17791,195062.7483484,161
1657717995.17791,195062.7483506,171
1657717995.20594,195062.7483529,156
1657717995.20594,195062.748355,154
1657717995.20594,195062.7483575,190
1657717995.20594,195062.7483678,200
1657717995.20594,195062.7483758,180
1657717995.20594,195062.7483783,185
1657717995.20594,195062.7483805,195
1657717995.20594,195062.7483859,202
1657717995.20594,195062.7483975,197
1657717995.20594,195062.748403,168
1657717995.20594,195062.7484082,135
1657717995.20594,195062.7484137,130
1657717995.20594,195062.7484226,154
1657717995.20594,195063.3829893,168
1657717995.20594,195063.3830082,173
1657717995.20594,195063.3830234,164
1657717995.20594,195063.3830382,147
1657717995.20594,195063.3830477,139
1657717995.20594,195063.3830502,154
1657717995.20594,195063.3830524,149
1657717995.20594,195063.3830546,127
1657717995.20594,195063.3830567,130
1657717995.20594,195063.3830587,118
1657717995.20594,195063.3830609,69
1657717995.71997,195063.383063,60
1657717995.71997,195063.3830668,74
1657717995.71997,195063.383078,82
1657717995.71997,195063.3830846,96
1657717995.71997,195063.3830874,103
1657717995.71997,195063.3830967,79
1657717995.71997,195063.3831054,67
1657717995.71997,195063.3831154,91
1657717995.71997,195063.3831201,94
1657717995.71997,195063.3831334,77
1657717995.71997,195063.3831472,91
1657717995.71997,195063.3831607,108
1657717995.71997,195063.3831724,91
1657717995.71997,195063.3831844,72
1657717995.71997,195063.3831885,77
1657717995.71997,195063.3832004,94
1657717995.71997,195063.3832411,106
1657717995.71997,195063.3832469,106
1657717995.71997,195063.3832509,103
1657717995.71997,195063.3832546,106
1657717995.71997,195063.3832581,115
1657717995.71997,195063.3832616,113
1657717995.71997,195063.383265,91
1657717995.71997,195063.3832686,82
1657717995.71997,195063.383272,98
1657717995.71997,195063.3832755,120
1657717995.71997,195063.3832789,127
1657717995.71997,195063.3832825,132
1657717995.71997,195063.3832887,144
1657717995.71997,195063.3832929,149
1657717995.71997,195063.383297,118
1657717995.71997,195063.3833015,89
1657717995.71997,195063.3833057,108
1657717995.71997,195063.3833096,130
1657717995.71997,195063.3833133,110
1657717995.71997,195063.3833174,86
1657717995.71997,195063.3833214,79
1657717995.71997,195063.3833259,86
1657717995.71997,195063.3833298,113
1657717995.71997,195063.3833365,130
1657717995.71997,195063.383341,195
1657717995.71997,195063.383346,405
1657717995.71997,195063.3833498,644
1657717995.71997,195063.3833536,637
1657717995.71997,195063.3833577,260
1657717995.71997,195063.3833629,-123
1657717995.71997,195063.383367,-69
1657717995.71997,195063.383372,106
1657717995.71997,195063.3833755,79
1657717995.71997,195063.3833788,62
1657717995.74191,195063.383382,101
1657717995.74191,195063.3833852,89
1657717995.74191,195063.3833891,89
1657717995.74191,195063.3833957,120
1657717995.74191,195063.3834017,118
1657717995.74191,195063.383407,94
1657717995.74191,195063.383414,108
1657717995.74191,195063.3834211,123
1657717995.74191,195063.3834263,108
1657717995.74191,195063.3834315,106
1657717995.74191,195063.3834365,123
1657717995.74191,195063.3834401,123
1657717995.74191,195063.9192173,115
1657717995.74191,195063.9192421,123
1657717995.74191,195063.9192447,130
1657717995.74191,195063.9192479,125
1657717995.74191,195063.9192502,127
1657717995.74191,195063.9192522,130
1657717995.74191,195063.9192542,127
1657717995.74191,195063.9192563,137
1657717995.74191,195063.9192584,144
1657717995.74191,195063.9192604,137
1657717995.74191,195063.9192625,154
1657717995.74191,195063.9192666,168
1657717996.34553,195063.9192691,135
1657717996.34553,195063.9192751,106
1657717996.34553,195063.9192813,96
1657717996.34553,195063.919288,96
1657717996.34553,195063.9192924,125
1657717996.34553,195063.9192967,149
1657717996.34553,195063.9193031,130
1657717996.34553,195063.91931,89
1657717996.34553,195063.919317,57
1657717996.34553,195063.9193242,36
1657717996.34553,195063.9193339,38
1657717996.34553,195063.9193434,62
1657717996.34553,195063.9193499,65
1657717996.34553,195063.919363,41
1657717996.34553,195063.9193763,24
1657717996.34553,195063.9193893,21
1657717996.34553,195063.919403,21
1657717996.34553,195063.9194161,45
1657717996.34553,195063.9194296,82
1657717996.34553,195063.9194442,82
1657717996.34553,195063.9194578,57
1657717996.34553,195063.9194711,60
1657717996.34553,195063.9194849,74
1657717996.34553,195063.9194983,60
1657717996.34553,195063.9195117,48
1657717996.34553,195063.919525,62
1657717996.34553,195063.9195384,82
1657717996.34553,195063.9195518,77
1657717996.34553,195063.9195651,43
1657717996.34553,195063.9195787,36
1657717996.34553,195063.9195921,53
1657717996.34553,195063.9196013,62
1657717996.34553,195063.9196037,74
1657717996.34553,195063.9196058,74
1657717996.34553,195063.919608,65
1657717996.34553,195063.9196101,79
1657717996.34553,195063.9196122,89
1657717996.34553,195063.9196142,74
1657717996.34553,195063.9196162,67
1657717996.34553,195063.9196183,72
1657717996.34553,195063.9196204,82
1657717996.34553,195063.9196224,96
1657717996.34553,195063.9196244,91
1657717996.34553,195063.9196265,82
1657717996.34553,195063.9196285,86
1657717996.34553,195063.9196306,89
1657717996.34553,195063.9196326,77
1657717996.34553,195063.9196346,79
1657717996.34553,195063.9196367,94
1657717996.34553,195063.9196387,96
1657717996.36349,195063.9196407,82
1657717996.36349,195063.9196428,89
1657717996.36349,195063.9196448,89
1657717996.36349,195063.9196468,65
1657717996.36349,195063.9196489,72
1657717996.36349,195063.919651,113
1657717996.36349,195063.919653,135
1657717996.36349,195063.919655,127
1657717996.36349,195063.9196571,101
1657717996.36349,195063.919659,86
1657717996.36349,195063.9196611,86
1657717996.36349,195064.5526585,82
1657717996.36349,195064.5526715,82
1657717996.36349,195064.5526745,84
1657717996.36349,195064.552677,72
1657717996.36349,195064.5526794,69
1657717996.36349,195064.5526817,84
1657717996.36349,195064.552684,94
1657717996.36349,195064.5526863,154
1657717996.36349,195064.5526887,354
1657717996.36349,195064.552691,574
1657717996.36349,195064.5526933,569
1657717996.36349,195064.5526956,217
1657717996.36349,195064.5526989,-183
1657717996.83268,195064.5527123,-164
1657717996.83268,195064.552718,28
1657717996.83268,195064.5527203,-9
1657717996.83268,195064.5527259,-82
1657717996.83268,195064.5527345,-50
1657717996.83268,195064.5527456,-38
1657717996.83268,195064.55276,-48
1657717996.83268,195064.5527696,-33
1657717996.83268,195064.5527829,-21
1657717996.83268,195064.552799,-31
1657717996.83268,195064.5528175,-43
1657717996.83268,195064.5528305,-43
1657717996.83268,195064.5528359,-31
1657717996.83268,195064.5528429,-19
1657717996.83268,195064.5528508,-19
1657717996.83268,195064.5528566,-19
1657717996.83268,195064.5528603,-2
1657717996.83268,195064.5528661,0
1657717996.83268,195064.5528698,-26
1657717996.83268,195064.552875,-26
1657717996.83268,195064.5528803,-9
1657717996.83268,195064.5528878,-14
1657717996.83268,195064.5528955,-19
1657717996.83268,195064.5529009,-16
1657717996.83268,195064.5529042,-12
1657717996.83268,195064.5529093,2
1657717996.83268,195064.5529128,4
1657717996.83268,195064.552918,-24
1657717996.83268,195064.5529221,-50
1657717996.83268,195064.5529282,-28
1657717996.83268,195064.5529315,-7
1657717996.83268,195064.5529365,-16
1657717996.83268,195064.5529399,2
1657717996.83268,195064.5529474,38
1657717996.83268,195064.5529527,26
1657717996.83268,195064.5529559,-16
1657717996.83268,195064.5529639,-41
1657717996.83268,195064.5529692,-45

1657717996.83268,195064.5529791,-38
1657717996.83268,195064.5529881,-31
1657717996.83268,195064.5529944,-41
1657717996.83268,195064.5529999,-53
1657717996.83268,195064.5530054,-33
1657717996.83268,195064.5530093,-9
1657717996.83268,195064.5530146,-7
1657717996.83268,195064.5530189,-9
1657717996.83268,195064.5530249,-4
1657717996.83268,195064.5530297,-19
1657717996.83268,195064.5530357,-53
1657717996.83268,195064.5530419,-50
1657717996.84465,195064.5530467,-9
1657717996.84465,195064.5530528,-4
1657717996.84465,195064.5530569,-24
1657717996.84465,195064.553063,-28
1657717996.84465,195064.5530676,-33
1657717996.84465,195064.5530739,-43
1657717996.84465,195064.5530777,-26
1657717996.84465,195064.5530839,-7
1657717996.84465,195064.5530885,-31
1657717996.84465,195064.5530947,-53
1657717996.84465,195065.0401812,-50
1657717996.84465,195065.0401999,-45
1657717996.84465,195065.0402046,-38
1657717996.84465,195065.0402085,-21
1657717996.84465,195065.0402122,-19
1657717996.84465,195065.0402159,-38
1657717996.84465,195065.0402249,-45
1657717996.84465,195065.0402301,-19
1657717996.84465,195065.0402384,-4
1657717996.84465,195065.0402448,-38
1657717996.84465,195065.040251,-57
1657717996.84465,195065.0402572,-31
1657717996.84465,195065.0402626,-28
1657717996.84465,195065.0402665,-55
1657717997.3769,195065.0402696,-41
1657717997.3769,195065.0402728,-21
1657717997.3769,195065.0402783,-26
1657717997.3769,195065.040284,-21
1657717997.3769,195065.0402881,-21
1657717997.3769,195065.0402932,-45
1657717997.3769,195065.0402969,-60
1657717997.3769,195065.0402999,-28
1657717997.3769,195065.0403041,9
1657717997.3769,195065.0403074,0
1657717997.3769,195065.0403121,-36
1657717997.3769,195065.0403169,-53
1657717997.3769,195065.0403222,-57
1657717997.3769,195065.0403266,-67
1657717997.3769,195065.0403326,-65
1657717997.3769,195065.0403361,-43
1657717997.3769,195065.0403476,-38
1657717997.3769,195065.0403563,-48
1657717997.3769,195065.0403665,-41
1657717997.3769,195065.0403741,-24
1657717997.3769,195065.0403824,21
1657717997.3769,195065.0403919,219
1657717997.3769,195065.040399,492
1657717997.3769,195065.0404041,559
1657717997.3769,195065.0404132,205
1657717997.3769,195065.0404193,-260
1657717997.3769,195065.0404321,-260
1657717997.3769,195065.040443,-50
1657717997.3769,195065.0404491,-74
1657717997.3769,195065.0404625,-103
1657717997.3769,195065.0404711,-28
1657717997.3769,195065.0404789,-19
1657717997.3769,195065.0404884,-48
1657717997.3769,195065.0404931,-16
1657717997.3769,195065.0404953,4
1657717997.3769,195065.0404975,-31
1657717997.3769,195065.0404996,-50
1657717997.3769,195065.0405017,-24
1657717997.3769,195065.0405039,0
1657717997.3769,195065.040506,4
1657717997.3769,195065.0405082,0
1657717997.3769,195065.0405103,-14
1657717997.3769,195065.0405124,-2
1657717997.3769,195065.0405146,26
1657717997.3769,195065.0405166,31
1657717997.3769,195065.0405187,26
1657717997.3769,195065.0405209,38
1657717997.3769,195065.0405229,50
1657717997.3769,195065.0405259,48
1657717997.3769,195065.0405279,48
1657717997.38864,195065.04053,57
1657717997.38864,195065.0405321,67
1657717997.38864,195065.0405342,72
1657717997.38864,195065.0405363,79
1657717997.38864,195065.0405384,72
1657717997.38864,195065.0405405,72
1657717997.38864,195065.0405426,89
1657717997.38864,195065.0405447,84
1657717997.38864,195065.0405467,57
1657717997.38864,195065.5760566,55
1657717997.38864,195065.5760801,69
1657717997.38864,195065.5761026,74
1657717997.38864,195065.5761189,74
1657717997.38864,195065.5761211,62
1657717997.38864,195065.5761233,19
1657717997.38864,195065.5761255,-2
1657717997.38864,195065.5761276,26
1657717997.38864,195065.5761298,48
1657717997.38864,195065.5761319,33
1657717997.38864,195065.576134,21
1657717997.38864,195065.5761361,26
1657717997.38864,195065.5761381,43
1657717997.38864,195065.5761402,57
1657717997.38864,195065.5761424,62
1657717997.95541,195065.5761446,62
1657717997.95541,195065.5761467,33
1657717997.95541,195065.5761492,-4
1657717997.95541,195065.5761513,0
1657717997.95541,195065.5761533,19
1657717997.95541,195065.5761553,16
1657717997.95541,195065.5761573,19
1657717997.95541,195065.5761597,19
1657717997.95541,195065.5761652,12
1657717997.95541,195065.5761755,24
1657717997.95541,195065.5761805,50
1657717997.95541,195065.5761828,57
1657717997.95541,195065.5761851,21
1657717997.95541,195065.5761871,-4
1657717997.95541,195065.5761891,28
1657717997.95541,195065.5761926,65
1657717997.95541,195065.5761994,57
1657717997.95541,195065.5762049,53
1657717997.95541,195065.5762461,50
1657717997.95541,195065.5762585,38
1657717997.95541,195065.5762654,43
1657717997.95541,195065.5762701,50
1657717997.95541,195065.5762764,33
1657717997.95541,195065.5762808,41
1657717997.95541,195065.5762851,55
1657717997.95541,195065.5762911,41
1657717997.95541,195065.5762957,53
1657717997.95541,195065.576302,74
1657717997.95541,195065.5763062,53
1657717997.95541,195065.5763105,48
1657717997.95541,195065.5763173,79
1657717997.95541,195065.5763242,77
1657717997.95541,195065.5763291,57
1657717997.95541,195065.5763349,69
1657717997.95541,195065.5763392,91
1657717997.95541,195065.5763461,96
1657717997.95541,195065.5763522,101
1657717997.95541,195065.5763578,101
1657717997.95541,195065.5763616,74
1657717997.95541,195065.5763678,55
1657717997.95541,195065.5763753,62
1657717997.95541,195065.5763807,69
1657717997.95541,195065.5763877,67
1657717997.95541,195065.5763944,65
1657717997.95541,195065.5764028,72
1657717997.95541,195065.5764094,96
1657717997.95541,195065.5764128,176
1657717997.95541,195065.5764164,388
1657717997.95541,195065.5764217,639
1657717997.95541,195065.5764273,639
1657717997.96538,195065.576432,214
1657717997.96538,195065.5764352,-190
1657717997.96538,195065.576438,-96
1657717997.96538,195065.5764409,94
1657717997.96538,195065.5764437,24
1657717997.96538,195065.5764465,-14
1657717997.96538,195065.5764493,53
1657717997.96538,195065.5764522,48
1657717997.96538,195066.16084,28
1657717997.96538,195066.1608638,55
1657717997.96538,195066.1608737,60
1657717997.96538,195066.1608803,50
1657717997.96538,195066.1608906,72
1657717997.96538,195066.160899,98
1657717997.96538,195066.1609057,79
1657717997.96538,195066.1609133,33
1657717997.96538,195066.1609202,31
1657717997.96538,195066.1609274,57
1657717997.96538,195066.1609338,55
1657717997.96538,195066.1609403,43
1657717997.96538,195066.1609499,41
1657717997.96538,195066.1609559,43
1657717997.96538,195066.1609637,55
1657717997.96538,195066.1609701,50
1657717998.54426,195066.1609775,41
1657717998.54426,195066.1609851,60
1657717998.54426,195066.1609934,77
1657717998.54426,195066.1610003,65
1657717998.54426,195066.1610078,57
1657717998.54426,195066.161014,65
1657717998.54426,195066.1610204,65
1657717998.54426,195066.1610273,45
1657717998.54426,195066.1610315,43
1657717998.54426,195066.1610352,62
1657717998.54426,195066.1610385,72
1657717998.54426,195066.1610417,72
1657717998.54426,195066.1610452,69
1657717998.54426,195066.1610491,65
1657717998.54426,195066.1610532,65
1657717998.54426,195066.1610569,62
1657717998.54426,195066.1610606,57
1657717998.54426,195066.1610645,53
1657717998.54426,195066.1610685,38
1657717998.54426,195066.1610724,31
1657717998.54426,195066.1610759,50
1657717998.54426,195066.1610793,72
1657717998.54426,195066.161083,79
1657717998.54426,195066.1610866,74
1657717998.54426,195066.16109,84
1657717998.54426,195066.1610935,106
1657717998.54426,195066.161097,106
1657717998.54426,195066.1611002,89
1657717998.54426,195066.1611034,84
1657717998.54426,195066.1611065,84
1657717998.54426,195066.1611103,79
1657717998.54426,195066.1611139,77
1657717998.54426,195066.1611178,82
1657717998.54426,195066.1611215,82
1657717998.54426,195066.1611242,69
1657717998.54426,195066.1611269,67
1657717998.54426,195066.1611296,84
1657717998.54426,195066.1611323,82
1657717998.54426,195066.1611349,60
1657717998.54426,195066.1611379,62
1657717998.54426,195066.1611408,79
1657717998.54426,195066.1611435,77
1657717998.54426,195066.1611461,62
1657717998.54426,195066.1611489,53
1657717998.54426,195066.1611516,57
1657717998.54426,195066.1611543,77
1657717998.54426,195066.1611571,82
1657717998.54426,195066.1611599,82
1657717998.54426,195066.1611627,86
1657717998.54426,195066.1611654,79
1657717998.55623,195066.1611682,65
1657717998.55623,195066.1611708,69
1657717998.55623,195066.1611737,74
1657717998.55623,195066.1611763,55
1657717998.55623,195066.1611792,45
1657717998.55623,195066.1611818,67
1657717998.55623,195066.1611846,77
1657717998.55623,195066.7456848,62
1657717998.55623,195066.7457085,60
1657717998.55623,195066.7457182,72
1657717998.55623,195066.7457235,69
1657717998.55623,195066.7457287,53
1657717998.55623,195066.7457337,65
1657717998.55623,195066.7457388,91
1657717998.55623,195066.7457438,86
1657717998.55623,195066.7457489,53
1657717998.55623,195066.7457536,26
1657717998.55623,195066.7457585,26
1657717998.55623,195066.7457637,36
1657717998.55623,195066.7457692,33
1657717998.55623,195066.7457744,33
1657717998.55623,195066.7457794,33
1657717998.55623,195066.7457847,14
1657717998.55623,195066.745806,7
1657717999.12995,195066.7458157,101
1657717999.12995,195066.7458217,347
1657717999.12995,195066.7458269,595
1657717999.12995,195066.7458321,615
1657717999.12995,195066.7458374,255
1657717999.12995,195066.7458428,-173
1657717999.12995,195066.7458481,-152
1657717999.12995,195066.7458537,48
1657717999.12995,195066.7458607,9
1657717999.12995,195066.7458662,-38
1657717999.12995,195066.7458706,21
1657717999.12995,195066.7458846,24
1657717999.12995,195066.74589,-2
1657717999.12995,195066.7458954,28
1657717999.12995,195066.7459007,53
1657717999.12995,195066.7459055,43
1657717999.12995,195066.7459102,45
1657717999.12995,195066.7459161,62
1657717999.12995,195066.7459215,62
1657717999.12995,195066.7459264,50
1657717999.12995,195066.7459319,62
1657717999.12995,195066.7459367,79
1657717999.12995,195066.7459414,89
1657717999.12995,195066.745947,94
1657717999.12995,195066.7459517,91
1657717999.12995,195066.7459565,96
1657717999.12995,195066.7459612,103
1657717999.12995,195066.745966,98
1657717999.12995,195066.7459714,101
1657717999.12995,195066.7459764,113
1657717999.12995,195066.7459812,125
1657717999.12995,195066.7459858,120
1657717999.12995,195066.7459904,115
1657717999.12995,195066.7459961,115
1657717999.12995,195066.7460008,113
1657717999.12995,195066.7460056,113
1657717999.12995,195066.7460103,113
1657717999.12995,195066.7460152,106
1657717999.12995,195066.7460204,113
1657717999.12995,195066.7460248,123
1657717999.12995,195066.746029,120
1657717999.12995,195066.7460334,118
1657717999.12995,195066.7460379,106
1657717999.12995,195066.746043,89
1657717999.12995,195066.7460475,79
1657717999.12995,195066.7460521,79
1657717999.12995,195066.7460567,77
1657717999.12995,195066.7460612,77
1657717999.12995,195066.7460656,84
1657717999.12995,195066.74607,94
1657717999.14391,195066.7460748,113
1657717999.14391,195066.7460808,123
1657717999.14391,195066.7460874,98
1657717999.14391,195066.746092,67
1657717999.14391,195066.7460964,67
1657717999.14391,195066.7461009,89
1657717999.14391,195067.3310307,98
1657717999.14391,195067.331051,91
1657717999.14391,195067.3310613,86
1657717999.14391,195067.3310641,89
1657717999.14391,195067.3310663,77
1657717999.14391,195067.3310685,67
1657717999.14391,195067.3310707,74
1657717999.14391,195067.3310727,74
1657717999.14391,195067.3310748,74
1657717999.14391,195067.3310769,74
1657717999.14391,195067.331079,50
1657717999.14391,195067.331081,38
1657717999.14391,195067.3310831,50
1657717999.14391,195067.3310851,45
1657717999.14391,195067.3310871,31
1657717999.14391,195067.3310892,33
1657717999.14391,195067.3310913,38
1657717999.14391,195067.3310933,38
1657717999.62097,195067.3310955,43
1657717999.62097,195067.3310977,26
1657717999.62097,195067.3310999,0
1657717999.62097,195067.3311018,4
1657717999.62097,195067.3311038,24
1657717999.62097,195067.3311059,26
1657717999.62097,195067.3311078,24
1657717999.62097,195067.3311097,28
1657717999.62097,195067.3311118,33
1657717999.62097,195067.3311138,36
1657717999.62097,195067.3311158,33
1657717999.62097,195067.3311177,36
1657717999.62097,195067.33112,60
1657717999.62097,195067.3311219,65
1657717999.62097,195067.3311237,53
1657717999.62097,195067.3311257,53
1657717999.62097,195067.3311275,60
1657717999.62097,195067.3311295,69
1657717999.62097,195067.3311314,79
1657717999.62097,195067.3311335,84
1657717999.62097,195067.3311358,91
1657717999.62097,195067.3311379,98
1657717999.62097,195067.33114,74
1657717999.62097,195067.3311421,43
1657717999.62097,195067.3311441,48
1657717999.62097,195067.3311462,69
1657717999.62097,195067.3311482,77
1657717999.62097,195067.3311503,74
1657717999.62097,195067.3311524,82
1657717999.62097,195067.3311545,74
1657717999.62097,195067.3311565,67
1657717999.62097,195067.3311586,137
1657717999.62097,195067.3311607,335
1657717999.62097,195067.3311627,588
1657717999.62097,195067.3311648,685
1657717999.62097,195067.3311669,393
1657717999.62097,195067.331169,-77
1657717999.62097,195067.3311711,-147
1657717999.62097,195067.3311731,60
1657717999.62097,195067.3311751,65
1657717999.62097,195067.3311772,0
1657717999.62097,195067.3311792,53
1657717999.62097,195067.3311814,84
1657717999.62097,195067.3311835,57
1657717999.62097,195067.3311856,43
1657717999.62097,195067.3311878,43
1657717999.62097,195067.3311899,50
1657717999.62097,195067.3311919,57
1657717999.62097,195067.3311939,57
1657717999.62097,195067.331196,60
1657717999.63194,195067.3311981,65
1657717999.63194,195067.3312001,65
1657717999.63194,195067.3312022,41
1657717999.63194,195067.3312043,38
1657717999.63194,195067.3312063,82
1657717999.63194,195067.8185231,94
1657717999.63194,195067.8185629,69
1657717999.63194,195067.818566,89
1657717999.63194,195067.8185681,115
1657717999.63194,195067.8185702,103
1657717999.63194,195067.8185734,101
1657717999.63194,195067.8185756,113
1657717999.63194,195067.8185776,108
1657717999.63194,195067.8185795,108
1657717999.63194,195067.8185815,120
1657717999.63194,195067.8185835,118
1657717999.63194,195067.8185855,94
1657717999.63194,195067.8185876,84
1657717999.63194,195067.8185896,89
1657717999.63194,195067.8185916,101
1657717999.63194,195067.8185936,106
1657717999.63194,195067.8185956,94
1657717999.63194,195067.8185976,86
1657717999.63194,195067.8185996,89
1657718000.19936,195067.8186034,82
1657718000.19936,195067.8186137,72
1657718000.19936,195067.8186232,82
1657718000.19936,195067.8186329,72
1657718000.19936,195067.8186364,41
1657718000.19936,195067.8186476,48
1657718000.19936,195067.8186547,72
1657718000.19936,195067.818659,69
1657718000.19936,195067.8186611,60
1657718000.19936,195067.8186641,55
1657718000.19936,195067.8186663,55
1657718000.19936,195067.8186684,72
1657718000.19936,195067.8186704,82
1657718000.19936,195067.8186732,69
1657718000.19936,195067.8186831,62
1657718000.19936,195067.818692,57
1657718000.19936,195067.8187077,48
1657718000.19936,195067.8187096,45
1657718000.19936,195067.8187116,36
1657718000.19936,195067.8187135,26
1657718000.19936,195067.8187322,53
1657718000.19936,195067.8187421,74
1657718000.19936,195067.8187478,43
1657718000.19936,195067.81875,24
1657718000.19936,195067.8187531,48
1657718000.19936,195067.8187553,65
1657718000.19936,195067.8187622,53
1657718000.19936,195067.8187732,50
1657718000.19936,195067.8187786,67
1657718000.19936,195067.8187817,77
1657718000.19936,195067.8187839,69
1657718000.19936,195067.818786,62
1657718000.19936,195067.8187882,79
1657718000.19936,195067.8187908,89
1657718000.19936,195067.8188008,91
1657718000.19936,195067.8188099,98
1657718000.19936,195067.8188123,84
1657718000.19936,195067.8188145,67
1657718000.19936,195067.8188166,74
1657718000.19936,195067.8188188,79
1657718000.19936,195067.8188209,82
1657718000.19936,195067.8188277,79
1657718000.19936,195067.8188389,69
1657718000.19936,195067.8188421,74
1657718000.19936,195067.8188444,84
1657718000.19936,195067.8188466,86
1657718000.19936,195067.8188488,103
1657718000.19936,195067.818856,139
1657718000.19936,195067.8188668,139
1657718000.19936,195067.8188713,103
1657718000.20933,195067.8188752,84
1657718000.20933,195067.8188775,91
1657718000.20933,195067.8188796,94
1657718000.20933,195067.8188825,89
1657718000.20933,195068.4049489,89
1657718000.20933,195068.4049836,96
1657718000.20933,195068.4049922,118
1657718000.20933,195068.4049981,130
1657718000.20933,195068.4050036,144
1657718000.20933,195068.4050075,294
1657718000.20933,195068.4050117,559
1657718000.20933,195068.4050154,692
1657718000.20933,195068.4050216,460
1657718000.20933,195068.4050284,-9
1657718000.20933,195068.4050351,-161
1657718000.20933,195068.405056,62
1657718000.20933,195068.4050758,120
1657718000.20933,195068.4052416,12
1657718000.20933,195068.4052461,31
1657718000.20933,195068.4052498,74
1657718000.20933,195068.4052534,50
1657718000.20933,195068.4052572,53
1657718000.20933,195068.4052609,77
1657718000.20933,195068.4052645,62
1657718000.73927,195068.405268,48
1657718000.73927,195068.4052716,74
1657718000.73927,195068.4052753,103
1657718000.73927,195068.4052789,101
1657718000.73927,195068.4052826,94
1657718000.73927,195068.4052862,98
1657718000.73927,195068.4052897,113
1657718000.73927,195068.4052974,118
1657718000.73927,195068.4053013,115
1657718000.73927,195068.4053071,123
1657718000.73927,195068.4053136,132
1657718000.73927,195068.4053199,135
1657718000.73927,195068.4053264,142
1657718000.73927,195068.4053333,144
1657718000.73927,195068.4053384,142
1657718000.73927,195068.4053467,147
1657718000.73927,195068.4053505,154
1657718000.73927,195068.4053552,156
1657718000.73927,195068.4053618,149
1657718000.73927,195068.4053705,132
1657718000.73927,195068.405387,132
1657718000.73927,195068.4054012,147
1657718000.73927,195068.4054096,149
1657718000.73927,195068.4054148,149
1657718000.73927,195068.4054214,156
1657718000.73927,195068.4054264,147
1657718000.73927,195068.4054313,110
1657718000.73927,195068.4054376,89
1657718000.73927,195068.4054425,94
1657718000.73927,195068.4054475,91
1657718000.73927,195068.4054534,79
1657718000.73927,195068.4054587,69
1657718000.73927,195068.4054638,72
1657718000.73927,195068.4054696,86
1657718000.73927,195068.4054758,96
1657718000.73927,195068.4054794,103
1657718000.73927,195068.4054853,106
1657718000.73927,195068.4054903,103
1657718000.73927,195068.4054939,103
1657718000.73927,195068.4054984,94
1657718000.73927,195068.4055041,82
1657718000.73927,195068.4055106,86
1657718000.73927,195068.4055185,91
1657718000.73927,195068.4055259,86
1657718000.73927,195068.4055301,82
1657718000.73927,195068.4055333,79
1657718000.73927,195068.4055369,77
1657718000.73927,195068.4055432,72
1657718000.73927,195068.4055467,67
1657718000.73927,195068.4055515,57
1657718000.76221,195068.4055548,62
1657718000.76221,195068.4055591,79
1657718000.76221,195068.4055702,82
1657718000.76221,195068.9398361,86
1657718000.76221,195068.9398632,89
1657718000.76221,195068.9398667,79
1657718000.76221,195068.9398693,77
1657718000.76221,195068.9398714,77
1657718000.76221,195068.9398734,74
1657718000.76221,195068.9398756,72
1657718000.76221,195068.9398776,77
1657718000.76221,195068.9398797,79
1657718000.76221,195068.9398817,65
1657718000.76221,195068.9398839,48
1657718000.76221,195068.9398859,55
1657718000.76221,195068.939888,67
1657718000.76221,195068.93989,62
1657718000.76221,195068.939892,60
1657718000.76221,195068.939894,57
1657718000.76221,195068.939899,50
1657718000.76221,195068.9399111,55
1657718000.76221,195068.9399303,79
1657718000.76221,195068.9399326,82
1657718000.76221,195068.9399346,48
1657718001.41744,195068.9399365,38
1657718001.41744,195068.9399385,53
1657718001.41744,195068.9399558,48
1657718001.41744,195068.9399578,38
1657718001.41744,195068.9399597,50
1657718001.41744,195068.9399617,55
1657718001.41744,195068.9399637,48
1657718001.41744,195068.9399657,50
1657718001.41744,195068.9399677,113
1657718001.41744,195068.9399697,318
1657718001.41744,195068.939972,579
1657718001.41744,195068.9399741,637
1657718001.41744,195068.9399761,294
1657718001.41744,195068.9399781,-168
1657718001.41744,195068.9399801,-180
1657718001.41744,195068.939982,55
1657718001.41744,195068.939984,53
1657718001.41744,195068.9399859,-7
1657718001.41744,195068.9399878,38
1657718001.41744,195068.9399898,43
1657718001.41744,195068.9399918,16
1657718001.41744,195068.9399937,19
1657718001.41744,195068.9399956,9
1657718001.41744,195068.9399978,0
1657718001.41744,195068.9399998,14
1657718001.41744,195068.9400028,26
1657718001.41744,195068.9400054,24
1657718001.41744,195068.9400078,26
1657718001.41744,195068.9400099,28
1657718001.41744,195068.940013,26
1657718001.41744,195068.940026,31
1657718001.41744,195068.9400321,33
1657718001.41744,195068.9400344,26
1657718001.41744,195068.9400366,24
1657718001.41744,195068.9400389,26
1657718001.41744,195068.940041,33
1657718001.41744,195068.9400451,43
1657718001.41744,195068.9400633,48
1657718001.41744,195068.9400663,50
1657718001.41744,195068.9400873,43
1657718001.41744,195068.9400913,36
1657718001.41744,195068.9400947,41
1657718001.41744,195068.9400967,45
1657718001.41744,195068.9400993,45
1657718001.41744,195068.9401015,50
1657718001.41744,195068.9401036,45
1657718001.41744,195068.9401056,31
1657718001.41744,195068.9401077,28
1657718001.41744,195068.9401097,41
1657718001.41744,195068.9401118,33
1657718001.42841,195068.940114,7
1657718001.42841,195068.940116,-9
1657718001.42841,195069.6222755,-19
1657718001.42841,195069.6222923,-31
1657718001.42841,195069.6222969,-26
1657718001.42841,195069.6223007,-16
1657718001.42841,195069.6223043,-21
1657718001.42841,195069.6223087,-28
1657718001.42841,195069.6223122,-31
1657718001.42841,195069.6223157,-48
1657718001.42841,195069.6223191,-69
1657718001.42841,195069.6223226,-67
1657718001.42841,195069.6223262,-45
1657718001.42841,195069.6223404,-38
1657718001.42841,195069.6223535,-55
1657718001.42841,195069.6223584,-79
1657718001.42841,195069.6223649,-103
1657718001.42841,195069.6223778,-108
1657718001.42841,195069.622387,-98
1657718001.42841,195069.6224009,-101
1657718001.42841,195069.6224164,-118
1657718001.42841,195069.6224236,-132
1657718001.42841,195069.6224321,-137
1657718001.42841,195069.6224363,-123
1657718001.90751,195069.6224408,-103
1657718001.90751,195069.6224451,-108
1657718001.90751,195069.6224494,-115
1657718001.90751,195069.6224543,-115
1657718001.90751,195069.6224588,-115
1657718001.90751,195069.6224632,-115
1657718001.90751,195069.6224673,-106
1657718001.90751,195069.6224711,-89
1657718001.90751,195069.6224749,-79
1657718001.90751,195069.6224793,-89
1657718001.90751,195069.6224854,-101
1657718001.90751,195069.6224891,-108
1657718001.90751,195069.6224926,-101
1657718001.90751,195069.6224958,-77
1657718001.90751,195069.622499,-72
1657718001.90751,195069.6225025,-74
1657718001.90751,195069.622508,-69
1657718001.90751,195069.6225117,-77
1657718001.90751,195069.6225157,-96
1657718001.90751,195069.6225202,-89
1657718001.90751,195069.6225265,-60
1657718001.90751,195069.6225308,-53
1657718001.90751,195069.622535,-69
1657718001.90751,195069.6225405,-62
1657718001.90751,195069.6225453,-45
1657718001.90751,195069.622551,-50
1657718001.90751,195069.622555,-4
1657718001.90751,195069.6225596,197
1657718001.90751,195069.6225641,465
1657718001.90751,195069.6225698,564
1657718001.90751,195069.6225739,275
1657718001.90751,195069.6225779,-224
1657718001.90751,195069.6225826,-318
1657718001.90751,195069.6225883,-67
1657718001.90751,195069.6225922,-28
1657718001.90751,195069.6225977,-110
1657718001.90751,195069.6226012,-65
1657718001.90751,195069.6226049,-16
1657718001.90751,195069.6226105,-33
1657718001.90751,195069.6226142,-28
1657718001.90751,195069.6226177,0
1657718001.90751,195069.6226215,0
1657718001.90751,195069.6226269,-12
1657718001.90751,195069.6226307,-9
1657718001.90751,195069.6226341,-7
1657718001.90751,195069.6226377,-12
1657718001.90751,195069.6226438,0
1657718001.90751,195069.6226497,21
1657718001.90751,195069.6226536,14
1657718001.90751,195069.6226574,4
1657718001.92347,195069.6226616,14
1657718001.92347,195070.1101445,33
1657718001.92347,195070.1101649,50
1657718001.92347,195070.1101771,45
1657718001.92347,195070.1101876,21
1657718001.92347,195070.110193,12
1657718001.92347,195070.1101988,31
1657718001.92347,195070.1102029,41
1657718001.92347,195070.11021,33
1657718001.92347,195070.1102132,41
1657718001.92347,195070.1102162,33
1657718001.92347,195070.110219,7
1657718001.92347,195070.1102219,14
1657718001.92347,195070.1102248,43
1657718001.92347,195070.1102277,38
1657718001.92347,195070.1102307,26
1657718001.92347,195070.1102335,21
1657718001.92347,195070.1102365,2
1657718001.92347,195070.1102394,-19
1657718001.92347,195070.1102423,-16
1657718001.92347,195070.1102452,-16
1657718001.92347,195070.1102481,-28
1657718001.92347,195070.110251,-28
1657718001.92347,195070.1102539,-19
1657718002.44408,195070.1102578,-28
1657718002.44408,195070.1102644,-31
1657718002.44408,195070.1102713,-24
1657718002.44408,195070.110278,-33
1657718002.44408,195070.1102851,-50
1657718002.44408,195070.1102897,-48
1657718002.44408,195070.1102944,-38
1657718002.44408,195070.1103029,-28
1657718002.44408,195070.1103132,-19
1657718002.44408,195070.1103242,-12
1657718002.44408,195070.1103379,-16
1657718002.44408,195070.1103522,-16
1657718002.44408,195070.110366,-12
1657718002.44408,195070.110374,-16
1657718002.44408,195070.1103837,-24
1657718002.44408,195070.110392,-7
1657718002.44408,195070.1103979,7
1657718002.44408,195070.1104041,4
1657718002.44408,195070.1104087,-4
1657718002.44408,195070.110415,-9
1657718002.44408,195070.1104193,-7
1657718002.44408,195070.1104237,-14
1657718002.44408,195070.1104278,-26
1657718002.44408,195070.1104319,-21
1657718002.44408,195070.1104382,-9
1657718002.44408,195070.1104429,-9
1657718002.44408,195070.1104472,-4
1657718002.44408,195070.1104533,16
1657718002.44408,195070.1104574,26
1657718002.44408,195070.1104618,16
1657718002.44408,195070.110468,24
1657718002.44408,195070.1104728,26
1657718002.44408,195070.1104768,12
1657718002.44408,195070.1104809,-7
1657718002.44408,195070.1104866,-7
1657718002.44408,195070.1104905,4
1657718002.44408,195070.1104952,12
1657718002.44408,195070.1105014,9
1657718002.44408,195070.1105053,14
1657718002.44408,195070.1105093,36
1657718002.44408,195070.1105156,53
1657718002.44408,195070.11052,132
1657718002.44408,195070.110524,366
1657718002.44408,195070.1105302,615
1657718002.44408,195070.1105344,615
1657718002.44408,195070.1105398,202
1657718002.44408,195070.1105436,-236
1657718002.44408,195070.1105475,-159
1657718002.44408,195070.1105529,65
1657718002.44408,195070.1105572,16
1657718002.45405,195070.6488864,-19
1657718002.45405,195070.6489053,43
1657718002.45405,195070.6489135,38
1657718002.45405,195070.6489198,16
1657718002.45405,195070.6489248,36
1657718002.45405,195070.6489327,48
1657718002.45405,195070.6489406,50
1657718002.45405,195070.6489463,65
1657718002.45405,195070.6489503,72
1657718002.45405,195070.6489583,60
1657718002.45405,195070.6489669,62
1657718002.45405,195070.6489752,86
1657718002.45405,195070.6489836,82
1657718002.45405,195070.6489893,48
1657718002.45405,195070.648994,38
1657718002.45405,195070.6489999,57
1657718002.45405,195070.6490051,77
1657718002.45405,195070.6490112,82
1657718002.45405,195070.6490153,69
1657718002.45405,195070.6490211,50
1657718002.45405,195070.6490253,43
1657718002.45405,195070.6490309,50
1657718002.45405,195070.6490352,60
1657718002.45405,195070.649041,65
1657718002.99477,195070.649045,74
1657718002.99477,195070.649049,77
1657718002.99477,195070.6490531,60
1657718002.99477,195070.6490572,65
1657718002.99477,195070.6490612,82
1657718002.99477,195070.6490652,86
1657718002.99477,195070.6490692,94
1657718002.99477,195070.6490732,94
1657718002.99477,195070.6490772,79
1657718002.99477,195070.6490811,77
1657718002.99477,195070.6490851,69
1657718002.99477,195070.6490892,62
1657718002.99477,195070.6490935,79
1657718002.99477,195070.6490975,89
1657718002.99477,195070.6491014,74
1657718002.99477,195070.6491054,67
1657718002.99477,195070.6491093,84
1657718002.99477,195070.6491134,108
1657718002.99477,195070.6491176,113
1657718002.99477,195070.6491216,103
1657718002.99477,195070.6491252,108
1657718002.99477,195070.6491286,120
1657718002.99477,195070.6491326,118
1657718002.99477,195070.6491374,101
1657718002.99477,195070.6491425,96
1657718002.99477,195070.6491458,106
1657718002.99477,195070.6491491,103
1657718002.99477,195070.6491542,91
1657718002.99477,195070.6491597,96
1657718002.99477,195070.649163,108
1657718002.99477,195070.6491665,108
1657718002.99477,195070.649172,98
1657718002.99477,195070.6491754,94
1657718002.99477,195070.649181,96
1657718002.99477,195070.6491855,108
1657718002.99477,195070.6491907,123
1657718002.99477,195070.6491943,125
1657718002.99477,195070.6491999,120
1657718002.99477,195070.6492036,125
1657718002.99477,195070.6492087,123
1657718002.99477,195070.6492122,123
1657718002.99477,195070.649217,147
1657718002.99477,195070.6492205,173
1657718002.99477,195070.6492254,164
1657718002.99477,195070.6492288,135
1657718002.99477,195070.6492321,123
1657718002.99477,195070.6492362,125
1657718002.99477,195070.6492415,132
1657718002.99477,195070.6492448,137
1657718002.99477,195071.1832098,135
1657718003.0167,195071.1832283,120
1657718003.0167,195071.1832328,108
1657718003.0167,195071.1832402,125
1657718003.0167,195071.1832443,236
1657718003.0167,195071.183254,477
1657718003.0167,195071.1832605,726
1657718003.0167,195071.1832683,711
1657718003.0167,195071.1832749,279
1657718003.0167,195071.1832795,-144
1657718003.0167,195071.1832856,-62
1657718003.0167,195071.1832905,113
1657718003.0167,195071.1832972,26
1657718003.0167,195071.1833015,-2
1657718003.0167,195071.1833078,77
1657718003.0167,195071.1833124,62
1657718003.0167,195071.1833186,16
1657718003.0167,195071.1833229,41
1657718003.0167,195071.18333,62
1657718003.0167,195071.1833344,53
1657718003.0167,195071.1833404,55
1657718003.0167,195071.1833473,62
1657718003.0167,195071.1833537,48
1657718003.0167,195071.1833578,48
1657718003.0167,195071.1833642,60
1657718003.58804,195071.1833704,69
1657718003.58804,195071.1833749,69
1657718003.58804,195071.1833789,65
1657718003.58804,195071.1833836,69
1657718003.58804,195071.1833882,84
1657718003.58804,195071.1833926,96
1657718003.58804,195071.1833966,120
1657718003.58804,195071.1834012,139
1657718003.58804,195071.1834058,132
1657718003.58804,195071.1834094,115
1657718003.58804,195071.1834131,120
1657718003.58804,195071.1834169,132
1657718003.58804,195071.1834206,127
1657718003.58804,195071.1834242,115
1657718003.58804,195071.1834278,120
1657718003.58804,195071.1834318,130
1657718003.58804,195071.1834374,137
1657718003.58804,195071.183446,142
1657718003.58804,195071.183453,139
1657718003.58804,195071.1834598,137
1657718003.58804,195071.1834633,137
1657718003.58804,195071.1834687,125
1657718003.58804,195071.1834727,118
1657718003.58804,195071.1834763,125
1657718003.58804,195071.1834815,127
1657718003.58804,195071.183487,123
1657718003.58804,195071.183495,130
1657718003.58804,195071.1835045,144
1657718003.58804,195071.183507,144
1657718003.58804,195071.1835096,139
1657718003.58804,195071.1835173,152
1657718003.58804,195071.1835281,156
1657718003.58804,195071.1835317,154
1657718003.58804,195071.1835355,156
1657718003.58804,195071.1835377,149
1657718003.58804,195071.18354,139
1657718003.58804,195071.1835449,147
1657718003.58804,195071.1835565,147
1657718003.58804,195071.1835677,137
1657718003.58804,195071.1835815,139
1657718003.58804,195071.1835946,139
1657718003.58804,195071.1836082,135
1657718003.58804,195071.1836216,130
1657718003.58804,195071.1836339,130
1657718003.58804,195071.1836474,130
1657718003.58804,195071.1836587,139
1657718003.58804,195071.1836665,142
1657718003.58804,195071.1836737,120
1657718003.58804,195071.7688722,110
1657718003.58804,195071.7688958,125
1657718003.62594,195071.7689039,132
1657718003.62594,195071.7689086,135
1657718003.62594,195071.7689123,142
1657718003.62594,195071.768916,147
1657718003.62594,195071.768919,115
1657718003.62594,195071.7689221,69
1657718003.62594,195071.7689253,60
1657718003.62594,195071.7689288,72
1657718003.62594,195071.7689321,74
1657718003.62594,195071.7689356,74
1657718003.62594,195071.7689394,69
1657718003.62594,195071.7689429,60
1657718003.62594,195071.7689465,57
1657718003.62594,195071.7689498,72
1657718003.62594,195071.7689534,193
1657718003.62594,195071.7689566,458
1657718003.62594,195071.7689598,678
1657718003.62594,195071.768963,569
1657718003.62594,195071.7689662,113
1657718003.62594,195071.7689699,-185
1657718003.62594,195071.7689742,-31
1657718003.62594,195071.7689854,98
1657718003.62594,195071.768989,19
1657718003.62594,195071.7689929,21
1657718004.10647,195071.7689992,72
1657718004.10647,195071.7690029,50
1657718004.10647,195071.7690066,36
1657718004.10647,195071.7690103,55
1657718004.10647,195071.7690138,57
1657718004.10647,195071.7690181,53
1657718004.10647,195071.7690219,55
1657718004.10647,195071.7690265,57
1657718004.10647,195071.7690304,69
1657718004.10647,195071.7690341,77
1657718004.10647,195071.7690375,57
1657718004.10647,195071.7690414,65
1657718004.10647,195071.7690451,86
1657718004.10647,195071.7690486,82
1657718004.10647,195071.7690523,79
1657718004.10647,195071.7690554,91
1657718004.10647,195071.7690585,94
1657718004.10647,195071.7690615,101
1657718004.10647,195071.7690648,113
1657718004.10647,195071.7690783,115
1657718004.10647,195071.7690931,123
1657718004.10647,195071.7691054,120
1657718004.10647,195071.7691182,106
1657718004.10647,195071.7691277,113
1657718004.10647,195071.7691339,120
1657718004.10647,195071.7691463,115
1657718004.10647,195071.7691588,120
1657718004.10647,195071.7691705,137
1657718004.10647,195071.7691791,149
1657718004.10647,195071.769191,147
1657718004.10647,195071.769205,127
1657718004.10647,195071.7692193,106
1657718004.10647,195071.7692294,101
1657718004.10647,195071.7692352,103
1657718004.10647,195071.7692425,98
1657718004.10647,195071.7692515,96
1657718004.10647,195071.7692597,103
1657718004.10647,195071.7692642,110
1657718004.10647,195071.7692684,110
1657718004.10647,195071.7692746,110
1657718004.10647,195071.7692791,113
1657718004.10647,195071.769285,123
1657718004.10647,195071.7692911,123
1657718004.10647,195071.7693018,113
1657718004.10647,195071.7693166,101
1657718004.10647,195071.7693286,94
1657718004.10647,195071.769338,101
1657718004.10647,195072.30387,108
1657718004.10647,195072.3038841,108
1657718004.10647,195072.3038869,98
1657718004.12742,195072.3038892,94
1657718004.12742,195072.3038913,96
1657718004.12742,195072.3038956,96
1657718004.12742,195072.3039068,96
1657718004.12742,195072.3039178,106
1657718004.12742,195072.3039232,113
1657718004.12742,195072.3039259,103
1657718004.12742,195072.3039282,82
1657718004.12742,195072.3039311,77
1657718004.12742,195072.3039333,82
1657718004.12742,195072.3039354,84
1657718004.12742,195072.3039375,89
1657718004.12742,195072.3039397,86
1657718004.12742,195072.3039417,62
1657718004.12742,195072.3039438,55
1657718004.12742,195072.303946,82
1657718004.12742,195072.3039505,94
1657718004.12742,195072.3039626,94
1657718004.12742,195072.3039742,86
1657718004.12742,195072.3039876,53
1657718004.12742,195072.3040011,33
1657718004.12742,195072.3040145,50
1657718004.12742,195072.3040284,65
1657718004.12742,195072.3040372,65
1657718004.6486,195072.3040396,62
1657718004.6486,195072.3040417,55

1657718004.6486,195072.3040436,50
1657718004.6486,195072.3040457,62
1657718004.6486,195072.3040477,115
1657718004.6486,195072.3040496,277
1657718004.6486,195072.3040516,533
1657718004.6486,195072.3040535,690
1657718004.6486,195072.3040554,429
1657718004.6486,195072.3040574,-110
1657718004.6486,195072.3040593,-229
1657718004.6486,195072.3040613,21
1657718004.6486,195072.3040633,38
1657718004.6486,195072.3040652,-50
1657718004.6486,195072.3040671,9
1657718004.6486,195072.304069,33
1657718004.6486,195072.3040709,-12
1657718004.6486,195072.3040728,7
1657718004.6486,195072.3040747,36
1657718004.6486,195072.3040766,19
1657718004.6486,195072.3040919,16
1657718004.6486,195072.3040954,38
1657718004.6486,195072.3040975,43
1657718004.6486,195072.304113,38
1657718004.6486,195072.3041152,36
1657718004.6486,195072.3041172,28
1657718004.6486,195072.3041193,19
1657718004.6486,195072.3041214,26
1657718004.6486,195072.3041234,41
1657718004.6486,195072.3041254,45
1657718004.6486,195072.3041275,53
1657718004.6486,195072.3041295,62
1657718004.6486,195072.3041315,65
1657718004.6486,195072.3041336,57
1657718004.6486,195072.3041357,36
1657718004.6486,195072.3041379,19
1657718004.6486,195072.3041399,14
1657718004.6486,195072.304142,14
1657718004.6486,195072.3041441,2
1657718004.6486,195072.3041462,-12
1657718004.6486,195072.3041482,-4
1657718004.6486,195072.3041503,14
1657718004.6486,195072.3041523,26
1657718004.6486,195072.3041544,26
1657718004.6486,195072.3041564,14
1657718004.6486,195072.3041585,0
1657718004.6486,195072.8396477,-4
1657718004.6486,195072.8396665,-9
1657718004.6486,195072.8396746,-26
1657718004.6486,195072.8396817,-41
1657718004.67254,195072.8396885,-41
1657718004.67254,195072.839693,-36
1657718004.67254,195072.8396964,-48
1657718004.67254,195072.8396997,-53
1657718004.67254,195072.8397059,-36
1657718004.67254,195072.8397127,-28
1657718004.67254,195072.8397221,-38
1657718004.67254,195072.8397289,-45
1657718004.67254,195072.839764,-55
1657718004.67254,195072.8397782,-74
1657718004.67254,195072.8398098,-67
1657718004.67254,195072.8398235,-62
1657718004.67254,195072.8398328,-77
1657718004.67254,195072.8398401,-77
1657718004.67254,195072.8398438,-60
1657718004.67254,195072.8398507,-67
1657718004.67254,195072.8398638,-74
1657718004.67254,195072.839877,-62
1657718004.67254,195072.8398828,-48
1657718004.67254,195072.839885,-43
1657718004.67254,195072.8399044,-36
1657718004.67254,195072.839915,-36
1657718004.67254,195072.8399213,-48
1657718004.67254,195072.839926,-38
1657718005.36895,195072.8399331,-24
1657718005.36895,195072.8399411,-31
1657718005.36895,195072.8399479,-36
1657718005.36895,195072.8399513,-14
1657718005.36895,195072.8399547,-7
1657718005.36895,195072.8399581,-9
1657718005.36895,195072.8399621,0
1657718005.36895,195072.8399683,2
1657718005.36895,195072.8399736,-2
1657718005.36895,195072.839977,16
1657718005.36895,195072.8399804,43
1657718005.36895,195072.8399836,48
1657718005.36895,195072.8399867,41
1657718005.36895,195072.8399898,26
1657718005.36895,195072.8399935,16
1657718005.36895,195072.8399998,12
1657718005.36895,195072.8400045,14
1657718005.36895,195072.8400106,16
1657718005.36895,195072.8400157,16
1657718005.36895,195072.8400198,26
1657718005.36895,195072.8400279,31
1657718005.36895,195072.8400346,28
1657718005.36895,195072.8400676,94
1657718005.36895,195072.8400779,308
1657718005.36895,195072.8400856,569
1657718005.36895,195072.8400983,632
1657718005.36895,195072.8401115,275
1657718005.36895,195072.8401244,-217
1657718005.36895,195072.8401389,-229
1657718005.36895,195072.8401519,14
1657718005.36895,195072.8401596,7
1657718005.36895,195072.8401697,-43
1657718005.36895,195072.8401848,12
1657718005.36895,195072.8401966,21
1657718005.36895,195072.8402053,0
1657718005.36895,195072.840214,12
1657718005.36895,195072.8402251,19
1657718005.36895,195072.8402378,19
1657718005.36895,195072.8402518,28
1657718005.36895,195072.8402667,41
1657718005.36895,195072.8402813,48
1657718005.36895,195072.8402901,48
1657718005.36895,195072.8402957,43
1657718005.36895,195072.8403047,50
1657718005.36895,195072.840316,62
1657718005.36895,195073.5709684,69
1657718005.36895,195073.5709814,67
1657718005.36895,195073.5709851,65
1657718005.36895,195073.5709909,53
1657718005.36895,195073.5709941,41
1657718005.38271,195073.5709969,55
1657718005.38271,195073.5709995,69
1657718005.38271,195073.5710021,57
1657718005.38271,195073.5710048,55
1657718005.38271,195073.5710073,57
1657718005.38271,195073.57101,33
1657718005.38271,195073.5710127,24
1657718005.38271,195073.5710154,38
1657718005.38271,195073.5710181,38
1657718005.38271,195073.5710208,26
1657718005.38271,195073.5710235,28
1657718005.38271,195073.5710262,41
1657718005.38271,195073.5710288,38
1657718005.38271,195073.5710315,21
1657718005.38271,195073.5710343,14
1657718005.38271,195073.5710369,12
1657718005.38271,195073.5710397,2
1657718005.38271,195073.5710423,-4
1657718005.38271,195073.571045,0
1657718005.38271,195073.5710473,9
1657718005.38271,195073.5710496,16
1657718005.38271,195073.5710519,28
1657718005.38271,195073.5710544,38
1657718005.38271,195073.5710569,36
1657718005.86151,195073.5710592,31
1657718005.86151,195073.5710614,28
1657718005.86151,195073.5710633,28
1657718005.86151,195073.5710659,38
1657718005.86151,195073.5710681,53
1657718005.86151,195073.5710701,48
1657718005.86151,195073.571072,31
1657718005.86151,195073.5710739,31
1657718005.86151,195073.5710758,41
1657718005.86151,195073.5710778,45
1657718005.86151,195073.5710797,50
1657718005.86151,195073.5710816,50
1657718005.86151,195073.5710835,41
1657718005.86151,195073.5710854,43
1657718005.86151,195073.5710873,48
1657718005.86151,195073.5710892,53
1657718005.86151,195073.5710911,57
1657718005.86151,195073.571093,50
1657718005.86151,195073.5710949,38
1657718005.86151,195073.5710971,38
1657718005.86151,195073.5710994,50
1657718005.86151,195073.5711016,57
1657718005.86151,195073.571104,55
1657718005.86151,195073.5711062,50
1657718005.86151,195073.5711084,50
1657718005.86151,195073.5711106,53
1657718005.86151,195073.5711128,65
1657718005.86151,195073.571115,74
1657718005.86151,195073.5711172,72
1657718005.86151,195073.5711194,74
1657718005.86151,195073.5711216,89
1657718005.86151,195073.5711239,96
1657718005.86151,195073.5711261,108
1657718005.86151,195073.5711283,125
1657718005.86151,195073.5711305,113
1657718005.86151,195073.5711327,82
1657718005.86151,195073.5711349,79
1657718005.86151,195073.571137,91
1657718005.86151,195073.5711392,91
1657718005.86151,195073.5711415,89
1657718005.86151,195073.5711437,84
1657718005.86151,195073.5711459,84
1657718005.86151,195073.5711481,98
1657718005.86151,195073.5711503,127
1657718005.86151,195074.0588599,267
1657718005.86151,195074.0588812,547
1657718005.86151,195074.0588921,748
1657718005.86151,195074.0589026,579
1657718005.86151,195074.0589128,89
1657718005.86151,195074.0589248,-154
1657718005.87149,195074.0589348,31
1657718005.87149,195074.0589422,123
1657718005.87149,195074.0589514,38
1657718005.87149,195074.0589583,55
1657718005.87149,195074.0589657,106
1657718005.87149,195074.0589747,79
1657718005.87149,195074.0589799,60
1657718005.87149,195074.0589932,65
1657718005.87149,195074.059004,60
1657718005.87149,195074.0590123,55
1657718005.87149,195074.0590184,69
1657718005.87149,195074.0590295,84
1657718005.87149,195074.0590421,82
1657718005.87149,195074.0590546,65
1657718005.87149,195074.0590605,60
1657718005.87149,195074.0590627,72
1657718005.87149,195074.0590669,86
1657718005.87149,195074.059081,82
1657718005.87149,195074.0590949,74
1657718005.87149,195074.0591048,91
1657718005.87149,195074.0591113,103
1657718005.87149,195074.0591219,96
1657718005.87149,195074.0591254,89
1657718005.87149,195074.0591358,96
1657718006.55329,195074.0591439,103
1657718006.55329,195074.0591515,94
1657718006.55329,195074.0591582,86
1657718006.55329,195074.0591627,91
1657718006.55329,195074.0591667,89
1657718006.55329,195074.0591709,79
1657718006.55329,195074.0591773,86
1657718006.55329,195074.0591817,94
1657718006.55329,195074.0591877,82
1657718006.55329,195074.0591933,77
1657718006.55329,195074.0592008,74
1657718006.55329,195074.0592057,62
1657718006.55329,195074.0592116,60
1657718006.55329,195074.0592157,53
1657718006.55329,195074.0592212,26
1657718006.55329,195074.0592254,26
1657718006.55329,195074.059231,50
1657718006.55329,195074.0592342,55
1657718006.55329,195074.0592388,53
1657718006.55329,195074.0592427,72
1657718006.55329,195074.0592498,89
1657718006.55329,195074.0592532,86
1657718006.55329,195074.0592571,69
1657718006.55329,195074.0592628,65
1657718006.55329,195074.0592665,79
1657718006.55329,195074.0592698,96
1657718006.55329,195074.0592731,84
1657718006.55329,195074.0592767,62
1657718006.55329,195074.0592838,74
1657718006.55329,195074.0592884,91
1657718006.55329,195074.0592919,89
1657718006.55329,195074.0592971,79
1657718006.55329,195074.0593007,69
1657718006.55329,195074.059304,67
1657718006.55329,195074.0593076,77
1657718006.55329,195074.0593115,89
1657718006.55329,195074.0593152,91
1657718006.55329,195074.0593206,86
1657718006.55329,195074.0593242,82
1657718006.55329,195074.0593294,79
1657718006.55329,195074.059334,77
1657718006.55329,195074.0593377,84
1657718006.55329,195074.0593413,91
1657718006.55329,195074.7417208,89
1657718006.55329,195074.7417619,86
1657718006.55329,195074.7417658,91
1657718006.55329,195074.7417692,98
1657718006.55329,195074.7417726,106
1657718006.55329,195074.7417759,103
1657718006.55329,195074.7417792,96
1657718006.57427,195074.7417825,96
1657718006.57427,195074.7417857,106
1657718006.57427,195074.741789,113
1657718006.57427,195074.7417922,89
1657718006.57427,195074.7417955,60
1657718006.57427,195074.7417988,77
1657718006.57427,195074.7418021,103
1657718006.57427,195074.7418053,113
1657718006.57427,195074.7418087,120
1657718006.57427,195074.741812,118
1657718006.57427,195074.7418153,98
1657718006.57427,195074.7418187,82
1657718006.57427,195074.741822,91
1657718006.57427,195074.7418253,98
1657718006.57427,195074.7418286,74
1657718006.57427,195074.741832,67
1657718006.57427,195074.7418353,79
1657718006.57427,195074.7418407,65
1657718006.57427,195074.7418454,50
1657718006.57427,195074.7418489,120
1657718006.57427,195074.7418523,335
1657718006.57427,195074.7418573,588
1657718006.57427,195074.7418606,663
1657718006.57427,195074.7418649,359
1657718006.92996,195074.7418684,-101
1657718006.92996,195074.7418719,-149
1657718006.92996,195074.7418752,53
1657718006.92996,195074.7418785,38
1657718006.92996,195074.7418817,-21
1657718006.92996,195074.741885,28
1657718006.92996,195074.7418883,36
1657718006.92996,195074.7418916,4
1657718006.92996,195074.7418948,33
1657718006.92996,195074.7418995,60
1657718006.92996,195074.741903,48
1657718006.92996,195074.7419064,53
1657718006.92996,195074.7419101,67
1657718006.92996,195074.7419153,60
1657718006.92996,195074.741921,62
1657718006.92996,195074.7419246,72
1657718006.92996,195074.7419299,53
1657718006.92996,195074.7419332,36
1657718006.92996,195074.7419366,50
1657718006.92996,195074.7419401,72
1657718006.92996,195074.7419451,79
1657718006.92996,195074.7419485,79
1657718006.92996,195074.7419521,86
1657718006.92996,195074.7419555,91
1657718006.92996,195074.741959,82
1657718006.92996,195074.7419624,79
1657718006.92996,195074.7419658,79
1657718006.92996,195074.7419713,84
1657718006.92996,195074.7419757,103
1657718006.92996,195074.7419807,108
1657718006.92996,195074.741984,91
1657718006.92996,195074.7419889,89
1657718006.92996,195074.7419923,101
1657718006.92996,195074.7419972,103
1657718006.92996,195074.7420006,103
1657718006.92996,195074.7420055,101
1657718006.92996,195074.7420089,94
1657718006.92996,195074.7420145,96
1657718006.92996,195074.742018,98
1657718006.92996,195074.742022,84
1657718006.92996,195074.7420268,72
1657718006.92996,195074.7420302,79
1657718006.92996,195075.1311768,91
1657718006.92996,195075.1311987,89
1657718006.92996,195075.131214,91
1657718006.92996,195075.1312286,101
1657718006.92996,195075.1312426,101
1657718006.92996,195075.1312701,101
1657718006.92996,195075.1312798,113
1657718006.92996,195075.1312838,115
1657718006.9519,195075.1312872,101
1657718006.9519,195075.1312906,108
1657718006.9519,195075.131294,125
1657718006.9519,195075.1312973,120
1657718006.9519,195075.1313155,96
1657718006.9519,195075.1313329,72
1657718006.9519,195075.1313398,69
1657718006.9519,195075.1313447,82
1657718006.9519,195075.1313479,86
1657718006.9519,195075.1313509,82
1657718006.9519,195075.1313543,82
1657718006.9519,195075.1313607,86
1657718006.9519,195075.1313638,91
1657718006.9519,195075.1313667,91
1657718006.9519,195075.1313698,82
1657718006.9519,195075.1313727,84
1657718006.9519,195075.1313757,101
1657718006.9519,195075.1313786,89
1657718006.9519,195075.1313816,55
1657718006.9519,195075.1313845,67
1657718006.9519,195075.1313876,96
1657718006.9519,195075.1313905,86
1657718006.9519,195075.1313933,79
1657718006.9519,195075.1313963,82
1657718007.51483,195075.1314003,74
1657718007.51483,195075.1314071,82
1657718007.51483,195075.131414,96
1657718007.51483,195075.1314202,82
1657718007.51483,195075.1314247,72
1657718007.51483,195075.1314281,82
1657718007.51483,195075.1314318,69
1657718007.51483,195075.1314354,43
1657718007.51483,195075.1314386,45
1657718007.51483,195075.1314422,48
1657718007.51483,195075.1314462,38
1657718007.51483,195075.1314511,50
1657718007.51483,195075.1314602,50
1657718007.51483,195075.1314662,28
1657718007.51483,195075.1314706,38
1657718007.51483,195075.1314728,77
1657718007.51483,195075.131479,86
1657718007.51483,195075.1314926,79
1657718007.51483,195075.131507,65
1657718007.51483,195075.1315202,43
1657718007.51483,195075.1315331,50
1657718007.51483,195075.1315458,69
1657718007.51483,195075.1315585,62
1657718007.51483,195075.1315714,53
1657718007.51483,195075.1315843,53
1657718007.51483,195075.1315971,69
1657718007.51483,195075.13161,84
1657718007.51483,195075.1316228,94
1657718007.51483,195075.1316356,193
1657718007.51483,195075.1316482,424
1657718007.51483,195075.131661,615
1657718007.51483,195075.1316738,550
1657718007.51483,195075.1316865,156
1657718007.51483,195075.1316993,-190
1657718007.51483,195075.1317121,-91
1657718007.51483,195075.1317252,77
1657718007.51483,195075.131738,26
1657718007.51483,195075.1317507,7
1657718007.51483,195075.1317635,50
1657718007.51483,195075.1317764,19
1657718007.51483,195075.1317893,-14
1657718007.51483,195075.716877,16
1657718007.51483,195075.716889,45
1657718007.51483,195075.7169068,38
1657718007.51483,195075.7169089,33
1657718007.51483,195075.7169109,33
1657718007.51483,195075.716913,33
1657718007.51483,195075.7169151,45
1657718007.51483,195075.7169171,65
1657718007.51483,195075.7169201,69
1657718007.53677,195075.7169224,55
1657718007.53677,195075.7169244,36
1657718007.53677,195075.7169266,33
1657718007.53677,195075.7169287,55
1657718007.53677,195075.7169308,60
1657718007.53677,195075.7169328,50
1657718007.53677,195075.7169349,55
1657718007.53677,195075.7169377,55
1657718007.53677,195075.7169454,43
1657718007.53677,195075.7169597,45
1657718007.53677,195075.7169698,43
1657718007.53677,195075.7169758,24
1657718007.53677,195075.7169818,21
1657718007.53677,195075.7169867,24
1657718007.53677,195075.7169902,26
1657718007.53677,195075.7170035,38
1657718007.53677,195075.7170101,53
1657718007.53677,195075.7170154,55
1657718007.53677,195075.7170195,50
1657718007.53677,195075.7170229,33
1657718007.53677,195075.7170264,26
1657718007.53677,195075.7170297,36
1657718007.53677,195075.7170352,26
1657718007.53677,195075.7170383,7
1657718008.10279,195075.7170421,24
1657718008.10279,195075.7170456,36
1657718008.10279,195075.717049,26
1657718008.10279,195075.7170537,28
1657718008.10279,195075.7170587,28
1657718008.10279,195075.7170636,26
1657718008.10279,195075.717067,48
1657718008.10279,195075.7170702,69
1657718008.10279,195075.7170736,53
1657718008.10279,195075.7170773,36
1657718008.10279,195075.7170807,48
1657718008.10279,195075.717084,65
1657718008.10279,195075.7170875,55
1657718008.10279,195075.7170911,41
1657718008.10279,195075.7170949,24
1657718008.10279,195075.7171009,14
1657718008.10279,195075.7171042,33
1657718008.10279,195075.7171081,57
1657718008.10279,195075.7171133,53
1657718008.10279,195075.71712,26
1657718008.10279,195075.717126,14
1657718008.10279,195075.7171299,28
1657718008.10279,195075.7171335,36
1657718008.10279,195075.7171396,26
1657718008.10279,195075.7171428,16
1657718008.10279,195075.7171463,21
1657718008.10279,195075.7171494,12
1657718008.10279,195075.7171529,-7
1657718008.10279,195075.717156,-4
1657718008.10279,195075.7171593,9
1657718008.10279,195075.7171625,2
1657718008.10279,195075.7171657,-7
1657718008.10279,195075.7171689,-4
1657718008.10279,195075.7171721,9
1657718008.10279,195075.7171753,16
1657718008.10279,195075.7171786,2
1657718008.10279,195075.7171819,-4
1657718008.10279,195075.7171858,2
1657718008.10279,195075.7171908,0
1657718008.10279,195075.7171942,-9
1657718008.10279,195076.3037963,-14
1657718008.10279,195076.303839,-16
1657718008.10279,195076.3038463,-9
1657718008.10279,195076.3038529,-4
1657718008.10279,195076.3038591,-9
1657718008.10279,195076.3038654,-16
1657718008.10279,195076.3038728,-31
1657718008.10279,195076.3038808,-41
1657718008.10279,195076.3038875,-36
1657718008.10279,195076.3038944,-24
1657718008.11376,195076.3039025,-14
1657718008.11376,195076.3039092,-26
1657718008.11376,195076.303918,-65
1657718008.11376,195076.3039269,-84
1657718008.11376,195076.3039395,-79
1657718008.11376,195076.3039506,-72
1657718008.11376,195076.303957,-67
1657718008.11376,195076.3039619,-55
1657718008.11376,195076.303967,-60
1657718008.11376,195076.3039758,-65
1657718008.11376,195076.303983,-43
1657718008.11376,195076.3039963,21
1657718008.11376,195076.304005,214
1657718008.11376,195076.3040135,480
1657718008.11376,195076.3040216,571
1657718008.11376,195076.3040297,236
1657718008.11376,195076.3040322,-258
1657718008.11376,195076.3040344,-284
1657718008.11376,195076.3040407,-53
1657718008.11376,195076.3041032,-53
1657718008.11376,195076.3041139,-86
1657718008.11376,195076.3041231,-24
1657718008.11376,195076.304132,-19
1657718008.11376,195076.3041388,-41
1657718008.62908,195076.3041493,-14
1657718008.62908,195076.3041572,0
1657718008.62908,195076.3041635,-7
1657718008.62908,195076.3041705,9
1657718008.62908,195076.3041774,28
1657718008.62908,195076.3041841,21
1657718008.62908,195076.3041905,16
1657718008.62908,195076.304197,31
1657718008.62908,195076.3042033,43
1657718008.62908,195076.3042099,43
1657718008.62908,195076.3042167,38
1657718008.62908,195076.3042238,45
1657718008.62908,195076.3042326,67
1657718008.62908,195076.3042382,82
1657718008.62908,195076.304245,89
1657718008.62908,195076.3042503,101
1657718008.62908,195076.3042588,113
1657718008.62908,195076.3042662,115
1657718008.62908,195076.3042697,98
1657718008.62908,195076.3042729,84
1657718008.62908,195076.304276,96
1657718008.62908,195076.3042792,101
1657718008.62908,195076.3042851,86
1657718008.62908,195076.3042885,89
1657718008.62908,195076.3042936,110
1657718008.62908,195076.304298,113
1657718008.62908,195076.3043038,96
1657718008.62908,195076.3043072,94
1657718008.62908,195076.3043125,98
1657718008.62908,195076.3043158,82
1657718008.62908,195076.304319,50
1657718008.62908,195076.3043224,28
1657718008.62908,195076.3043255,21
1657718008.62908,195076.3043287,45
1657718008.62908,195076.3043338,74
1657718008.62908,195076.3043431,62
1657718008.62908,195076.3043518,45
1657718008.62908,195076.3043589,55
1657718008.62908,195076.3043676,55
1657718008.62908,195076.8372946,45
1657718008.62908,195076.8373146,60
1657718008.62908,195076.8373262,82
1657718008.62908,195076.8373307,86
1657718008.62908,195076.8373344,77
1657718008.62908,195076.8373381,31
1657718008.62908,195076.8373425,-7
1657718008.62908,195076.8373474,41
1657718008.62908,195076.8373687,96
1657718008.62908,195076.8373921,77
1657718008.62908,195076.8373989,57
1657718008.64006,195076.8374037,36
1657718008.64006,195076.8374085,-9
1657718008.64006,195076.8374148,-16
1657718008.64006,195076.8374206,14
1657718008.64006,195076.8374274,7
1657718008.64006,195076.8374321,-21
1657718008.64006,195076.8374369,-36
1657718008.64006,195076.8374417,-45
1657718008.64006,195076.8374464,-36
1657718008.64006,195076.8374528,-12
1657718008.64006,195076.8374611,-19
1657718008.64006,195076.8374668,-38
1657718008.64006,195076.8374747,-24
1657718008.64006,195076.8374796,2
1657718008.64006,195076.8374844,-4
1657718008.64006,195076.8374892,-24
1657718008.64006,195076.8374949,-9
1657718008.64006,195076.8375017,-7
1657718008.64006,195076.8375071,-26
1657718008.64006,195076.8375136,-19
1657718008.64006,195076.8375217,0
1657718008.64006,195076.8375286,0
1657718008.64006,195076.8375352,-2
1657718008.64006,195076.83754,-7
1657718009.17182,195076.8375447,0
1657718009.17182,195076.8375493,26
1657718009.17182,195076.8375537,41
1657718009.17182,195076.8375591,38
1657718009.17182,195076.8375634,36
1657718009.17182,195076.8375675,41
1657718009.17182,195076.8375714,60
1657718009.17182,195076.8375757,55
1657718009.17182,195076.8375799,36
1657718009.17182,195076.8375837,43
1657718009.17182,195076.8375876,62
1657718009.17182,195076.8375917,45
1657718009.17182,195076.8375957,33
1657718009.17182,195076.8375998,74
1657718009.17182,195076.837604,101
1657718009.17182,195076.8376096,82
1657718009.17182,195076.837616,103
1657718009.17182,195076.8376221,258
1657718009.17182,195076.8376262,504
1657718009.17182,195076.8376317,678
1657718009.17182,195076.8376358,557
1657718009.17182,195076.8376399,96
1657718009.17182,195076.8376442,-183
1657718009.17182,195076.837649,7
1657718009.17182,195076.8376537,142
1657718009.17182,195076.8376586,48
1657718009.17182,195076.8376634,36
1657718009.17182,195076.8376685,91
1657718009.17182,195076.8376734,86
1657718009.17182,195076.837682,86
1657718009.17182,195076.8376887,113
1657718009.17182,195076.8376931,108
1657718009.17182,195076.8376994,82
1657718009.17182,195076.8377048,72
1657718009.17182,195076.8377109,89
1657718009.17182,195076.8377153,110
1657718009.17182,195076.8377198,106
1657718009.17182,195076.8377269,86
1657718009.17182,195077.3744252,98
1657718009.17182,195077.3744416,127
1657718009.17182,195077.3744467,135
1657718009.17182,195077.374453,147
1657718009.17182,195077.3744574,168
1657718009.17182,195077.374463,178
1657718009.17182,195077.3744673,173
1657718009.17182,195077.3744729,180
1657718009.17182,195077.3744772,209
1657718009.17182,195077.3744828,219
1657718009.17182,195077.3744865,190
1657718009.17182,195077.3744921,183
1657718009.18341,195077.3744963,212
1657718009.18341,195077.3744999,221
1657718009.18341,195077.3745036,185
1657718009.18341,195077.3745071,156
1657718009.18341,195077.3745105,166
1657718009.18341,195077.3745141,183
1657718009.18341,195077.3745177,178
1657718009.18341,195077.3745212,164
1657718009.18341,195077.3745252,135
1657718009.18341,195077.3745294,94
1657718009.18341,195077.3745331,74
1657718009.18341,195077.374537,91
1657718009.18341,195077.3745405,123
1657718009.18341,195077.3745441,139
1657718009.18341,195077.3745476,125
1657718009.18341,195077.3745512,115
1657718009.18341,195077.3745547,127
1657718009.18341,195077.3745582,135
1657718009.18341,195077.3745617,142
1657718009.18341,195077.3745652,142
1657718009.18341,195077.3745687,132
1657718009.18341,195077.3745723,127
1657718009.18341,195077.3745758,127
1657718009.18341,195077.3745794,115
1657718009.70567,195077.3745829,103
1657718009.70567,195077.3745864,103
1657718009.70567,195077.3745897,106
1657718009.70567,195077.3745931,96
1657718009.70567,195077.3745963,91
1657718009.70567,195077.3745996,94
1657718009.70567,195077.374603,96
1657718009.70567,195077.3746063,98
1657718009.70567,195077.3746096,89
1657718009.70567,195077.3746128,74
1657718009.70567,195077.3746161,79
1657718009.70567,195077.3746194,84
1657718009.70567,195077.3746227,84
1657718009.70567,195077.3746264,89
1657718009.70567,195077.3746301,94
1657718009.70567,195077.3746353,94
1657718009.70567,195077.3746389,89
1657718009.70567,195077.3746423,84
1657718009.70567,195077.3746458,96
1657718009.70567,195077.3746492,103
1657718009.70567,195077.3746526,84
1657718009.70567,195077.3746565,82
1657718009.70567,195077.3746601,115
1657718009.70567,195077.3746636,125
1657718009.70567,195077.3746689,98
1657718009.70567,195077.3746724,86
1657718009.70567,195077.3746774,91
1657718009.70567,195077.3746809,79
1657718009.70567,195077.3746867,82
1657718009.70567,195077.3746902,98
1657718009.70567,195077.3746953,96
1657718009.70567,195077.3746989,96
1657718009.70567,195077.3747025,110
1657718009.70567,195077.3747062,103
1657718009.70567,195077.3747113,84
1657718009.70567,195077.3747148,74
1657718009.70567,195077.3747197,77
1657718009.70567,195077.9118788,77
1657718009.70567,195077.9119038,62
1657718009.70567,195077.9119138,57
1657718009.70567,195077.9119227,77
1657718009.70567,195077.9119299,94
1657718009.70567,195077.9119365,89
1657718009.70567,195077.9119422,144
1657718009.70567,195077.9119463,349
1657718009.70567,195077.9119614,595
1657718009.70567,195077.911969,632
1657718009.70567,195077.9119753,275
1657718009.70567,195077.9119801,-195
1657718009.70567,195077.9119852,-209
1657718009.72761,195077.9120301,14
1657718009.72761,195077.9120388,12
1657718009.72761,195077.9120437,-36
1657718009.72761,195077.9120498,0
1657718009.72761,195077.9120537,-12
1657718009.72761,195077.9120576,-31
1657718009.72761,195077.9120618,-7
1657718009.72761,195077.9120661,7
1657718009.72761,195077.9120706,9
1657718009.72761,195077.9120749,14
1657718009.72761,195077.9120794,21
1657718009.72761,195077.9120839,26
1657718009.72761,195077.9120884,36
1657718009.72761,195077.9120928,43
1657718009.72761,195077.912105,41
1657718009.72761,195077.91211,41
1657718009.72761,195077.9121145,57
1657718009.72761,195077.9121191,67
1657718009.72761,195077.9121235,67
1657718009.72761,195077.912128,60
1657718009.72761,195077.9121325,16
1657718009.72761,195077.912137,-4
1657718009.72761,195077.9121414,45
1657718009.72761,195077.9121614,86
1657718010.53891,195077.9121698,65
1657718010.53891,195077.9121747,69
1657718010.53891,195077.9121778,101
1657718010.53891,195077.9121819,72
1657718010.53891,195077.912186,48
1657718010.53891,195077.9121894,67
1657718010.53891,195077.9121939,69
1657718010.53891,195077.9121978,57
1657718010.53891,195077.9122013,60
1657718010.53891,195077.9122081,48
1657718010.53891,195077.9122148,26
1657718010.53891,195077.9122215,24
1657718010.53891,195077.9122279,24
1657718010.53891,195077.912232,12
1657718010.53891,195077.9122354,-2
1657718010.53891,195077.9122385,-9
1657718010.53891,195077.9122415,-24
1657718010.53891,195077.9122461,-41
1657718010.53891,195077.9122508,-48
1657718010.53891,195077.9122539,-48
1657718010.53891,195077.9122572,-55
1657718010.53891,195077.9122603,-69
1657718010.53891,195077.9122639,-77
1657718010.53891,195077.9122669,-74
1657718010.53891,195077.91227,-57
1657718010.53891,195077.9122735,-45
1657718010.53891,195077.9122767,-67
1657718010.53891,195077.91228,-84
1657718010.53891,195077.9122834,-69
1657718010.53891,195077.9122866,-67
1657718010.53891,195077.9122899,-86
1657718010.53891,195077.9122932,-82
1657718010.53891,195077.9122965,-67
1657718010.53891,195077.9122998,-67
1657718010.53891,195077.9123041,-57
1657718010.53891,195077.9123099,-55
1657718010.53891,195078.7412608,-69
1657718010.53891,195078.7412887,-62
1657718010.53891,195078.7412951,-53
1657718010.53891,195078.7412987,-62
1657718010.53891,195078.7413038,-62
1657718010.53891,195078.7413074,-72
1657718010.53891,195078.7413125,-96
1657718010.53891,195078.7413171,-98
1657718010.53891,195078.7413206,-82
1657718010.53891,195078.7413257,-67
1657718010.53891,195078.7413321,-65
1657718010.53891,195078.7413637,-72
1657718010.53891,195078.741386,-69
1657718010.53891,195078.7413964,-69
1657718010.55085,195078.7414052,-94
1657718010.55085,195078.7414137,-96
1657718010.55085,195078.7414223,-53
1657718010.55085,195078.7414308,-31
1657718010.55085,195078.7414397,-53
1657718010.55085,195078.741446,-82
1657718010.55085,195078.7414547,-91
1657718010.55085,195078.7414634,-94
1657718010.55085,195078.7414698,-98
1657718010.55085,195078.741478,-82
1657718010.55085,195078.7414855,-45
1657718010.55085,195078.7414921,-28
1657718010.55085,195078.7415011,-38
1657718010.55085,195078.7415097,-41
1657718010.55085,195078.7415181,2
1657718010.55085,195078.7415241,173
1657718010.55085,195078.7415282,434
1657718010.55085,195078.7415349,583
1657718010.55085,195078.7415434,378
1657718010.55085,195078.7415512,-120
1657718010.55085,195078.7415562,-332
1657718010.55085,195078.7415607,-120
1657718010.55085,195078.741567,-14
1657718010.55085,195078.7415713,-72
1657718010.88102,195078.7415757,-48
1657718010.88102,195078.7415827,-7
1657718010.88102,195078.7415898,-14
1657718010.88102,195078.7415966,-19
1657718010.88102,195078.7416034,-4
1657718010.88102,195078.7416072,7
1657718010.88102,195078.7416106,12
1657718010.88102,195078.741614,4
1657718010.88102,195078.7416175,7
1657718010.88102,195078.7416216,26
1657718010.88102,195078.7416272,33
1657718010.88102,195078.7416308,9
1657718010.88102,195078.7416368,-7
1657718010.88102,195078.7416417,2
1657718010.88102,195078.7416457,14
1657718010.88102,195078.7416535,28
1657718010.88102,195078.7416616,41
1657718010.88102,195078.7416727,43
1657718010.88102,195078.7416832,53
1657718010.88102,195078.7416916,55
1657718010.88102,195078.741701,67
1657718010.88102,195078.7417089,106
1657718010.88102,195078.7417151,132
1657718010.88102,195078.7417222,127
1657718010.88102,195078.7417304,123
1657718010.88102,195078.741739,120
1657718010.88102,195078.7417448,108
1657718010.88102,195078.7417537,101
1657718010.88102,195078.74176,110
1657718010.88102,195078.7417681,115
1657718010.88102,195078.7417745,110
1657718010.88102,195078.7417833,115
1657718010.88102,195078.7417909,113
1657718010.88102,195078.7417986,84
1657718010.88102,195078.7418052,53
1657718010.88102,195079.0806373,57
1657718010.88102,195079.0806545,79
1657718010.88102,195079.0806626,74
1657718010.88102,195079.080668,53
1657718010.88102,195079.0806737,45
1657718010.88102,195079.0806796,43
1657718010.88102,195079.0806847,28
1657718010.88102,195079.0806886,41
1657718010.88102,195079.080694,89
1657718010.88102,195079.0806999,106
1657718010.88102,195079.0807056,72
1657718010.88102,195079.0807104,53
1657718010.88102,195079.0807138,65
1657718010.88102,195079.0807188,65
1657718010.88102,195079.0807231,48
1657718010.89199,195079.0807282,31
1657718010.89199,195079.0807315,14
1657718010.89199,195079.0807349,24
1657718010.89199,195079.0807384,53
1657718010.89199,195079.0807438,57
1657718010.89199,195079.0807477,55
1657718010.89199,195079.0807525,53
1657718010.89199,195079.0807566,41
1657718010.89199,195079.0807615,31
1657718010.89199,195079.0807646,36
1657718010.89199,195079.080768,48
1657718010.89199,195079.0807715,65
1657718010.89199,195079.0807764,69
1657718010.89199,195079.0807809,53
1657718010.89199,195079.080786,50
1657718010.89199,195079.0807894,57
1657718010.89199,195079.0807932,55
1657718010.89199,195079.080797,57
1657718010.89199,195079.0808006,79
1657718010.89199,195079.0808061,98
1657718010.89199,195079.0808096,103
1657718010.89199,195079.0808146,91
1657718010.89199,195079.0808178,86
1657718010.89199,195079.080821,91
1657718011.35956,195079.0808243,82
1657718011.35956,195079.0808278,77
1657718011.35956,195079.0808311,74
1657718011.35956,195079.0808347,62
1657718011.35956,195079.0808379,53
1657718011.35956,195079.080841,38
1657718011.35956,195079.0808443,21
1657718011.35956,195079.0808476,38
1657718011.35956,195079.0808508,65
1657718011.35956,195079.0808541,113
1657718011.35956,195079.0808576,287
1657718011.35956,195079.0808606,530
1657718011.35956,195079.0808638,653
1657718011.35956,195079.0808675,427
1657718011.35956,195079.080871,-84
1657718011.35956,195079.0808745,-270
1657718011.35956,195079.0808778,-36
1657718011.35956,195079.0808811,57
1657718011.35956,195079.0808848,0
1657718011.35956,195079.0808884,19
1657718011.35956,195079.080892,26
1657718011.35956,195079.0808957,0
1657718011.35956,195079.0809017,21
1657718011.35956,195079.0809059,48
1657718011.35956,195079.0809108,48
1657718011.35956,195079.0809142,60
1657718011.35956,195079.0809193,79
1657718011.35956,195079.0809232,82
1657718011.35956,195079.0809283,86
1657718011.35956,195079.080932,108
1657718011.35956,195079.0809371,123
1657718011.35956,195079.0809404,135
1657718011.35956,195079.0809455,135
1657718011.35956,195079.080949,120
1657718011.35956,195079.5678234,130
1657718011.35956,195079.567878,156
1657718011.35956,195079.5678964,166
1657718011.35956,195079.5679073,185
1657718011.35956,195079.5679232,217
1657718011.35956,195079.5679346,234
1657718011.35956,195079.5679446,221
1657718011.35956,195079.5679536,205
1657718011.35956,195079.5679583,205
1657718011.35956,195079.5679605,212
1657718011.35956,195079.5679636,207
1657718011.35956,195079.5679659,202
1657718011.35956,195079.567968,202
1657718011.35956,195079.5679704,197
1657718011.35956,195079.5679783,195
1657718011.35956,195079.5679933,183
1657718011.37252,195079.5680073,156
1657718011.37252,195079.5680185,137
1657718011.37252,195079.5680294,127
1657718011.37252,195079.5680427,115
1657718011.37252,195079.5680562,103
1657718011.37252,195079.5680649,96
1657718011.37252,195079.5680735,82
1657718011.37252,195079.5680788,77
1657718011.37252,195079.5680939,98
1657718011.37252,195079.5681128,113
1657718011.37252,195079.5681261,113
1657718011.37252,195079.5681345,127
1657718011.37252,195079.5681372,135
1657718011.37252,195079.5681393,135
1657718011.37252,195079.568142,144
1657718011.37252,195079.5681502,159
1657718011.37252,195079.5681639,159
1657718011.37252,195079.568178,139
1657718011.37252,195079.5681929,135
1657718011.37252,195079.5682003,147
1657718011.37252,195079.5682028,135
1657718011.37252,195079.5682051,115
1657718011.37252,195079.5682073,127
1657718011.37252,195079.5682094,137
1657718012.00352,195079.5682117,120
1657718012.00352,195079.5682138,115
1657718012.00352,195079.5682157,115
1657718012.00352,195079.5682178,106
1657718012.00352,195079.5682198,91
1657718012.00352,195079.5682221,82
1657718012.00352,195079.5682242,110
1657718012.00352,195079.5682262,142
1657718012.00352,195079.5682281,125
1657718012.00352,195079.5682301,113
1657718012.00352,195079.5682321,123
1657718012.00352,195079.5682347,123
1657718012.00352,195079.5682439,130
1657718012.00352,195079.568253,152
1657718012.00352,195079.5682638,152
1657718012.00352,195079.5682787,132
1657718012.00352,195079.5682854,115
1657718012.00352,195079.5682877,113
1657718012.00352,195079.5682899,137
1657718012.00352,195079.568292,149
1657718012.00352,195079.5682949,110
1657718012.00352,195079.5683083,91
1657718012.00352,195079.5683143,120
1657718012.00352,195079.5683173,120
1657718012.00352,195079.5683195,96
1657718012.00352,195079.5683215,166
1657718012.00352,195079.5683237,402
1657718012.00352,195079.5683258,653
1657718012.00352,195079.5683279,632
1657718012.00352,195079.56833,190
1657718012.00352,195079.5683323,-238
1657718012.00352,195079.5683344,-154
1657718012.00352,195079.5683366,45
1657718012.00352,195080.2015309,2
1657718012.00352,195080.2015446,-26
1657718012.00352,195080.2015499,4
1657718012.00352,195080.2015542,-41
1657718012.00352,195080.2015564,-101
1657718012.00352,195080.2015718,-91
1657718012.00352,195080.2015739,-86

1657718012.00352,195080.201576,-103
1657718012.00352,195080.201578,-94
1657718012.00352,195080.2015801,-110
1657718012.00352,195080.2015821,-159
1657718012.00352,195080.2015841,-139
1657718012.00352,195080.2015861,-96
1657718012.00352,195080.2015882,-94
1657718012.00352,195080.2016052,-77
1657718012.00352,195080.2016075,-45
1657718012.00352,195080.2016107,-43
1657718012.01549,195080.2016176,-43
1657718012.01549,195080.201624,-36
1657718012.01549,195080.2016299,-38
1657718012.01549,195080.2016367,-31
1657718012.01549,195080.2016416,-14
1657718012.01549,195080.2016462,-24
1657718012.01549,195080.2016525,-48
1657718012.01549,195080.2016624,-38
1657718012.01549,195080.2016752,-26
1657718012.01549,195080.2016982,-55
1657718012.01549,195080.2017102,-74
1657718012.01549,195080.2017196,-50
1657718012.01549,195080.2017322,-62
1657718012.01549,195080.2017425,-103
1657718012.01549,195080.2017518,-94
1657718012.01549,195080.2017587,-94
1657718012.01549,195080.2017703,-106
1657718012.01549,195080.2017812,-89
1657718012.01549,195080.2017853,-101
1657718012.01549,195080.2017875,-132
1657718012.01549,195080.2017897,-135
1657718012.01549,195080.2017918,-135
1657718012.01549,195080.2017939,-139
1657718012.01549,195080.201796,-125
1657718012.63736,195080.2017982,-94
1657718012.63736,195080.2018471,-77
1657718012.63736,195080.2018565,-84
1657718012.63736,195080.2018604,-86
1657718012.63736,195080.2018635,-110
1657718012.63736,195080.2018665,-142
1657718012.63736,195080.2018694,-103
1657718012.63736,195080.2018725,-53
1657718012.63736,195080.2018757,-74
1657718012.63736,195080.2018789,-98
1657718012.63736,195080.201882,-74
1657718012.63736,195080.2018851,-60
1657718012.63736,195080.2018879,-74
1657718012.63736,195080.2018907,-74
1657718012.63736,195080.2018937,-82
1657718012.63736,195080.2018968,-115
1657718012.63736,195080.2019001,-118
1657718012.63736,195080.2019046,-89
1657718012.63736,195080.2019113,-62
1657718012.63736,195080.2019168,-31
1657718012.63736,195080.2019228,-24
1657718012.63736,195080.2019307,-72
1657718012.63736,195080.2019376,-103
1657718012.63736,195080.2019463,-67
1657718012.63736,195080.2019525,-38
1657718012.63736,195080.2019562,-38
1657718012.63736,195080.2019597,-45
1657718012.63736,195080.2019629,-67
1657718012.63736,195080.2019666,-82
1657718012.63736,195080.2019702,-82
1657718012.63736,195080.2019735,-103
1657718012.63736,195080.2019771,-125
1657718012.63736,195080.8363406,-96
1657718012.63736,195080.8363582,-69
1657718012.63736,195080.8363708,-77
1657718012.63736,195080.8363751,-67
1657718012.63736,195080.8363774,4
1657718012.63736,195080.8363796,200
1657718012.63736,195080.8363818,439
1657718012.63736,195080.8363838,499
1657718012.63736,195080.8363859,152
1657718012.63736,195080.836388,-352
1657718012.63736,195080.8363901,-405
1657718012.63736,195080.8363921,-173
1657718012.63736,195080.8363942,-139
1657718012.63736,195080.8363971,-183
1657718012.63736,195080.8364094,-149
1657718012.63736,195080.8364177,-115
1657718012.63736,195080.8364202,-108
1657718012.63736,195080.8364224,-96
1657718012.64833,195080.8364247,-84
1657718012.64833,195080.8364268,-101
1657718012.64833,195080.8364289,-115
1657718012.64833,195080.8364317,-94
1657718012.64833,195080.8364415,-65
1657718012.64833,195080.83645,-62
1657718012.64833,195080.8364524,-72
1657718012.64833,195080.8364546,-67
1657718012.64833,195080.8364568,-60
1657718012.64833,195080.8364588,-53
1657718012.64833,195080.8364609,-28
1657718012.64833,195080.836463,-7
1657718012.64833,195080.8364651,9
1657718012.64833,195080.8364673,28
1657718012.64833,195080.8364694,28
1657718012.64833,195080.8364714,16
1657718012.64833,195080.8364735,19
1657718012.64833,195080.8364755,43
1657718012.64833,195080.8364777,69
1657718012.64833,195080.8364798,84
1657718012.64833,195080.8364819,77
1657718012.64833,195080.836484,65
1657718012.64833,195080.836486,69
1657718012.64833,195080.8364881,65
1657718013.17066,195080.8364901,65
1657718013.17066,195080.8364923,91
1657718013.17066,195080.8364942,98
1657718013.17066,195080.8364962,65
1657718013.17066,195080.8364981,33
1657718013.17066,195080.8365,14
1657718013.17066,195080.836502,-4
1657718013.17066,195080.836504,-12
1657718013.17066,195080.836506,4
1657718013.17066,195080.8365079,31
1657718013.17066,195080.8365099,36
1657718013.17066,195080.8365119,7
1657718013.17066,195080.8365141,-4
1657718013.17066,195080.8365162,33
1657718013.17066,195080.8365234,65
1657718013.17066,195080.836537,62
1657718013.17066,195080.8365454,65
1657718013.17066,195080.8365479,94
1657718013.17066,195080.83655,77
1657718013.17066,195080.8365521,4
1657718013.17066,195080.8365546,12
1657718013.17066,195080.8365639,72
1657718013.17066,195080.8365737,84
1657718013.17066,195080.8365763,72
1657718013.17066,195080.8365784,72
1657718013.17066,195080.8365805,72
1657718013.17066,195080.8365831,67
1657718013.17066,195080.8365923,50
1657718013.17066,195080.8366023,38
1657718013.17066,195080.8366049,53
1657718013.17066,195080.8366071,67
1657718013.17066,195081.3717681,57
1657718013.17066,195081.3717803,50
1657718013.17066,195081.3717844,65
1657718013.17066,195081.3717872,82
1657718013.17066,195081.37179,74
1657718013.17066,195081.3717924,74
1657718013.17066,195081.3717949,79
1657718013.17066,195081.3717974,60
1657718013.17066,195081.3717999,60
1657718013.17066,195081.3718024,67
1657718013.17066,195081.3718049,26
1657718013.17066,195081.3718074,0
1657718013.17066,195081.3718099,19
1657718013.17066,195081.3718124,16
1657718013.17066,195081.3718149,-19
1657718013.17066,195081.3718175,-26
1657718013.17066,195081.3718199,4
1657718013.17066,195081.3718224,74
1657718013.17066,195081.371825,265
1657718013.18204,195081.3718275,509
1657718013.18204,195081.37183,605
1657718013.18204,195081.3718324,398
1657718013.18204,195081.3718349,-79
1657718013.18204,195081.3718374,-316
1657718013.18204,195081.3718399,-115
1657718013.18204,195081.3718425,16
1657718013.18204,195081.3718449,-14
1657718013.18204,195081.3718474,9
1657718013.18204,195081.3718498,12
1657718013.18204,195081.3718522,-36
1657718013.18204,195081.3718545,-41
1657718013.18204,195081.3718568,-9
1657718013.18204,195081.3718591,12
1657718013.18204,195081.3718613,16
1657718013.18204,195081.3718636,9
1657718013.18204,195081.3718658,-16
1657718013.18204,195081.371868,-26
1657718013.18204,195081.3718703,-2
1657718013.18204,195081.3718725,16
1657718013.18204,195081.3718749,2
1657718013.18204,195081.3718772,-31
1657718013.18204,195081.3718795,-24
1657718013.18204,195081.3718817,12
1657718013.65926,195081.3718839,38
1657718013.65926,195081.3718861,55
1657718013.65926,195081.3718882,50
1657718013.65926,195081.3718903,33
1657718013.65926,195081.3718924,31
1657718013.65926,195081.3718946,50
1657718013.65926,195081.3718969,86
1657718013.65926,195081.3719025,103
1657718013.65926,195081.3719109,96
1657718013.65926,195081.3719187,62
1657718013.65926,195081.3719245,41
1657718013.65926,195081.371938,69
1657718013.65926,195081.371948,101
1657718013.65926,195081.3719606,86
1657718013.65926,195081.3719688,60
1657718013.65926,195081.3719739,50
1657718013.65926,195081.3719784,45
1657718013.65926,195081.3719828,36
1657718013.65926,195081.3719885,-4
1657718013.65926,195081.3719939,-16
1657718013.65926,195081.3719974,16
1657718013.65926,195081.3720009,12
1657718013.65926,195081.3720044,0
1657718013.65926,195081.372008,19
1657718013.65926,195081.3720116,7
1657718013.65926,195081.3720151,-16
1657718013.65926,195081.3720187,9
1657718013.65926,195081.3720223,41
1657718013.65926,195081.3720259,33
1657718013.65926,195081.3720294,26
1657718013.65926,195081.8588778,45
1657718013.65926,195081.8588966,48
1657718013.65926,195081.8589128,14
1657718013.65926,195081.8589274,-7
1657718013.65926,195081.8589358,2
1657718013.65926,195081.8589514,4
1657718013.65926,195081.8589535,4
1657718013.65926,195081.8589554,7
1657718013.65926,195081.8589575,-4
1657718013.65926,195081.8589594,2
1657718013.65926,195081.8589749,28
1657718013.65926,195081.8589769,43
1657718013.65926,195081.8589788,14
1657718013.65926,195081.8589809,-24
1657718013.65926,195081.8589831,-2
1657718013.65926,195081.8589852,38
1657718013.65926,195081.8589872,19
1657718013.65926,195081.8589893,4
1657718013.65926,195081.8589915,16
1657718013.65926,195081.8589948,16
1657718013.67023,195081.8590012,28
1657718013.67023,195081.859006,55
1657718013.67023,195081.8590126,65
1657718013.67023,195081.8590181,31
1657718013.67023,195081.8590251,-9
1657718013.67023,195081.8590302,-14
1657718013.67023,195081.859039,-21
1657718013.67023,195081.8590471,-36
1657718013.67023,195081.85906,9
1657718013.67023,195081.859073,45
1657718013.67023,195081.8590865,2
1657718013.67023,195081.8590995,-38
1657718013.67023,195081.8591127,-24
1657718013.67023,195081.8591211,26
1657718013.67023,195081.8591236,176
1657718013.67023,195081.8591263,434
1657718013.67023,195081.8591365,624
1657718013.67023,195081.8591449,523
1657718013.67023,195081.8591474,48
1657718013.67023,195081.8591497,-330
1657718013.67023,195081.8591518,-205
1657718013.67023,195081.8591539,-12
1657718013.67023,195081.8591562,-53
1657718013.67023,195081.8591616,-55
1657718014.23602,195081.8591729,19
1657718014.23602,195081.8591765,7
1657718014.23602,195081.8591786,-16
1657718014.23602,195081.8591807,33
1657718014.23602,195081.8591827,55
1657718014.23602,195081.8591847,21
1657718014.23602,195081.8591919,9
1657718014.23602,195081.8591989,7
1657718014.23602,195081.8592032,16
1657718014.23602,195081.8592089,55
1657718014.23602,195081.8592135,79
1657718014.23602,195081.8592189,74
1657718014.23602,195081.8592225,60
1657718014.23602,195081.8592259,28
1657718014.23602,195081.8592309,21
1657718014.23602,195081.8592342,67
1657718014.23602,195081.8592376,96
1657718014.23602,195081.8592425,84
1657718014.23602,195081.8592644,86
1657718014.23602,195081.8592676,91
1657718014.23602,195081.8592834,67
1657718014.23602,195081.8592913,50
1657718014.23602,195081.8592975,84
1657718014.23602,195081.8593034,120
1657718014.23602,195081.8593068,103
1657718014.23602,195081.8593102,84
1657718014.23602,195081.859315,79
1657718014.23602,195081.8593225,50
1657718014.23602,195081.8593338,41
1657718014.23602,195082.444984,53
1657718014.23602,195082.4449955,33
1657718014.23602,195082.4449983,24
1657718014.23602,195082.4450008,48
1657718014.23602,195082.445003,57
1657718014.23602,195082.4450052,26
1657718014.23602,195082.4450075,-21
1657718014.23602,195082.4450098,-43
1657718014.23602,195082.445012,-31
1657718014.23602,195082.4450142,-28
1657718014.23602,195082.4450164,-21
1657718014.23602,195082.4450186,14
1657718014.23602,195082.4450208,7
1657718014.23602,195082.4450231,-7
1657718014.23602,195082.4450253,19
1657718014.23602,195082.4450275,21
1657718014.23602,195082.4450297,0
1657718014.23602,195082.4450319,-4
1657718014.23602,195082.4450342,-9
1657718014.23602,195082.4450364,-7
1657718014.23602,195082.4450386,2
1657718014.24699,195082.4450408,12
1657718014.24699,195082.445043,28
1657718014.24699,195082.4450453,31
1657718014.24699,195082.4450476,0
1657718014.24699,195082.4450498,-33
1657718014.24699,195082.445052,-19
1657718014.24699,195082.4450542,24
1657718014.24699,195082.4450564,45
1657718014.24699,195082.4450586,24
1657718014.24699,195082.4450608,14
1657718014.24699,195082.445063,41
1657718014.24699,195082.4450652,38
1657718014.24699,195082.4450674,9
1657718014.24699,195082.4450695,16
1657718014.24699,195082.4450717,38
1657718014.24699,195082.4450739,38
1657718014.24699,195082.4450761,43
1657718014.24699,195082.4450784,31
1657718014.24699,195082.4450806,41
1657718014.24699,195082.445083,79
1657718014.24699,195082.4450852,79
1657718014.24699,195082.4450874,86
1657718014.24699,195082.4450895,120
1657718014.24699,195082.4450917,84
1657718014.78115,195082.4450939,4
1657718014.78115,195082.4450961,16
1657718014.78115,195082.445098,69
1657718014.78115,195082.4450999,50
1657718014.78115,195082.4451018,36
1657718014.78115,195082.4451036,65
1657718014.78115,195082.4451056,69
1657718014.78115,195082.4451075,36
1657718014.78115,195082.4451094,53
1657718014.78115,195082.4451113,200
1657718014.78115,195082.4451133,463
1657718014.78115,195082.4451164,728
1657718014.78115,195082.4451275,665
1657718014.78115,195082.4451354,84
1657718014.78115,195082.4451398,-332
1657718014.78115,195082.4451419,-132
1657718014.78115,195082.4451497,36
1657718014.78115,195082.4451609,-53
1657718014.78115,195082.4451641,-31
1657718014.78115,195082.4451663,21
1657718014.78115,195082.4451683,9
1657718014.78115,195082.4451706,24
1657718014.78115,195082.4451781,31
1657718014.78115,195082.445189,24
1657718014.78115,195082.4451933,41
1657718014.78115,195082.4451963,43
1657718014.78115,195082.4451985,19
1657718014.78115,195082.4452007,16
1657718014.78115,195082.9805354,84
1657718014.78115,195082.9805551,132
1657718014.78115,195082.9805703,53
1657718014.78115,195082.9805846,4
1657718014.78115,195082.9805987,84
1657718014.78115,195082.9806119,106
1657718014.78115,195082.9806253,41
1657718014.78115,195082.9806399,50
1657718014.78115,195082.9806531,123
1657718014.78115,195082.9806663,142
1657718014.78115,195082.9806795,96
1657718014.78115,195082.9806943,96
1657718014.78115,195082.9807071,130
1657718014.78115,195082.9807212,98
1657718014.78115,195082.9807344,65
1657718014.78115,195082.9807429,96
1657718014.78115,195082.9807457,96
1657718014.78115,195082.9807482,82
1657718014.78115,195082.9807508,120
1657718014.78115,195082.9807532,123
1657718014.78115,195082.9807555,55
1657718014.78115,195082.9807577,36
1657718014.79212,195082.9807598,69
1657718014.79212,195082.980762,57
1657718014.79212,195082.9807642,14
1657718014.79212,195082.9807663,9
1657718014.79212,195082.9807685,-2
1657718014.79212,195082.9807707,0
1657718014.79212,195082.9807728,33
1657718014.79212,195082.9807749,16
1657718014.79212,195082.980777,7
1657718014.79212,195082.9807791,33
1657718014.79212,195082.9807812,28
1657718014.79212,195082.9807833,41
1657718014.79212,195082.9807855,72
1657718014.79212,195082.9807876,65
1657718014.79212,195082.98079,57
1657718014.79212,195082.9807922,77
1657718014.79212,195082.9807943,79
1657718014.79212,195082.9807965,57
1657718014.79212,195082.9807986,62
1657718014.79212,195082.9808007,96
1657718014.79212,195082.9808029,113
1657718014.79212,195082.980805,69
