Time,TimeLsl,Value
1657721970.25862,199036.7731365,43
1657721970.25862,199036.7731575,47
1657721970.25862,199036.7731662,47
1657721970.25862,199036.7731709,47
1657721970.25862,199036.7731769,47
1657721970.25862,199036.7731813,55
1657721970.25862,199036.7731869,55
1657721970.25862,199036.773191,57
1657721970.25862,199036.7731966,57
1657721970.25862,199036.7732006,50
1657721970.25862,199036.7732063,35
1657721970.25862,199036.7732103,38
1657721970.25862,199036.7732184,45
1657721970.25862,199036.7732243,40
1657721970.25862,199036.7732286,35
1657721970.25862,199036.7732343,31
1657721970.25862,199036.7732384,21
1657721970.25862,199036.7732442,16
1657721970.25862,199036.7732483,23
1657721970.25862,199036.7732541,28
1657721970.25862,199036.7732583,28
1657721970.25862,199036.7732623,35
1657721970.25862,199036.7732678,35
1657721970.25862,199036.773272,33
1657721970.25862,199036.7732802,43
1657721970.25862,199036.7732844,47
1657721970.25862,199036.773292,45
1657721970.25862,199036.7732983,47
1657721970.25862,199036.7733018,52
1657721970.25862,199036.7733094,52
1657721970.25862,199036.7733222,59
1657721970.25862,199036.7733311,64
1657721970.25862,199036.7733393,64
1657721970.25862,199036.7733473,66
1657721970.25862,199036.7733554,71
1657721970.25862,199036.7733635,71
1657721970.25862,199036.7733714,71
1657721970.25862,199036.7733808,74
1657721970.25862,199036.7733886,76
1657721970.25862,199036.7734102,78
1657721970.25862,199036.77344,81
1657721970.25862,199036.7734499,81
1657721970.25862,199036.7734585,81
1657721970.25862,199036.7734653,81
1657721970.25862,199036.7734696,83
1657721970.25862,199036.7734757,83
1657721970.25862,199036.77348,81
1657721970.25862,199036.7734867,78
1657721970.25862,199036.7734916,78
1657721970.25862,199036.773498,81
1657721970.36773,199036.7735034,81
1657721970.36773,199036.7735102,86
1657721970.36773,199036.7735169,88
1657721970.36773,199036.7735221,86
1657721970.36773,199036.7735295,76
1657721970.36773,199036.7735361,66
1657721970.36773,199036.7735424,62
1657721970.36773,199036.7735463,66
1657721970.36773,199036.7735525,74
1657721970.36773,199036.7735571,95
1657721970.36773,199036.7735633,122
1657721970.36773,199036.773569,129
1657721970.36773,199036.7735753,114
1657721970.36773,199036.7735793,93
1657721970.36773,199036.7735854,83
1657721970.36773,199036.7735902,93
1657721970.36773,199036.773598,100
1657721970.36773,199036.7736024,95
1657721970.36773,199036.7736086,95
1657721970.36773,199036.7736129,98
1657721970.36773,199036.7736188,105
1657721970.36773,199036.7736236,196
1657721970.36773,199036.7736303,447
1657721970.36773,199037.3097043,751
1657721970.36773,199037.3097214,662
1657721970.36773,199037.3097281,-40
1657721970.36773,199037.3097344,-519
1657721970.36773,199037.3097405,-246
1657721970.36773,199037.3097469,0
1657721970.36773,199037.3097521,-47
1657721970.36773,199037.3097562,11
1657721970.36773,199037.3097595,88
1657721970.36773,199037.3097631,50
1657721970.36773,199037.3097668,52
1657721970.36773,199037.3097712,90
1657721970.36773,199037.3097768,74
1657721970.36773,199037.3097841,47
1657721970.36773,199037.3097926,50
1657721970.36773,199037.3097979,59
1657721970.36773,199037.3098056,55
1657721970.36773,199037.3098206,55
1657721970.36773,199037.3098279,59
1657721970.36773,199037.3098378,45
1657721970.36773,199037.30985,28
1657721970.36773,199037.3098584,33
1657721970.36773,199037.3098642,47
1657721970.36773,199037.3098727,45
1657721970.36773,199037.3098778,45
1657721970.36773,199037.3098886,50
1657721970.36773,199037.3098954,52
1657721970.40562,199037.3099044,59
1657721970.40562,199037.3099123,64
1657721970.40562,199037.3099207,66
1657721970.40562,199037.3099259,64
1657721970.40562,199037.3099327,64
1657721970.40562,199037.3099389,62
1657721970.40562,199037.3099424,59
1657721970.40562,199037.3099474,62
1657721970.40562,199037.3099506,64
1657721970.40562,199037.3099541,57
1657721970.40562,199037.3099593,52
1657721970.40562,199037.309963,52
1657721970.40562,199037.3099683,57
1657721970.40562,199037.3099748,62
1657721970.40562,199037.309981,64
1657721970.40562,199037.3099853,62
1657721970.40562,199037.3099904,59
1657721970.40562,199037.3099939,55
1657721970.40562,199037.3099989,43
1657721970.40562,199037.3100032,38
1657721970.40562,199037.3100087,43
1657721970.40562,199037.3100121,47
1657721970.40562,199037.3100174,40
1657721970.40562,199037.3100209,26
1657721970.40562,199037.3100283,14
1657721970.40562,199037.3100348,23
1657721970.40562,199037.310042,38
1657721970.40562,199037.3100508,40
1657721970.40562,199037.3100598,45
1657721970.40562,199037.3100667,52
1657721970.40562,199037.3100743,57
1657721970.40562,199037.3100813,64
1657721970.40562,199037.3100888,74
1657721970.40562,199037.3100967,78
1657721970.40562,199037.3101042,71
1657721970.40562,199037.3101104,76
1657721970.40562,199037.310119,88
1657721970.40562,199037.3101273,90
1657721970.40562,199037.310135,95
1657721970.40562,199037.3101411,98
1657721970.40562,199037.3101487,93
1657721970.40562,199037.3101576,90
1657721970.40562,199037.310165,88
1657721970.40562,199037.3101709,88
1657721970.40562,199037.3101761,93
1657721970.40562,199037.3101848,93
1657721970.40562,199037.893821,86
1657721970.40562,199037.8938391,88
1657721970.40562,199037.8938477,95
1657721970.40562,199037.8938539,95
1657721970.43056,199037.8938583,95
1657721970.43056,199037.8938626,93
1657721970.43056,199037.8938674,90
1657721970.43056,199037.8938717,95
1657721970.43056,199037.8938748,98
1657721970.43056,199037.893878,90
1657721970.43056,199037.8938812,74
1657721970.43056,199037.8938846,71
1657721970.43056,199037.893888,81
1657721970.43056,199037.8938924,88
1657721970.43056,199037.8938962,86
1657721970.43056,199037.8938997,81
1657721970.43056,199037.8939029,71
1657721970.43056,199037.8939066,66
1657721970.43056,199037.8939106,69
1657721970.43056,199037.893914,76
1657721970.43056,199037.893917,76
1657721970.43056,199037.8939205,76
1657721970.43056,199037.8939244,74
1657721970.43056,199037.8939303,69
1657721970.43056,199037.893934,76
1657721970.43056,199037.8939401,81
1657721970.43056,199037.8939465,76
1657721970.43056,199037.8939519,78
1657721970.43056,199037.8939588,86
1657721970.43056,199037.8939644,81
1657721970.43056,199037.8939708,83
1657721970.43056,199037.8939754,93
1657721970.43056,199037.8939832,88
1657721970.43056,199037.8939876,88
1657721970.43056,199037.8939938,100
1657721970.43056,199037.8939983,95
1657721970.43056,199037.8940043,83
1657721970.43056,199037.894009,95
1657721970.43056,199037.8940153,107
1657721970.43056,199037.8940218,107
1657721970.43056,199037.8940328,107
1657721970.43056,199037.894039,105
1657721970.43056,199037.8940454,95
1657721970.43056,199037.8940494,90
1657721970.43056,199037.894056,93
1657721970.43056,199037.8940622,93
1657721970.43056,199037.8940667,88
1657721970.43056,199037.8940757,78
1657721970.43056,199037.8940823,74
1657721970.43056,199037.8940866,78
1657721970.43056,199037.8940925,102
1657721970.43056,199037.8940961,129
1657721970.43056,199037.8941014,150
1657721970.43056,199037.894105,160
1657721970.43953,199037.8941103,145
1657721970.43953,199037.8941148,117
1657721970.43953,199037.8941213,105
1657721970.43953,199037.8941282,117
1657721970.43953,199037.8941328,122
1657721970.43953,199037.8941461,114
1657721970.43953,199037.8941571,110
1657721970.43953,199037.8941667,105
1657721970.43953,199037.8941716,107
1657721970.43953,199037.8941797,200
1657721970.43953,199037.8941867,473
1657721970.43953,199037.894194,823
1657721970.43953,199037.8941995,729
1657721970.43953,199037.8942089,-64
1657721970.43953,199037.894214,-586
1657721970.43953,199037.8942215,-270
1657721970.43953,199037.8942292,2
1657721970.43953,199037.8942365,-45
1657721970.43953,199037.8942423,26
1657721970.43953,199038.5277276,107
1657721970.43953,199038.5277491,69
1657721970.43953,199038.527758,64
1657721970.76888,199038.5277631,102
1657721970.76888,199038.5277704,98
1657721970.76888,199038.5277746,86
1657721970.76888,199038.5277787,86
1657721970.76888,199038.5277836,71
1657721970.76888,199038.5277875,69
1657721970.76888,199038.5277911,81
1657721970.76888,199038.5277947,78
1657721970.76888,199038.5277983,74
1657721970.76888,199038.5278019,71
1657721970.76888,199038.5278057,59
1657721970.76888,199038.5278094,55
1657721970.76888,199038.5278129,64
1657721970.76888,199038.5278166,66
1657721970.76888,199038.5278205,66
1657721970.76888,199038.5278243,71
1657721970.76888,199038.5278282,69
1657721970.76888,199038.5278319,64
1657721970.76888,199038.5278357,64
1657721970.76888,199038.5278395,66
1657721970.76888,199038.5278432,64
1657721970.76888,199038.5278468,64
1657721970.76888,199038.5278504,62
1657721970.76888,199038.5278542,55
1657721970.76888,199038.5278579,50
1657721970.76888,199038.5278616,50
1657721970.76888,199038.5278653,50
1657721970.76888,199038.5278692,55
1657721970.76888,199038.5278729,66
1657721970.76888,199038.5278768,69
1657721970.76888,199038.5278806,71
1657721970.76888,199038.5278839,71
1657721970.76888,199038.5278874,59
1657721970.76888,199038.5278905,43
1657721970.76888,199038.5278937,38
1657721970.76888,199038.527897,40
1657721970.76888,199038.5279002,35
1657721970.76888,199038.5279034,28
1657721970.76888,199038.5279065,23
1657721970.76888,199038.5279096,23
1657721970.76888,199038.5279128,26
1657721970.76888,199038.527916,31
1657721970.76888,199038.527919,33
1657721970.76888,199038.5279225,38
1657721970.76888,199038.5279267,43
1657721970.76888,199038.5279305,50
1657721970.76888,199038.527934,55
1657721970.76888,199038.5279377,57
1657721970.76888,199038.5279408,59
1657721970.76888,199038.5279439,57
1657721970.78684,199038.5279473,59
1657721970.78684,199038.5279503,66
1657721970.78684,199038.5279541,71
1657721970.78684,199038.5279577,71
1657721970.78684,199038.5279612,71
1657721970.78684,199038.5279651,71
1657721970.78684,199038.5279684,69
1657721970.78684,199038.527972,69
1657721970.78684,199038.5279754,71
1657721970.78684,199038.5279791,69
1657721970.78684,199038.5279826,59
1657721970.78684,199038.5279863,55
1657721970.78684,199038.5279899,52
1657721970.78684,199038.5279942,47
1657721970.78684,199038.5279978,47
1657721970.78684,199038.5280022,50
1657721970.78684,199038.5280064,47
1657721970.78684,199038.5280107,45
1657721970.78684,199038.5280144,47
1657721970.78684,199038.5280182,47
1657721970.78684,199038.9664421,47
1657721970.78684,199038.9664616,52
1657721970.78684,199038.9664717,50
1657721970.78684,199038.9664796,47
1657721971.34093,199038.9664887,47
1657721971.34093,199038.966496,47
1657721971.34093,199038.9665016,52
1657721971.34093,199038.9665078,57
1657721971.34093,199038.966515,57
1657721971.34093,199038.9665206,59
1657721971.34093,199038.9665266,55
1657721971.34093,199038.966534,50
1657721971.34093,199038.9665401,52
1657721971.34093,199038.9665458,57
1657721971.34093,199038.9665528,57
1657721971.34093,199038.9665589,55
1657721971.34093,199038.966564,40
1657721971.34093,199038.9665712,31
1657721971.34093,199038.9665761,43
1657721971.34093,199038.9665809,47
1657721971.34093,199038.9665882,45
1657721971.34093,199038.9665924,45
1657721971.34093,199038.9665999,35
1657721971.34093,199038.9666079,21
1657721971.34093,199038.9666151,28
1657721971.34093,199038.9666217,35
1657721971.34093,199038.9666298,38
1657721971.34093,199038.9666361,40
1657721971.34093,199038.9666438,35
1657721971.34093,199038.966652,26
1657721971.34093,199038.9666576,28
1657721971.34093,199038.966666,33
1657721971.34093,199038.9666729,23
1657721971.34093,199038.9666819,19
1657721971.34093,199038.966689,21
1657721971.34093,199038.9666975,31
1657721971.34093,199038.9667029,55
1657721971.34093,199038.9667079,83
1657721971.34093,199038.9667125,105
1657721971.34093,199038.9667214,105
1657721971.34093,199038.9667289,88
1657721971.34093,199038.9667378,66
1657721971.34093,199038.9667435,57
1657721971.34093,199038.9667523,64
1657721971.34093,199038.9667608,69
1657721971.34093,199038.966768,66
1657721971.34093,199038.966777,69
1657721971.34093,199038.9667848,74
1657721971.34093,199038.9667936,131
1657721971.34093,199038.9668002,344
1657721971.34093,199038.9668038,669
1657721971.34093,199038.9668092,763
1657721971.34093,199038.9668133,198
1657721971.34093,199038.9668223,-488
1657721971.3519,199038.9668278,-389
1657721971.3519,199038.9668313,-26
1657721971.3519,199038.9668363,-21
1657721971.3519,199038.9668422,-16
1657721971.3519,199038.9668478,74
1657721971.3519,199038.9668517,59
1657721971.3519,199038.9668572,40
1657721971.3519,199038.9668612,83
1657721971.3519,199038.9668664,90
1657721971.3519,199038.9668703,74
1657721971.3519,199038.9668758,81
1657721971.3519,199038.9668907,93
1657721971.3519,199038.9668966,83
1657721971.3519,199038.9669002,81
1657721971.3519,199038.9669054,95
1657721971.3519,199038.9669089,102
1657721971.3519,199038.9669183,100
1657721971.3519,199038.9669221,107
1657721971.3519,199038.9669261,112
1657721971.3519,199039.5517651,107
1657721971.3519,199039.5517858,107
1657721971.3519,199039.5517902,107
1657721971.3519,199039.5517979,100
1657721971.3519,199039.5518044,98
1657721971.93023,199039.5518135,110
1657721971.93023,199039.5518203,107
1657721971.93023,199039.5518281,86
1657721971.93023,199039.5518368,83
1657721971.93023,199039.5518422,88
1657721971.93023,199039.5518465,86
1657721971.93023,199039.5518502,83
1657721971.93023,199039.551854,76
1657721971.93023,199039.5518577,55
1657721971.93023,199039.5518625,50
1657721971.93023,199039.5518677,71
1657721971.93023,199039.5518745,86
1657721971.93023,199039.5518847,86
1657721971.93023,199039.5518943,88
1657721971.93023,199039.5519008,95
1657721971.93023,199039.551911,90
1657721971.93023,199039.5519181,76
1657721971.93023,199039.5519259,66
1657721971.93023,199039.5519385,71
1657721971.93023,199039.5519503,74
1657721971.93023,199039.5519561,62
1657721971.93023,199039.5519641,62
1657721971.93023,199039.5519709,74
1657721971.93023,199039.5519782,76
1657721971.93023,199039.551982,71
1657721971.93023,199039.5519879,83
1657721971.93023,199039.5519931,93
1657721971.93023,199039.5519987,88
1657721971.93023,199039.5520025,86
1657721971.93023,199039.5520076,90
1657721971.93023,199039.5520111,95
1657721971.93023,199039.5520164,102
1657721971.93023,199039.5520244,105
1657721971.93023,199039.5520334,105
1657721971.93023,199039.5520386,107
1657721971.93023,199039.5520422,119
1657721971.93023,199039.5520496,119
1657721971.93023,199039.5520562,114
1657721971.93023,199039.5520635,122
1657721971.93023,199039.5520669,126
1657721971.93023,199039.5520701,122
1657721971.93023,199039.5520751,117
1657721971.93023,199039.552083,117
1657721971.93023,199039.5520873,114
1657721971.93023,199039.5520951,112
1657721971.93023,199039.5521025,110
1657721971.93023,199039.5521068,105
1657721971.93023,199039.5521156,102
1657721971.93023,199039.5521228,105
1657721971.93023,199039.5521306,110
1657721971.9412,199039.5521349,110
1657721971.9412,199039.5521405,110
1657721971.9412,199039.5521458,102
1657721971.9412,199039.5521524,100
1657721971.9412,199039.5521555,105
1657721971.9412,199039.5521585,110
1657721971.9412,199039.5521614,105
1657721971.9412,199039.5521643,102
1657721971.9412,199039.5521673,102
1657721971.9412,199039.5521703,98
1657721971.9412,199039.5521732,90
1657721971.9412,199039.5521762,93
1657721971.9412,199039.5521791,98
1657721971.9412,199039.5521821,98
1657721971.9412,199039.552185,90
1657721971.9412,199039.5521879,86
1657721971.9412,199039.5521908,76
1657721971.9412,199039.5521938,71
1657721971.9412,199040.13664,71
1657721971.9412,199040.1366629,69
1657721971.9412,199040.1367016,66
1657721971.9412,199040.1367111,64
1657721971.9412,199040.136716,62
1657721971.9412,199040.1367201,62
1657721972.46998,199040.1367241,55
1657721972.46998,199040.1367281,40
1657721972.46998,199040.1367318,33
1657721972.46998,199040.1367357,31
1657721972.46998,199040.1367394,33
1657721972.46998,199040.1367431,52
1657721972.46998,199040.1367469,78
1657721972.46998,199040.1367507,88
1657721972.46998,199040.1367543,74
1657721972.46998,199040.1367582,35
1657721972.46998,199040.136762,7
1657721972.46998,199040.1367656,9
1657721972.46998,199040.1367694,21
1657721972.46998,199040.1367786,23
1657721972.46998,199040.1367826,23
1657721972.46998,199040.1367864,26
1657721972.46998,199040.13679,31
1657721972.46998,199040.1367937,131
1657721972.46998,199040.1367975,421
1657721972.46998,199040.1368011,746
1657721972.46998,199040.1368049,574
1657721972.46998,199040.1368087,-239
1657721972.46998,199040.1368125,-660
1657721972.46998,199040.1368163,-287
1657721972.46998,199040.1368201,-50
1657721972.46998,199040.1368239,-107
1657721972.46998,199040.1368278,-23
1657721972.46998,199040.1368318,45
1657721972.46998,199040.1368356,0
1657721972.46998,199040.1368395,7
1657721972.46998,199040.1368435,43
1657721972.46998,199040.1368477,38
1657721972.46998,199040.1368553,31
1657721972.46998,199040.1368592,45
1657721972.46998,199040.1368631,50
1657721972.46998,199040.136867,47
1657721972.46998,199040.1368707,50
1657721972.46998,199040.1368746,55
1657721972.46998,199040.1368785,57
1657721972.46998,199040.1368821,62
1657721972.46998,199040.1368861,66
1657721972.46998,199040.13689,66
1657721972.46998,199040.1368939,69
1657721972.46998,199040.1368976,74
1657721972.46998,199040.1369012,74
1657721972.46998,199040.1369052,76
1657721972.46998,199040.136909,81
1657721972.46998,199040.1369127,81
1657721972.46998,199040.1369163,78
1657721972.46998,199040.1369201,76
1657721972.49192,199040.136924,71
1657721972.49192,199040.1369277,62
1657721972.49192,199040.1369314,57
1657721972.49192,199040.1369349,57
1657721972.49192,199040.1369387,55
1657721972.49192,199040.1369421,52
1657721972.49192,199040.1369457,62
1657721972.49192,199040.1369503,71
1657721972.49192,199040.1369539,81
1657721972.49192,199040.1369578,88
1657721972.49192,199040.1369615,90
1657721972.49192,199040.1369653,90
1657721972.49192,199040.1369692,90
1657721972.49192,199040.136973,88
1657721972.49192,199040.1369766,83
1657721972.49192,199040.1369801,83
1657721972.49192,199040.1369839,86
1657721972.49192,199040.6726782,78
1657721972.49192,199040.6726974,71
1657721972.49192,199040.672705,76
1657721972.49192,199040.6727118,81
1657721972.49192,199040.6727172,83
1657721972.49192,199040.672721,90
1657721972.49192,199040.6727272,93
1657721973.00369,199040.672731,83
1657721973.00369,199040.6727362,81
1657721973.00369,199040.6727431,86
1657721973.00369,199040.6727489,93
1657721973.00369,199040.6727555,95
1657721973.00369,199040.6727857,90
1657721973.00369,199040.6727929,76
1657721973.00369,199040.6727967,74
1657721973.00369,199040.6728003,78
1657721973.00369,199040.6728039,76
1657721973.00369,199040.6728076,74
1657721973.00369,199040.6728113,74
1657721973.00369,199040.6728147,62
1657721973.00369,199040.672818,47
1657721973.00369,199040.6728212,55
1657721973.00369,199040.6728248,62
1657721973.00369,199040.6728284,59
1657721973.00369,199040.6728323,62
1657721973.00369,199040.6728357,62
1657721973.00369,199040.672839,57
1657721973.00369,199040.6728423,62
1657721973.00369,199040.6728463,66
1657721973.00369,199040.6728499,66
1657721973.00369,199040.6728562,69
1657721973.00369,199040.6728631,71
1657721973.00369,199040.6728687,69
1657721973.00369,199040.6728733,74
1657721973.00369,199040.6728777,76
1657721973.00369,199040.6728837,78
1657721973.00369,199040.6728878,81
1657721973.00369,199040.6728913,83
1657721973.00369,199040.6728952,83
1657721973.00369,199040.672902,83
1657721973.00369,199040.6729057,88
1657721973.00369,199040.6729107,95
1657721973.00369,199040.6729165,95
1657721973.00369,199040.6729276,95
1657721973.00369,199040.6729354,98
1657721973.00369,199040.6729408,98
1657721973.00369,199040.6729444,100
1657721973.00369,199040.6729477,100
1657721973.00369,199040.6729511,95
1657721973.00369,199040.6729549,93
1657721973.00369,199040.6729582,95
1657721973.00369,199040.6729613,95
1657721973.00369,199040.6729662,88
1657721973.00369,199040.6729694,81
1657721973.00369,199040.6729728,74
1657721973.00369,199040.6729762,76
1657721973.00369,199040.6729804,93
1657721973.01633,199040.6729857,114
1657721973.01633,199040.6729894,136
1657721973.01633,199040.672994,150
1657721973.01633,199040.6729997,143
1657721973.01633,199040.6730038,112
1657721973.01633,199040.6730097,95
1657721973.01633,199040.6730148,102
1657721973.01633,199040.6730187,110
1657721973.01633,199040.6730255,107
1657721973.01633,199040.6730322,112
1657721973.01633,199040.673038,112
1657721973.01633,199040.6730429,110
1657721973.01633,199040.6730465,189
1657721973.01633,199040.6730497,437
1657721973.01633,199040.6730528,777
1657721973.01633,199040.6730562,765
1657721973.01633,199041.2112465,55
1657721973.01633,199041.2112615,-545
1657721973.01633,199041.2112659,-289
1657721973.01633,199041.2112726,26
1657721973.01633,199041.2112774,-33
1657721973.01633,199041.2112825,-4
1657721973.01633,199041.2112871,74
1657721973.01633,199041.2112922,35
1657721973.58438,199041.2112958,21
1657721973.58438,199041.2112993,40
1657721973.58438,199041.2113027,19
1657721973.58438,199041.2113062,11
1657721973.58438,199041.2113097,28
1657721973.58438,199041.2113132,33
1657721973.58438,199041.2113167,33
1657721973.58438,199041.2113203,31
1657721973.58438,199041.2113239,19
1657721973.58438,199041.2113273,9
1657721973.58438,199041.2113308,16
1657721973.58438,199041.2113343,26
1657721973.58438,199041.2113378,28
1657721973.58438,199041.2113413,31
1657721973.58438,199041.2113446,31
1657721973.58438,199041.211348,33
1657721973.58438,199041.2113515,35
1657721973.58438,199041.2113549,35
1657721973.58438,199041.2113584,38
1657721973.58438,199041.2113618,45
1657721973.58438,199041.2113653,45
1657721973.58438,199041.2113687,40
1657721973.58438,199041.2113721,38
1657721973.58438,199041.2113755,38
1657721973.58438,199041.2113789,43
1657721973.58438,199041.2113823,45
1657721973.58438,199041.2113862,45
1657721973.58438,199041.2113897,47
1657721973.58438,199041.2113933,55
1657721973.58438,199041.2113984,69
1657721973.58438,199041.2114018,78
1657721973.58438,199041.2114052,76
1657721973.58438,199041.2114101,71
1657721973.58438,199041.2114148,71
1657721973.58438,199041.2114182,66
1657721973.58438,199041.2114217,66
1657721973.58438,199041.2114266,71
1657721973.58438,199041.2114313,69
1657721973.58438,199041.2114347,62
1657721973.58438,199041.2114382,59
1657721973.58438,199041.211443,62
1657721973.58438,199041.2114479,69
1657721973.58438,199041.2114512,76
1657721973.58438,199041.2114547,86
1657721973.58438,199041.2114594,88
1657721973.58438,199041.2114628,90
1657721973.58438,199041.2114676,90
1657721973.58438,199041.2114711,93
1657721973.58438,199041.2114746,100
1657721973.58438,199041.211478,105
1657721973.59475,199041.2114828,110
1657721973.59475,199041.2114867,110
1657721973.59475,199041.2114902,107
1657721973.59475,199041.2114937,107
1657721973.59475,199041.2114971,117
1657721973.59475,199041.2115005,117
1657721973.59475,199041.2115055,114
1657721973.59475,199041.2115088,114
1657721973.59475,199041.2115122,110
1657721973.59475,199041.2115156,93
1657721973.59475,199041.2115189,93
1657721973.59475,199041.2115222,105
1657721973.59475,199041.2115255,105
1657721973.59475,199041.2115288,90
1657721973.59475,199041.211532,88
1657721973.59475,199041.7949902,86
1657721973.59475,199041.7950116,83
1657721973.59475,199041.7950266,86
1657721973.59475,199041.7950411,90
1657721973.59475,199041.7950557,90
1657721973.59475,199041.7950702,86
1657721973.59475,199041.7950789,74
1657721973.59475,199041.7950818,62
1657721973.59475,199041.795084,66
1657721974.2222,199041.7950862,74
1657721974.2222,199041.7950882,74
1657721974.2222,199041.7950901,74
1657721974.2222,199041.795092,71
1657721974.2222,199041.795094,66
1657721974.2222,199041.7950959,69
1657721974.2222,199041.7950978,74
1657721974.2222,199041.7950997,74
1657721974.2222,199041.7951016,74
1657721974.2222,199041.7951037,71
1657721974.2222,199041.7951057,62
1657721974.2222,199041.7951076,57
1657721974.2222,199041.7951096,64
1657721974.2222,199041.7951115,64
1657721974.2222,199041.7951134,52
1657721974.2222,199041.7951153,47
1657721974.2222,199041.7951173,52
1657721974.2222,199041.7951191,66
1657721974.2222,199041.7951222,93
1657721974.2222,199041.7951338,122
1657721974.2222,199041.795139,133
1657721974.2222,199041.7951412,124
1657721974.2222,199041.7951433,95
1657721974.2222,199041.7951452,71
1657721974.2222,199041.7951472,76
1657721974.2222,199041.7951524,90
1657721974.2222,199041.7951625,88
1657721974.2222,199041.7951665,88
1657721974.2222,199041.7951687,98
1657721974.2222,199041.7951706,93
1657721974.2222,199041.7951726,133
1657721974.2222,199041.7951746,330
1657721974.2222,199041.7951766,660
1657721974.2222,199041.7951786,765
1657721974.2222,199041.7951807,189
1657721974.2222,199041.7951835,-504
1657721974.2222,199041.7951856,-394
1657721974.2222,199041.7951877,-23
1657721974.2222,199041.7951906,-21
1657721974.2222,199041.7951927,-9
1657721974.2222,199041.7951948,93
1657721974.2222,199041.7951969,74
1657721974.2222,199041.795199,47
1657721974.2222,199041.7952011,81
1657721974.2222,199041.7952032,86
1657721974.2222,199041.7952053,74
1657721974.2222,199041.7952074,86
1657721974.2222,199041.79521,93
1657721974.2222,199041.7952121,88
1657721974.2222,199041.7952149,81
1657721974.23381,199041.795217,76
1657721974.23381,199041.7952193,74
1657721974.23381,199041.7952213,78
1657721974.23381,199041.7952235,78
1657721974.23381,199041.7952256,71
1657721974.23381,199041.7952278,71
1657721974.23381,199041.7952298,78
1657721974.23381,199041.7952319,83
1657721974.23381,199041.795234,83
1657721974.23381,199041.7952362,86
1657721974.23381,199041.7952383,83
1657721974.23381,199041.7952417,81
1657721974.23381,199041.7952439,76
1657721974.23381,199041.795246,76
1657721974.23381,199042.4282086,74
1657721974.23381,199042.4282305,71
1657721974.23381,199042.428244,69
1657721974.23381,199042.4282573,64
1657721974.23381,199042.428271,59
1657721974.23381,199042.4282798,62
1657721974.23381,199042.4282824,69
1657721974.23381,199042.4282847,76
1657721974.23381,199042.4282868,81
1657721974.23381,199042.4282889,74
1657721974.71023,199042.428291,55
1657721974.71023,199042.4282931,50
1657721974.71023,199042.428295,52
1657721974.71023,199042.428297,50
1657721974.71023,199042.428299,45
1657721974.71023,199042.428301,38
1657721974.71023,199042.4283029,19
1657721974.71023,199042.4283048,11
1657721974.71023,199042.428307,21
1657721974.71023,199042.428309,28
1657721974.71023,199042.4283117,33
1657721974.71023,199042.4283178,31
1657721974.71023,199042.4283263,21
1657721974.71023,199042.4283341,23
1657721974.71023,199042.4283407,35
1657721974.71023,199042.4283483,43
1657721974.71023,199042.4283537,47
1657721974.71023,199042.4283598,55
1657721974.71023,199042.4283643,55
1657721974.71023,199042.4283706,55
1657721974.71023,199042.4283764,62
1657721974.71023,199042.4283829,66
1657721974.71023,199042.4283887,69
1657721974.71023,199042.4283987,69
1657721974.71023,199042.4284055,66
1657721974.71023,199042.4284097,64
1657721974.71023,199042.4284118,69
1657721974.71023,199042.4284146,69
1657721974.71023,199042.4284169,69
1657721974.71023,199042.4284189,69
1657721974.71023,199042.428421,71
1657721974.71023,199042.428423,71
1657721974.71023,199042.4284251,71
1657721974.71023,199042.4284271,71
1657721974.71023,199042.4284292,74
1657721974.71023,199042.4284313,74
1657721974.71023,199042.4284334,74
1657721974.71023,199042.4284354,74
1657721974.71023,199042.4284376,76
1657721974.71023,199042.4284396,76
1657721974.71023,199042.4284417,71
1657721974.71023,199042.4284438,64
1657721974.71023,199042.4284458,59
1657721974.71023,199042.428448,57
1657721974.71023,199042.4284501,52
1657721974.71023,199042.4284521,52
1657721974.71023,199042.4284542,57
1657721974.71023,199042.4284563,62
1657721974.71023,199042.4284584,64
1657721974.71023,199042.4284605,64
1657721974.72175,199042.4284631,64
1657721974.72175,199042.4284653,64
1657721974.72175,199042.4284674,69
1657721974.72175,199042.4284693,69
1657721974.72175,199042.4284714,64
1657721974.72175,199042.4284735,57
1657721974.72175,199042.4284756,50
1657721974.72175,199042.4284777,52
1657721974.72175,199042.4284797,71
1657721974.72175,199042.4284825,98
1657721974.72175,199042.4284846,119
1657721974.72175,199042.4284871,131
1657721974.72175,199042.4284893,129
1657721974.72175,199042.9162186,105
1657721974.72175,199042.9162318,78
1657721974.72175,199042.9162349,81
1657721974.72175,199042.9162389,93
1657721974.72175,199042.9162411,93
1657721974.72175,199042.9162434,88
1657721974.72175,199042.9162456,81
1657721974.72175,199042.916248,66
1657721974.72175,199042.9162502,95
1657721974.72175,199042.9162523,258
1657721974.72175,199042.9162545,562
1657721975.29362,199042.9162567,710
1657721975.29362,199042.9162589,224
1657721975.29362,199042.916261,-478
1657721975.29362,199042.9162632,-461
1657721975.29362,199042.9162652,-95
1657721975.29362,199042.9162673,-47
1657721975.29362,199042.9162695,-28
1657721975.29362,199042.9162717,78
1657721975.29362,199042.916274,71
1657721975.29362,199042.9162761,38
1657721975.29362,199042.9162783,74
1657721975.29362,199042.9162804,88
1657721975.29362,199042.9162824,78
1657721975.29362,199042.9162845,86
1657721975.29362,199042.9162866,81
1657721975.29362,199042.9162886,64
1657721975.29362,199042.9162905,69
1657721975.29362,199042.9162925,83
1657721975.29362,199042.9162946,86
1657721975.29362,199042.9162968,88
1657721975.29362,199042.9162996,88
1657721975.29362,199042.9163018,83
1657721975.29362,199042.916304,86
1657721975.29362,199042.9163062,95
1657721975.29362,199042.9163085,102
1657721975.29362,199042.9163106,107
1657721975.29362,199042.9163128,110
1657721975.29362,199042.9163149,110
1657721975.29362,199042.9163171,117
1657721975.29362,199042.9163193,122
1657721975.29362,199042.9163214,117
1657721975.29362,199042.9163236,119
1657721975.29362,199042.9163258,124
1657721975.29362,199042.916328,105
1657721975.29362,199042.9163302,86
1657721975.29362,199042.9163324,90
1657721975.29362,199042.9163346,98
1657721975.29362,199042.9163369,100
1657721975.29362,199042.9163391,105
1657721975.29362,199042.9163413,110
1657721975.29362,199042.9163436,107
1657721975.29362,199042.9163458,100
1657721975.29362,199042.916348,86
1657721975.29362,199042.9163502,86
1657721975.29362,199042.9163525,86
1657721975.29362,199042.9163566,76
1657721975.29362,199042.9163588,69
1657721975.29362,199042.916361,69
1657721975.29362,199042.9163632,69
1657721975.29362,199042.9163654,69
1657721975.30458,199042.9163676,71
1657721975.30458,199042.9163698,66
1657721975.30458,199042.916372,66
1657721975.30458,199042.9163742,88
1657721975.30458,199042.9163764,107
1657721975.30458,199042.9163786,107
1657721975.30458,199042.9163809,105
1657721975.30458,199042.9163831,107
1657721975.30458,199042.9163853,110
1657721975.30458,199042.9163875,124
1657721975.30458,199042.9163898,136
1657721975.30458,199042.9163919,126
1657721975.30458,199043.5008804,124
1657721975.30458,199043.5008981,131
1657721975.30458,199043.5009081,136
1657721975.30458,199043.5009147,131
1657721975.30458,199043.5009211,119
1657721975.30458,199043.5009278,110
1657721975.30458,199043.5009368,124
1657721975.30458,199043.5009428,133
1657721975.30458,199043.5009507,122
1657721975.30458,199043.5009567,110
1657721975.30458,199043.5009646,105
1657721975.30458,199043.5009709,102
1657721975.88277,199043.5009793,107
1657721975.88277,199043.5009859,112
1657721975.88277,199043.5009924,102
1657721975.88277,199043.5009984,95
1657721975.88277,199043.5010024,93
1657721975.88277,199043.5010057,86
1657721975.88277,199043.5010092,86
1657721975.88277,199043.5010126,100
1657721975.88277,199043.5010164,105
1657721975.88277,199043.501022,95
1657721975.88277,199043.5010257,93
1657721975.88277,199043.5010311,100
1657721975.88277,199043.5010388,107
1657721975.88277,199043.5010497,110
1657721975.88277,199043.5010638,110
1657721975.88277,199043.5010757,110
1657721975.88277,199043.5010815,105
1657721975.88277,199043.5010844,102
1657721975.88277,199043.5010933,100
1657721975.88277,199043.5011075,95
1657721975.88277,199043.5011438,98
1657721975.88277,199043.5011588,112
1657721975.88277,199043.5011649,138
1657721975.88277,199043.5011699,155
1657721975.88277,199043.5011957,157
1657721975.88277,199043.5012085,145
1657721975.88277,199043.5012144,122
1657721975.88277,199043.5012211,107
1657721975.88277,199043.5012247,107
1657721975.88277,199043.50123,112
1657721975.88277,199043.501235,112
1657721975.88277,199043.501242,110
1657721975.88277,199043.5012523,110
1657721975.88277,199043.5012568,102
1657721975.88277,199043.5012635,153
1657721975.88277,199043.5012674,375
1657721975.88277,199043.5012717,741
1657721975.88277,199043.5012754,777
1657721975.88277,199043.5012789,50
1657721975.88277,199043.5012826,-617
1657721975.88277,199043.5012862,-389
1657721975.88277,199043.5012898,-31
1657721975.88277,199043.5012935,-50
1657721975.88277,199043.5012971,2
1657721975.88277,199043.5013006,117
1657721975.88277,199043.5013045,90
1657721975.88277,199043.5013082,71
1657721975.88277,199043.5013138,112
1657721975.88277,199043.5013175,112
1657721975.88277,199043.5013212,98
1657721975.89274,199043.5013264,110
1657721975.89274,199043.50133,119
1657721975.89274,199043.5013336,119
1657721975.89274,199043.5013373,124
1657721975.89274,199043.5013409,131
1657721975.89274,199043.5013444,131
1657721975.89274,199043.5013482,124
1657721975.89274,199043.5013518,122
1657721975.89274,199043.5013554,129
1657721975.89274,199043.5013589,133
1657721975.89274,199043.5013625,133
1657721975.89274,199044.0858614,133
1657721975.89274,199044.0858745,133
1657721975.89274,199044.0858786,136
1657721975.89274,199044.0858842,138
1657721975.89274,199044.0858876,138
1657721975.89274,199044.0858919,136
1657721975.89274,199044.0858959,126
1657721975.89274,199044.085899,114
1657721975.89274,199044.0859034,110
1657721975.89274,199044.0859075,107
1657721975.89274,199044.0859104,100
1657721975.89274,199044.0859134,95
1657721975.89274,199044.0859165,88
1657721976.46064,199044.0859195,74
1657721976.46064,199044.0859224,74
1657721976.46064,199044.0859253,86
1657721976.46064,199044.0859282,88
1657721976.46064,199044.0859311,83
1657721976.46064,199044.0859337,78
1657721976.46064,199044.0859366,62
1657721976.46064,199044.0859394,47
1657721976.46064,199044.0859428,52
1657721976.46064,199044.0859546,55
1657721976.46064,199044.0859655,52
1657721976.46064,199044.0859703,50
1657721976.46064,199044.0859744,45
1657721976.46064,199044.0859765,45
1657721976.46064,199044.0859795,47
1657721976.46064,199044.0859817,45
1657721976.46064,199044.0859838,40
1657721976.46064,199044.0859858,35
1657721976.46064,199044.0859881,31
1657721976.46064,199044.0859902,31
1657721976.46064,199044.0859924,40
1657721976.46064,199044.0859945,50
1657721976.46064,199044.0859965,50
1657721976.46064,199044.0859986,55
1657721976.46064,199044.0860008,59
1657721976.46064,199044.0860029,55
1657721976.46064,199044.086005,55
1657721976.46064,199044.086007,59
1657721976.46064,199044.086009,62
1657721976.46064,199044.0860111,62
1657721976.46064,199044.0860132,59
1657721976.46064,199044.0860154,57
1657721976.46064,199044.0860176,59
1657721976.46064,199044.0860197,64
1657721976.46064,199044.0860217,69
1657721976.46064,199044.0860238,66
1657721976.46064,199044.0860258,64
1657721976.46064,199044.0860279,66

1657721976.46064,199044.08603,64
1657721976.46064,199044.086032,64
1657721976.46064,199044.0860341,69
1657721976.46064,199044.0860361,74
1657721976.46064,199044.0860384,71
1657721976.46064,199044.0860404,64
1657721976.46064,199044.0860425,66
1657721976.46064,199044.0860446,62
1657721976.46064,199044.0860467,47
1657721976.46064,199044.0860488,33
1657721976.46064,199044.0860509,33
1657721976.46064,199044.086053,43
1657721976.47061,199044.0860551,59
1657721976.47061,199044.0860571,78
1657721976.47061,199044.0860593,105
1657721976.47061,199044.0860614,119
1657721976.47061,199044.0860635,102
1657721976.47061,199044.0860656,74
1657721976.47061,199044.0860677,64
1657721976.47061,199044.0860698,76
1657721976.47061,199044.0860719,83
1657721976.47061,199044.086074,81
1657721976.47061,199044.6712588,83
1657721976.47061,199044.6712767,83
1657721976.47061,199044.6712849,100
1657721976.47061,199044.6712924,227
1657721976.47061,199044.6712966,519
1657721976.47061,199044.671301,794
1657721976.47061,199044.6713056,535
1657721976.47061,199044.6713113,-258
1657721976.47061,199044.6713159,-543
1657721976.47061,199044.6713201,-153
1657721976.47061,199044.6713244,4
1657721976.47061,199044.671329,-57
1657721976.47061,199044.6713336,28
1657721976.47061,199044.6713375,69
1657721976.9486,199044.6713421,28
1657721976.9486,199044.6713465,43
1657721976.9486,199044.67135,52
1657721976.9486,199044.6713536,28
1657721976.9486,199044.6713571,31
1657721976.9486,199044.6713607,47
1657721976.9486,199044.6713644,47
1657721976.9486,199044.6713679,43
1657721976.9486,199044.6713714,38
1657721976.9486,199044.6713763,38
1657721976.9486,199044.6713827,43
1657721976.9486,199044.6713879,47
1657721976.9486,199044.6713947,52
1657721976.9486,199044.6714009,57
1657721976.9486,199044.6714045,57
1657721976.9486,199044.6714079,55
1657721976.9486,199044.671413,59
1657721976.9486,199044.6714185,64
1657721976.9486,199044.6714242,71
1657721976.9486,199044.6714343,74
1657721976.9486,199044.6714398,69
1657721976.9486,199044.6714419,66
1657721976.9486,199044.671445,66
1657721976.9486,199044.6714472,64
1657721976.9486,199044.6714494,64
1657721976.9486,199044.6714515,69
1657721976.9486,199044.6714536,71
1657721976.9486,199044.671457,71
1657721976.9486,199044.6714636,76
1657721976.9486,199044.6714674,90
1657721976.9486,199044.6714751,98
1657721976.9486,199044.67149,100
1657721976.9486,199044.6714974,98
1657721976.9486,199044.6715039,90
1657721976.9486,199044.6715086,83
1657721976.9486,199044.6715133,81
1657721976.9486,199044.6715185,76
1657721976.9486,199044.6715226,71
1657721976.9486,199044.6715274,66
1657721976.9486,199044.6715326,57
1657721976.9486,199044.6715381,50
1657721976.9486,199044.6715418,57
1657721976.9486,199044.6715469,66
1657721976.9486,199044.6715527,64
1657721976.9486,199044.6715566,62
1657721976.9486,199044.6715605,64
1657721976.9486,199044.6715659,69
1657721976.9486,199044.6715699,71
1657721976.9486,199044.671575,78
1657721976.9486,199044.6715785,88
1657721976.95989,199044.6715821,88
1657721976.95989,199044.6715856,83
1657721976.95989,199044.6715892,83
1657721976.95989,199044.6715944,81
1657721976.95989,199044.671598,76
1657721976.95989,199044.6716047,83
1657721976.95989,199044.6716096,90
1657721976.95989,199044.6716172,88
1657721976.95989,199044.671629,83
1657721976.95989,199045.1598558,76
1657721976.95989,199045.1598747,71
1657721976.95989,199045.1598843,66
1657721976.95989,199045.1598904,66
1657721976.95989,199045.1598945,64
1657721976.95989,199045.1598995,50
1657721976.95989,199045.1599032,43
1657721976.95989,199045.1599126,45
1657721976.95989,199045.1599202,43
1657721976.95989,199045.1599294,38
1657721976.95989,199045.1599351,35
1657721976.95989,199045.1599435,35
1657721976.95989,199045.1599485,21
1657721976.95989,199045.1599538,0
1657721976.95989,199045.1599573,-7
1657721977.53678,199045.1599607,-2
1657721977.53678,199045.1599638,0
1657721977.53678,199045.159967,2
1657721977.53678,199045.1599703,-7
1657721977.53678,199045.1599735,-19
1657721977.53678,199045.1599791,-19
1657721977.53678,199045.1599831,-14
1657721977.53678,199045.1599862,-21
1657721977.53678,199045.1599893,-26
1657721977.53678,199045.1599925,-14
1657721977.53678,199045.1599958,2
1657721977.53678,199045.1600009,26
1657721977.53678,199045.1600042,57
1657721977.53678,199045.1600093,71
1657721977.53678,199045.1600126,64
1657721977.53678,199045.1600159,43
1657721977.53678,199045.1600215,21
1657721977.53678,199045.1600252,21
1657721977.53678,199045.1600296,38
1657721977.53678,199045.1600342,43
1657721977.53678,199045.1600404,40
1657721977.53678,199045.1600434,47
1657721977.53678,199045.1600463,52
1657721977.53678,199045.1600494,110
1657721977.53678,199045.1600524,318
1657721977.53678,199045.1600554,629
1657721977.53678,199045.1600584,667
1657721977.53678,199045.1600612,62
1657721977.53678,199045.1600654,-550
1657721977.53678,199045.1600686,-385
1657721977.53678,199045.1600718,-50
1657721977.53678,199045.1600752,-52
1657721977.53678,199045.1600788,-19
1657721977.53678,199045.1600825,66
1657721977.53678,199045.1600859,45
1657721977.53678,199045.1600896,38
1657721977.53678,199045.1600938,71
1657721977.53678,199045.1601,66
1657721977.53678,199045.1601038,59
1657721977.53678,199045.1601075,76
1657721977.53678,199045.160111,81
1657721977.53678,199045.1601145,76
1657721977.53678,199045.1601182,78
1657721977.53678,199045.1601218,88
1657721977.53678,199045.1601254,88
1657721977.53678,199045.1601297,88
1657721977.53678,199045.1601331,93
1657721977.53678,199045.1601365,102
1657721977.53678,199045.16014,100
1657721977.53678,199045.1601436,100
1657721977.54875,199045.1601518,110
1657721977.54875,199045.1601552,110
1657721977.54875,199045.1601587,107
1657721977.54875,199045.1601634,112
1657721977.54875,199045.1601671,117
1657721977.54875,199045.160171,112
1657721977.54875,199045.1601764,110
1657721977.54875,199045.1601804,110
1657721977.54875,199045.7434952,105
1657721977.54875,199045.743515,98
1657721977.54875,199045.7435296,88
1657721977.54875,199045.7435439,83
1657721977.54875,199045.7435585,90
1657721977.54875,199045.7435724,95
1657721977.54875,199045.7435866,100
1657721977.54875,199045.743602,107
1657721977.54875,199045.7436164,98
1657721977.54875,199045.7436259,78
1657721977.54875,199045.7436311,69
1657721977.54875,199045.7436335,66
1657721977.54875,199045.7436357,71
1657721977.54875,199045.7436379,74
1657721977.54875,199045.7436401,69
1657721977.54875,199045.7436422,55
1657721978.07159,199045.7436443,33
1657721978.07159,199045.7436464,33
1657721978.07159,199045.7436488,52
1657721978.07159,199045.7436508,57
1657721978.07159,199045.7436528,57
1657721978.07159,199045.7436547,55
1657721978.07159,199045.7436567,40
1657721978.07159,199045.7436588,33
1657721978.07159,199045.7436658,45
1657721978.07159,199045.7436759,50
1657721978.07159,199045.743689,47
1657721978.07159,199045.7437022,47
1657721978.07159,199045.7437108,43
1657721978.07159,199045.7437185,47
1657721978.07159,199045.743721,57
1657721978.07159,199045.7437232,59
1657721978.07159,199045.7437254,57
1657721978.07159,199045.7437276,52
1657721978.07159,199045.7437297,50
1657721978.07159,199045.7437319,50
1657721978.07159,199045.7437341,55
1657721978.07159,199045.7437363,59
1657721978.07159,199045.7437386,59
1657721978.07159,199045.7437407,55
1657721978.07159,199045.7437429,57
1657721978.07159,199045.743745,59
1657721978.07159,199045.7437471,57
1657721978.07159,199045.7437493,59
1657721978.07159,199045.7437514,59
1657721978.07159,199045.7437536,52
1657721978.07159,199045.7437563,47
1657721978.07159,199045.7437584,50
1657721978.07159,199045.7437613,47
1657721978.07159,199045.7437636,47
1657721978.07159,199045.7437657,43
1657721978.07159,199045.7437678,43
1657721978.07159,199045.7437699,50
1657721978.07159,199045.743772,50
1657721978.07159,199045.7437742,40
1657721978.07159,199045.7437763,40
1657721978.07159,199045.7437784,38
1657721978.07159,199045.7437805,33
1657721978.07159,199045.7437826,45
1657721978.07159,199045.7437847,66
1657721978.07159,199045.7437875,81
1657721978.07159,199045.7437897,100
1657721978.07159,199045.7437919,112
1657721978.07159,199045.743794,95
1657721978.07159,199045.7437962,64
1657721978.07159,199045.7437983,50
1657721978.08057,199045.7438004,52
1657721978.08057,199045.7438025,55
1657721978.08057,199045.7438046,59
1657721978.08057,199045.7438067,62
1657721978.08057,199045.7438087,55
1657721978.08057,199045.7438108,69
1657721978.08057,199045.7438129,181
1657721978.08057,199046.2805079,428
1657721978.08057,199046.2805288,669
1657721978.08057,199046.2805378,459
1657721978.08057,199046.2805444,-258
1657721978.08057,199046.2805492,-571
1657721978.08057,199046.2805531,-232
1657721978.08057,199046.2805575,-52
1657721978.08057,199046.2805613,-95
1657721978.08057,199046.2805658,-4
1657721978.08057,199046.2805696,50
1657721978.08057,199046.2805742,4
1657721978.08057,199046.2805782,16
1657721978.08057,199046.2805825,45
1657721978.08057,199046.280587,26
1657721978.08057,199046.2805908,19
1657721978.08057,199046.2805953,33
1657721978.08057,199046.2805994,35
1657721978.65841,199046.2806055,43
1657721978.65841,199046.2806101,55
1657721978.65841,199046.2806146,55
1657721978.65841,199046.2806185,55
1657721978.65841,199046.2806231,62
1657721978.65841,199046.2806269,71
1657721978.65841,199046.2806313,71
1657721978.65841,199046.280639,55
1657721978.65841,199046.2806436,50
1657721978.65841,199046.2806475,64
1657721978.65841,199046.2806605,74
1657721978.65841,199046.2806645,76
1657721978.65841,199046.280669,76
1657721978.65841,199046.2806731,74
1657721978.65841,199046.2806777,76
1657721978.65841,199046.2806822,81
1657721978.65841,199046.2806863,74
1657721978.65841,199046.2806906,74
1657721978.65841,199046.2806949,76
1657721978.65841,199046.2806993,74
1657721978.65841,199046.2807029,76
1657721978.65841,199046.2807064,78
1657721978.65841,199046.2807098,78
1657721978.65841,199046.2807133,83
1657721978.65841,199046.280717,88
1657721978.65841,199046.2807207,83
1657721978.65841,199046.2807242,74
1657721978.65841,199046.2807278,64
1657721978.65841,199046.2807317,59
1657721978.65841,199046.2807354,59
1657721978.65841,199046.2807393,57
1657721978.65841,199046.2807434,52
1657721978.65841,199046.2807502,55
1657721978.65841,199046.2807568,62
1657721978.65841,199046.2807611,57
1657721978.65841,199046.2807642,52
1657721978.65841,199046.2807674,66
1657721978.65841,199046.2807706,76
1657721978.65841,199046.2807737,74
1657721978.65841,199046.2807784,74
1657721978.65841,199046.2807831,74
1657721978.65841,199046.2807866,74
1657721978.65841,199046.2807898,78
1657721978.65841,199046.2807945,86
1657721978.65841,199046.2808014,93
1657721978.65841,199046.2808082,95
1657721978.65841,199046.2808125,90
1657721978.65841,199046.280816,81
1657721978.65841,199046.2808195,83
1657721978.65841,199046.2808231,83
1657721978.67038,199046.2808272,71
1657721978.67038,199046.2808311,59
1657721978.67038,199046.2808345,55
1657721978.67038,199046.2808388,57
1657721978.67038,199046.2808432,66
1657721978.67038,199046.2808485,66
1657721978.67038,199046.8657018,64
1657721978.67038,199046.8657222,76
1657721978.67038,199046.8657314,76
1657721978.67038,199046.8657364,64
1657721978.67038,199046.8657441,66
1657721978.67038,199046.8657487,71
1657721978.67038,199046.8657565,69
1657721978.67038,199046.865761,74
1657721978.67038,199046.8657682,78
1657721978.67038,199046.8657728,66
1657721978.67038,199046.8657785,50
1657721978.67038,199046.8657842,57
1657721978.67038,199046.8657908,69
1657721978.67038,199046.8657968,62
1657721978.67038,199046.8658027,50
1657721978.67038,199046.8658062,33
1657721978.67038,199046.8658097,9
1657721978.67038,199046.8658135,-7
1657721979.33785,199046.8658185,2
1657721979.33785,199046.8658218,21
1657721979.33785,199046.8658253,40
1657721979.33785,199046.8658289,64
1657721979.33785,199046.8658324,81
1657721979.33785,199046.8658357,81
1657721979.33785,199046.865839,64
1657721979.33785,199046.8658822,43
1657721979.33785,199046.8658877,38
1657721979.33785,199046.8658911,50
1657721979.33785,199046.8658945,47
1657721979.33785,199046.8658981,50
1657721979.33785,199046.8659016,64
1657721979.33785,199046.8659048,66
1657721979.33785,199046.8659085,74
1657721979.33785,199046.8659123,179
1657721979.33785,199046.8659156,430
1657721979.33785,199046.8659193,645
1657721979.33785,199046.8659445,392
1657721979.33785,199046.865953,-282
1657721979.33785,199046.8659579,-507
1657721979.33785,199046.8659639,-172
1657721979.33785,199046.8659672,-21
1657721979.33785,199046.8659703,-31
1657721979.33785,199046.8659735,76
1657721979.33785,199046.8659766,114
1657721979.33785,199046.86598,69
1657721979.33785,199046.8659832,88
1657721979.33785,199046.8659867,110
1657721979.33785,199046.8659901,88
1657721979.33785,199046.8659938,88
1657721979.33785,199046.8659976,102
1657721979.33785,199046.8660008,98
1657721979.33785,199046.8660042,98
1657721979.33785,199046.8660085,110
1657721979.33785,199046.8660141,112
1657721979.33785,199046.866018,112
1657721979.33785,199046.8660217,117
1657721979.33785,199046.866027,122
1657721979.33785,199046.8660312,124
1657721979.33785,199046.8660363,131
1657721979.33785,199046.8660397,129
1657721979.33785,199046.8660433,117
1657721979.33785,199046.8660465,119
1657721979.33785,199046.86605,129
1657721979.33785,199046.8660538,131
1657721979.33785,199046.8660574,136
1657721979.33785,199046.866061,141
1657721979.33785,199046.8660645,145
1657721979.33785,199046.8660737,145
1657721979.34782,199046.866077,143
1657721979.34782,199046.8660805,145
1657721979.34782,199046.8660852,145
1657721979.34782,199046.8660888,148
1657721979.34782,199046.8660924,148
1657721979.34782,199047.5485506,145
1657721979.34782,199047.5485691,141
1657721979.34782,199047.5485764,133
1657721979.34782,199047.5485816,126
1657721979.34782,199047.548588,124
1657721979.34782,199047.5485918,119
1657721979.34782,199047.5485972,102
1657721979.34782,199047.5486011,98
1657721979.34782,199047.5486068,105
1657721979.34782,199047.5486119,110
1657721979.34782,199047.5486167,105
1657721979.34782,199047.5486258,105
1657721979.34782,199047.5486318,110
1657721979.34782,199047.5486354,110
1657721979.34782,199047.548641,114
1657721979.34782,199047.5486461,124
1657721979.34782,199047.5486495,133
1657721979.34782,199047.548653,141
1657721979.34782,199047.5486593,141
1657721979.78027,199047.5486646,129
1657721979.78027,199047.5486716,126
1657721979.78027,199047.5486819,136
1657721979.78027,199047.54869,141
1657721979.78027,199047.5486947,145
1657721979.78027,199047.5486995,148
1657721979.78027,199047.548705,131
1657721979.78027,199047.5487095,126
1657721979.78027,199047.5487145,143
1657721979.78027,199047.5487195,141
1657721979.78027,199047.5487257,129
1657721979.78027,199047.5487354,129
1657721979.78027,199047.548742,124
1657721979.78027,199047.5487496,119
1657721979.78027,199047.5487632,119
1657721979.78027,199047.5487758,122
1657721979.78027,199047.5487878,136
1657721979.78027,199047.5487953,145
1657721979.78027,199047.5488052,131
1657721979.78027,199047.5488197,122
1657721979.78027,199047.5488293,129
1657721979.78027,199047.5488433,129
1657721979.78027,199047.5488559,122
1657721979.78027,199047.5488639,133
1657721979.78027,199047.5488701,141
1657721979.78027,199047.5488742,133
1657721979.78027,199047.5488784,136
1657721979.78027,199047.5488824,138
1657721979.78027,199047.5488878,131
1657721979.78027,199047.5488927,129
1657721979.78027,199047.5488965,133
1657721979.78027,199047.5489004,126
1657721979.78027,199047.5489049,122
1657721979.78027,199047.5489087,114
1657721979.78027,199047.5489152,114
1657721979.78027,199047.5489225,153
1657721979.78027,199047.5489315,181
1657721979.78027,199047.5489397,172
1657721979.78027,199047.548948,155
1657721979.78027,199047.548952,133
1657721979.78027,199047.5489558,117
1657721979.78027,199047.5489617,122
1657721979.78027,199047.5489656,126
1657721979.78027,199047.5489707,138
1657721979.78027,199047.5489743,157
1657721979.78027,199047.5489781,148
1657721979.78027,199047.5489824,141
1657721979.78027,199047.5489869,234
1657721979.78027,199047.5489919,478
1657721979.78027,199047.5490003,791
1657721979.7925,199047.5490042,698
1657721979.7925,199047.5490094,-71
1657721979.7925,199047.5490165,-581
1657721979.7925,199047.5490257,-267
1657721979.7925,199047.9860546,14
1657721979.7925,199047.9860671,2
1657721979.7925,199047.9860706,90
1657721979.7925,199047.9860753,167
1657721979.7925,199047.9860783,122
1657721979.7925,199047.9860804,122
1657721979.7925,199047.9860825,155
1657721979.7925,199047.9860846,150
1657721979.7925,199047.9860867,150
1657721979.7925,199047.9860888,155
1657721979.7925,199047.9860908,141
1657721979.7925,199047.9860929,136
1657721979.7925,199047.9860949,145
1657721979.7925,199047.986097,148
1657721979.7925,199047.986099,150
1657721979.7925,199047.9861018,150
1657721979.7925,199047.9861114,141
1657721979.7925,199047.9861213,141
1657721979.7925,199047.9861253,145
1657721979.7925,199047.9861274,145
1657721980.31456,199047.9861295,145
1657721980.31456,199047.9861315,141
1657721980.31456,199047.9861334,126
1657721980.31456,199047.9861407,114
1657721980.31456,199047.98615,119
1657721980.31456,199047.9861532,119
1657721980.31456,199047.9861556,114
1657721980.31456,199047.9861642,119
1657721980.31456,199047.9861739,117
1657721980.31456,199047.9861788,102
1657721980.31456,199047.9861809,93
1657721980.31456,199047.986183,90
1657721980.31456,199047.986186,93
1657721980.31456,199047.9861968,100
1657721980.31456,199047.986204,100
1657721980.31456,199047.9862069,93
1657721980.31456,199047.9862092,88
1657721980.31456,199047.9862113,88
1657721980.31456,199047.9862198,90
1657721980.31456,199047.9862304,93
1657721980.31456,199047.9862332,86
1657721980.31456,199047.9862354,71
1657721980.31456,199047.9862375,64
1657721980.31456,199047.9862396,62
1657721980.31456,199047.9862417,62
1657721980.31456,199047.9862438,57
1657721980.31456,199047.9862459,57
1657721980.31456,199047.986248,64
1657721980.31456,199047.98625,69
1657721980.31456,199047.9862522,78
1657721980.31456,199047.9862542,90
1657721980.31456,199047.9862564,90
1657721980.31456,199047.9862585,95
1657721980.31456,199047.9862606,102
1657721980.31456,199047.9862627,100
1657721980.31456,199047.9862648,102
1657721980.31456,199047.986267,110
1657721980.31456,199047.9862691,112
1657721980.31456,199047.9862713,112
1657721980.31456,199047.9862734,107
1657721980.31456,199047.9862756,98
1657721980.31456,199047.9862777,98
1657721980.31456,199047.9862798,100
1657721980.31456,199047.9862818,100
1657721980.31456,199047.9862839,102
1657721980.31456,199047.986286,105
1657721980.31456,199047.9862882,98
1657721980.31456,199047.9862903,93
1657721980.31456,199047.9862924,93
1657721980.31456,199047.9862945,95
1657721980.32408,199047.9862966,98
1657721980.32408,199047.9862987,98
1657721980.32408,199047.9863008,86
1657721980.32408,199048.5226846,66
1657721980.32408,199048.5227071,64
1657721980.32408,199048.522721,83
1657721980.32408,199048.5227309,102
1657721980.32408,199048.5227383,117
1657721980.32408,199048.5227473,136
1657721980.32408,199048.5227529,138
1657721980.32408,199048.5227655,117
1657721980.32408,199048.5227755,88
1657721980.32408,199048.5227845,78
1657721980.32408,199048.5227894,83
1657721980.32408,199048.5227953,81
1657721980.32408,199048.5228046,66
1657721980.32408,199048.5228093,59
1657721980.32408,199048.5228139,62
1657721980.32408,199048.5228274,76
1657721980.32408,199048.5228339,189
1657721980.32408,199048.5228425,456
1657721980.32408,199048.5228566,741
1657721980.32408,199048.522866,588
1657721980.32408,199048.5228694,-160
1657721980.90289,199048.5228808,-564
1657721980.90289,199048.522889,-208
1657721980.90289,199048.5228956,23
1657721980.90289,199048.5229027,-52
1657721980.90289,199048.5229081,-2
1657721980.90289,199048.5229153,55
1657721980.90289,199048.522923,19
1657721980.90289,199048.522932,26
1657721980.90289,199048.5229451,55
1657721980.90289,199048.5229566,47
1657721980.90289,199048.5229676,47
1657721980.90289,199048.5229817,57
1657721980.90289,199048.5229938,57
1657721980.90289,199048.5230089,59
1657721980.90289,199048.5230317,66
1657721980.90289,199048.5230382,69
1657721980.90289,199048.523043,66
1657721980.90289,199048.5230473,59
1657721980.90289,199048.5230522,62
1657721980.90289,199048.5230582,69
1657721980.90289,199048.5230624,69
1657721980.90289,199048.5230661,71
1657721980.90289,199048.5230702,78
1657721980.90289,199048.5230756,81
1657721980.90289,199048.5230797,81
1657721980.90289,199048.523084,83
1657721980.90289,199048.5230903,83
1657721980.90289,199048.5230944,81
1657721980.90289,199048.5230984,81
1657721980.90289,199048.5231024,81
1657721980.90289,199048.5231064,76
1657721980.90289,199048.5231117,66
1657721980.90289,199048.5231196,64
1657721980.90289,199048.523126,74
1657721980.90289,199048.5231403,86
1657721980.90289,199048.5231585,98
1657721980.90289,199048.5231665,105
1657721980.90289,199048.5231713,107
1657721980.90289,199048.5231759,107
1657721980.90289,199048.5231806,105
1657721980.90289,199048.5231848,100
1657721980.90289,199048.5231891,93
1657721980.90289,199048.5231933,90
1657721980.90289,199048.5231975,88
1657721980.90289,199048.5232018,83
1657721980.90289,199048.5232084,86
1657721980.90289,199048.5232131,93
1657721980.90289,199048.5232199,93
1657721980.90289,199048.5232246,86
1657721980.90289,199048.5232285,93
1657721980.91286,199048.5232329,100
1657721980.91286,199048.5232373,98
1657721980.91286,199049.1070604,105
1657721980.91286,199049.1070733,119
1657721980.91286,199049.1070768,122
1657721980.91286,199049.1070791,114
1657721980.91286,199049.1070813,112
1657721980.91286,199049.1070834,119
1657721980.91286,199049.1070855,126
1657721980.91286,199049.1070876,131
1657721980.91286,199049.1070897,131
1657721980.91286,199049.1070918,117
1657721980.91286,199049.1070939,98
1657721980.91286,199049.107097,93
1657721980.91286,199049.107104,100
1657721980.91286,199049.1071134,107
1657721980.91286,199049.1071217,107
1657721980.91286,199049.1071295,93
1657721980.91286,199049.1071428,76
1657721980.91286,199049.1071557,78
1657721980.91286,199049.1071623,88
1657721980.91286,199049.1071713,90
1657721980.91286,199049.1071864,100
1657721980.91286,199049.1071992,93
1657721981.49099,199049.1072057,78
1657721981.49099,199049.1072171,81
1657721981.49099,199049.1072239,93
1657721981.49099,199049.1072311,98
1657721981.49099,199049.1072391,90
1657721981.49099,199049.1072459,81
1657721981.49099,199049.1072551,69
1657721981.49099,199049.1072634,57
1657721981.49099,199049.1072751,69
1657721981.49099,199049.1072844,88
1657721981.49099,199049.1072936,100
1657721981.49099,199049.1073046,122
1657721981.49099,199049.1073156,143
1657721981.49099,199049.107322,136
1657721981.49099,199049.1073381,112
1657721981.49099,199049.1073477,100
1657721981.49099,199049.1073538,112
1657721981.49099,199049.1073616,119
1657721981.49099,199049.1073688,119
1657721981.49099,199049.1073746,117
1657721981.49099,199049.1073787,112
1657721981.49099,199049.1073827,117
1657721981.49099,199049.1073871,205
1657721981.49099,199049.1073909,471
1657721981.49099,199049.1073946,806
1657721981.49099,199049.1073985,638
1657721981.49099,199049.1074042,-215
1657721981.49099,199049.1074081,-662
1657721981.49099,199049.1074136,-270
1657721981.49099,199049.1074175,-14
1657721981.49099,199049.1074223,-59
1657721981.49099,199049.107426,31
1657721981.49099,199049.1074312,107
1657721981.49099,199049.1074349,62
1657721981.49099,199049.107441,64
1657721981.49099,199049.1074449,102
1657721981.49099,199049.1074499,93
1657721981.49099,199049.1074546,83
1657721981.49099,199049.1074583,95
1657721981.49099,199049.1074634,100
1657721981.49099,199049.1074669,102
1657721981.49099,199049.1074718,105
1657721981.49099,199049.1074752,102
1657721981.49099,199049.1074801,105
1657721981.49099,199049.1074847,110
1657721981.49099,199049.1074897,110
1657721981.49099,199049.107493,112
1657721981.49099,199049.1074979,112
1657721981.49099,199049.1075015,114
1657721981.49099,199049.1075063,122
1657721981.50096,199049.1075097,119
1657721981.50096,199049.6926083,112
1657721981.50096,199049.6926267,119
1657721981.50096,199049.6926325,110
1657721981.50096,199049.6926396,83
1657721981.50096,199049.6926448,88
1657721981.50096,199049.6926505,98
1657721981.50096,199049.692656,81
1657721981.50096,199049.6926617,71
1657721981.50096,199049.6926678,71
1657721981.50096,199049.6926746,69
1657721981.50096,199049.6926785,69
1657721981.50096,199049.6926833,78
1657721981.50096,199049.6926891,76
1657721981.50096,199049.6926931,64
1657721981.50096,199049.6926992,64
1657721981.50096,199049.6927072,71
1657721981.50096,199049.6927113,66
1657721981.50096,199049.6927179,59
1657721981.50096,199049.6927225,57
1657721981.50096,199049.6927284,40
1657721981.50096,199049.6927333,28
1657721981.50096,199049.6927389,35
1657721981.50096,199049.6927437,33
1657721982.02437,199049.6927496,28
1657721982.02437,199049.6927541,43
1657721982.02437,199049.6927581,55
1657721982.02437,199049.6927627,43
1657721982.02437,199049.6927673,40
1657721982.02437,199049.6927712,62
1657721982.02437,199049.6927757,78
1657721982.02437,199049.6927794,76
1657721982.02437,199049.6927839,76
1657721982.02437,199049.6927961,81
1657721982.02437,199049.6928022,81
1657721982.02437,199049.6928068,76
1657721982.02437,199049.6928125,74
1657721982.02437,199049.6928192,78
1657721982.02437,199049.6928251,76
1657721982.02437,199049.6928298,69
1657721982.02437,199049.6928335,66
1657721982.02437,199049.6928388,69
1657721982.02437,199049.6928423,69
1657721982.02437,199049.6928459,69
1657721982.02437,199049.6928497,71
1657721982.02437,199049.6928547,69
1657721982.02437,199049.692863,64
1657721982.02437,199049.6928741,69
1657721982.02437,199049.6928862,74
1657721982.02437,199049.692893,74
1657721982.02437,199049.6928967,74
1657721982.02437,199049.6928989,69
1657721982.02437,199049.6929011,64
1657721982.02437,199049.6929059,52
1657721982.02437,199049.6929171,43
1657721982.02437,199049.6929226,57
1657721982.02437,199049.6929248,71
1657721982.02437,199049.6929267,81
1657721982.02437,199049.6929292,107
1657721982.02437,199049.6929322,131
1657721982.02437,199049.692945,122
1657721982.02437,199049.692951,95
1657721982.02437,199049.6929531,86
1657721982.02437,199049.6929554,93
1657721982.02437,199049.6929575,95
1657721982.02437,199049.6929603,93
1657721982.02437,199049.6929709,98
1657721982.02437,199049.6929782,95
1657721982.02437,199049.6929807,98
1657721982.02437,199049.6929829,198
1657721982.02437,199049.6929851,454
1657721982.02437,199049.6929872,748
1657721982.02437,199049.6929925,653
1657721982.02437,199049.6930038,-62
1657721982.03434,199050.229248,-535
1657721982.03434,199050.229269,-217
1657721982.03434,199050.2292788,52
1657721982.03434,199050.2292896,-14
1657721982.03434,199050.229298,21
1657721982.03434,199050.2293064,86
1657721982.03434,199050.2293138,52
1657721982.03434,199050.2293206,47
1657721982.03434,199050.2293314,64
1657721982.03434,199050.2293439,43
1657721982.03434,199050.2293563,33
1657721982.03434,199050.229362,50
1657721982.03434,199050.2293642,57
1657721982.03434,199050.2293672,50
1657721982.03434,199050.2293694,43
1657721982.03434,199050.2293715,31
1657721982.03434,199050.2293737,31
1657721982.03434,199050.2293758,43
1657721982.03434,199050.2293779,47
1657721982.03434,199050.2293799,47
1657721982.03434,199050.229382,52
1657721982.03434,199050.2293841,50
1657721982.03434,199050.2293864,35
1657721982.03434,199050.2293885,33
1657721982.55807,199050.2293906,40
1657721982.55807,199050.2293926,33
1657721982.55807,199050.2293946,26
1657721982.55807,199050.2293965,31
1657721982.55807,199050.2293984,26
1657721982.55807,199050.2294004,19
1657721982.55807,199050.2294024,21
1657721982.55807,199050.2294043,21
1657721982.55807,199050.2294063,21
1657721982.55807,199050.2294082,31
1657721982.55807,199050.2294102,45
1657721982.55807,199050.2294121,52
1657721982.55807,199050.2294141,66
1657721982.55807,199050.2294171,76
1657721982.55807,199050.2294192,74
1657721982.55807,199050.2294213,69
1657721982.55807,199050.2294234,71
1657721982.55807,199050.2294255,71
1657721982.55807,199050.2294276,71
1657721982.55807,199050.2294298,76
1657721982.55807,199050.2294319,76
1657721982.55807,199050.229434,78
1657721982.55807,199050.2294361,83
1657721982.55807,199050.2294383,88
1657721982.55807,199050.2294408,90
1657721982.55807,199050.2294451,93
1657721982.55807,199050.229451,95
1657721982.55807,199050.229454,98
1657721982.55807,199050.2294571,105
1657721982.55807,199050.229461,110
1657721982.55807,199050.2294667,110
1657721982.55807,199050.2294697,112
1657721982.55807,199050.2294727,112
1657721982.55807,199050.2294757,107
1657721982.55807,199050.2294787,102
1657721982.55807,199050.2294817,107
1657721982.55807,199050.2294846,112
1657721982.55807,199050.2294876,107
1657721982.55807,199050.2294906,102
1657721982.55807,199050.2294936,105
1657721982.55807,199050.2294965,110
1657721982.55807,199050.2294995,110
1657721982.55807,199050.2295025,102
1657721982.55807,199050.2295054,100
1657721982.55807,199050.2295084,102
1657721982.55807,199050.2295113,107
1657721982.55807,199050.2295143,110
1657721982.55807,199050.2295172,107
1657721982.55807,199050.2295202,107
1657721982.55807,199050.7644451,107
1657721982.56805,199050.7644608,107
1657721982.56805,199050.7644655,110
1657721982.56805,199050.7644695,112
1657721982.56805,199050.7644733,114
1657721982.56805,199050.7644771,114
1657721982.56805,199050.7644808,107
1657721982.56805,199050.7644846,95
1657721982.56805,199050.7644883,78
1657721982.56805,199050.7644922,71
1657721982.56805,199050.7644958,74
1657721982.56805,199050.7644994,81
1657721982.56805,199050.7645029,90
1657721982.56805,199050.7645065,102
1657721982.56805,199050.7645216,126
1657721982.56805,199050.7645265,141
1657721982.56805,199050.7645301,105
1657721982.56805,199050.7645337,64
1657721982.56805,199050.7645373,57
1657721982.56805,199050.764541,59
1657721982.56805,199050.7645445,55
1657721982.56805,199050.7645486,57
1657721982.56805,199050.7645521,64
1657721982.56805,199050.7645556,64
1657721982.56805,199050.7645597,71
1657721983.0914,199050.7645635,179
1657721983.0914,199050.7645672,456
1657721983.0914,199050.7645705,729
1657721983.0914,199050.7645737,483
1657721983.0914,199050.7645771,-289
1657721983.0914,199050.7645806,-567
1657721983.0914,199050.7645861,-181
1657721983.0914,199050.7645933,-7
1657721983.0914,199050.7645993,-50
1657721983.0914,199050.7646031,33
1657721983.0914,199050.7646072,74
1657721983.0914,199050.764611,35
1657721983.0914,199050.7646146,47
1657721983.0914,199050.7646184,62
1657721983.0914,199050.7646218,50
1657721983.0914,199050.7646253,55
1657721983.0914,199050.7646289,59
1657721983.0914,199050.7646325,55
1657721983.0914,199050.7646362,57
1657721983.0914,199050.7646399,55
1657721983.0914,199050.7646434,55
1657721983.0914,199050.7646469,59
1657721983.0914,199050.7646504,64
1657721983.0914,199050.7646539,62
1657721983.0914,199050.7646576,57
1657721983.0914,199050.7646612,62
1657721983.0914,199050.7646648,66
1657721983.0914,199050.7646682,66
1657721983.0914,199050.7646718,69
1657721983.0914,199050.7646758,76
1657721983.0914,199050.7646793,76
1657721983.0914,199050.7646829,74
1657721983.0914,199050.7646863,74
1657721983.0914,199050.7646899,74
1657721983.0914,199050.7646976,69
1657721983.0914,199050.7647036,69
1657721983.0914,199050.7647081,69
1657721983.0914,199050.7647122,66
1657721983.0914,199050.7647164,69
1657721983.0914,199050.7647207,76
1657721983.0914,199050.7647253,81
1657721983.0914,199050.7647298,88
1657721983.0914,199050.7647343,93
1657721983.0914,199050.7647497,95
1657721983.0914,199050.7647563,93
1657721983.0914,199050.764762,88
1657721983.0914,199050.7647668,83
1657721983.0914,199050.7647739,76
1657721983.0914,199051.301614,66
1657721983.0914,199051.3016307,66
1657721983.10138,199051.3016358,76
1657721983.10138,199051.3016393,78
1657721983.10138,199051.3016432,78
1657721983.10138,199051.3016468,83
1657721983.10138,199051.3016505,86
1657721983.10138,199051.3016542,86
1657721983.10138,199051.301658,83
1657721983.10138,199051.3016615,71
1657721983.10138,199051.3016651,62
1657721983.10138,199051.3016686,66
1657721983.10138,199051.3016723,74
1657721983.10138,199051.3016758,71
1657721983.10138,199051.3016794,74
1657721983.10138,199051.3016829,69
1657721983.10138,199051.3016865,55
1657721983.10138,199051.30169,55
1657721983.10138,199051.3016939,64
1657721983.10138,199051.3016974,66
1657721983.10138,199051.301701,66
1657721983.10138,199051.3017045,64
1657721983.10138,199051.301708,64
1657721983.10138,199051.3017118,66
1657721983.10138,199051.3017154,64
1657721983.10138,199051.3017191,59
1657721983.73423,199051.3017226,69
1657721983.73423,199051.3017315,78
1657721983.73423,199051.3017369,74
1657721983.73423,199051.3017408,69
1657721983.73423,199051.3017446,74
1657721983.73423,199051.3017483,76
1657721983.73423,199051.301752,78
1657721983.73423,199051.3017557,83
1657721983.73423,199051.3017592,88
1657721983.73423,199051.3017628,86
1657721983.73423,199051.3017666,83
1657721983.73423,199051.3017702,86
1657721983.73423,199051.3017738,83
1657721983.73423,199051.3017773,74
1657721983.73423,199051.3017808,66
1657721983.73423,199051.3017846,62
1657721983.73423,199051.3017882,69
1657721983.73423,199051.3017919,98
1657721983.73423,199051.3017958,126
1657721983.73423,199051.3017993,148
1657721983.73423,199051.301803,148
1657721983.73423,199051.3018068,129
1657721983.73423,199051.3018104,102
1657721983.73423,199051.301814,86
1657721983.73423,199051.3018175,90
1657721983.73423,199051.301821,105
1657721983.73423,199051.3018247,100
1657721983.73423,199051.3018284,86
1657721983.73423,199051.3018347,81
1657721983.73423,199051.3018383,107
1657721983.73423,199051.3018419,232
1657721983.73423,199051.3018455,509
1657721983.73423,199051.3018492,739
1657721983.73423,199051.3018529,406
1657721983.73423,199051.3018566,-344
1657721983.73423,199051.3018602,-512
1657721983.73423,199051.3018661,-114
1657721983.73423,199051.3018713,14
1657721983.73423,199051.3018751,-14
1657721983.73423,199051.3018789,71
1657721983.73423,199051.3018864,78
1657721983.73423,199051.3018902,43
1657721983.73423,199051.301894,76
1657721983.73423,199051.3018977,90
1657721983.73423,199051.3019016,69
1657721983.73423,199051.3019053,71
1657721983.73423,199051.301909,74
1657721983.73423,199051.9359495,66
1657721983.73423,199051.9359905,62
1657721983.73423,199051.9359932,62
1657721983.74621,199051.9359952,66
1657721983.74621,199051.9359972,71
1657721983.74621,199051.9359991,66
1657721983.74621,199051.9360026,52
1657721983.74621,199051.9360047,47
1657721983.74621,199051.9360067,55
1657721983.74621,199051.9360086,57
1657721983.74621,199051.9360106,62
1657721983.74621,199051.9360125,64
1657721983.74621,199051.9360145,52
1657721983.74621,199051.9360165,40
1657721983.74621,199051.9360186,45
1657721983.74621,199051.9360205,52
1657721983.74621,199051.9360225,55
1657721983.74621,199051.9360245,57
1657721983.74621,199051.9360274,55
1657721983.74621,199051.9360366,43
1657721983.74621,199051.9360469,50
1657721983.74621,199051.936051,62
1657721983.74621,199051.9360537,59
1657721983.74621,199051.9360559,64
1657721983.74621,199051.936058,69
1657721983.74621,199051.9360611,62
1657721983.74621,199051.9360744,66
1657721984.31225,199051.9360803,69
1657721984.31225,199051.9360826,52

1657721984.31225,199051.9360847,52
1657721984.31225,199051.9360867,59
1657721984.31225,199051.9360887,47
1657721984.31225,199051.9360907,45
1657721984.31225,199051.9360937,59
1657721984.31225,199051.9361054,66
1657721984.31225,199051.9361132,66
1657721984.31225,199051.9361157,71
1657721984.31225,199051.9361179,83
1657721984.31225,199051.93612,88
1657721984.31225,199051.9361279,81
1657721984.31225,199051.9361385,88
1657721984.31225,199051.936142,110
1657721984.31225,199051.936145,105
1657721984.31225,199051.9361481,98
1657721984.31225,199051.9361577,107
1657721984.31225,199051.9361669,119
1657721984.31225,199051.9361695,112
1657721984.31225,199051.9361716,100
1657721984.31225,199051.9361738,107
1657721984.31225,199051.9361767,112
1657721984.31225,199051.9361903,105
1657721984.31225,199051.936202,105
1657721984.31225,199051.9362091,110
1657721984.31225,199051.9362228,107
1657721984.31225,199051.9362349,102
1657721984.31225,199051.9362472,107
1657721984.31225,199051.9362539,112
1657721984.31225,199051.9362573,105
1657721984.31225,199051.9362605,93
1657721984.31225,199051.9362703,86
1657721984.31225,199051.9362824,86
1657721984.31225,199051.9362881,86
1657721984.31225,199051.9362961,83
1657721984.31225,199051.9363111,81
1657721984.31225,199051.936319,81
1657721984.31225,199051.9363263,83
1657721984.31225,199051.9363348,86
1657721984.31225,199051.9363395,86
1657721984.31225,199051.9363438,86
1657721984.31225,199051.9363493,88
1657721984.31225,199051.9363546,78
1657721984.31225,199051.9363647,66
1657721984.31225,199051.9363681,71
1657721984.31225,199052.519398,78
1657721984.31225,199052.5194187,98
1657721984.31225,199052.5194278,124
1657721984.31225,199052.5194319,129
1657721984.32322,199052.5194424,122
1657721984.32322,199052.5194507,110
1657721984.32322,199052.5194591,88
1657721984.32322,199052.5194659,76
1657721984.32322,199052.5194735,83
1657721984.32322,199052.5194814,69
1657721984.32322,199052.5194935,52
1657721984.32322,199052.5195016,62
1657721984.32322,199052.5195063,64
1657721984.32322,199052.5195114,74
1657721984.32322,199052.5195166,215
1657721984.32322,199052.5195241,488
1657721984.32322,199052.5195312,631
1657721984.32322,199052.5195373,212
1657721984.32322,199052.5195466,-449
1657721984.32322,199052.5195552,-485
1657721984.32322,199052.5195619,-129
1657721984.32322,199052.5195702,-52
1657721984.32322,199052.5195782,-52
1657721984.32322,199052.5195833,40
1657721984.32322,199052.519592,52
1657721984.32322,199052.5196005,19
1657721984.32322,199052.5196054,35
1657721984.32322,199052.519613,47
1657721984.79955,199052.5196217,35
1657721984.79955,199052.5196279,33
1657721984.79955,199052.5196326,35
1657721984.79955,199052.5196386,35
1657721984.79955,199052.5196454,43
1657721984.79955,199052.5196512,47
1657721984.79955,199052.5196564,47
1657721984.79955,199052.519662,52
1657721984.79955,199052.5196721,55
1657721984.79955,199052.5197257,55
1657721984.79955,199052.519736,64
1657721984.79955,199052.5197415,69
1657721984.79955,199052.5197464,66
1657721984.79955,199052.519751,69
1657721984.79955,199052.5197552,71
1657721984.79955,199052.5197596,74
1657721984.79955,199052.5197641,78
1657721984.79955,199052.5197684,86
1657721984.79955,199052.5197727,88
1657721984.79955,199052.5197773,88
1657721984.79955,199052.5197817,88
1657721984.79955,199052.5197861,95
1657721984.79955,199052.5197903,93
1657721984.79955,199052.5197948,83
1657721984.79955,199052.5198287,71
1657721984.79955,199052.5198349,64
1657721984.79955,199052.519839,62
1657721984.79955,199052.5198431,62
1657721984.79955,199052.519847,59
1657721984.79955,199052.5198508,52
1657721984.79955,199052.5198547,45
1657721984.79955,199052.5198585,43
1657721984.79955,199052.5198626,40
1657721984.79955,199052.5198665,35
1657721984.79955,199052.5198704,38
1657721984.79955,199052.5198743,43
1657721984.79955,199052.5198783,45
1657721984.79955,199052.519882,50
1657721984.79955,199052.519886,57
1657721984.79955,199052.5198901,59
1657721984.79955,199052.5198941,69
1657721984.79955,199052.519898,78
1657721984.79955,199052.5199017,81
1657721984.79955,199052.5199055,81
1657721984.79955,199052.5199096,83
1657721984.79955,199053.0066841,83
1657721984.79955,199053.0066973,90
1657721984.79955,199053.0067001,98
1657721984.79955,199053.0067027,95
1657721984.79955,199053.0067052,88
1657721984.81107,199053.0067074,83
1657721984.81107,199053.0067098,66
1657721984.81107,199053.0067121,59
1657721984.81107,199053.0067144,74
1657721984.81107,199053.0067167,81
1657721984.81107,199053.0067191,81
1657721984.81107,199053.0067216,83
1657721984.81107,199053.0067251,81
1657721984.81107,199053.0067366,76
1657721984.81107,199053.0067441,78
1657721984.81107,199053.0067499,83
1657721984.81107,199053.0067565,88
1657721984.81107,199053.0067638,88
1657721984.81107,199053.0067727,86
1657721984.81107,199053.0067801,90
1657721984.81107,199053.0067883,88
1657721984.81107,199053.0068028,76
1657721984.81107,199053.0068109,88
1657721984.81107,199053.0068144,98
1657721984.81107,199053.0068166,69
1657721984.81107,199053.0068202,55
1657721984.81107,199053.0068331,81
1657721984.81107,199053.0068389,93
1657721984.81107,199053.0068412,105
1657721985.43395,199053.0068434,141
1657721985.43395,199053.0068458,160
1657721985.43395,199053.0068534,153
1657721985.43395,199053.0068623,133
1657721985.43395,199053.0068655,105
1657721985.43395,199053.0068676,95
1657721985.43395,199053.0068702,117
1657721985.43395,199053.006879,131
1657721985.43395,199053.0068878,122
1657721985.43395,199053.0068924,112
1657721985.43395,199053.0068946,117
1657721985.43395,199053.0068976,162
1657721985.43395,199053.0069082,313
1657721985.43395,199053.0069158,607
1657721985.43395,199053.0069184,765
1657721985.43395,199053.0069205,248
1657721985.43395,199053.0069227,-512
1657721985.43395,199053.0069249,-476
1657721985.43395,199053.0069282,-66
1657721985.43395,199053.006941,-33
1657721985.43395,199053.0069474,-21
1657721985.43395,199053.0069499,117
1657721985.43395,199053.006952,117
1657721985.43395,199053.0069541,69
1657721985.43395,199053.0069567,98
1657721985.43395,199053.0069666,117
1657721985.43395,199053.0069755,100
1657721985.43395,199053.0069781,88
1657721985.43395,199053.0069803,90
1657721985.43395,199053.0069825,95
1657721985.43395,199053.0070031,98
1657721985.43395,199053.0070095,90
1657721985.43395,199053.0070143,88
1657721985.43395,199053.0070202,93
1657721985.43395,199053.0070238,93
1657721985.43395,199053.0070272,86
1657721985.43395,199053.007031,86
1657721985.43395,199053.0070369,90
1657721985.43395,199053.0070407,90
1657721985.43395,199053.0070445,90
1657721985.43395,199053.0070495,88
1657721985.43395,199053.0070572,93
1657721985.43395,199053.0070611,102
1657721985.43395,199053.0070664,102
1657721985.43395,199053.641018,98
1657721985.43395,199053.6410374,95
1657721985.43395,199053.6410483,90
1657721985.43395,199053.6410557,71
1657721985.43395,199053.6410624,62
1657721985.43395,199053.6410678,66
1657721985.44492,199053.6410744,66
1657721985.44492,199053.6410811,66
1657721985.44492,199053.641088,59
1657721985.44492,199053.6410948,50
1657721985.44492,199053.6411012,43
1657721985.44492,199053.6411082,45
1657721985.44492,199053.6411138,47
1657721985.44492,199053.6411204,33
1657721985.44492,199053.6411272,21
1657721985.44492,199053.6411329,14
1657721985.44492,199053.6411402,0
1657721985.44492,199053.64115,7
1657721985.44492,199053.6411608,28
1657721985.44492,199053.6411685,33
1657721985.44492,199053.641176,31
1657721985.44492,199053.6411854,28
1657721985.44492,199053.641196,40
1657721985.44492,199053.6412039,55
1657721985.44492,199053.6412154,62
1657721985.44492,199053.6412235,64
1657721985.44492,199053.641228,66
1657721985.44492,199053.6412339,69
1657721985.44492,199053.6412379,71
1657721985.44492,199053.641242,62
1657721985.97192,199053.641246,66
1657721985.97192,199053.6412499,86
1657721985.97192,199053.6412537,83
1657721985.97192,199053.6412575,81
1657721985.97192,199053.6412613,90
1657721985.97192,199053.6412651,81
1657721985.97192,199053.6412689,52
1657721985.97192,199053.6412727,33
1657721985.97192,199053.6412765,43
1657721985.97192,199053.6412804,57
1657721985.97192,199053.6412841,52
1657721985.97192,199053.6412879,50
1657721985.97192,199053.6412916,57
1657721985.97192,199053.6412953,64
1657721985.97192,199053.6412991,71
1657721985.97192,199053.6413028,59
1657721985.97192,199053.6413066,31
1657721985.97192,199053.6413103,31
1657721985.97192,199053.641314,50
1657721985.97192,199053.6413177,55
1657721985.97192,199053.6413214,62
1657721985.97192,199053.6413254,98
1657721985.97192,199053.641329,124
1657721985.97192,199053.6413327,114
1657721985.97192,199053.6413366,95
1657721985.97192,199053.6413403,81
1657721985.97192,199053.641344,83
1657721985.97192,199053.6413477,93
1657721985.97192,199053.6413514,88
1657721985.97192,199053.6413551,90
1657721985.97192,199053.641359,100
1657721985.97192,199053.6413626,93
1657721985.97192,199053.6413665,124
1657721985.97192,199053.6413702,287
1657721985.97192,199053.6413742,583
1657721985.97192,199053.641378,823
1657721985.97192,199053.6413818,485
1657721985.97192,199053.6413883,-306
1657721985.97192,199053.6413924,-468
1657721985.97192,199053.6414471,-50
1657721985.97192,199053.6414544,52
1657721985.97192,199053.6414586,-14
1657721985.97192,199053.6414622,62
1657721985.97192,199054.1770371,74
1657721985.97192,199054.177051,23
1657721985.97192,199054.1770544,50
1657721985.97192,199054.1770574,83
1657721985.97192,199054.1770602,69
1657721985.97192,199054.1770627,62
1657721985.97192,199054.1770652,76
1657721985.98688,199054.1770677,74
1657721985.98688,199054.1770702,66
1657721985.98688,199054.1770727,71
1657721985.98688,199054.1770752,78
1657721985.98688,199054.1770775,74
1657721985.98688,199054.1770803,59
1657721985.98688,199054.1770874,52
1657721985.98688,199054.1770988,57
1657721985.98688,199054.1771042,59
1657721985.98688,199054.1771063,59
1657721985.98688,199054.1771086,59
1657721985.98688,199054.1771108,50
1657721985.98688,199054.177113,28
1657721985.98688,199054.1771159,26
1657721985.98688,199054.1771263,33
1657721985.98688,199054.1771344,31
1657721985.98688,199054.1771371,26
1657721985.98688,199054.1771394,23
1657721985.98688,199054.1771416,16
1657721985.98688,199054.1771437,9
1657721985.98688,199054.1771458,11
1657721985.98688,199054.1771536,19
1657721985.98688,199054.1771643,23
1657721985.98688,199054.1771678,33
1657721986.46222,199054.1771717,38
1657721986.46222,199054.1771738,40
1657721986.46222,199054.1771759,43
1657721986.46222,199054.1771779,43
1657721986.46222,199054.1771799,40
1657721986.46222,199054.1771819,40
1657721986.46222,199054.1771839,35
1657721986.46222,199054.1771859,35
1657721986.46222,199054.1771878,45
1657721986.46222,199054.1771898,52
1657721986.46222,199054.1771918,55
1657721986.46222,199054.1771938,59
1657721986.46222,199054.1771959,57
1657721986.46222,199054.1771979,52
1657721986.46222,199054.1771999,59
1657721986.46222,199054.1772019,66
1657721986.46222,199054.1772038,74
1657721986.46222,199054.1772058,81
1657721986.46222,199054.1772078,86
1657721986.46222,199054.1772097,86
1657721986.46222,199054.1772117,88
1657721986.46222,199054.1772146,90
1657721986.46222,199054.1772169,90
1657721986.46222,199054.1772212,90
1657721986.46222,199054.1772234,100
1657721986.46222,199054.1772255,100
1657721986.46222,199054.1772278,95
1657721986.46222,199054.17723,95
1657721986.46222,199054.1772321,95
1657721986.46222,199054.1772344,93
1657721986.46222,199054.1772365,90
1657721986.46222,199054.1772387,88
1657721986.46222,199054.1772408,90
1657721986.46222,199054.177243,102
1657721986.46222,199054.1772451,107
1657721986.46222,199054.1772472,105
1657721986.46222,199054.1772494,102
1657721986.46222,199054.1772515,107
1657721986.46222,199054.1772537,100
1657721986.46222,199054.1772559,81
1657721986.46222,199054.177258,74
1657721986.46222,199054.1772602,76
1657721986.46222,199054.6658493,76
1657721986.46222,199054.665917,83
1657721986.46222,199054.6659234,105
1657721986.46222,199054.66593,126
1657721986.46222,199054.6659364,143
1657721986.46222,199054.6659407,157
1657721986.46222,199054.665945,145
1657721986.46222,199054.6659494,110
1657721986.47319,199054.6659539,98
1657721986.47319,199054.6659582,98
1657721986.47319,199054.6659622,86
1657721986.47319,199054.6659661,81
1657721986.47319,199054.6659701,90
1657721986.47319,199054.6659738,88
1657721986.47319,199054.6659777,95
1657721986.47319,199054.6659816,224
1657721986.47319,199054.6659856,526
1657721986.47319,199054.6659895,758
1657721986.47319,199054.665994,387
1657721986.47319,199054.6660029,-394
1657721986.47319,199054.6660152,-528
1657721986.47319,199054.6660212,-124
1657721986.47319,199054.6660259,-43
1657721986.47319,199054.6660306,-88
1657721986.47319,199054.6660366,21
1657721986.47319,199054.666043,47
1657721986.47319,199054.6660495,9
1657721986.47319,199054.6660545,31
1657721986.47319,199054.66606,38
1657721986.47319,199054.666064,26
1657721986.47319,199054.66607,33
1657721986.47319,199054.6660749,33
1657721987.14379,199054.6660785,31
1657721987.14379,199054.666082,28
1657721987.14379,199054.6660856,2
1657721987.14379,199054.6660894,2
1657721987.14379,199054.6660932,21
1657721987.14379,199054.6660969,16
1657721987.14379,199054.6661013,14
1657721987.14379,199054.6661053,31
1657721987.14379,199054.6661092,33
1657721987.14379,199054.6661131,26
1657721987.14379,199054.6661188,35
1657721987.14379,199054.6661229,50
1657721987.14379,199054.6661265,55
1657721987.14379,199054.6661302,52
1657721987.14379,199054.666135,55
1657721987.14379,199054.6661384,59
1657721987.14379,199054.6661423,59
1657721987.14379,199054.666148,55
1657721987.14379,199054.6661519,50
1657721987.14379,199054.6661571,45
1657721987.14379,199054.666166,40
1657721987.14379,199054.6661721,43
1657721987.14379,199054.6661772,50
1657721987.14379,199054.6661828,59
1657721987.14379,199054.6661863,62
1657721987.14379,199054.6661913,62
1657721987.14379,199054.6661951,62
1657721987.14379,199054.6662007,52
1657721987.14379,199054.6662043,40
1657721987.14379,199054.666208,43
1657721987.14379,199054.6662115,55
1657721987.14379,199054.6662167,69
1657721987.14379,199054.6662213,81
1657721987.14379,199054.6662266,81
1657721987.14379,199054.6662306,59
1657721987.14379,199054.666234,45
1657721987.14379,199054.6662378,66
1657721987.14379,199054.6662501,102
1657721987.14379,199054.6662544,102
1657721987.14379,199054.6662578,86
1657721987.14379,199054.6662612,83
1657721987.14379,199055.3470274,93
1657721987.14379,199055.3470403,112
1657721987.14379,199055.3470465,129
1657721987.14379,199055.3470492,129
1657721987.14379,199055.3470517,126
1657721987.14379,199055.3470541,129
1657721987.14379,199055.3470564,107
1657721987.14379,199055.3470587,86
1657721987.14379,199055.3470611,102
1657721987.15576,199055.3470633,117
1657721987.15576,199055.3470668,98
1657721987.15576,199055.3470756,93
1657721987.15576,199055.3470831,102
1657721987.15576,199055.3470896,88
1657721987.15576,199055.3471017,81
1657721987.15576,199055.3471118,100
1657721987.15576,199055.3471167,95
1657721987.15576,199055.3471216,71
1657721987.15576,199055.3471259,66
1657721987.15576,199055.3471302,64
1657721987.15576,199055.3471345,62
1657721987.15576,199055.3471384,71
1657721987.15576,199055.3471421,83
1657721987.15576,199055.3471459,78
1657721987.15576,199055.34715,69
1657721987.15576,199055.347154,66
1657721987.15576,199055.347158,81
1657721987.15576,199055.3471621,110
1657721987.15576,199055.3471669,138
1657721987.15576,199055.3471711,143
1657721987.15576,199055.3471752,136
1657721987.15576,199055.3471794,129
1657721987.15576,199055.3471838,110
1657721987.58359,199055.3471875,100
1657721987.58359,199055.347191,100
1657721987.58359,199055.3471944,100
1657721987.58359,199055.3471977,105
1657721987.58359,199055.3472011,112
1657721987.58359,199055.3472047,107
1657721987.58359,199055.3472084,122
1657721987.58359,199055.3472121,248
1657721987.58359,199055.3472183,514
1657721987.58359,199055.3472221,691
1657721987.58359,199055.3472257,325
1657721987.58359,199055.34723,-389
1657721987.58359,199055.3472337,-497
1657721987.58359,199055.3472372,-110
1657721987.58359,199055.3472404,-2
1657721987.58359,199055.3472447,-21
1657721987.58359,199055.3472479,86
1657721987.58359,199055.3472512,114
1657721987.58359,199055.3472546,66
1657721987.58359,199055.3472583,64
1657721987.58359,199055.3472618,83
1657721987.58359,199055.3472654,98
1657721987.58359,199055.3472692,110
1657721987.58359,199055.3472728,107
1657721987.58359,199055.3472763,98
1657721987.58359,199055.3472799,110
1657721987.58359,199055.3472838,126
1657721987.58359,199055.3472878,110
1657721987.58359,199055.3472939,88
1657721987.58359,199055.3472979,102
1657721987.58359,199055.3473034,114
1657721987.58359,199055.3473074,110
1657721987.58359,199055.3473133,114
1657721987.58359,199055.3473188,129
1657721987.58359,199055.3473229,119
1657721987.58359,199055.3473281,95
1657721987.58359,199055.3473318,105
1657721987.58359,199055.3473367,136
1657721987.58359,199055.3473402,126
1657721987.58359,199055.3473455,98
1657721987.58359,199055.7865632,98
1657721987.58359,199055.7866305,105
1657721987.58359,199055.7866356,98
1657721987.58359,199055.7867075,102
1657721987.58359,199055.7867136,112
1657721987.58359,199055.7867174,95
1657721987.58359,199055.7867224,76
1657721987.58359,199055.7867259,78
1657721987.58359,199055.7867308,69
1657721987.58359,199055.7867344,45
1657721987.59456,199055.7867393,31
1657721987.59456,199055.7867428,28
1657721987.59456,199055.7867479,31
1657721987.59456,199055.7867515,28
1657721987.59456,199055.7867563,28
1657721987.59456,199055.7867598,19
1657721987.59456,199055.7867643,11
1657721987.59456,199055.7867677,19
1657721987.59456,199055.7867722,31
1657721987.59456,199055.7867752,38
1657721987.59456,199055.7867831,45
1657721987.59456,199055.7867949,50
1657721987.59456,199055.7868006,50
1657721987.59456,199055.7868043,62
1657721987.59456,199055.7868077,74
1657721987.59456,199055.7868174,64
1657721987.59456,199055.7868295,55
1657721987.59456,199055.7868364,64
1657721987.59456,199055.7868418,62
1657721987.59456,199055.7868487,57
1657721987.59456,199055.7868554,66
1657721987.59456,199055.7868604,69
1657721987.59456,199055.7868714,64
1657721987.59456,199055.7868843,66
1657721988.16504,199055.7869713,66
1657721988.16504,199055.7869893,62
1657721988.16504,199055.7869987,59
1657721988.16504,199055.7870063,57
1657721988.16504,199055.7870117,57
1657721988.16504,199055.7870171,69
1657721988.16504,199055.7870244,71
1657721988.16504,199055.7870298,59
1657721988.16504,199055.7870357,57
1657721988.16504,199055.7870414,69
1657721988.16504,199055.7870451,83
1657721988.16504,199055.787125,93
1657721988.16504,199055.7871356,95
1657721988.16504,199055.7871392,88
1657721988.16504,199055.7871425,88
1657721988.16504,199055.7871458,98
1657721988.16504,199055.7871493,95
1657721988.16504,199055.7871529,81
1657721988.16504,199055.7871564,76
1657721988.16504,199055.7871596,78
1657721988.16504,199055.787163,88
1657721988.16504,199055.7871664,117
1657721988.16504,199055.7871701,150
1657721988.16504,199055.7871749,162
1657721988.16504,199055.7871805,165
1657721988.16504,199055.7871847,153
1657721988.16504,199055.7871893,122
1657721988.16504,199055.7871947,110
1657721988.16504,199055.7872,129
1657721988.16504,199055.7872028,131
1657721988.16504,199055.7872064,112
1657721988.16504,199055.7872097,110
1657721988.16504,199055.7872147,112
1657721988.16504,199055.7872179,141
1657721988.16504,199055.7872212,282
1657721988.16504,199055.7872242,574
1657721988.16504,199055.7872272,758
1657721988.16504,199055.7872301,334
1657721988.16504,199055.7872331,-421
1657721988.16504,199056.3713984,-507
1657721988.16504,199056.3714108,-119
1657721988.16504,199056.3714169,-28
1657721988.16504,199056.3714217,-26
1657721988.16504,199056.3714242,98
1657721988.16504,199056.3714266,110
1657721988.16504,199056.371429,52
1657721988.16504,199056.3714314,76
1657721988.16504,199056.3714336,95
1657721988.16504,199056.371436,81
1657721988.16504,199056.3714383,88
1657721988.178,199056.3714406,100
1657721988.178,199056.371443,83
1657721988.178,199056.3714453,78
1657721988.178,199056.3714492,93
1657721988.178,199056.3714563,93
1657721988.178,199056.3714623,86
1657721988.178,199056.3714662,95
1657721988.178,199056.3714683,107
1657721988.178,199056.3714712,107
1657721988.178,199056.3714733,107
1657721988.178,199056.3714753,105
1657721988.178,199056.3714798,98
1657721988.178,199056.3714818,100
1657721988.178,199056.3714839,100
1657721988.178,199056.3714861,100
1657721988.178,199056.371489,105
1657721988.178,199056.3715019,102
1657721988.178,199056.3715088,93
1657721988.178,199056.3715161,95
1657721988.178,199056.3715217,100
1657721988.178,199056.3715261,98
1657721988.178,199056.3715305,86
1657721988.178,199056.3715344,81
1657721988.178,199056.3715398,93
1657721988.8001,199056.3715477,100
1657721988.8001,199056.3715521,100
1657721988.8001,199056.3715591,93
1657721988.8001,199056.3715662,74
1657721988.8001,199056.3715732,69
1657721988.8001,199056.3715794,81
1657721988.8001,199056.3715842,78
1657721988.8001,199056.3715889,66
1657721988.8001,199056.3715934,66
1657721988.8001,199056.3715967,66
1657721988.8001,199056.3716001,59
1657721988.8001,199056.3716032,66
1657721988.8001,199056.3716066,78
1657721988.8001,199056.3716102,81
1657721988.8001,199056.3716134,83
1657721988.8001,199056.3716167,90
1657721988.8001,199056.3716224,95
1657721988.8001,199056.3716276,98
1657721988.8001,199056.3716408,105
1657721988.8001,199056.3716506,110
1657721988.8001,199056.3716553,107
1657721988.8001,199056.3716594,100
1657721988.8001,199056.3716663,100
1657721988.8001,199056.3716709,105
1657721988.8001,199056.3716768,107
1657721988.8001,199056.3716807,107
1657721988.8001,199056.3716904,107
1657721988.8001,199056.3716985,107
1657721988.8001,199056.3717036,102
1657721988.8001,199056.3717172,90
1657721988.8001,199056.3717233,78
1657721988.8001,199056.3717256,78
1657721988.8001,199056.3717277,88
1657721988.8001,199056.3717298,90
1657721988.8001,199056.3717319,83
1657721988.8001,199056.3717353,86
1657721988.8001,199056.371748,88
1657721988.8001,199056.3717538,86
1657721988.8001,199057.0050822,86
1657721988.8001,199057.0050962,90
1657721988.8001,199057.0051018,90
1657721988.8001,199057.0051055,88
1657721988.8001,199057.0051094,88
1657721988.8001,199057.005113,86
1657721988.8001,199057.0051196,78
1657721988.8001,199057.0051261,76
1657721988.8001,199057.0051327,78
1657721988.8001,199057.0051392,83
1657721988.8001,199057.0051485,100
1657721988.8001,199057.0051551,129
1657721988.80808,199057.0051639,138
1657721988.80808,199057.0051725,124
1657721988.80808,199057.0051812,88
1657721988.80808,199057.0051901,57
1657721988.80808,199057.0051953,59
1657721988.80808,199057.0051998,69
1657721988.80808,199057.0052049,62
1657721988.80808,199057.0052109,62
1657721988.80808,199057.0052183,71
1657721988.80808,199057.0052234,83
1657721988.80808,199057.0052354,191
1657721988.80808,199057.0052447,473
1657721988.80808,199057.005258,748
1657721988.80808,199057.0052659,497
1657721988.80808,199057.0052714,-275
1657721988.80808,199057.0052764,-555
1657721988.80808,199057.0052837,-177
1657721988.80808,199057.0052933,-14
1657721988.80808,199057.0053047,-55
1657721988.80808,199057.0053177,43
1657721988.80808,199057.0053283,81
1657721988.80808,199057.0053323,31
1657721988.80808,199057.0053452,47
1657721988.80808,199057.0053567,74
1657721989.28648,199057.0053701,64
1657721989.28648,199057.0053784,69
1657721989.28648,199057.0053856,83
1657721989.28648,199057.0053928,78
1657721989.28648,199057.0053985,76
1657721989.28648,199057.0054027,81
1657721989.28648,199057.0054155,86
1657721989.28648,199057.0054235,90
1657721989.28648,199057.0054311,95
1657721989.28648,199057.0054349,83
1657721989.28648,199057.0054372,69
1657721989.28648,199057.0054394,78
1657721989.28648,199057.0054422,86
1657721989.28648,199057.0054443,83
1657721989.28648,199057.0054464,83
1657721989.28648,199057.0054485,88
1657721989.28648,199057.0054505,88
1657721989.28648,199057.0054532,81
1657721989.28648,199057.0054567,74
1657721989.28648,199057.0054662,69
1657721989.28648,199057.0054743,55
1657721989.28648,199057.0054872,38
1657721989.28648,199057.0054968,43
1657721989.28648,199057.0054994,52
1657721989.28648,199057.0055017,52
1657721989.28648,199057.0055039,50
1657721989.28648,199057.005506,50
1657721989.28648,199057.0055086,50
1657721989.28648,199057.0055107,55
1657721989.28648,199057.0055129,50
1657721989.28648,199057.005515,35
1657721989.28648,199057.0055171,31
1657721989.28648,199057.0055191,38
1657721989.28648,199057.0055212,38
1657721989.28648,199057.0055232,26
1657721989.28648,199057.0055257,21
1657721989.28648,199057.0055278,23
1657721989.28648,199057.4924581,19
1657721989.28648,199057.4924783,19
1657721989.28648,199057.492492,26
1657721989.28648,199057.4925053,33
1657721989.28648,199057.4925185,43
1657721989.28648,199057.4925284,40
1657721989.28648,199057.4925328,28
1657721989.28648,199057.4925411,35
1657721989.28648,199057.49255,57
1657721989.28648,199057.4925612,62
1657721989.28648,199057.4925742,55
1657721989.28648,199057.4925879,50
1657721989.28648,199057.4925995,47
1657721989.29946,199057.4926085,43
1657721989.29946,199057.4926174,47
1657721989.29946,199057.4926281,45
1657721989.29946,199057.4926359,45
1657721989.29946,199057.4926475,55
1657721989.29946,199057.4926612,55
1657721989.29946,199057.4926686,52
1657721989.29946,199057.4926719,55
1657721989.29946,199057.492685,57
1657721989.29946,199057.4926966,55
1657721989.29946,199057.4927083,55
1657721989.29946,199057.4927194,55
1657721989.29946,199057.4927342,40
1657721989.29946,199057.4927463,28
1657721989.29946,199057.4927573,43
1657721989.29946,199057.4927722,52
1657721989.29946,199057.4927838,55
1657721989.29946,199057.4927988,55
1657721989.29946,199057.4928129,50
1657721989.29946,199057.4928262,47
1657721989.29946,199057.4928399,59
1657721989.29946,199057.4928541,71
1657721989.29946,199057.4928621,66
1657721989.29946,199057.4928686,55
1657721989.9197,199057.4928734,45
1657721989.9197,199057.4928806,40
1657721989.9197,199057.4928877,55
1657721989.9197,199057.4928965,88
1657721989.9197,199057.4929047,107
1657721989.9197,199057.4929134,110
1657721989.9197,199057.492924,126
1657721989.9197,199057.4929307,126
1657721989.9197,199057.4929412,86
1657721989.9197,199057.492945,64
1657721989.9197,199057.4929495,81
1657721989.9197,199057.4929532,76
1657721989.9197,199057.4929569,50
1657721989.9197,199057.4929603,50
1657721989.9197,199057.4929638,50
1657721989.9197,199057.4929674,55
1657721989.9197,199057.4929708,179
1657721989.9197,199057.4929743,471
1657721989.9197,199057.4929777,715
1657721989.9197,199057.4929813,423
1657721989.9197,199057.4929847,-315
1657721989.9197,199057.4929881,-533
1657721989.9197,199057.4929915,-174
1657721989.9197,199057.4929951,-50
1657721989.9197,199057.4929984,-81
1657721989.9197,199057.4930027,26
1657721989.9197,199057.4930062,66
1657721989.9197,199057.4930097,19
1657721989.9197,199057.4930131,33
1657721989.9197,199057.4930165,66
1657721989.9197,199057.4930202,57
1657721989.9197,199057.4930237,40
1657721989.9197,199057.4930284,38
1657721989.9197,199057.4930321,38
1657721989.9197,199057.4930374,47
1657721989.9197,199057.4930409,45
1657721989.9197,199058.1262452,21
1657721989.9197,199058.1262638,35
1657721989.9197,199058.1262753,62
1657721989.9197,199058.126285,47
1657721989.9197,199058.1262925,43
1657721989.9197,199058.1263024,55
1657721989.9197,199058.1263091,55
1657721989.9197,199058.1263155,55
1657721989.9197,199058.126319,62
1657721989.9197,199058.1263251,52
1657721989.9197,199058.1263285,45
1657721989.9197,199058.1263418,55
1657721989.9197,199058.1263554,55
1657721989.9197,199058.1263629,57
1657721989.93266,199058.1263656,66
1657721989.93266,199058.1263677,52
1657721989.93266,199058.1263699,33
1657721989.93266,199058.126372,40
1657721989.93266,199058.1263741,47
1657721989.93266,199058.1263762,43
1657721989.93266,199058.126379,45
1657721989.93266,199058.1263896,43
1657721989.93266,199058.126397,38
1657721989.93266,199058.1263995,35
1657721989.93266,199058.1264016,26
1657721989.93266,199058.1264037,16
1657721989.93266,199058.1264058,16
1657721989.93266,199058.1264088,21
1657721989.93266,199058.1264214,21
1657721989.93266,199058.1264273,14
1657721989.93266,199058.1264295,11
1657721989.93266,199058.1264317,11
1657721989.93266,199058.1264338,9
1657721989.93266,199058.1264363,11
1657721989.93266,199058.1264453,23
1657721989.93266,199058.1264541,31
1657721989.93266,199058.1264592,28
1657721989.93266,199058.1264699,43
1657721990.45358,199058.1264769,64
1657721990.45358,199058.1264793,57
1657721990.45358,199058.1264813,52
1657721990.45358,199058.1264833,62
1657721990.45358,199058.1264852,52
1657721990.45358,199058.1264872,45
1657721990.45358,199058.1264892,59
1657721990.45358,199058.1264953,69
1657721990.45358,199058.1265024,71
1657721990.45358,199058.126507,74
1657721990.45358,199058.1265111,74
1657721990.45358,199058.1265165,71
1657721990.45358,199058.1265235,59
1657721990.45358,199058.1265317,59
1657721990.45358,199058.1265402,78
1657721990.45358,199058.1265436,74
1657721990.45358,199058.1265458,55
1657721990.45358,199058.126548,62
1657721990.45358,199058.1265501,78
1657721990.45358,199058.1265531,81
1657721990.45358,199058.1265636,76
1657721990.45358,199058.1265713,71
1657721990.45358,199058.1265738,66
1657721990.45358,199058.126576,64
1657721990.45358,199058.126578,64
1657721990.45358,199058.1265801,64
1657721990.45358,199058.1265874,74
1657721990.45358,199058.1265981,76
1657721990.45358,199058.1266017,69
1657721990.45358,199058.1266055,74
1657721990.45358,199058.1266085,78
1657721990.45358,199058.1266194,76
1657721990.45358,199058.1266262,71
1657721990.45358,199058.1266285,71
1657721990.45358,199058.1266308,66
1657721990.45358,199058.6626177,64
1657721990.45358,199058.6626369,71
1657721990.45358,199058.662644,76
1657721990.45358,199058.6626502,71
1657721990.45358,199058.6626553,62
1657721990.45358,199058.6626617,57
1657721990.45358,199058.6626656,59
1657721990.45358,199058.6626694,76
1657721990.45358,199058.6626734,98
1657721990.45358,199058.6626777,119
1657721990.45358,199058.6626821,131
1657721990.45358,199058.6626863,119
1657721990.45358,199058.6626906,88
1657721990.45358,199058.6626947,55
1657721990.45358,199058.6626989,52
1657721990.46455,199058.6627029,76
1657721990.46455,199058.6627066,74
1657721990.46455,199058.6627103,62
1657721990.46455,199058.6627144,59
1657721990.46455,199058.662718,40
1657721990.46455,199058.6627219,55
1657721990.46455,199058.6627284,196
1657721990.46455,199058.6627324,473
1657721990.46455,199058.6627389,622
1657721990.46455,199058.6627427,208
1657721990.46455,199058.6627481,-447
1657721990.46455,199058.662752,-497
1657721990.46455,199058.6627561,-167
1657721990.46455,199058.66276,-86
1657721990.46455,199058.6627642,-66
1657721990.46455,199058.66277,38
1657721990.46455,199058.662774,43
1657721990.46455,199058.6627792,9
1657721990.46455,199058.6627845,31
1657721990.46455,199058.6627895,35
1657721990.46455,199058.6627929,26
1657721990.46455,199058.6627965,38
1657721990.46455,199058.6628019,45
1657721990.46455,199058.6628057,43
1657721990.94212,199058.6628092,55
1657721990.94212,199058.6628146,62
1657721990.94212,199058.6628182,62
1657721990.94212,199058.6628216,69
1657721990.94212,199058.6628252,74
1657721990.94212,199058.6628291,74
1657721990.94212,199058.6628325,81
1657721990.94212,199058.6628359,88
1657721990.94212,199058.6628394,93
1657721990.94212,199058.6628437,100
1657721990.94212,199058.6628473,102
1657721990.94212,199058.6628511,105
1657721990.94212,199058.662855,107
1657721990.94212,199058.6628589,100
1657721990.94212,199058.6628627,102
1657721990.94212,199058.6628667,117
1657721990.94212,199058.6628718,117
1657721990.94212,199058.662878,107
1657721990.94212,199058.6628829,110
1657721990.94212,199058.6628886,117
1657721990.94212,199058.6628941,124
1657721990.94212,199058.6628984,122
1657721990.94212,199058.6629039,117
1657721990.94212,199058.6629087,107
1657721990.94212,199058.6629143,95
1657721990.94212,199058.6629192,90
1657721990.94212,199058.662925,83
1657721990.94212,199058.6629288,76
1657721990.94212,199058.6629342,78
1657721990.94212,199058.6629379,78
1657721990.94212,199058.6629429,71
1657721990.94212,199058.6629553,64
1657721990.94212,199058.6629581,69
1657721990.94212,199058.6629609,74
1657721990.94212,199059.1507908,74
1657721990.94212,199059.1508076,88
1657721990.94212,199059.1508116,102
1657721990.94212,199059.1508155,107
1657721990.94212,199059.1508193,110
1657721990.94212,199059.1508231,119
1657721990.94212,199059.1508283,133
1657721990.94212,199059.1508339,136
1657721990.94212,199059.1508377,136
1657721990.94212,199059.1508433,136
1657721990.94212,199059.1508475,129
1657721990.94212,199059.1508534,126
1657721990.94212,199059.1508573,131
1657721990.94212,199059.1508609,133
1657721990.94212,199059.1508647,131
1657721990.94212,199059.1508683,117
1657721990.95239,199059.150872,105
1657721990.95239,199059.1508756,112
1657721990.95239,199059.1508798,114
1657721990.95239,199059.1508834,110
1657721990.95239,199059.1508871,112
1657721990.95239,199059.1508908,114
1657721990.95239,199059.1508946,105
1657721990.95239,199059.1508982,100
1657721990.95239,199059.150902,114
1657721990.95239,199059.1509059,114
1657721990.95239,199059.1509121,98
1657721990.95239,199059.1509175,86
1657721990.95239,199059.1509215,76
1657721990.95239,199059.1509271,81
1657721990.95239,199059.1509309,98
1657721990.95239,199059.1509364,98
1657721990.95239,199059.1509404,93
1657721990.95239,199059.1509445,102
1657721990.95239,199059.1509481,107
1657721990.95239,199059.1509518,105
1657721990.95239,199059.1509554,112
1657721990.95239,199059.1509591,114
1657721990.95239,199059.1509628,114
1657721990.95239,199059.1509665,124
1657721991.57445,199059.1509702,119
1657721991.57445,199059.150974,110
1657721991.57445,199059.1509776,117
1657721991.57445,199059.1509813,119
1657721991.57445,199059.1509858,112
1657721991.57445,199059.1509898,107
1657721991.57445,199059.1509934,98
1657721991.57445,199059.150997,74
1657721991.57445,199059.1510007,57
1657721991.57445,199059.1510044,71
1657721991.57445,199059.1510083,90
1657721991.57445,199059.151012,100
1657721991.57445,199059.1510157,119
1657721991.57445,199059.151023,141
1657721991.57445,199059.1510287,148
1657721991.57445,199059.1510325,141
1657721991.57445,199059.15104,119
1657721991.57445,199059.1510438,98
1657721991.57445,199059.151049,98
1657721991.57445,199059.1510526,100
1657721991.57445,199059.1510562,95
1657721991.57445,199059.15106,90
1657721991.57445,199059.1510637,88
1657721991.57445,199059.1510673,93
1657721991.57445,199059.1510726,179
1657721991.57445,199059.151079,433
1657721991.57445,199059.1510828,734
1657721991.57445,199059.1510879,574
1657721991.57445,199059.1510937,-186
1657721991.57445,199059.1510991,-598
1657721991.57445,199059.1511037,-275
1657721991.57445,199059.1511091,-52
1657721991.57445,199059.151113,-86
1657721991.57445,199059.7855378,9
1657721991.57445,199059.7855561,95
1657721991.57445,199059.785564,50
1657721991.57445,199059.785568,43
1657721991.57445,199059.7855743,74
1657721991.57445,199059.7855792,55
1657721991.57445,199059.7855857,38

1657721991.57445,199059.7855908,59
1657721991.57445,199059.785602,71
1657721991.57445,199059.7856144,62
1657721991.57445,199059.7856241,64
1657721991.57445,199059.7856318,66
1657721991.57445,199059.7856407,57
1657721991.57445,199059.785646,59
1657721991.57445,199059.7856563,69
1657721991.57445,199059.7856634,69
1657721991.57445,199059.7856658,76
1657721991.58542,199059.7856681,81
1657721991.58542,199059.7856702,78
1657721991.58542,199059.7856724,78
1657721991.58542,199059.7856744,76
1657721991.58542,199059.7856765,74
1657721991.58542,199059.7856787,81
1657721991.58542,199059.7856807,88
1657721991.58542,199059.7856828,90
1657721991.58542,199059.7856853,88
1657721991.58542,199059.7856875,86
1657721991.58542,199059.7856895,81
1657721991.58542,199059.7856918,81
1657721991.58542,199059.7856999,83
1657721991.58542,199059.7857046,86
1657721991.58542,199059.7857114,86
1657721991.58542,199059.7857159,88
1657721991.58542,199059.7857226,88
1657721991.58542,199059.785726,81
1657721991.58542,199059.7857295,71
1657721991.58542,199059.7857317,64
1657721991.58542,199059.7857337,62
1657721991.58542,199059.7857363,57
1657721991.58542,199059.7857383,57
1657721991.58542,199059.7857405,57
1657721992.11836,199059.7857426,57
1657721992.11836,199059.7857446,57
1657721992.11836,199059.7857466,62
1657721992.11836,199059.7857485,62
1657721992.11836,199059.7857505,64
1657721992.11836,199059.7857524,74
1657721992.11836,199059.7857544,81
1657721992.11836,199059.7857563,81
1657721992.11836,199059.7857582,86
1657721992.11836,199059.7857602,93
1657721992.11836,199059.7857625,93
1657721992.11836,199059.7857644,98
1657721992.11836,199059.7857663,107
1657721992.11836,199059.7857683,110
1657721992.11836,199059.7857703,107
1657721992.11836,199059.7857723,112
1657721992.11836,199059.7857743,110
1657721992.11836,199059.7857762,107
1657721992.11836,199059.7857782,112
1657721992.11836,199059.7857809,117
1657721992.11836,199059.785783,117
1657721992.11836,199059.7857852,112
1657721992.11836,199059.7857873,112
1657721992.11836,199059.7857894,110
1657721992.11836,199059.7857914,102
1657721992.11836,199059.7857935,95
1657721992.11836,199059.7857956,100
1657721992.11836,199059.7857977,102
1657721992.11836,199059.7857998,98
1657721992.11836,199059.7858019,95
1657721992.11836,199059.785804,100
1657721992.11836,199059.7858067,102
1657721992.11836,199060.3199744,102
1657721992.11836,199060.3199928,93
1657721992.11836,199060.3199991,83
1657721992.11836,199060.3200072,83
1657721992.11836,199060.3200131,88
1657721992.11836,199060.3200247,88
1657721992.11836,199060.3200353,90
1657721992.11836,199060.3200404,88
1657721992.11836,199060.3200471,83
1657721992.11836,199060.3200524,83
1657721992.11836,199060.3200589,86
1657721992.11836,199060.3200632,81
1657721992.11836,199060.3200695,71
1657721992.11836,199060.3200755,66
1657721992.11836,199060.3200793,64
1657721992.11836,199060.3200878,52
1657721992.11836,199060.3201004,43
1657721992.11836,199060.3201082,47
1657721992.13032,199060.320112,50
1657721992.13032,199060.3201254,43
1657721992.13032,199060.3201371,31
1657721992.13032,199060.3201463,23
1657721992.13032,199060.3201494,28
1657721992.13032,199060.3201597,47
1657721992.13032,199060.3201688,74
1657721992.13032,199060.3201713,95
1657721992.13032,199060.3201734,105
1657721992.13032,199060.3201757,86
1657721992.13032,199060.3201778,47
1657721992.13032,199060.3201799,33
1657721992.13032,199060.320182,47
1657721992.13032,199060.3201842,50
1657721992.13032,199060.3201917,47
1657721992.13032,199060.3202028,55
1657721992.13032,199060.3202063,57
1657721992.13032,199060.3202093,57
1657721992.13032,199060.3202125,131
1657721992.13032,199060.3202204,370
1657721992.13032,199060.3202311,689
1657721992.13032,199060.3202346,691
1657721992.13032,199060.3202376,55
1657721992.13032,199060.3202415,-526
1657721992.69671,199060.3202546,-332
1657721992.69671,199060.3202588,-38
1657721992.69671,199060.3202611,-76
1657721992.69671,199060.320263,-33
1657721992.69671,199060.3202673,62
1657721992.69671,199060.3202768,23
1657721992.69671,199060.3202818,7
1657721992.69671,199060.3202873,55
1657721992.69671,199060.320295,50
1657721992.69671,199060.3203053,33
1657721992.69671,199060.3203188,59
1657721992.69671,199060.3203309,62
1657721992.69671,199060.320339,35
1657721992.69671,199060.3203412,50
1657721992.69671,199060.3203435,69
1657721992.69671,199060.3203457,59
1657721992.69671,199060.3203479,52
1657721992.69671,199060.3203499,57
1657721992.69671,199060.3203521,64
1657721992.69671,199060.3203541,66
1657721992.69671,199060.3203564,69
1657721992.69671,199060.320364,74
1657721992.69671,199060.3203765,83
1657721992.69671,199060.3203827,86
1657721992.69671,199060.320385,62
1657721992.69671,199060.3203886,62
1657721992.69671,199060.3204024,93
1657721992.69671,199060.3204143,93
1657721992.69671,199060.3204293,76
1657721992.69671,199060.3204427,86
1657721992.69671,199060.3204508,88
1657721992.69671,199060.9053021,74
1657721992.69671,199060.9053213,71
1657721992.69671,199060.9053271,78
1657721992.69671,199060.9053335,90
1657721992.69671,199060.9053383,90
1657721992.69671,199060.905345,76
1657721992.69671,199060.9053494,62
1657721992.69671,199060.9053561,50
1657721992.69671,199060.9053603,40
1657721992.69671,199060.9053661,38
1657721992.69671,199060.9053704,33
1657721992.69671,199060.905376,21
1657721992.69671,199060.9053801,7
1657721992.69671,199060.9053846,-7
1657721992.69671,199060.9053893,-4
1657721992.69671,199060.9053935,4
1657721992.69671,199060.9053994,2
1657721992.69671,199060.9054037,-9
1657721992.69671,199060.9054097,-23
1657721992.70689,199060.9054155,-23
1657721992.70689,199060.9054213,-16
1657721992.70689,199060.905425,-7
1657721992.70689,199060.9054296,2
1657721992.70689,199060.9054343,9
1657721992.70689,199060.9054403,14
1657721992.70689,199060.9054497,16
1657721992.70689,199060.9054566,21
1657721992.70689,199060.9054628,26
1657721992.70689,199060.9054662,31
1657721992.70689,199060.9054721,33
1657721992.70689,199060.9054754,33
1657721992.70689,199060.9054869,26
1657721992.70689,199060.9054941,23
1657721992.70689,199060.9055006,26
1657721992.70689,199060.9055093,33
1657721992.70689,199060.9055144,40
1657721992.70689,199060.9055182,43
1657721992.70689,199060.9055218,35
1657721992.70689,199060.9055253,28
1657721992.70689,199060.9055289,35
1657721992.70689,199060.9055325,47
1657721992.70689,199060.9055364,47
1657721992.70689,199060.90554,43
1657721993.1827,199060.9055437,40
1657721993.1827,199060.9055474,43
1657721993.1827,199060.905551,47
1657721993.1827,199060.9055548,55
1657721993.1827,199060.9055587,57
1657721993.1827,199060.9055625,59
1657721993.1827,199060.905566,52
1657721993.1827,199060.9055696,50
1657721993.1827,199060.9055734,55
1657721993.1827,199060.9055772,57
1657721993.1827,199060.905581,57
1657721993.1827,199060.9055847,50
1657721993.1827,199060.905588,45
1657721993.1827,199060.9055935,59
1657721993.1827,199060.9055998,71
1657721993.1827,199060.9056039,71
1657721993.1827,199060.9056095,78
1657721993.1827,199060.9056138,90
1657721993.1827,199060.9056176,88
1657721993.1827,199060.9056215,74
1657721993.1827,199060.905625,83
1657721993.1827,199060.905629,100
1657721993.1827,199060.9056329,98
1657721993.1827,199060.9056385,98
1657721993.1827,199060.9056451,102
1657721993.1827,199060.9056512,98
1657721993.1827,199060.905655,88
1657721993.1827,199060.905659,86
1657721993.1827,199060.9056628,81
1657721993.1827,199060.9056666,76
1657721993.1827,199061.3930087,86
1657721993.1827,199061.3930215,86
1657721993.1827,199061.3930274,57
1657721993.1827,199061.3930329,52
1657721993.1827,199061.3930358,93
1657721993.1827,199061.3930384,129
1657721993.1827,199061.3930411,133
1657721993.1827,199061.3930439,133
1657721993.1827,199061.3930465,124
1657721993.1827,199061.3930492,100
1657721993.1827,199061.3930519,69
1657721993.1827,199061.3930558,64
1657721993.1827,199061.3930629,78
1657721993.1827,199061.3930667,59
1657721993.1827,199061.3930698,43
1657721993.1827,199061.3930727,52
1657721993.1827,199061.3930756,62
1657721993.1827,199061.3930785,124
1657721993.1827,199061.3930815,327
1657721993.1827,199061.3930844,617
1657721993.19265,199061.3930874,681
1657721993.19265,199061.3930903,148
1657721993.19265,199061.3930933,-497
1657721993.19265,199061.3930962,-428
1657721993.19265,199061.3930991,-90
1657721993.19265,199061.393102,-66
1657721993.19265,199061.3931049,-33
1657721993.19265,199061.3931079,64
1657721993.19265,199061.3931126,33
1657721993.19265,199061.3931148,16
1657721993.19265,199061.3931169,71
1657721993.19265,199061.393119,76
1657721993.19265,199061.3931211,52
1657721993.19265,199061.3931232,66
1657721993.19265,199061.3931256,69
1657721993.19265,199061.393131,59
1657721993.19265,199061.3931423,71
1657721993.19265,199061.3931484,78
1657721993.19265,199061.3931523,83
1657721993.19265,199061.3931613,88
1657721993.19265,199061.3931684,66
1657721993.19265,199061.3931771,52
1657721993.19265,199061.3931818,69
1657721993.19265,199061.3931921,81
1657721993.82506,199061.3931979,83
1657721993.82506,199061.3932,93
1657721993.82506,199061.3932021,105
1657721993.82506,199061.393204,102
1657721993.82506,199061.3932059,93
1657721993.82506,199061.3932078,98
1657721993.82506,199061.393214,110
1657721993.82506,199061.3932258,114
1657721993.82506,199061.3932344,107
1657721993.82506,199061.3932384,95
1657721993.82506,199061.3932441,98
1657721993.82506,199061.3932506,107
1657721993.82506,199061.3932537,105
1657721993.82506,199061.3932566,105
1657721993.82506,199061.3932596,112
1657721993.82506,199061.3932626,107
1657721993.82506,199061.3932656,88
1657721993.82506,199061.3932684,78
1657721993.82506,199061.3932714,71
1657721993.82506,199061.3932744,55
1657721993.82506,199061.3932773,43
1657721993.82506,199061.3932801,40
1657721993.82506,199061.3932831,35
1657721993.82506,199061.3932859,38
1657721993.82506,199061.393289,38
1657721993.82506,199061.3932919,35
1657721993.82506,199061.3932948,40
1657721993.82506,199061.3932977,43
1657721993.82506,199061.3933006,35
1657721993.82506,199062.0281641,35
1657721993.82506,199062.0281776,47
1657721993.82506,199062.0281804,52
1657721993.82506,199062.0281832,57
1657721993.82506,199062.0281877,69
1657721993.82506,199062.0281937,69
1657721993.82506,199062.0281993,50
1657721993.82506,199062.0282059,38
1657721993.82506,199062.028215,52
1657721993.82506,199062.028223,81
1657721993.82506,199062.0282274,100
1657721993.82506,199062.0282333,110
1657721993.82506,199062.0282372,100
1657721993.82506,199062.0282424,74
1657721993.82506,199062.0282464,38
1657721993.82506,199062.0282516,28
1657721993.82506,199062.0282551,66
1657721993.82506,199062.028259,86
1657721993.82506,199062.0282645,71
1657721993.82506,199062.0282695,74
1657721993.82506,199062.0282751,90
1657721993.83603,199062.0282798,83
1657721993.83603,199062.0282839,71
1657721993.83603,199062.0282893,81
1657721993.83603,199062.0282946,90
1657721993.83603,199062.0282989,78
1657721993.83603,199062.0283038,81
1657721993.83603,199062.0283074,95
1657721993.83603,199062.0283127,81
1657721993.83603,199062.0283165,64
1657721993.83603,199062.0283218,76
1657721993.83603,199062.0283254,81
1657721993.83603,199062.0283292,74
1657721993.83603,199062.0283351,83
1657721993.83603,199062.0283386,90
1657721993.83603,199062.0283422,83
1657721993.83603,199062.0283472,83
1657721993.83603,199062.0283509,93
1657721993.83603,199062.0283548,93
1657721993.83603,199062.0283587,88
1657721993.83603,199062.0283626,88
1657721993.83603,199062.0283682,86
1657721993.83603,199062.028373,90
1657721993.83603,199062.0283771,95
1657721993.83603,199062.0283812,86
1657721994.30771,199062.0283872,93
1657721994.30771,199062.0283912,112
1657721994.30771,199062.0283949,102
1657721994.30771,199062.0283983,83
1657721994.30771,199062.0284022,100
1657721994.30771,199062.0284061,114
1657721994.30771,199062.0284097,107
1657721994.30771,199062.0284133,102
1657721994.30771,199062.0284169,114
1657721994.30771,199062.0284212,112
1657721994.30771,199062.0284257,107
1657721994.30771,199062.0284287,122
1657721994.30771,199062.0284317,124
1657721994.30771,199062.0284348,110
1657721994.30771,199062.0284379,114
1657721994.30771,199062.0284417,117
1657721994.30771,199062.0284453,112
1657721994.30771,199062.0284489,114
1657721994.30771,199062.0284525,114
1657721994.30771,199062.0284559,110
1657721994.30771,199062.0284591,95
1657721994.30771,199062.0284647,95
1657721994.30771,199062.0284681,117
1657721994.30771,199062.0284712,117
1657721994.30771,199062.0284767,112
1657721994.30771,199062.02848,126
1657721994.30771,199062.0284833,148
1657721994.30771,199062.0284865,172
1657721994.30771,199062.5136692,186
1657721994.30771,199062.5136867,165
1657721994.30771,199062.5136937,138
1657721994.30771,199062.5137184,133
1657721994.30771,199062.5137289,138
1657721994.30771,199062.5137377,129
1657721994.30771,199062.5137496,114
1657721994.30771,199062.5137631,126
1657721994.30771,199062.5137784,133
1657721994.30771,199062.5138075,124
1657721994.30771,199062.5138158,220
1657721994.30771,199062.5138203,471
1657721994.30771,199062.5138244,679
1657721994.30771,199062.5138284,433
1657721994.30771,199062.5138337,-227
1657721994.30771,199062.5138386,-468
1657721994.30771,199062.5138452,-179
1657721994.30771,199062.513849,-33
1657721994.30771,199062.5138527,-23
1657721994.30771,199062.5138566,86
1657721994.30771,199062.5138621,119
1657721994.30771,199062.513866,71
1657721994.31967,199062.5138712,81
1657721994.31967,199062.5138767,112
1657721994.31967,199062.5138804,105
1657721994.31967,199062.5138842,102
1657721994.31967,199062.513888,110
1657721994.31967,199062.5138917,102
1657721994.31967,199062.5138955,71
1657721994.31967,199062.5139008,55
1657721994.31967,199062.5139043,74
1657721994.31967,199062.5139093,90
1657721994.31967,199062.5139129,81
1657721994.31967,199062.5139163,66
1657721994.31967,199062.5139219,62
1657721994.31967,199062.5139256,71
1657721994.31967,199062.5139291,88
1657721994.31967,199062.5139326,90
1657721994.31967,199062.5139375,88
1657721994.31967,199062.513941,100
1657721994.31967,199062.5139445,107
1657721994.31967,199062.5139493,105
1657721994.31967,199062.5139534,107
1657721994.31967,199062.5139569,110
1657721994.31967,199062.5139604,117
1657721994.31967,199062.5139639,124
1657721994.99082,199062.5139674,122
1657721994.99082,199062.5139708,119
1657721994.99082,199062.5139743,117
1657721994.99082,199062.5139777,105
1657721994.99082,199062.5139812,98
1657721994.99082,199062.5139846,105
1657721994.99082,199062.5139879,93
1657721994.99082,199062.5139913,74
1657721994.99082,199062.5139947,69
1657721994.99082,199062.5139983,69
1657721994.99082,199062.5140017,71
1657721994.99082,199062.5140053,78
1657721994.99082,199062.5140087,69
1657721994.99082,199062.5140133,52
1657721994.99082,199062.5140188,57
1657721994.99082,199062.5140223,55
1657721994.99082,199062.5140276,35
