Time,TimeLsl,Value
1657723746.79492,200813.6203354,110
1657723746.79492,200813.6203569,102
1657723746.79492,200813.6203709,105
1657723746.79492,200813.6203812,107
1657723746.79492,200813.620391,107
1657723746.79492,200813.6203987,112
1657723746.79492,200813.6204027,114
1657723746.79492,200813.6204099,112
1657723746.79492,200813.6204181,112
1657723746.79492,200813.620426,117
1657723746.79492,200813.6204296,124
1657723746.79492,200813.6204451,124
1657723746.79492,200813.620459,114
1657723746.79492,200813.6204728,100
1657723746.79492,200813.6204868,95
1657723746.79492,200813.6204912,98
1657723746.79492,200813.6204947,100
1657723746.79492,200813.620498,95
1657723746.79492,200813.6205011,88
1657723746.79492,200813.6205077,69
1657723746.79492,200813.6205122,57
1657723746.79492,200813.6205161,62
1657723746.79492,200813.6205196,71
1657723746.79492,200813.6205228,74
1657723746.79492,200813.6205259,78
1657723746.79492,200813.6205291,76
1657723746.79492,200813.6205323,66
1657723746.79492,200813.6205359,66
1657723746.79492,200813.6205399,71
1657723746.79492,200813.6205457,71
1657723746.79492,200813.6205515,69
1657723746.79492,200813.6205573,69
1657723746.79492,200813.6205654,69
1657723746.79492,200813.6205711,74
1657723746.79492,200813.620577,83
1657723746.79492,200813.6205832,95
1657723746.79492,200813.6205893,100
1657723746.79492,200813.6205963,105
1657723746.79492,200813.620603,112
1657723746.79492,200813.6206094,114
1657723746.79492,200813.6206153,119
1657723746.79492,200813.6206218,126
1657723746.79492,200813.6206301,131
1657723746.79492,200813.6206364,136
1657723746.79492,200813.620644,131
1657723746.79492,200813.6206503,126
1657723746.79492,200813.6206567,122
1657723746.79492,200813.6206638,124
1657723746.79492,200813.6206701,126
1657723746.79492,200813.6206761,122
1657723746.9126,200813.6206797,119
1657723746.9126,200813.6206832,117
1657723746.9126,200813.6206872,119
1657723746.9126,200813.6206905,119
1657723746.9126,200813.6206952,119
1657723746.9126,200813.6207,122
1657723746.9126,200813.6207057,119
1657723746.9126,200813.6207104,117
1657723746.9126,200813.6207135,117
1657723746.9126,200813.6207185,119
1657723746.9126,200813.6207258,122
1657723746.9126,200813.6207303,119
1657723746.9126,200813.6207358,114
1657723746.9126,200813.6207442,107
1657723746.9126,200813.6207497,98
1657723746.9126,200813.620755,93
1657723746.9126,200813.6207602,105
1657723746.9126,200813.6207657,119
1657723746.9126,200813.6207696,138
1657723746.9126,200813.6207762,162
1657723746.9126,200813.6207799,179
1657723746.9126,200813.6207858,165
1657723746.9126,200813.6207928,136
1657723746.9126,200813.961542,126
1657723746.9126,200813.9615625,133
1657723746.9126,200813.9615681,136
1657723746.9126,200813.9615761,129
1657723746.9126,200813.9615813,124
1657723746.9126,200813.9615846,119
1657723746.9126,200813.9615882,141
1657723746.9126,200813.9616022,282
1657723746.9126,200813.9616163,569
1657723746.9126,200813.9616223,787
1657723746.9126,200813.9616266,437
1657723746.9126,200813.9616308,-315
1657723746.9126,200813.9616377,-459
1657723746.9126,200813.9616425,-59
1657723746.9126,200813.9616477,43
1657723746.9126,200813.9616524,0
1657723746.9126,200813.9616563,81
1657723746.9126,200813.961662,98
1657723746.9126,200813.9616668,59
1657723746.9126,200813.9616707,83
1657723746.9126,200813.9616745,102
1657723746.9126,200813.9616799,90
1657723746.9126,200813.961684,90
1657723746.9126,200813.9616882,98
1657723746.9126,200813.961694,95
1657723746.9126,200813.9616991,90
1657723746.9126,200813.9617033,90
1657723746.94851,200813.9617072,90
1657723746.94851,200813.9617114,86
1657723746.94851,200813.9617169,83
1657723746.94851,200813.9617211,88
1657723746.94851,200813.9617262,90
1657723746.94851,200813.9617299,90
1657723746.94851,200813.9617336,93
1657723746.94851,200813.9617373,93
1657723746.94851,200813.9617412,78
1657723746.94851,200813.9617484,64
1657723746.94851,200813.9617522,62
1657723746.94851,200813.9617576,59
1657723746.94851,200813.9617628,50
1657723746.94851,200813.9617664,45
1657723746.94851,200813.9617699,40
1657723746.94851,200813.9617748,31
1657723746.94851,200813.9617783,31
1657723746.94851,200813.9617841,35
1657723746.94851,200813.9617884,43
1657723746.94851,200813.9617927,50
1657723746.94851,200813.9617959,59
1657723746.94851,200813.9617994,62
1657723746.94851,200813.9618044,62
1657723746.94851,200813.9618078,62
1657723746.94851,200813.9618133,64
1657723746.94851,200813.9618173,64
1657723746.94851,200813.9618207,62
1657723746.94851,200813.9618243,57
1657723746.94851,200813.9618295,57
1657723746.94851,200813.9618332,62
1657723746.94851,200813.9618385,66
1657723746.94851,200813.9618426,76
1657723746.94851,200813.9618469,83
1657723746.94851,200813.9618508,90
1657723746.94851,200813.9618562,93
1657723746.94851,200813.9618608,98
1657723746.94851,200813.961866,110
1657723746.94851,200813.9618698,117
1657723746.94851,200813.9618738,122
1657723746.94851,200813.9618774,122
1657723746.94851,200813.9618808,119
1657723746.94851,200813.9618856,114
1657723746.94851,200813.9618888,112
1657723746.94851,200813.961894,117
1657723746.94851,200813.961901,119
1657723746.94851,200813.9619047,117
1657723746.94851,200814.6447067,112
1657723746.94851,200814.6447306,110
1657723748.38397,200814.6447422,114
1657723748.38397,200814.6447504,114
1657723748.38397,200814.6447565,117
1657723748.38397,200814.6447625,114
1657723748.38397,200814.6447681,100
1657723748.38397,200814.6447741,86
1657723748.38397,200814.6447797,90
1657723748.38397,200814.6447855,98
1657723748.38397,200814.6447949,95
1657723748.38397,200814.6448033,95
1657723748.38397,200814.6448122,95
1657723748.38397,200814.6448201,90
1657723748.38397,200814.6448265,90
1657723748.38397,200814.6448346,95
1657723748.38397,200814.6448413,86
1657723748.38397,200814.64485,74
1657723748.38397,200814.6448559,69
1657723748.38397,200814.644864,69
1657723748.38397,200814.6448699,78
1657723748.38397,200814.6448779,107
1657723748.38397,200814.644889,136
1657723748.38397,200814.6448926,143
1657723748.38397,200814.6448955,122
1657723748.38397,200814.6448984,93
1657723748.38397,200814.6449014,86
1657723748.38397,200814.6449043,95
1657723748.38397,200814.6449081,98
1657723748.38397,200814.6449115,98
1657723748.38397,200814.6449147,100
1657723748.38397,200814.6449178,88
1657723748.38397,200814.644921,117
1657723748.38397,200814.6449243,306
1657723748.38397,200814.6449276,614
1657723748.38397,200814.6449311,724
1657723748.38397,200814.6449345,212
1657723748.38397,200814.6449375,-468
1657723748.38397,200814.6449409,-409
1657723748.38397,200814.6449445,-31
1657723748.38397,200814.6449489,-2
1657723748.38397,200814.6449557,0
1657723748.38397,200814.6449612,98
1657723748.38397,200814.64497,90
1657723748.38397,200814.6449764,64
1657723748.38397,200814.6449846,98
1657723748.38397,200814.644993,105
1657723748.38397,200814.6449991,90
1657723748.38397,200814.6450067,100
1657723748.38397,200814.6450129,110
1657723748.38397,200814.645022,105
1657723748.38397,200814.6450279,107
1657723748.39494,200814.645037,114
1657723748.39494,200814.6450436,114
1657723748.39494,200814.6450516,112
1657723748.39494,200814.6450558,117
1657723748.39494,200814.6450618,114
1657723748.39494,200814.6450654,107
1657723748.39494,200814.6450711,110
1657723748.39494,200814.6450762,110
1657723748.39494,200814.6450799,98
1657723748.39494,200814.6450838,100
1657723748.39494,200814.6450893,112
1657723748.39494,200814.6450935,107
1657723748.39494,200814.6450987,105
1657723748.39494,200814.6451063,110
1657723748.39494,200814.6451119,100
1657723748.39494,200814.6451163,90
1657723748.39494,200814.6451253,93
1657723748.39494,200814.6451346,93
1657723748.39494,200814.6451401,86
1657723748.39494,200814.6451482,88
1657723748.39494,200814.6451563,98
1657723748.39494,200816.5937169,107
1657723748.39494,200816.5937372,112
1657723748.39494,200816.5937414,107
1657723750.48035,200816.5937456,100
1657723750.48035,200816.5937495,93
1657723750.48035,200816.5937527,88
1657723750.48035,200816.5937567,90
1657723750.48035,200816.5937613,93
1657723750.48035,200816.5937644,88
1657723750.48035,200816.593769,71
1657723750.48035,200816.5937726,66
1657723750.48035,200816.5937756,76
1657723750.48035,200816.5937808,83
1657723750.48035,200816.5937873,88
1657723750.48035,200816.5937941,95
1657723750.48035,200816.5938007,100
1657723750.48035,200816.5938082,107
1657723750.48035,200816.5938138,112
1657723750.48035,200816.5938175,110
1657723750.48035,200816.5938204,114
1657723750.48035,200816.5938234,122
1657723750.48035,200816.5938265,117
1657723750.48035,200816.593832,114
1657723750.48035,200816.5938365,110
1657723750.48035,200816.5938413,102
1657723750.48035,200816.5938451,93
1657723750.48035,200816.5938515,95
1657723750.48035,200816.5938571,100
1657723750.48035,200816.5938621,95
1657723750.48035,200816.5938669,86
1657723750.48035,200816.5938803,88
1657723750.48035,200816.5938857,88
1657723750.48035,200816.5938916,83
1657723750.48035,200816.5938961,90
1657723750.48035,200816.5939002,90
1657723750.48035,200816.5939037,83
1657723750.48035,200816.5939086,90
1657723750.48035,200816.5939122,100
1657723750.48035,200816.5939152,98
1657723750.48035,200816.5939183,93
1657723750.48035,200816.5939213,98
1657723750.48035,200816.5939243,88
1657723750.48035,200816.5939271,78
1657723750.48035,200816.59393,90
1657723750.48035,200816.5939329,90
1657723750.48035,200816.5939358,81
1657723750.48035,200816.5939387,78
1657723750.48035,200816.5939418,74
1657723750.48035,200816.5939448,81
1657723750.48035,200816.5939478,107
1657723750.48035,200816.5939507,129
1657723750.48035,200816.5939536,138
1657723750.48035,200816.5939567,143
1657723750.49232,200816.5939596,124
1657723750.49232,200816.5939626,102
1657723750.49232,200816.5939656,100
1657723750.49232,200816.5939685,105
1657723750.49232,200816.5939714,105
1657723750.49232,200816.5939744,112
1657723750.49232,200816.5939773,114
1657723750.49232,200816.5939805,110
1657723750.49232,200816.5939834,167
1657723750.49232,200816.5939864,397
1657723750.49232,200816.5939918,746
1657723750.49232,200816.5939965,770
1657723750.49232,200816.5940016,66
1657723750.49232,200816.5940053,-586
1657723750.49232,200816.5940093,-368
1657723750.49232,200816.5940146,-9
1657723750.49232,200816.5940204,-28
1657723750.49232,200816.5940236,9
1657723750.49232,200816.5940265,112
1657723750.49232,200816.5940296,86
1657723750.49232,200818.6904736,66
1657723750.49232,200818.6904919,105
1657723750.49232,200818.690497,107
1657723750.49232,200818.6905027,95
1657723751.07083,200818.6905068,105
1657723751.07083,200818.6905105,112
1657723751.07083,200818.6905139,107
1657723751.07083,200818.6905175,107
1657723751.07083,200818.6905207,110
1657723751.07083,200818.6905247,107
1657723751.07083,200818.6905313,100
1657723751.07083,200818.6905374,98
1657723751.07083,200818.6905438,98
1657723751.07083,200818.6905474,100
1657723751.07083,200818.6905509,105
1657723751.07083,200818.690556,105
1657723751.07083,200818.6905631,100
1657723751.07083,200818.6905713,93
1657723751.07083,200818.6905762,90
1657723751.07083,200818.6905828,88
1657723751.07083,200818.690588,86
1657723751.07083,200818.6905934,86
1657723751.07083,200818.6905975,83
1657723751.07083,200818.6906103,81
1657723751.07083,200818.690619,76
1657723751.07083,200818.6906317,71
1657723751.07083,200818.6906439,69
1657723751.07083,200818.6906533,76
1657723751.07083,200818.6906605,78
1657723751.07083,200818.6906695,83
1657723751.07083,200818.6906759,88
1657723751.07083,200818.6906833,88
1657723751.07083,200818.6906919,83
1657723751.07083,200818.6906979,78
1657723751.07083,200818.690701,78
1657723751.07083,200818.6907039,76
1657723751.07083,200818.6907069,74
1657723751.07083,200818.6907098,71
1657723751.07083,200818.6907128,69
1657723751.07083,200818.6907157,71
1657723751.07083,200818.6907186,78
1657723751.07083,200818.6907215,83
1657723751.07083,200818.6907244,83
1657723751.07083,200818.6907273,88
1657723751.07083,200818.6907301,88
1657723751.07083,200818.6907331,81
1657723751.07083,200818.690736,83
1657723751.07083,200818.6907389,93
1657723751.07083,200818.6907418,95
1657723751.07083,200818.6907446,98
1657723751.07083,200818.6907475,100
1657723751.07083,200818.6907504,95
1657723751.07083,200818.6907533,93
1657723751.07083,200818.6907562,95
1657723751.0818,200818.690759,100
1657723751.0818,200818.690762,100
1657723751.0818,200818.6907648,95
1657723751.0818,200818.6907677,90
1657723751.0818,200818.6907706,86
1657723751.0818,200818.6907734,88
1657723751.0818,200818.6907764,90
1657723751.0818,200818.6907792,90
1657723751.0818,200818.6907821,93
1657723751.0818,200818.690785,95
1657723751.0818,200818.6907879,93
1657723751.0818,200818.6907909,93
1657723751.0818,200818.6907939,95
1657723751.0818,200818.6907967,100
1657723751.0818,200818.6907996,102
1657723751.0818,200818.6908025,98
1657723751.0818,200818.6908054,90
1657723751.0818,200818.6908083,88
1657723751.0818,200818.6908113,86
1657723751.0818,200819.2752701,76
1657723751.0818,200819.2752984,64
1657723751.0818,200819.2753013,69
1657723751.0818,200819.2753047,86
1657723751.0818,200819.2753069,105
1657723752.29195,200819.2753088,133
1657723752.29195,200819.2753107,150
1657723752.29195,200819.2753127,141
1657723752.29195,200819.2753146,107
1657723752.29195,200819.2753165,83
1657723752.29195,200819.2753199,86
1657723752.29195,200819.2753293,93
1657723752.29195,200819.275335,88
1657723752.29195,200819.2753395,86
1657723752.29195,200819.2753434,90
1657723752.29195,200819.2753471,100
1657723752.29195,200819.2753506,212
1657723752.29195,200819.2753541,485
1657723752.29195,200819.2753607,748
1657723752.29195,200819.275367,545
1657723752.29195,200819.2753695,-189
1657723752.29195,200819.2753717,-516
1657723752.29195,200819.2753736,-162
1657723752.29195,200819.2753765,26
1657723752.29195,200819.2753787,-28
1657723752.29195,200819.2753809,45
1657723752.29195,200819.2753879,95
1657723752.29195,200819.2753983,55
1657723752.29195,200819.2754037,62
1657723752.29195,200819.2754099,90
1657723752.29195,200819.2754149,86
1657723752.29195,200819.2754202,83
1657723752.29195,200819.2754239,88
1657723752.29195,200819.2754345,78
1657723752.29195,200819.275438,69
1657723752.29195,200819.2754409,71
1657723752.29195,200819.2754438,71
1657723752.29195,200819.2754467,66
1657723752.29195,200819.2754497,69
1657723752.29195,200819.2754535,74
1657723752.29195,200819.2754556,71
1657723752.29195,200819.2754582,69
1657723752.29195,200819.2754602,74
1657723752.29195,200819.2754623,78
1657723752.29195,200819.2754645,78
1657723752.29195,200819.2754667,81
1657723752.29195,200819.2754687,83
1657723752.29195,200819.2754709,83
1657723752.29195,200819.275473,81
1657723752.29195,200819.2754751,81
1657723752.29195,200819.2754773,78
1657723752.29195,200819.2754794,76
1657723752.29195,200819.2754855,74
1657723752.29195,200819.2754956,74
1657723752.29195,200819.2755007,74
1657723752.30316,200819.2755069,78
1657723752.30316,200819.2755116,83
1657723752.30316,200819.2755175,86
1657723752.30316,200819.2755223,83
1657723752.30316,200819.2755275,78
1657723752.30316,200819.2755315,74
1657723752.30316,200819.2755388,71
1657723752.30316,200819.2755479,66
1657723752.30316,200819.2755506,62
1657723752.30316,200819.2756306,57
1657723752.30316,200819.2756457,52
1657723752.30316,200819.2756592,50
1657723752.30316,200819.2756727,55
1657723752.30316,200819.2756859,57
1657723752.30316,200819.2756991,62
1657723752.30316,200819.2757122,71
1657723752.30316,200819.2757208,78
1657723752.30316,200819.2757235,81
1657723752.30316,200820.4960405,81
1657723752.30316,200820.4960594,86
1657723752.30316,200820.4960679,78
1657723752.30316,200820.4960732,74
1657723752.30316,200820.4960788,81
1657723752.30316,200820.4960828,86
1657723753.16191,200820.4960885,83
1657723753.16191,200820.496093,81
1657723753.16191,200820.4960975,78
1657723753.16191,200820.4961018,78
1657723753.16191,200820.4961062,81
1657723753.16191,200820.4961105,81
1657723753.16191,200820.4961153,76
1657723753.16191,200820.4961198,69
1657723753.16191,200820.496124,69
1657723753.16191,200820.496128,74
1657723753.16191,200820.4961331,76
1657723753.16191,200820.4961388,76
1657723753.16191,200820.496152,74
1657723753.16191,200820.4961631,69
1657723753.16191,200820.4961726,66
1657723753.16191,200820.4961798,69
1657723753.16191,200820.4961887,74
1657723753.16191,200820.4961936,71
1657723753.16191,200820.4961957,64
1657723753.16191,200820.4961975,62
1657723753.16191,200820.4962011,64
1657723753.16191,200820.4962055,66
1657723753.16191,200820.4962093,69
1657723753.16191,200820.4962114,71
1657723753.16191,200820.4962135,71
1657723753.16191,200820.4962157,71
1657723753.16191,200820.4962178,71
1657723753.16191,200820.4962199,69
1657723753.16191,200820.4962219,62
1657723753.16191,200820.4962241,50
1657723753.16191,200820.4962261,52
1657723753.16191,200820.4962281,57
1657723753.16191,200820.4962303,57
1657723753.16191,200820.4962324,71
1657723753.16191,200820.4962345,100
1657723753.16191,200820.4962366,114
1657723753.16191,200820.4962386,98
1657723753.16191,200820.4962406,69
1657723753.16191,200820.4962427,62
1657723753.16191,200820.4962448,74
1657723753.16191,200820.4962469,78
1657723753.16191,200820.4962491,76
1657723753.16191,200820.4962512,78
1657723753.16191,200820.4962532,81
1657723753.16191,200820.4962554,107
1657723753.16191,200820.4962575,267
1657723753.16191,200820.4962596,569
1657723753.16191,200820.4962623,753
1657723753.16191,200820.4962643,354
1657723753.16191,200820.4962671,-389
1657723753.16988,200820.4962691,-492
1657723753.16988,200820.4962712,-105
1657723753.16988,200820.4962732,-26
1657723753.16988,200820.4962753,-62
1657723753.16988,200820.4962775,33
1657723753.16988,200820.4962796,50
1657723753.16988,200820.4962818,11
1657723753.16988,200820.4962843,31
1657723753.16988,200820.4962863,45
1657723753.16988,200820.4962883,35
1657723753.16988,200820.4962904,38
1657723753.16988,200820.4962925,47
1657723753.16988,200820.4962945,40
1657723753.16988,200820.4962966,26
1657723753.16988,200820.4962986,28
1657723753.16988,200820.4963007,40
1657723753.16988,200820.4963028,43
1657723753.16988,200821.3714173,43
1657723753.16988,200821.3714357,52
1657723753.16988,200821.371443,59
1657723753.16988,200821.3714495,55
1657723753.16988,200821.3714561,57
1657723753.16988,200821.3714625,66
1657723753.16988,200821.3714684,66
1657723755.21199,200821.3714732,66
1657723755.21199,200821.3714798,66
1657723755.21199,200821.3714857,64
1657723755.21199,200821.371493,66
1657723755.21199,200821.3714995,64
1657723755.21199,200821.3715058,57
1657723755.21199,200821.3715136,55
1657723755.21199,200821.3715203,55
1657723755.21199,200821.3715267,43
1657723755.21199,200821.3715334,35
1657723755.21199,200821.3715397,52
1657723755.21199,200821.3715471,59
1657723755.21199,200821.3715539,50
1657723755.21199,200821.3715607,52
1657723755.21199,200821.3715676,64
1657723755.21199,200821.371572,52
1657723755.21199,200821.3715755,43
1657723755.21199,200821.3715787,50
1657723755.21199,200821.3715822,52
1657723755.21199,200821.3715854,45
1657723755.21199,200821.3715897,45
1657723755.21199,200821.3715946,38
1657723755.21199,200821.371599,35
1657723755.21199,200821.3716055,47
1657723755.21199,200821.3716133,59
1657723755.21199,200821.3716217,62
1657723755.21199,200821.3716286,69
1657723755.21199,200821.3716348,76
1657723755.21199,200821.3716416,62
1657723755.21199,200821.3716484,57
1657723755.21199,200821.3716574,78
1657723755.21199,200821.3716635,93
1657723755.21199,200821.3716683,88
1657723755.21199,200821.3716728,83
1657723755.21199,200821.3716768,83
1657723755.21199,200821.3716863,86
1657723755.21199,200821.3716942,83
1657723755.21199,200821.3716993,76
1657723755.21199,200821.3717077,76
1657723755.21199,200821.3717126,81
1657723755.21199,200821.3717204,83
1657723755.21199,200821.371726,76
1657723755.21199,200821.3717321,71
1657723755.21199,200821.3717389,71
1657723755.21199,200821.3717449,76
1657723755.21199,200821.3717527,78
1657723755.21199,200821.3717658,71
1657723755.21199,200821.3717777,64
1657723755.21199,200821.3717873,71
1657723755.21199,200821.3718003,74
1657723755.22396,200821.3718126,74
1657723755.22396,200821.3718241,78
1657723755.22396,200821.3718368,76
1657723755.22396,200821.3718516,57
1657723755.22396,200821.3718633,43
1657723755.22396,200821.3718756,52
1657723755.22396,200821.3718849,59
1657723755.22396,200821.3719115,55
1657723755.22396,200821.3719211,59
1657723755.22396,200821.3719258,64
1657723755.22396,200821.3719299,57
1657723755.22396,200821.3719448,52
1657723755.22396,200821.3719527,57
1657723755.22396,200821.3719594,59
1657723755.22396,200821.371966,50
1657723755.22396,200821.3719705,45
1657723755.22396,200823.4194029,45
1657723755.22396,200823.4194199,57
1657723755.22396,200823.4194249,83
1657723755.22396,200823.4194332,110
1657723755.22396,200823.4194404,126
1657723755.22396,200823.4194474,122
1657723755.22396,200823.4194501,95
1657723755.22396,200823.4194522,81
1657723755.60177,200823.4194541,88
1657723755.60177,200823.4194559,88
1657723755.60177,200823.4194594,81
1657723755.60177,200823.4194677,81
1657723755.60177,200823.419473,78
1657723755.60177,200823.4194773,74
1657723755.60177,200823.4194834,155
1657723755.60177,200823.4194886,425
1657723755.60177,200823.4194948,777
1657723755.60177,200823.4194996,681
1657723755.60177,200823.419507,-133
1657723755.60177,200823.4195147,-674
1657723755.60177,200823.4195222,-332
1657723755.60177,200823.4195337,-26
1657723755.60177,200823.4195395,-71
1657723755.60177,200823.4195431,0
1657723755.60177,200823.4195505,95
1657723755.60177,200823.4195621,55
1657723755.60177,200823.419573,45
1657723755.60177,200823.4195857,86
1657723755.60177,200823.4195995,86
1657723755.60177,200823.4196065,74
1657723755.60177,200823.4196156,83
1657723755.60177,200823.4196284,88
1657723755.60177,200823.4196401,88
1657723755.60177,200823.419654,93
1657723755.60177,200823.4196645,98
1657723755.60177,200823.4196701,102
1657723755.60177,200823.4196838,105
1657723755.60177,200823.4196922,107
1657723755.60177,200823.4197051,110
1657723755.60177,200823.4197196,110
1657723755.60177,200823.4197321,114
1657723755.60177,200823.4197423,117
1657723755.60177,200823.4197552,119
1657723755.60177,200823.4197645,119
1657723755.60177,200823.4197721,112
1657723755.60177,200823.4197799,100
1657723755.60177,200823.4197866,102
1657723755.60177,200823.4197952,105
1657723755.60177,200823.4198015,95
1657723755.60177,200823.4198167,90
1657723755.60177,200823.4198289,90
1657723755.60177,200823.4198419,86
1657723755.60177,200823.4198565,81
1657723755.60177,200823.4198646,76
1657723755.60177,200823.4198734,69
1657723755.60177,200823.4198801,74
1657723755.60177,200823.4198862,83
1657723755.60177,200823.4198911,83
1657723755.613,200823.4198968,83
1657723755.613,200823.4199015,86
1657723755.613,200823.419908,83
1657723755.613,200823.4199142,81
1657723755.613,200823.4199243,76
1657723755.613,200823.4199369,69
1657723755.613,200823.4199513,64
1657723755.613,200823.4199654,69
1657723755.613,200823.4199814,74
1657723755.613,200823.419994,78
1657723755.613,200823.4200404,88
1657723755.613,200823.4200598,95
1657723755.613,200823.4200697,95
1657723755.613,200823.4200773,98
1657723755.613,200823.4200842,102
1657723755.613,200823.8091787,110
1657723755.613,200823.8091911,114
1657723755.613,200823.8091941,117
1657723755.613,200823.8091968,117
1657723755.613,200823.8091992,117
1657723755.613,200823.8092015,117
1657723755.613,200823.8092038,119
1657723755.613,200823.809206,119
1657723755.613,200823.8092083,117
1657723756.23112,200823.8092106,117
1657723756.23112,200823.8092128,114
1657723756.23112,200823.8092149,112
1657723756.23112,200823.809217,107
1657723756.23112,200823.809219,102
1657723756.23112,200823.8092211,102
1657723756.23112,200823.8092237,105
1657723756.23112,200823.8092271,100
1657723756.23112,200823.8092355,93
1657723756.23112,200823.8092403,90
1657723756.23112,200823.8092442,98
1657723756.23112,200823.809249,95
1657723756.23112,200823.809256,90
1657723756.23112,200823.8092612,88
1657723756.23112,200823.8092728,88
1657723756.23112,200823.8092763,88
1657723756.23112,200823.8092785,93
1657723756.23112,200823.8092806,88
1657723756.23112,200823.8092827,81
1657723756.23112,200823.8092847,78
1657723756.23112,200823.8092869,78
1657723756.23112,200823.8092889,71
1657723756.23112,200823.809291,66
1657723756.23112,200823.8092945,62
1657723756.23112,200823.8093075,57
1657723756.23112,200823.8093135,64
1657723756.23112,200823.8093158,81
1657723756.23112,200823.8093181,102
1657723756.23112,200823.8093202,124
1657723756.23112,200823.809323,122
1657723756.23112,200823.8093329,90
1657723756.23112,200823.8093414,59
1657723756.23112,200823.8093439,55
1657723756.23112,200823.809346,66
1657723756.23112,200823.8093481,74
1657723756.23112,200823.8093502,74
1657723756.23112,200823.8093522,71
1657723756.23112,200823.8093593,76
1657723756.23112,200823.8093701,179
1657723756.23112,200823.8093748,452
1657723756.23112,200823.809378,741
1657723756.23112,200823.8093808,571
1657723756.23112,200823.8093908,-193
1657723756.23112,200823.8093991,-612
1657723756.23112,200823.8094016,-263
1657723756.23112,200823.8094037,-19
1657723756.23112,200823.8094059,-76
1657723756.23112,200823.8094085,-2
1657723756.23112,200823.8094183,71
1657723756.23112,200823.8094269,28
1657723756.24109,200823.8094293,28
1657723756.24109,200823.8094315,62
1657723756.24109,200823.8094335,59
1657723756.24109,200823.8094356,50
1657723756.24109,200823.8094428,62
1657723756.24109,200823.8094537,66
1657723756.24109,200823.8094583,66
1657723756.24109,200823.8094604,66
1657723756.24109,200823.8094628,62
1657723756.24109,200823.809472,64
1657723756.24109,200823.8094814,74
1657723756.24109,200823.8094856,78
1657723756.24109,200823.8094876,81
1657723756.24109,200823.8094918,83
1657723756.24109,200824.4438192,83
1657723756.24109,200824.4438374,86
1657723756.24109,200824.443844,93
1657723756.24109,200824.4438483,98
1657723756.24109,200824.4438544,95
1657723756.24109,200824.4438714,95
1657723756.24109,200824.4438887,95
1657723756.24109,200824.4439012,90
1657723756.24109,200824.4439072,90
1657723756.24109,200824.4439095,90
1657723756.91328,200824.4439117,83
1657723756.91328,200824.4439136,81
1657723756.91328,200824.4439169,83
1657723756.91328,200824.4439258,88
1657723756.91328,200824.4439336,93
1657723756.91328,200824.4439391,100
1657723756.91328,200824.443945,102
1657723756.91328,200824.4439519,102
1657723756.91328,200824.4439578,105
1657723756.91328,200824.4439619,102
1657723756.91328,200824.4439658,90
1657723756.91328,200824.4439699,83
1657723756.91328,200824.4439758,83
1657723756.91328,200824.4439797,86
1657723756.91328,200824.4439851,83
1657723756.91328,200824.4439891,81
1657723756.91328,200824.4439946,86
1657723756.91328,200824.4439993,90
1657723756.91328,200824.4440028,95
1657723756.91328,200824.4440062,100
1657723756.91328,200824.4440101,102
1657723756.91328,200824.4440221,107
1657723756.91328,200824.4440259,110
1657723756.91328,200824.4440293,112
1657723756.91328,200824.4440326,117
1657723756.91328,200824.444037,119
1657723756.91328,200824.4440421,122
1657723756.91328,200824.4440454,119
1657723756.91328,200824.444049,112
1657723756.91328,200824.4440527,102
1657723756.91328,200824.4440564,95
1657723756.91328,200824.4440604,90
1657723756.91328,200824.4440662,88
1657723756.91328,200824.4440705,88
1657723756.91328,200824.4440743,88
1657723756.91328,200824.4440779,86
1657723756.91328,200824.4440824,78
1657723756.91328,200824.4440908,78
1657723756.91328,200824.4440975,83
1657723756.91328,200824.4441038,88
1657723756.91328,200824.4441069,83
1657723756.91328,200824.4441101,78
1657723756.91328,200824.4441132,74
1657723756.91328,200824.4441163,71
1657723756.91328,200824.4441196,74
1657723756.91328,200824.4441232,76
1657723756.91328,200824.4441272,74
1657723756.91328,200824.4441313,62
1657723756.91328,200824.4441348,57
1657723756.91328,200824.4441394,62
1657723756.92525,200824.4441433,66
1657723756.92525,200824.4441469,66
1657723756.92525,200824.4441504,64
1657723756.92525,200824.4441541,55
1657723756.92525,200824.4441614,38
1657723756.92525,200824.444168,26
1657723756.92525,200824.4441774,23
1657723756.92525,200824.4441824,33
1657723756.92525,200824.4441854,52
1657723756.92525,200824.4441884,71
1657723756.92525,200824.4441913,90
1657723756.92525,200824.4441942,105
1657723756.92525,200824.444197,95
1657723756.92525,200825.1263008,69
1657723756.92525,200825.126322,64
1657723756.92525,200825.1263351,76
1657723756.92525,200825.1263482,76
1657723756.92525,200825.126353,74
1657723756.92525,200825.1263572,78
1657723756.92525,200825.1263612,83
1657723756.92525,200825.1263651,117
1657723756.92525,200825.126369,287
1657723756.92525,200825.1263733,583
1657723756.92525,200825.1263805,787
1657723757.35228,200825.1263943,430
1657723757.35228,200825.1264026,-334
1657723757.35228,200825.1264098,-471
1657723757.35228,200825.1264173,-62
1657723757.35228,200825.1264234,21
1657723757.35228,200825.126432,-43
1657723757.35228,200825.1264354,43
1657723757.35228,200825.1264464,66
1657723757.35228,200825.1265805,31
1657723757.35228,200825.1265929,55
1657723757.35228,200825.1266028,69
1657723757.35228,200825.1266116,43
1657723757.35228,200825.1266225,38
1657723757.35228,200825.1266365,52
1657723757.35228,200825.1266494,57
1657723757.35228,200825.1266625,57
1657723757.35228,200825.1266754,62
1657723757.35228,200825.1266884,64
1657723757.35228,200825.1267017,66
1657723757.35228,200825.1267159,71
1657723757.35228,200825.1267291,69
1657723757.35228,200825.1267424,62
1657723757.35228,200825.1267564,62
1657723757.35228,200825.1267694,69
1657723757.35228,200825.1267825,69
1657723757.35228,200825.1267965,71
1657723757.35228,200825.1268096,76
1657723757.35228,200825.1268183,78
1657723757.35228,200825.126821,76
1657723757.35228,200825.1268232,74
1657723757.35228,200825.1268254,71
1657723757.35228,200825.1268275,71
1657723757.35228,200825.1268348,66
1657723757.35228,200825.1268477,57
1657723757.35228,200825.1268845,57
1657723757.35228,200825.1268973,66
1657723757.35228,200825.1269108,74
1657723757.35228,200825.1269252,78
1657723757.35228,200825.1269358,88
1657723757.35228,200825.1269444,93
1657723757.35228,200825.1269546,95
1657723757.35228,200825.1269617,100
1657723757.35228,200825.1269667,102
1657723757.35228,200825.126973,100
1657723757.35228,200825.1269777,95
1657723757.35228,200825.1269904,95
1657723757.35228,200825.1270002,93
1657723757.35228,200825.1270094,86
1657723757.35228,200825.127022,81
1657723757.35228,200825.1270317,76
1657723757.36325,200825.1270388,74
1657723757.36325,200825.1270508,83
1657723757.36325,200825.1270612,90
1657723757.36325,200825.1270703,95
1657723757.36325,200825.1270809,102
1657723757.36325,200825.1270913,102
1657723757.36325,200825.1271005,100
1657723757.36325,200825.1271109,100
1657723757.36325,200825.1271215,98
1657723757.36325,200825.127131,100
1657723757.36325,200825.1271413,102
1657723757.36325,200825.1271516,102
1657723757.36325,200825.5642878,98
1657723757.36325,200825.5643074,90
1657723757.36325,200825.5643172,86
1657723757.36325,200825.5643218,83
1657723757.36325,200825.564326,81
1657723757.36325,200825.56433,78
1657723757.36325,200825.5643338,74
1657723757.36325,200825.5643391,74
1657723757.36325,200825.5643429,78
1657723757.36325,200825.5643488,78
1657723757.36325,200825.564355,78
1657723757.36325,200825.5643617,83
1657723757.98926,200825.5643653,86
1657723757.98926,200825.564369,81
1657723757.98926,200825.5643726,78
1657723757.98926,200825.5643781,83
1657723757.98926,200825.5643817,88
1657723757.98926,200825.5643857,90
1657723757.98926,200825.5643901,83
1657723757.98926,200825.5643958,76
1657723757.98926,200825.5644008,71
1657723757.98926,200825.5644057,69
1657723757.98926,200825.5644127,69
1657723757.98926,200825.5644187,74
1657723757.98926,200825.5644226,74
1657723757.98926,200825.5644272,71
1657723757.98926,200825.5644382,64
1657723757.98926,200825.5644432,55
1657723757.98926,200825.5644454,50
1657723757.98926,200825.5644517,50
1657723757.98926,200825.5644635,62
1657723757.98926,200825.5644688,78
1657723757.98926,200825.564471,90
1657723757.98926,200825.5644732,114
1657723757.98926,200825.5644752,129
1657723757.98926,200825.5644812,105
1657723757.98926,200825.5644917,76
1657723757.98926,200825.5644962,71
1657723757.98926,200825.5644983,71
1657723757.98926,200825.5645008,69
1657723757.98926,200825.5645028,76
1657723757.98926,200825.5645049,81
1657723757.98926,200825.5645118,76
1657723757.98926,200825.564523,112
1657723757.98926,200825.5645378,287
1657723757.98926,200825.5645488,588
1657723757.98926,200825.5645617,741
1657723757.98926,200825.5645684,284
1657723757.98926,200825.5645754,-440
1657723757.98926,200825.5645788,-449
1657723757.98926,200825.5645839,-55
1657723757.98926,200825.5645969,-14
1657723757.98926,200825.5646111,-31
1657723757.98926,200825.5646218,71
1657723757.98926,200825.5646313,71
1657723757.98926,200825.5646374,40
1657723757.98926,200825.5646479,71
1657723757.98926,200825.5646524,81
1657723757.98926,200825.5646546,66
1657723757.98926,200825.5646567,76
1657723757.98926,200825.5646589,86
1657723757.98926,200825.5646673,83
1657723758.00023,200825.5646818,83
1657723758.00023,200825.5646917,86
1657723758.00023,200825.5647013,88
1657723758.00023,200825.5647087,93
1657723758.00023,200825.5647157,95
1657723758.00023,200825.5647224,90
1657723758.00023,200825.5647266,88
1657723758.00023,200825.5647386,93
1657723758.00023,200825.5647508,95
1657723758.00023,200825.5647626,98
1657723758.00023,200825.5647747,105
1657723758.00023,200826.1972831,110
1657723758.00023,200826.1973013,102
1657723758.00023,200826.1973064,95
1657723758.00023,200826.1973122,90
1657723758.00023,200826.1973167,86
1657723758.00023,200826.1973207,83
1657723758.00023,200826.1973245,83
1657723758.00023,200826.1973297,78
1657723758.00023,200826.1973334,74
1657723758.00023,200826.1973372,76
1657723758.00023,200826.197341,81
1657723758.00023,200826.1973461,86
1657723758.00023,200826.1973538,95
1657723758.82266,200826.1973617,102
1657723758.82266,200826.1973676,98
1657723758.82266,200826.1973745,95
1657723758.82266,200826.1973817,95
1657723758.82266,200826.1973889,81
1657723758.82266,200826.1973946,66
1657723758.82266,200826.1973985,71
1657723758.82266,200826.197404,76
1657723758.82266,200826.1974077,69
1657723758.82266,200826.1974108,69
1657723758.82266,200826.1974138,76
1657723758.82266,200826.1974167,81
1657723758.82266,200826.1974196,86
1657723758.82266,200826.1974225,83
1657723758.82266,200826.1974253,81
1657723758.82266,200826.1974282,83
1657723758.82266,200826.1974311,90
1657723758.82266,200826.197434,90
1657723758.82266,200826.197437,86
1657723758.82266,200826.1974398,88
1657723758.82266,200826.1974427,93
1657723758.82266,200826.1974457,90
1657723758.82266,200826.1974486,86
1657723758.82266,200826.1974516,86
1657723758.82266,200826.1974544,86
1657723758.82266,200826.1974576,83
1657723758.82266,200826.1974604,81
1657723758.82266,200826.1974632,83
1657723758.82266,200826.197466,83
1657723758.82266,200826.1974689,78
1657723758.82266,200826.1974717,78
1657723758.82266,200826.1974747,81
1657723758.82266,200826.1974776,83
1657723758.82266,200826.1974805,86
1657723758.82266,200826.1974833,86
1657723758.82266,200826.1974862,78
1657723758.82266,200826.1974891,78
1657723758.82266,200826.197492,83

1657723758.82266,200826.197495,81
1657723758.82266,200826.1974979,81
1657723758.82266,200826.1975009,78
1657723758.82266,200826.1975038,71
1657723758.82266,200826.1975067,66
1657723758.82266,200826.1975096,66
1657723758.82266,200826.1975125,64
1657723758.82266,200826.1975154,59
1657723758.82266,200826.1975184,57
1657723758.82266,200826.1975213,57
1657723758.82266,200826.1975241,55
1657723758.82266,200826.1975271,45
1657723758.83363,200826.1975299,35
1657723758.83363,200826.1975329,38
1657723758.83363,200826.1975358,47
1657723758.83363,200826.1975388,59
1657723758.83363,200826.1975416,78
1657723758.83363,200826.1975447,107
1657723758.83363,200826.1975476,122
1657723758.83363,200826.1975505,110
1657723758.83363,200826.1975535,83
1657723758.83363,200826.1975563,66
1657723758.83363,200827.0291162,59
1657723758.83363,200827.0291285,59
1657723758.83363,200827.0291319,69
1657723758.83363,200827.0291366,74
1657723758.83363,200827.0291387,74
1657723758.83363,200827.0291406,86
1657723758.83363,200827.0291426,198
1657723758.83363,200827.0291447,466
1657723758.83363,200827.0291466,698
1657723758.83363,200827.0291485,409
1657723758.83363,200827.0291506,-332
1657723758.83363,200827.0291525,-545
1657723758.83363,200827.0291545,-162
1657723758.83363,200827.0291564,-19
1657723759.98896,200827.0291583,-55
1657723759.98896,200827.0291603,31
1657723759.98896,200827.0291623,62
1657723759.98896,200827.0291641,21
1657723759.98896,200827.0291661,33
1657723759.98896,200827.029168,57
1657723759.98896,200827.0291705,55
1657723759.98896,200827.0291766,59
1657723759.98896,200827.0291866,69
1657723759.98896,200827.0291904,71
1657723759.98896,200827.0291925,74
1657723759.98896,200827.0291945,76
1657723759.98896,200827.0291964,76
1657723759.98896,200827.0291983,86
1657723759.98896,200827.0292004,93
1657723759.98896,200827.0292026,95
1657723759.98896,200827.0292046,95
1657723759.98896,200827.0292067,95
1657723759.98896,200827.0292087,95
1657723759.98896,200827.0292108,102
1657723759.98896,200827.0292128,110
1657723759.98896,200827.0292148,110
1657723759.98896,200827.0292169,112
1657723759.98896,200827.029219,107
1657723759.98896,200827.0292211,98
1657723759.98896,200827.0292232,98
1657723759.98896,200827.0292252,105
1657723759.98896,200827.0292273,100
1657723759.98896,200827.0292293,95
1657723759.98896,200827.0292313,95
1657723759.98896,200827.0292334,98
1657723759.98896,200827.0292354,98
1657723759.98896,200827.0292375,102
1657723759.98896,200827.0292395,110
1657723759.98896,200827.0292416,110
1657723759.98896,200827.0292436,102
1657723759.98896,200827.0292457,98
1657723759.98896,200827.0292477,88
1657723759.98896,200827.0292498,83
1657723759.98896,200827.0292518,88
1657723759.98896,200827.0292538,88
1657723759.98896,200827.0292559,86
1657723759.98896,200827.029258,88
1657723759.98896,200827.02926,95
1657723759.98896,200827.029262,100
1657723759.98896,200827.0292641,107
1657723759.98896,200827.0292662,114
1657723759.98896,200827.0292682,119
1657723759.98896,200827.0292702,124
1657723759.98896,200827.0292721,124
1657723759.99993,200827.0292742,114
1657723759.99993,200827.0292762,110
1657723759.99993,200827.0292783,119
1657723759.99993,200827.0292803,131
1657723759.99993,200827.0292824,119
1657723759.99993,200827.0292844,112
1657723759.99993,200827.0292865,117
1657723759.99993,200827.0292885,107
1657723759.99993,200827.0292906,100
1657723759.99993,200828.1963074,105
1657723759.99993,200828.1963183,95
1657723759.99993,200828.1963208,86
1657723759.99993,200828.196323,95
1657723759.99993,200828.1963251,90
1657723759.99993,200828.1963272,78
1657723759.99993,200828.1963292,86
1657723759.99993,200828.1963313,83
1657723759.99993,200828.1963332,69
1657723759.99993,200828.1963353,64
1657723759.99993,200828.1963374,66
1657723759.99993,200828.1963394,66
1657723759.99993,200828.1963415,71
1657723759.99993,200828.1963435,64
1657723759.99993,200828.1963455,62
1657723760.62178,200828.1963475,71
1657723760.62178,200828.1963495,74
1657723760.62178,200828.1963514,64
1657723760.62178,200828.1963533,57
1657723760.62178,200828.1963552,52
1657723760.62178,200828.1963571,45
1657723760.62178,200828.1963591,38
1657723760.62178,200828.196361,50
1657723760.62178,200828.196363,50
1657723760.62178,200828.196366,26
1657723760.62178,200828.1963738,14
1657723760.62178,200828.1963791,26
1657723760.62178,200828.1963848,43
1657723760.62178,200828.1963886,64
1657723760.62178,200828.1963931,88
1657723760.62178,200828.1964004,105
1657723760.62178,200828.1964057,95
1657723760.62178,200828.1964163,66
1657723760.62178,200828.1964213,55
1657723760.62178,200828.1964237,64
1657723760.62178,200828.1964257,66
1657723760.62178,200828.1964278,66
1657723760.62178,200828.1964298,74
1657723760.62178,200828.1964319,76
1657723760.62178,200828.196434,81
1657723760.62178,200828.196436,162
1657723760.62178,200828.1964381,425
1657723760.62178,200828.1964401,758
1657723760.62178,200828.1964422,543
1657723760.62178,200828.1964443,-342
1657723760.62178,200828.1964464,-724
1657723760.62178,200828.1964486,-287
1657723760.62178,200828.1964507,-52
1657723760.62178,200828.1964527,-98
1657723760.62178,200828.1964548,19
1657723760.62178,200828.1964569,98
1657723760.62178,200828.196459,47
1657723760.62178,200828.1964611,57
1657723760.62178,200828.1964631,95
1657723760.62178,200828.1964652,81
1657723760.62178,200828.1964673,76
1657723760.62178,200828.1964695,95
1657723760.62178,200828.1964715,100
1657723760.62178,200828.1964735,95
1657723760.62178,200828.1964756,102
1657723760.62178,200828.1964778,102
1657723760.62178,200828.1964799,102
1657723760.62178,200828.196482,112
1657723760.62178,200828.1964841,119
1657723760.62178,200828.1964862,122
1657723760.63275,200828.1964883,124
1657723760.63275,200828.1964904,124
1657723760.63275,200828.1964923,124
1657723760.63275,200828.1964943,126
1657723760.63275,200828.1964964,119
1657723760.63275,200828.1964986,114
1657723760.63275,200828.1965007,112
1657723760.63275,200828.1965028,95
1657723760.63275,200828.8298529,81
1657723760.63275,200828.8298664,81
1657723760.63275,200828.8298704,78
1657723760.63275,200828.8298768,66
1657723760.63275,200828.8298864,57
1657723760.63275,200828.8298946,57
1657723760.63275,200828.8299024,59
1657723760.63275,200828.8299081,64
1657723760.63275,200828.8299195,71
1657723760.63275,200828.8299256,71
1657723760.63275,200828.8299278,76
1657723760.63275,200828.8299299,83
1657723760.63275,200828.8299321,83
1657723760.63275,200828.8299386,81
1657723760.63275,200828.8299499,86
1657723760.63275,200828.829955,86
1657723761.05569,200828.829957,83
1657723761.05569,200828.829959,86
1657723761.05569,200828.829961,93
1657723761.05569,200828.8299643,95
1657723761.05569,200828.8299688,100
1657723761.05569,200828.8299711,107
1657723761.05569,200828.829974,112
1657723761.05569,200828.8299783,114
1657723761.05569,200828.8299806,114
1657723761.05569,200828.8299826,114
1657723761.05569,200828.8299846,114
1657723761.05569,200828.8299864,112
1657723761.05569,200828.8299884,110
1657723761.05569,200828.8299903,110
1657723761.05569,200828.829996,107
1657723761.05569,200828.8300059,100
1657723761.05569,200828.830015,98
1657723761.05569,200828.8300244,98
1657723761.05569,200828.8300317,98
1657723761.05569,200828.8300356,93
1657723761.05569,200828.8300405,93
1657723761.05569,200828.8300472,90
1657723761.05569,200828.8300531,88
1657723761.05569,200828.830058,88
1657723761.05569,200828.830064,88
1657723761.05569,200828.8300694,86
1657723761.05569,200828.8300767,88
1657723761.05569,200828.8300828,86
1657723761.05569,200828.8300897,71
1657723761.05569,200828.8300938,57
1657723761.05569,200828.8300992,50
1657723761.05569,200828.8301041,45
1657723761.05569,200828.8301093,47
1657723761.05569,200828.8301136,59
1657723761.05569,200828.8301172,74
1657723761.05569,200828.8301222,86
1657723761.05569,200828.8301257,93
1657723761.05569,200828.8301339,93
1657723761.05569,200828.8301428,76
1657723761.05569,200828.8301492,55
1657723761.05569,200828.8301528,57
1657723761.05569,200828.8301562,64
1657723761.05569,200828.8301613,62
1657723761.05569,200828.8301664,62
1657723761.05569,200828.8301718,64
1657723761.05569,200828.8301755,57
1657723761.05569,200828.8301807,133
1657723761.05569,200828.830185,392
1657723761.05569,200828.8301901,724
1657723761.05569,200828.830194,677
1657723761.06666,200828.8301974,-38
1657723761.06666,200828.8302022,-569
1657723761.06666,200828.8302055,-265
1657723761.06666,200828.830209,33
1657723761.06666,200828.8302125,-47
1657723761.06666,200828.830216,-23
1657723761.06666,200828.8302192,57
1657723761.06666,200829.2694258,28
1657723761.06666,200829.2694395,26
1657723761.06666,200829.2694447,57
1657723761.06666,200829.2694504,50
1657723761.06666,200829.2694532,45
1657723761.06666,200829.2694572,62
1657723761.06666,200829.2694602,66
1657723761.06666,200829.269463,66
1657723761.06666,200829.2694657,71
1657723761.06666,200829.2694684,71
1657723761.06666,200829.2694706,69
1657723761.06666,200829.2694728,74
1657723761.06666,200829.2694748,81
1657723761.06666,200829.2694768,83
1657723761.06666,200829.2694788,83
1657723761.06666,200829.2694808,81
1657723761.06666,200829.2694837,76
1657723761.6503,200829.2694908,78
1657723761.6503,200829.2695015,78
1657723761.6503,200829.2695067,76
1657723761.6503,200829.2695089,74
1657723761.6503,200829.2695108,69
1657723761.6503,200829.2695129,57
1657723761.6503,200829.2695196,50
1657723761.6503,200829.2695306,47
1657723761.6503,200829.269535,47
1657723761.6503,200829.2695392,45
1657723761.6503,200829.2695412,50
1657723761.6503,200829.2695432,57
1657723761.6503,200829.2695453,66
1657723761.6503,200829.269548,81
1657723761.6503,200829.269558,93
1657723761.6503,200829.269572,95
1657723761.6503,200829.2695744,95
1657723761.6503,200829.2695765,90
1657723761.6503,200829.2695786,88
1657723761.6503,200829.2695806,86
1657723761.6503,200829.2695826,88
1657723761.6503,200829.2695848,86
1657723761.6503,200829.2695868,86
1657723761.6503,200829.2695888,83
1657723761.6503,200829.2695909,83
1657723761.6503,200829.2695935,88
1657723761.6503,200829.2695957,95
1657723761.6503,200829.2695977,98
1657723761.6503,200829.2695998,100
1657723761.6503,200829.2696018,102
1657723761.6503,200829.2696039,107
1657723761.6503,200829.2696059,110
1657723761.6503,200829.269608,110
1657723761.6503,200829.26961,112
1657723761.6503,200829.269612,110
1657723761.6503,200829.2696141,107
1657723761.6503,200829.269616,107
1657723761.6503,200829.269618,100
1657723761.6503,200829.2696207,88
1657723761.6503,200829.2696227,86
1657723761.6503,200829.2696248,88
1657723761.6503,200829.2696268,86
1657723761.6503,200829.2696288,83
1657723761.6503,200829.2696309,81
1657723761.6503,200829.2696329,76
1657723761.6503,200829.269635,76
1657723761.6503,200829.269637,76
1657723761.6503,200829.2696391,74
1657723761.6503,200829.2696412,74
1657723761.6503,200829.269644,71
1657723761.66127,200829.2696461,66
1657723761.66127,200829.2696488,64
1657723761.66127,200829.269651,62
1657723761.66127,200829.2696531,52
1657723761.66127,200829.2696551,43
1657723761.66127,200829.2696571,40
1657723761.66127,200829.8538652,50
1657723761.66127,200829.8538852,64
1657723761.66127,200829.8538953,83
1657723761.66127,200829.853901,110
1657723761.66127,200829.8539082,119
1657723761.66127,200829.8539134,100
1657723761.66127,200829.8539202,81
1657723761.66127,200829.8539252,76
1657723761.66127,200829.8539319,81
1657723761.66127,200829.8539378,81
1657723761.66127,200829.8539435,81
1657723761.66127,200829.8539489,86
1657723761.66127,200829.8539549,86
1657723761.66127,200829.8539604,138
1657723761.66127,200829.8539736,339
1657723761.66127,200829.8539789,667
1657723761.66127,200829.8539828,760
1657723761.66127,200829.8539869,143
1657723762.12908,200829.8539929,-555
1657723762.12908,200829.8539967,-401
1657723762.12908,200829.8540005,-23
1657723762.12908,200829.8540044,-43
1657723762.12908,200829.8540087,-40
1657723762.12908,200829.8540133,55
1657723762.12908,200829.8540175,35
1657723762.12908,200829.854021,11
1657723762.12908,200829.8540248,50
1657723762.12908,200829.8540285,55
1657723762.12908,200829.8540342,35
1657723762.12908,200829.8540385,55
1657723762.12908,200829.8540462,71
1657723762.12908,200829.8540526,55
1657723762.12908,200829.8540629,43
1657723762.12908,200829.8540677,52
1657723762.12908,200829.8540715,52
1657723762.12908,200829.8540736,47
1657723762.12908,200829.8540757,59
1657723762.12908,200829.8540807,64
1657723762.12908,200829.8540924,52
1657723762.12908,200829.8540979,52
1657723762.12908,200829.8541008,62
1657723762.12908,200829.854103,66
1657723762.12908,200829.8541052,71
1657723762.12908,200829.8541127,76
1657723762.12908,200829.8541234,66
1657723762.12908,200829.8541268,50
1657723762.12908,200829.8541307,47
1657723762.12908,200829.8541328,43
1657723762.12908,200829.854135,28
1657723762.12908,200829.8541384,31
1657723762.12908,200829.8541513,35
1657723762.12908,200829.8541571,33
1657723762.12908,200829.8541592,43
1657723762.12908,200829.8541614,55
1657723762.12908,200829.8541635,57
1657723762.12908,200829.8541661,66
1657723762.12908,200829.8541761,69
1657723762.12908,200829.8541882,59
1657723762.12908,200829.8542014,59
1657723762.12908,200829.8542153,69
1657723762.12908,200829.8542284,69
1657723762.12908,200829.8542405,66
1657723762.12908,200829.8542501,64
1657723762.12908,200829.8542577,66
1657723762.12908,200829.8542674,74
1657723762.12908,200829.854278,74
1657723762.12908,200829.8542868,78
1657723762.12908,200829.8542949,90
1657723762.14007,200829.8543074,90
1657723762.14007,200829.8543202,90
1657723762.14007,200829.8543258,95
1657723762.14007,200829.8543291,102
1657723762.14007,200829.8543319,105
1657723762.14007,200830.3414834,102
1657723762.14007,200830.3415043,105
1657723762.14007,200830.3415153,102
1657723762.14007,200830.3415238,95
1657723762.14007,200830.341534,90
1657723762.14007,200830.3415394,88
1657723762.14007,200830.3415444,86
1657723762.14007,200830.3415518,83
1657723762.14007,200830.3415617,83
1657723762.14007,200830.341567,78
1657723762.14007,200830.3415735,78
1657723762.14007,200830.3415813,83
1657723762.14007,200830.3415878,83
1657723762.14007,200830.3415974,78
1657723762.14007,200830.3416022,83
1657723762.14007,200830.3416085,71
1657723762.14007,200830.3416155,47
1657723762.14007,200830.3416231,57
1657723762.14007,200830.3416328,74
1657723762.66645,200830.3416389,66
1657723762.66645,200830.3416427,52
1657723762.66645,200830.3416464,43
1657723762.66645,200830.3416499,35
1657723762.66645,200830.3416533,33
1657723762.66645,200830.3416576,45
1657723762.66645,200830.3416625,64
1657723762.66645,200830.3416688,86
1657723762.66645,200830.3416775,107
1657723762.66645,200830.3416819,110
1657723762.66645,200830.3416855,90
1657723762.66645,200830.3416891,69
1657723762.66645,200830.3416951,69
1657723762.66645,200830.3417032,78
1657723762.66645,200830.3417081,83
1657723762.66645,200830.3417126,78
1657723762.66645,200830.3417201,74
1657723762.66645,200830.3417255,71
1657723762.66645,200830.3417291,136
1657723762.66645,200830.3417329,368
1657723762.66645,200830.3417364,674
1657723762.66645,200830.3417402,588
1657723762.66645,200830.3417452,-117
1657723762.66645,200830.3417505,-588
1657723762.66645,200830.341757,-287
1657723762.66645,200830.3417635,-4
1657723762.66645,200830.3417709,-43
1657723762.66645,200830.3417806,4
1657723762.66645,200830.3417852,69
1657723762.66645,200830.3417888,31
1657723762.66645,200830.3417921,26
1657723762.66645,200830.3417983,55
1657723762.66645,200830.3418017,52
1657723762.66645,200830.3418067,50
1657723762.66645,200830.3418131,59
1657723762.66645,200830.341817,57
1657723762.66645,200830.3418202,55
1657723762.66645,200830.3418331,62
1657723762.66645,200830.3418461,66
1657723762.66645,200830.3418554,66
1657723762.66645,200830.3418605,64
1657723762.66645,200830.3418712,62
1657723762.66645,200830.3418802,57
1657723762.66645,200830.3418879,66
1657723762.66645,200830.3418932,78
1657723762.66645,200830.3418975,78
1657723762.66645,200830.3419016,74
1657723762.66645,200830.3419058,66
1657723762.66645,200830.3419105,57
1657723762.66645,200830.3419155,55
1657723762.67745,200830.3419223,55
1657723762.67745,200830.341947,43
1657723762.67745,200830.341955,43
1657723762.67745,200830.3419622,45
1657723762.67745,200830.8781426,28
1657723762.67745,200830.8781642,26
1657723762.67745,200830.8781792,43
1657723762.67745,200830.8781907,50
1657723762.67745,200830.8782015,50
1657723762.67745,200830.8782118,50
1657723762.67745,200830.878221,40
1657723762.67745,200830.8782324,31
1657723762.67745,200830.8782454,33
1657723762.67745,200830.8782559,35
1657723762.67745,200830.8782602,35
1657723762.67745,200830.8782737,35
1657723762.67745,200830.8782825,33
1657723762.67745,200830.8782919,38
1657723762.67745,200830.8782982,47
1657723762.67745,200830.8783102,55
1657723762.67745,200830.8783184,59
1657723762.67745,200830.8783208,69
1657723762.67745,200830.878323,66
1657723762.67745,200830.8783266,59
1657723763.31059,200830.8783353,71
1657723763.31059,200830.8783431,86
1657723763.31059,200830.8783505,83
1657723763.31059,200830.8783581,83
1657723763.31059,200830.8783637,88
1657723763.31059,200830.8783716,93
1657723763.31059,200830.8783756,90
1657723763.31059,200830.8783835,90
1657723763.31059,200830.8783944,88
1657723763.31059,200830.878402,88
1657723763.31059,200830.8784111,86
1657723763.31059,200830.8784157,86
1657723763.31059,200830.8784189,81
1657723763.31059,200830.8784251,71
1657723763.31059,200830.8784371,64
1657723763.31059,200830.8784492,71
1657723763.31059,200830.8784603,76
1657723763.31059,200830.8784716,71
1657723763.31059,200830.8784755,69
1657723763.31059,200830.8784776,74
1657723763.31059,200830.8784797,76
1657723763.31059,200830.8784818,76
1657723763.31059,200830.878484,76
1657723763.31059,200830.8784862,69
1657723763.31059,200830.8784884,59
1657723763.31059,200830.8784905,57
1657723763.31059,200830.8784926,66
1657723763.31059,200830.8784947,78
1657723763.31059,200830.8784969,93
1657723763.31059,200830.8785004,119
1657723763.31059,200830.8785135,141
1657723763.31059,200830.8785192,133
1657723763.31059,200830.8785214,105
1657723763.31059,200830.8785236,93
1657723763.31059,200830.8785257,102
1657723763.31059,200830.8785278,110
1657723763.31059,200830.8785312,107
1657723763.31059,200830.878544,110
1657723763.31059,200830.8785495,110
1657723763.31059,200830.8785519,102
1657723763.31059,200830.878554,196
1657723763.31059,200830.8785561,466
1657723763.31059,200830.8785581,722
1657723763.31059,200830.8785637,449
1657723763.31059,200830.8785771,-296
1657723763.31059,200830.8785914,-521
1657723763.31059,200830.8786041,-131
1657723763.31059,200830.8786158,26
1657723763.31059,200830.8786287,-11
1657723763.31059,200830.8786372,76
1657723763.32056,200830.8786495,110
1657723763.32056,200830.8786596,71
1657723763.32056,200830.8786687,86
1657723763.32056,200831.5127538,107
1657723763.32056,200831.512773,98
1657723763.32056,200831.5127786,95
1657723763.32056,200831.5127841,98
1657723763.32056,200831.5127885,93
1657723763.32056,200831.512793,95
1657723763.32056,200831.5127989,102
1657723763.32056,200831.5128059,102
1657723763.32056,200831.5128107,100
1657723763.32056,200831.5128161,98
1657723763.32056,200831.5128231,98
1657723763.32056,200831.5128304,93
1657723763.32056,200831.5128378,93
1657723763.32056,200831.5128465,98
1657723763.32056,200831.5128531,100
1657723763.32056,200831.5128578,100
1657723763.32056,200831.5128621,95
1657723763.32056,200831.5128686,93
1657723763.32056,200831.5129119,95
1657723763.32056,200831.512922,90
1657723763.32056,200831.5129266,83
1657723763.59768,200831.5129317,81
1657723763.59768,200831.5129371,78
1657723763.59768,200831.512941,76
1657723763.59768,200831.5129456,74
1657723763.59768,200831.5129527,71
1657723763.59768,200831.5129807,69
1657723763.59768,200831.5129859,76
1657723763.59768,200831.5129918,69
1657723763.59768,200831.512996,55
1657723763.59768,200831.5130022,55
1657723763.59768,200831.5130084,57
1657723763.59768,200831.5130133,55
1657723763.59768,200831.513019,52
1657723763.59768,200831.5130265,47
1657723763.59768,200831.5130331,38
1657723763.59768,200831.5130383,38
1657723763.59768,200831.5130444,50
1657723763.59768,200831.5130577,55
1657723763.59768,200831.5130656,55
1657723763.59768,200831.5130781,66
1657723763.59768,200831.5130918,71
1657723763.59768,200831.5130995,71
1657723763.59768,200831.513103,78
1657723763.59768,200831.5131052,86
1657723763.59768,200831.5131073,86
1657723763.59768,200831.5131093,88
1657723763.59768,200831.5131123,86
1657723763.59768,200831.5131228,81
1657723763.59768,200831.5131303,83
1657723763.59768,200831.5131327,83
1657723763.59768,200831.5131349,76
1657723763.59768,200831.5131369,74
1657723763.59768,200831.5131399,74
1657723763.59768,200831.5131506,69
1657723763.59768,200831.5131575,69
1657723763.59768,200831.5131599,74
1657723763.59768,200831.513162,74
1657723763.59768,200831.5131641,71
1657723763.59768,200831.5131663,66
1657723763.59768,200831.5131765,62
1657723763.59768,200831.5131851,57
1657723763.59768,200831.5131877,59
1657723763.59768,200831.5131899,62
1657723763.59768,200831.5131919,57
1657723763.59768,200831.5131942,47
1657723763.59768,200831.5131963,38
1657723763.59768,200831.5131983,47
1657723763.59768,200831.5132005,74
1657723763.59768,200831.5132044,102
1657723763.59768,200831.5132089,119
1657723763.60865,200831.5132139,126
1657723763.60865,200831.5132212,105
1657723763.60865,200831.8073455,74
1657723763.60865,200831.8073669,71
1657723763.60865,200831.8073768,78
1657723763.60865,200831.8073838,78
1657723763.60865,200831.8073932,86
1657723763.60865,200831.8073978,90
1657723763.60865,200831.8074018,76
1657723763.60865,200831.8074051,112
1657723763.60865,200831.8074116,301
1657723763.60865,200831.807419,590
1657723763.60865,200831.8074283,629
1657723763.60865,200831.8074326,66
1657723763.60865,200831.8074389,-521
1657723763.60865,200831.8074517,-370
1657723763.60865,200831.8074623,-26
1657723763.60865,200831.8074698,-14
1657723763.60865,200831.807476,7
1657723763.60865,200831.8074854,88
1657723763.60865,200831.8074946,52
1657723763.60865,200831.8075035,19
1657723763.60865,200831.8075073,45
1657723763.60865,200831.8075099,50
1657723764.37572,200831.8075379,45
1657723764.37572,200831.8075446,50
1657723764.37572,200831.8075493,43
1657723764.37572,200831.8075529,43
1657723764.37572,200831.8075575,50
1657723764.37572,200831.8075622,55
1657723764.37572,200831.807566,59
1657723764.37572,200831.80757,66
1657723764.37572,200831.8075756,74
1657723764.37572,200831.8075826,76
1657723764.37572,200831.8075864,81
1657723764.37572,200831.8075916,88
1657723764.37572,200831.8075959,93
1657723764.37572,200831.8075995,100
1657723764.37572,200831.8076038,105
1657723764.37572,200831.8076072,102
1657723764.37572,200831.807611,100
1657723764.37572,200831.8076145,102
1657723764.37572,200831.8076181,105
1657723764.37572,200831.8076236,98
1657723764.37572,200831.8076271,90
1657723764.37572,200831.8076307,86
1657723764.37572,200831.807636,69
1657723764.37572,200831.8076397,55
1657723764.37572,200831.8076435,55
1657723764.37572,200831.8076491,59
1657723764.37572,200831.8076529,59
1657723764.37572,200831.8076566,52
1657723764.37572,200831.8076637,45
1657723764.37572,200831.807669,38
1657723764.37572,200831.8076747,31
1657723764.37572,200831.8076784,28
1657723764.37572,200831.8076831,33
1657723764.37572,200831.8076865,33
1657723764.37572,200831.8076904,33
1657723764.37572,200831.8076949,35
1657723764.37572,200831.8076983,40
1657723764.37572,200831.8077025,47
1657723764.37572,200831.8077059,52
1657723764.37572,200831.8077091,57
1657723764.37572,200831.8077124,62
1657723764.37572,200831.8077158,50
1657723764.37572,200831.8077198,40
1657723764.37572,200831.8077247,47
1657723764.37572,200831.8077282,50
1657723764.37572,200831.8077316,50
1657723764.37572,200831.807735,55
1657723764.37572,200831.8077399,57
1657723764.37572,200831.8077437,62
1657723764.37572,200831.8077469,71
1657723764.38669,200831.8077503,76
1657723764.38669,200832.5842095,74
1657723764.38669,200832.5842299,62
1657723764.38669,200832.5842387,45
1657723764.38669,200832.5842431,33
1657723764.38669,200832.5842485,40
1657723764.38669,200832.5842544,47
1657723764.38669,200832.5842608,43
1657723764.38669,200832.5842687,47
1657723764.38669,200832.5842755,57
1657723764.38669,200832.5842817,52
1657723764.38669,200832.5842857,40
1657723764.38669,200832.5842893,28
1657723764.38669,200832.5842929,21
1657723764.38669,200832.5842964,28
1657723764.38669,200832.5843001,45
1657723764.38669,200832.5843037,62
1657723764.38669,200832.5843102,86
1657723764.38669,200832.5843158,105
1657723764.38669,200832.5843196,105
1657723764.38669,200832.5843248,81
1657723764.38669,200832.5843285,57
1657723764.38669,200832.5843321,52
1657723764.38669,200832.5843357,59
1657723765.25162,200832.5843408,69
1657723765.25162,200832.5843443,83
1657723765.25162,200832.5843479,86
1657723765.25162,200832.5843514,69
1657723765.25162,200832.5843549,119
1657723765.25162,200832.5843584,322
1657723765.25162,200832.5843619,614
1657723765.25162,200832.5843654,595
1657723765.25162,200832.584369,-64
1657723765.25162,200832.5843727,-629
1657723765.25162,200832.5843762,-387
1657723765.25162,200832.5843798,-47
1657723765.25162,200832.5843834,-47
1657723765.25162,200832.5843881,2
1657723765.25162,200832.5843921,105
1657723765.25162,200832.5843951,83
1657723765.25162,200832.5843978,57
1657723765.25162,200832.5844004,90
1657723765.25162,200832.5844031,102
1657723765.25162,200832.5844059,81
1657723765.25162,200832.5844085,81
1657723765.25162,200832.5844112,95
1657723765.25162,200832.5844138,90
1657723765.25162,200832.5844164,93
1657723765.25162,200832.5844191,93
1657723765.25162,200832.5844218,78
1657723765.25162,200832.5844245,78
1657723765.25162,200832.5844272,102
1657723765.25162,200832.5844298,105
1657723765.25162,200832.5844324,93
1657723765.25162,200832.5844351,95
1657723765.25162,200832.5844379,112
1657723765.25162,200832.5844408,126
1657723765.25162,200832.5844435,122
1657723765.25162,200832.5844462,114
1657723765.25162,200832.5844488,124
1657723765.25162,200832.5844515,131
1657723765.25162,200832.5844542,129
1657723765.25162,200832.5844568,126
1657723765.25162,200832.5844595,126
1657723765.25162,200832.5844622,122
1657723765.25162,200832.5844648,112
1657723765.25162,200832.584489,95
1657723765.25162,200832.5845036,81
1657723765.25162,200832.5845146,78
1657723765.25162,200832.5845232,76
1657723765.25162,200832.5845279,71
1657723765.25162,200832.5845358,66
1657723765.25162,200832.5845429,64
1657723765.25162,200832.5845472,59
1657723765.26258,200833.4646161,52
1657723765.26258,200833.4646424,47
1657723765.26258,200833.4646501,47
1657723765.26258,200833.4646551,43
1657723765.26258,200833.4646611,35
1657723765.26258,200833.4647106,43
1657723765.26258,200833.4647208,50
1657723765.26258,200833.4647275,52
1657723765.26258,200833.4647319,57
1657723765.26258,200833.4647351,69
1657723765.26258,200833.4647384,76
1657723765.26258,200833.4647472,78
1657723765.26258,200833.464751,83
1657723765.26258,200833.4647543,76
1657723765.26258,200833.4647577,69
1657723765.26258,200833.4647613,81
1657723765.26258,200833.4647646,90
1657723765.26258,200833.4647693,86
1657723765.26258,200833.4647735,83
1657723765.26258,200833.4647772,88
1657723765.26258,200833.4647837,86
1657723765.26258,200833.4647873,88
1657723765.26258,200833.4647909,90
1657723765.26258,200833.4647946,90
1657723765.78748,200833.4647984,86
1657723765.78748,200833.4648022,81
1657723765.78748,200833.4648056,81
1657723765.78748,200833.464809,74
1657723765.78748,200833.4648125,64
1657723765.78748,200833.4648166,64
1657723765.78748,200833.4648207,74
1657723765.78748,200833.464825,88
1657723765.78748,200833.464831,105
1657723765.78748,200833.4648446,129
1657723765.78748,200833.4648498,143
1657723765.78748,200833.4648553,136
1657723765.78748,200833.4648615,117
1657723765.78748,200833.4648706,105
1657723765.78748,200833.4648777,110
1657723765.78748,200833.4648834,114
1657723765.78748,200833.4648893,119
1657723765.78748,200833.4648938,122
1657723765.78748,200833.4648989,119
1657723765.78748,200833.4649135,136
1657723765.78748,200833.4649264,291
1657723765.78748,200833.4649323,607
1657723765.78748,200833.4649412,815
1657723765.78748,200833.4649495,394
1657723765.78748,200833.464954,-375
1657723765.78748,200833.4649581,-430
1657723765.78748,200833.4649715,-4
1657723765.78748,200833.4649847,55
1657723765.78748,200833.464997,4
1657723765.78748,200833.465005,100
1657723765.78748,200833.4650097,114
1657723765.78748,200833.4650151,76
1657723765.78748,200833.4650277,93
1657723765.78748,200833.4650363,107
1657723765.78748,200833.4650479,98
1657723765.78748,200833.4650596,105
1657723765.78748,200833.465064,119
1657723765.78748,200833.4650734,114
1657723765.78748,200833.465082,112
1657723765.78748,200833.4650922,112
1657723765.78748,200833.4651006,112
1657723765.78748,200833.4651096,112
1657723765.78748,200833.4651166,110
1657723765.78748,200833.4651287,110
1657723765.78748,200833.465139,112
1657723765.78748,200833.46515,105
1657723765.78748,200833.4651601,95
1657723765.78748,200833.4651677,98
1657723765.78748,200833.465178,102
1657723765.78748,200833.9987213,98
1657723765.79745,200833.9987344,90
1657723765.79745,200833.9987371,88
1657723765.79745,200833.9987392,83
1657723765.79745,200833.9987413,78
1657723765.79745,200833.9987433,76
1657723765.79745,200833.9987454,74
1657723765.79745,200833.9987475,69
1657723765.79745,200833.9987497,69
1657723765.79745,200833.9987517,74
1657723765.79745,200833.9987537,81
1657723765.79745,200833.9987558,93
1657723765.79745,200833.9987578,100
1657723765.79745,200833.99876,98
1657723765.79745,200833.998762,95
1657723765.79745,200833.9987642,90
1657723765.79745,200833.9987708,78
1657723765.79745,200833.9987825,71
1657723765.79745,200833.9987879,69
1657723765.79745,200833.9987918,66
1657723765.79745,200833.998794,66
1657723765.79745,200833.9987961,62
1657723765.79745,200833.9987981,52
1657723765.79745,200833.9988002,55
1657723765.79745,200833.9988023,62
1657723766.72014,200833.9988044,62
1657723766.72014,200833.9988064,69
1657723766.72014,200833.9988084,76
1657723766.72014,200833.9988103,74
1657723766.72014,200833.9988122,78
1657723766.72014,200833.9988142,83
1657723766.72014,200833.9988161,83
1657723766.72014,200833.998818,81
1657723766.72014,200833.9988199,83
1657723766.72014,200833.9988219,83
1657723766.72014,200833.9988238,83
1657723766.72014,200833.9988258,81
1657723766.72014,200833.9988277,81
1657723766.72014,200833.9988342,83
1657723766.72014,200833.9988436,81
1657723766.72014,200833.9988511,74
1657723766.72014,200833.9988602,64
1657723766.72014,200833.9988644,59
1657723766.72014,200833.9988688,64
1657723766.72014,200833.9988708,78
1657723766.72014,200833.998874,100
1657723766.72014,200833.9988762,119
1657723766.72014,200833.9988783,122
1657723766.72014,200833.9988804,105
1657723766.72014,200833.9988824,78
1657723766.72014,200833.9988845,71
1657723766.72014,200833.9988895,78
1657723766.72014,200833.9989011,86
1657723766.72014,200833.9989065,71
1657723766.72014,200833.9989096,57
1657723766.72014,200833.9989116,52
1657723766.72014,200833.9989137,66
1657723766.72014,200833.9989158,191
1657723766.72014,200833.9989211,495
1657723766.72014,200833.9989324,736
1657723766.72014,200833.9989377,373
1657723766.72014,200833.9989402,-406
1657723766.72014,200833.9989423,-533
1657723766.72014,200833.9989449,-105
1657723766.72014,200833.9989553,7
1657723766.72014,200833.9989633,-38
1657723766.72014,200833.9989658,50
1657723766.72014,200833.9989688,71
1657723766.72014,200833.9989709,35
1657723766.72014,200833.9989735,59
1657723766.72014,200833.9989841,78
1657723766.72014,200833.9989919,69
1657723766.72014,200833.9989956,69
1657723766.72014,200834.9267716,69
1657723766.72014,200834.926791,69
1657723766.73111,200834.9268068,76
1657723766.73111,200834.9268159,81
1657723766.73111,200834.9268184,83
1657723766.73111,200834.9268206,88
1657723766.73111,200834.9268227,86
1657723766.73111,200834.9268248,81
1657723766.73111,200834.9268268,90
1657723766.73111,200834.9268289,100
1657723766.73111,200834.9268311,102
1657723766.73111,200834.9268332,105
1657723766.73111,200834.9268352,107
1657723766.73111,200834.9268373,107
1657723766.73111,200834.9268393,110
1657723766.73111,200834.9268413,112
1657723766.73111,200834.926844,107
1657723766.73111,200834.9268512,98
1657723766.73111,200834.9268621,93
1657723766.73111,200834.9268668,90
1657723766.73111,200834.926869,90
1657723766.73111,200834.9268717,95
1657723766.73111,200834.9268737,100
1657723766.73111,200834.9268759,102
1657723766.73111,200834.9268829,98
1657723766.73111,200834.9268938,90
1657723767.68597,200834.9268983,88
1657723767.68597,200834.9269012,90
1657723767.68597,200834.9269032,86
1657723767.68597,200834.9269062,83
1657723767.68597,200834.9269164,81
1657723767.68597,200834.9269259,76
1657723767.68597,200834.9269325,71
1657723767.68597,200834.9269367,76
1657723767.68597,200834.9269402,81
1657723767.68597,200834.9269454,86
1657723767.68597,200834.9269507,90
1657723767.68597,200834.9269606,93
1657723767.68597,200834.9269702,95
1657723767.68597,200834.9269741,93
1657723767.68597,200834.9269762,93
1657723767.68597,200834.9269784,98
1657723767.68597,200834.9269804,93
1657723767.68597,200834.9269825,90
1657723767.68597,200834.9269845,90
1657723767.68597,200834.9269866,95
1657723767.68597,200834.9269922,95
1657723767.68597,200834.9270037,93
1657723767.68597,200834.927009,93
1657723767.68597,200834.9270111,88
1657723767.68597,200834.9270131,88
1657723767.68597,200834.9270152,90
1657723767.68597,200834.9270172,88
1657723767.68597,200834.9270224,78
1657723767.68597,200834.9270336,64
1657723767.68597,200834.9270391,45
1657723767.68597,200834.9270412,40
1657723767.68597,200834.9270432,62
1657723767.68597,200834.9270491,86
1657723767.68597,200834.9270603,102
1657723767.68597,200834.9270678,122
1657723767.68597,200834.927075,124
1657723767.68597,200834.9270841,100
1657723767.68597,200834.9270904,81
1657723767.68597,200834.9270966,86
1657723767.68597,200834.9271,95
1657723767.68597,200834.9271113,98
1657723767.68597,200834.9271158,100
1657723767.68597,200834.9271209,98
1657723767.68597,200834.9271238,98
1657723767.68597,200834.9271279,177
1657723767.68597,200834.9271309,418
1657723767.68597,200834.9271339,710
1657723767.68597,200835.8991163,562
1657723767.68597,200835.8991361,-174
1657723767.68597,200835.8991446,-545
1657723767.69594,200835.8991512,-179
1657723767.69594,200835.8991586,50
1657723767.69594,200835.8991672,-4
1657723767.69594,200835.8991743,62
1657723767.69594,200835.8991812,122
1657723767.69594,200835.8991856,78
1657723767.69594,200835.8991905,78
1657723767.69594,200835.8991962,105
1657723767.69594,200835.8992054,98
1657723767.69594,200835.8992158,95
1657723767.69594,200835.8992312,107
1657723767.69594,200835.8992378,110
1657723767.69594,200835.8992407,110
1657723767.69594,200835.8992427,112
1657723767.69594,200835.8992448,114
1657723767.69594,200835.8992469,119
1657723767.69594,200835.8992489,124
1657723767.69594,200835.8992509,129
1657723767.69594,200835.8992529,129
1657723767.69594,200835.8992549,133
1657723767.69594,200835.8992571,138
1657723767.69594,200835.8992591,141
1657723767.69594,200835.8992611,143
1657723767.69594,200835.8992632,148
1657723767.88658,200835.8992652,148
1657723767.88658,200835.8992672,143

1657723767.88658,200835.8992691,136
1657723767.88658,200835.899271,131
1657723767.88658,200835.8992729,131
1657723767.88658,200835.8992749,131
1657723767.88658,200835.8992769,129
1657723767.88658,200835.8992788,126
1657723767.88658,200835.8992807,129
1657723767.88658,200835.8992826,131
1657723767.88658,200835.8992844,133
1657723767.88658,200835.8992864,131
1657723767.88658,200835.8992883,126
1657723767.88658,200835.8992916,117
1657723767.88658,200835.8993014,107
1657723767.88658,200835.8993076,102
1657723767.88658,200835.8993191,102
1657723767.88658,200835.8993289,100
1657723767.88658,200835.899338,98
1657723767.88658,200835.899343,98
1657723767.88658,200835.8993584,98
1657723767.88658,200835.8993682,102
1657723767.88658,200835.8993709,110
1657723767.88658,200835.8993731,114
1657723767.88658,200835.8993753,119
1657723767.88658,200835.8993774,124
1657723767.88658,200835.89938,117
1657723767.88658,200835.8993899,112
1657723767.88658,200835.8993991,119
1657723767.88658,200835.8994016,126
1657723767.88658,200835.8994037,126
1657723767.88658,200835.8994058,126
1657723767.88658,200835.8994129,119
1657723767.88658,200835.8994239,105
1657723767.88658,200835.8994283,95
1657723767.88658,200835.8994312,90
1657723767.88658,200835.8994347,83
1657723767.88658,200835.8994465,81
1657723767.88658,200835.8994582,76
1657723767.88658,200835.8994712,69
1657723767.88658,200835.8994849,69
1657723767.88658,200835.8994981,69
1657723767.88658,200835.899503,69
1657723767.88658,200835.8995105,69
1657723767.88658,200835.8995221,66
1657723767.88658,200835.8995318,55
1657723767.88658,200836.0949642,35
1657723767.88658,200836.0949823,31
1657723767.88658,200836.0949877,33
1657723767.88658,200836.0949923,38
1657723767.89755,200836.0949977,55
1657723767.89755,200836.0950037,81
1657723767.89755,200836.0950082,105
1657723767.89755,200836.0950139,119
1657723767.89755,200836.0950185,110
1657723767.89755,200836.0950243,86
1657723767.89755,200836.0950288,71
1657723767.89755,200836.0950348,83
1657723767.89755,200836.0950391,93
1657723767.89755,200836.095045,90
1657723767.89755,200836.0950494,95
1657723767.89755,200836.0950552,98
1657723767.89755,200836.0950595,117
1657723767.89755,200836.0950652,258
1657723767.89755,200836.0950706,555
1657723767.89755,200836.0950747,758
1657723767.89755,200836.0950806,349
1657723767.89755,200836.095085,-413
1657723767.89755,200836.0950893,-488
1657723767.89755,200836.0950949,-64
1657723767.89755,200836.0950993,28
1657723767.89755,200836.0951036,0
1657723767.89755,200836.0951096,100
1657723767.89755,200836.0951147,114
1657723768.08475,200836.095119,78
1657723768.08475,200836.0951232,107
1657723768.08475,200836.0951272,126
1657723768.08475,200836.0951314,114
1657723768.08475,200836.0951356,117
1657723768.08475,200836.0951398,129
1657723768.08475,200836.0951441,126
1657723768.08475,200836.0951482,129
1657723768.08475,200836.0951524,133
1657723768.08475,200836.0951566,136
1657723768.08475,200836.0951608,138
1657723768.08475,200836.0951651,145
1657723768.08475,200836.0951691,143
1657723768.08475,200836.0951737,136
1657723768.08475,200836.0951778,138
1657723768.08475,200836.0951836,143
1657723768.08475,200836.0951877,145
1657723768.08475,200836.0951937,150
1657723768.08475,200836.0951978,150
1657723768.08475,200836.0952034,148
1657723768.08475,200836.0952083,153
1657723768.08475,200836.0952138,153
1657723768.08475,200836.0952189,153
1657723768.08475,200836.0952248,143
1657723768.08475,200836.0952302,131
1657723768.08475,200836.0952343,129
1657723768.08475,200836.0952399,126
1657723768.08475,200836.0952439,129
1657723768.08475,200836.095248,133
1657723768.08475,200836.0952521,126
1657723768.08475,200836.095258,112
1657723768.08475,200836.0952622,112
1657723768.08475,200836.0952681,119
1657723768.08475,200836.0952738,112
1657723768.08475,200836.0952859,95
1657723768.08475,200836.095291,76
1657723768.08475,200836.0952956,64
1657723768.08475,200836.0953001,66
1657723768.08475,200836.0953042,74
1657723768.08475,200836.0953089,78
1657723768.08475,200836.095315,83
1657723768.08475,200836.0953252,86
1657723768.08475,200836.095337,90
1657723768.08475,200836.0953447,98
1657723768.08475,200836.09535,105
1657723768.08475,200836.2890181,110
1657723768.08475,200836.2890303,117
1657723768.08475,200836.2890351,122
1657723768.08475,200836.2890375,122
1657723768.08475,200836.2890397,122
1657723768.09575,200836.2890419,126
1657723768.09575,200836.2890441,124
1657723768.09575,200836.2890462,122
1657723768.09575,200836.2890484,122
1657723768.09575,200836.2890504,117
1657723768.09575,200836.2890525,107
1657723768.09575,200836.2890546,102
1657723768.09575,200836.2890567,95
1657723768.09575,200836.2890588,90
1657723768.09575,200836.2890608,88
1657723768.09575,200836.2890629,83
1657723768.09575,200836.289065,81
1657723768.09575,200836.2890682,86
1657723768.09575,200836.2890753,81
1657723768.09575,200836.2890839,76
1657723768.09575,200836.2890896,83
1657723768.09575,200836.2890999,83
1657723768.09575,200836.2891045,71
1657723768.09575,200836.2891088,59
1657723768.09575,200836.2891108,57
1657723768.09575,200836.2891135,64
1657723768.09575,200836.2891231,78
1657723768.09575,200836.2891328,100
1657723768.09575,200836.2891365,117
1657723769.10317,200836.2891387,133
1657723769.10317,200836.2891407,138
1657723769.10317,200836.2891426,119
1657723769.10317,200836.2891446,93
1657723769.10317,200836.2891475,88
1657723769.10317,200836.2891576,93
1657723769.10317,200836.2891636,88
1657723769.10317,200836.2891661,90
1657723769.10317,200836.2891681,100
1657723769.10317,200836.2891715,102
1657723769.10317,200836.289183,165
1657723769.10317,200836.2891923,380
1657723769.10317,200836.2891997,655
1657723769.10317,200836.2892083,583
1657723769.10317,200836.2892107,-78
1657723769.10317,200836.2892136,-571
1657723769.10317,200836.2892157,-303
1657723769.10317,200836.2892178,-14
1657723769.10317,200836.2892198,-50
1657723769.10317,200836.2892226,0
1657723769.10317,200836.2892247,83
1657723769.10317,200836.2892268,50
1657723769.10317,200836.2892288,43
1657723769.10317,200836.2892308,78
1657723769.10317,200836.2892329,81
1657723769.10317,200836.289235,76
1657723769.10317,200836.2892371,86
1657723769.10317,200836.2892392,93
1657723769.10317,200836.2892411,93
1657723769.10317,200836.2892432,95
1657723769.10317,200836.2892452,95
1657723769.10317,200836.2892473,88
1657723769.10317,200836.2892493,83
1657723769.10317,200836.2892513,90
1657723769.10317,200836.2892533,102
1657723769.10317,200836.2892554,112
1657723769.10317,200836.2892575,112
1657723769.10317,200836.2892595,102
1657723769.10317,200836.2892616,100
1657723769.10317,200836.2892636,112
1657723769.10317,200836.2892657,124
1657723769.10317,200836.2892678,119
1657723769.10317,200836.2892699,112
1657723769.10317,200836.2892719,122
1657723769.10317,200837.3147122,129
1657723769.10317,200837.3147349,124
1657723769.10317,200837.3147474,114
1657723769.10317,200837.3148054,112
1657723769.10317,200837.3148146,119
1657723769.10317,200837.3148196,114
1657723769.11413,200837.3148264,107
1657723769.11413,200837.314838,110
1657723769.11413,200837.3148463,105
1657723769.11413,200837.3148528,95
1657723769.11413,200837.3148563,90
1657723769.11413,200837.3148678,93
1657723769.11413,200837.3148793,88
1657723769.11413,200837.3148852,78
1657723769.11413,200837.3148934,76
1657723769.11413,200837.3148997,83
1657723769.11413,200837.3149041,90
1657723769.11413,200837.3149094,95
1657723769.11413,200837.3149135,100
1657723769.11413,200837.3149171,100
1657723769.11413,200837.3149208,105
1657723769.11413,200837.3149243,114
1657723769.11413,200837.3149287,122
1657723769.11413,200837.3149324,129
1657723769.11413,200837.3149381,133
1657723769.11413,200837.3149459,133
1657723769.11413,200837.3149505,126
1657723769.11413,200837.3149535,119
1657723769.11413,200837.3149564,117
1657723769.11413,200837.3149594,117
1657723769.30264,200837.3149634,112
1657723769.30264,200837.3149666,105
1657723769.30264,200837.31497,98
1657723769.30264,200837.3149732,95
1657723769.30264,200837.3149782,93
1657723769.30264,200837.3149843,88
1657723769.30264,200837.314989,83
1657723769.30264,200837.3149926,81
1657723769.30264,200837.314996,76
1657723769.30264,200837.3149996,74
1657723769.30264,200837.315003,76
1657723769.30264,200837.3150064,76
1657723769.30264,200837.3150099,78
1657723769.30264,200837.3150134,76
1657723769.30264,200837.3150169,71
1657723769.30264,200837.3150207,66
1657723769.30264,200837.3150242,62
1657723769.30264,200837.3150276,55
1657723769.30264,200837.315031,57
1657723769.30264,200837.3150344,69
1657723769.30264,200837.315038,83
1657723769.30264,200837.3150416,105
1657723769.30264,200837.3150449,129
1657723769.30264,200837.3150484,131
1657723769.30264,200837.3150518,110
1657723769.30264,200837.3150552,88
1657723769.30264,200837.3150596,86
1657723769.30264,200837.315063,95
1657723769.30264,200837.3150661,102
1657723769.30264,200837.3150694,107
1657723769.30264,200837.3150732,110
1657723769.30264,200837.3150765,114
1657723769.30264,200837.3150798,186
1657723769.30264,200837.3150832,399
1657723769.30264,200837.3150862,669
1657723769.30264,200837.3150895,595
1657723769.30264,200837.3150927,-59
1657723769.30264,200837.315096,-519
1657723769.30264,200837.3150994,-258
1657723769.30264,200837.3151025,4
1657723769.30264,200837.3151057,-14
1657723769.30264,200837.3151088,52
1657723769.30264,200837.315112,131
1657723769.30264,200837.5077686,95
1657723769.30264,200837.5077866,90
1657723769.30264,200837.5077971,122
1657723769.30264,200837.5078001,112
1657723769.30264,200837.5078036,107
1657723769.30264,200837.507812,124
1657723769.30264,200837.5078193,126
1657723769.31361,200837.507825,122
1657723769.31361,200837.5078355,122
1657723769.31361,200837.5078479,112
1657723769.31361,200837.5078598,102
1657723769.31361,200837.5078644,112
1657723769.31361,200837.5078676,122
1657723769.31361,200837.5078698,119
1657723769.31361,200837.5078719,126
1657723769.31361,200837.507874,131
1657723769.31361,200837.507877,131
1657723769.31361,200837.5078875,133
1657723769.31361,200837.5078954,138
1657723769.31361,200837.5078979,136
1657723769.31361,200837.5079,129
1657723769.31361,200837.507902,129
1657723769.31361,200837.5079041,136
1657723769.31361,200837.5079062,136
1657723769.31361,200837.5079133,131
1657723769.31361,200837.5079241,126
1657723769.31361,200837.5079286,122
1657723769.31361,200837.5079308,117
1657723769.31361,200837.5079328,112
1657723769.31361,200837.5079349,110
1657723769.31361,200837.5079369,107
1657723769.39931,200837.5079431,98
1657723769.39931,200837.5079528,93
1657723769.39931,200837.5079566,83
1657723769.39931,200837.5079756,64
1657723769.39931,200837.5079878,43
1657723769.39931,200837.5079951,43
1657723769.39931,200837.5080044,52
1657723769.39931,200837.5080092,52
1657723769.39931,200837.5080145,50
1657723769.39931,200837.508019,47
1657723769.39931,200837.508024,40
1657723769.39931,200837.5080275,43
1657723769.39931,200837.508031,55
1657723769.39931,200837.50804,64
1657723769.39931,200837.5080454,76
1657723769.39931,200837.5080474,74
1657723769.39931,200837.5080503,57
1657723769.39931,200837.5080524,45
1657723769.39931,200837.5080551,52
1657723769.39931,200837.5080647,57
1657723769.39931,200837.5080769,55
1657723769.39931,200837.5080898,52
1657723769.39931,200837.5081034,47
1657723769.39931,200837.5081163,40
1657723769.39931,200837.5081284,40
1657723769.39931,200837.5081433,43
1657723769.39931,200837.5081556,38
1657723769.39931,200837.5081664,31
1657723769.39931,200837.5081701,28
1657723769.39931,200837.5081723,31
1657723769.39931,200837.5081743,31
1657723769.39931,200837.5081764,35
1657723769.39931,200837.5081785,38
1657723769.39931,200837.5081807,43
1657723769.39931,200837.5081828,40
1657723769.39931,200837.5081848,40
1657723769.39931,200837.508187,45
1657723769.39931,200837.508189,45
1657723769.39931,200837.508191,45
1657723769.39931,200837.5081932,52
1657723769.39931,200837.5081953,55
1657723769.39931,200837.5081973,43
1657723769.39931,200837.6061221,35
1657723769.39931,200837.6061889,40
1657723769.39931,200837.6062016,31
1657723769.39931,200837.6062096,26
1657723769.39931,200837.6062186,59
1657723769.39931,200837.6062278,98
1657723769.39931,200837.6062345,102
1657723769.39931,200837.6062409,102
1657723769.41427,200837.6062469,107
1657723769.41427,200837.6062502,86
1657723769.41427,200837.6062537,62
1657723769.41427,200837.6062565,71
1657723769.41427,200837.6062597,76
1657723769.41427,200837.6062637,66
1657723769.41427,200837.606271,71
1657723769.41427,200837.6063124,78
1657723769.41427,200837.6063237,83
1657723769.41427,200837.6063354,177
1657723769.41427,200837.6063476,452
1657723769.41427,200837.6063562,748
1657723769.41427,200837.6063649,483
1657723769.41427,200837.6063704,-358
1657723769.41427,200837.6063761,-657
1657723769.41427,200837.6063821,-241
1657723769.41427,200837.6063875,-50
1657723769.41427,200837.6063939,-81
1657723769.41427,200837.6064006,31
1657723769.41427,200837.6064065,90
1657723769.41427,200837.6064114,52
1657723769.41427,200837.6064149,69
1657723769.41427,200837.6064181,95
1657723769.41427,200837.6064213,83
1657723769.72522,200837.6064245,81
1657723769.72522,200837.6064275,90
1657723769.72522,200837.6064307,93
1657723769.72522,200837.6064342,100
1657723769.72522,200837.6064375,105
1657723769.72522,200837.6064408,93
1657723769.72522,200837.6064445,76
1657723769.72522,200837.606448,81
1657723769.72522,200837.6064531,95
1657723769.72522,200837.6064596,95
1657723769.72522,200837.6064659,93
1657723769.72522,200837.6064696,100
1657723769.72522,200837.6064757,100
1657723769.72522,200837.6064828,105
1657723769.72522,200837.6064896,114
1657723769.72522,200837.6064966,119
1657723769.72522,200837.6065013,114
1657723769.72522,200837.6065046,105
1657723769.72522,200837.6065078,100
1657723769.72522,200837.6065113,105
1657723769.72522,200837.6065143,107
1657723769.72522,200837.6065187,100
1657723769.72522,200837.6065234,98
1657723769.72522,200837.6065278,98
1657723769.72522,200837.6065334,95
1657723769.72522,200837.6065369,93
1657723769.72522,200837.6065404,93
1657723769.72522,200837.6065439,88
1657723769.72522,200837.6065474,83
1657723769.72522,200837.6065515,78
1657723769.72522,200837.6065554,71
1657723769.72522,200837.6065586,64
1657723769.72522,200837.6065624,64
1657723769.72522,200837.6065662,64
1657723769.72522,200837.6065696,57
1657723769.72522,200837.6065735,55
1657723769.72522,200837.6065773,62
1657723769.72522,200837.6065809,64
1657723769.72522,200837.6065844,66
1657723769.72522,200837.6065879,74
1657723769.72522,200837.6065914,81
1657723769.72522,200837.8504187,88
1657723769.72522,200837.8504343,93
1657723769.72522,200837.8504389,88
1657723769.72522,200837.8504457,86
1657723769.72522,200837.8504498,81
1657723769.72522,200837.8504565,66
1657723769.72522,200837.8504604,62
1657723769.72522,200837.8504655,74
1657723769.72522,200837.8504698,64
1657723769.7681,200837.8504747,50
1657723769.7681,200837.8504797,52
1657723769.7681,200837.8504833,59
1657723769.7681,200837.8504868,59
1657723769.7681,200837.8504903,59
1657723769.7681,200837.850494,66
1657723769.7681,200837.8504975,69
1657723769.7681,200837.8505015,64
1657723769.7681,200837.8505068,64
1657723769.7681,200837.8505107,69
1657723769.7681,200837.8505145,74
1657723769.7681,200837.85052,74
1657723769.7681,200837.8505236,76
1657723769.7681,200837.8505271,81
1657723769.7681,200837.8505312,88
1657723769.7681,200837.8505358,86
1657723769.7681,200837.8505394,78
1657723769.7681,200837.850543,74
1657723769.7681,200837.8505466,69
1657723769.7681,200837.8505519,62
1657723769.7681,200837.8505555,57
1657723769.7681,200837.8505591,69
1657723769.7681,200837.8505641,86
1657723769.7681,200837.8505694,105
1657723769.7681,200837.8505745,124
1657723769.7681,200837.8505779,133
1657723769.7681,200837.8505816,129
1657723769.7681,200837.8505852,112
1657723769.7681,200837.8505886,95
1657723769.7681,200837.8505922,98
1657723769.7681,200837.8505957,107
1657723769.7681,200837.8505992,110
1657723769.7681,200837.850603,102
1657723769.7681,200837.8506066,98
1657723769.7681,200837.8506101,124
1657723769.7681,200837.8506137,279
1657723769.7681,200837.8506172,595
1657723769.7681,200837.8506209,818
1657723769.7681,200837.8506259,411
1657723769.7681,200837.8506306,-411
1657723769.7681,200837.8506375,-538
1657723769.7681,200837.8506409,-102
1657723769.7681,200837.8506469,2
1657723769.7681,200837.8506519,-40
1657723769.7681,200837.8506559,57
1657723769.7681,200837.8506587,78
1657723769.7681,200837.8506615,43
1657723769.7681,200837.8506645,71
1657723769.7681,200837.8506675,90
1657723769.7681,200837.8506755,76
1657723769.80564,200837.8506834,74
1657723769.80564,200837.8506896,62
1657723769.80564,200837.8506977,43
1657723769.80564,200837.8507042,59
1657723769.80564,200837.8507123,76
1657723769.80564,200837.8507186,69
1657723769.80564,200837.8507252,66
1657723769.80564,200837.8507291,78
1657723769.80564,200837.8507323,86
1657723769.80564,200837.8507364,83
1657723769.80564,200837.8507405,76
1657723769.80564,200837.8507437,81
1657723769.80564,200837.8507472,90
1657723769.80564,200837.8507517,76
1657723769.80564,200837.9495541,62
1657723769.80564,200837.9495736,74
1657723769.80564,200837.9495811,76
1657723769.80564,200837.9495884,62
1657723769.80564,200837.9495943,47
1657723769.80564,200837.9495992,43
1657723769.80564,200837.9496035,57
1657723769.80564,200837.9496079,66
1657723769.80564,200837.9496135,45
1657723769.80564,200837.9496199,31
1657723769.80564,200837.9496284,57
1657723769.80564,200837.9496339,64
1657723769.80564,200837.94964,38
1657723769.80564,200837.9496447,38
1657723769.80564,200837.9496516,62
1657723769.80564,200837.9496577,57
1657723769.80564,200837.9496637,35
1657723769.80564,200837.9496681,38
1657723769.80564,200837.9496743,45
1657723769.80564,200837.9496789,43
1657723769.80564,200837.9496852,47
1657723769.80564,200837.94969,45
1657723769.80564,200837.9496963,45
1657723769.80564,200837.9497011,57
1657723769.80564,200837.9497073,59
1657723769.80564,200837.949712,50
1657723769.80564,200837.9497182,59
1657723769.80564,200837.9497228,71
1657723769.80564,200837.9497289,74
1657723769.80564,200837.949735,78
1657723769.80564,200837.9497416,86
1657723769.80564,200837.9497471,83
1657723769.80564,200837.9497548,83
1657723769.80564,200837.9497605,83
1657723769.89879,200837.9497686,83
1657723769.89879,200837.9497748,83
1657723769.89879,200837.9497811,88
1657723769.89879,200837.9497876,90
1657723769.89879,200837.949794,83
1657723769.89879,200837.9498004,76
1657723769.89879,200837.9498071,81
1657723769.89879,200837.9498135,83
1657723769.89879,200837.9498201,83
1657723769.89879,200837.9498284,81
1657723769.89879,200837.9498347,69
1657723769.89879,200837.9498433,71
1657723769.89879,200837.9498498,83
1657723769.89879,200837.9498578,76
1657723769.89879,200837.9498645,76
1657723769.89879,200837.9498725,93
1657723769.89879,200837.9498783,100
1657723769.89879,200837.9498857,88
1657723769.89879,200837.9498902,78
1657723769.89879,200837.9498966,88
1657723769.89879,200837.949901,98
1657723769.89879,200837.9499049,98
1657723769.89879,200837.9499106,98
1657723769.89879,200837.9499149,102
1657723769.89879,200837.949923,102
1657723769.89879,200837.9499299,98
1657723769.89879,200837.9499374,100
1657723769.89879,200837.9499424,107
1657723769.89879,200837.949951,100
1657723769.89879,200837.9499567,90
1657723769.89879,200837.9499632,90
1657723769.89879,200837.9499712,81
1657723769.89879,200837.9499794,78
1657723769.89879,200837.9499843,93
1657723769.89879,200837.9499926,90
1657723769.89879,200837.9499997,81
1657723769.89879,200837.9500071,81
1657723769.89879,200837.9500135,88
1657723769.89879,200837.9500196,93
1657723769.89879,200838.0929392,88
1657723769.89879,200838.0929605,81
1657723769.89879,200838.0929712,74
1657723769.89879,200838.0929813,74
1657723769.89879,200838.0929905,98
1657723769.89879,200838.0929994,124
1657723769.89879,200838.0930091,136
1657723769.89879,200838.0930182,143
1657723769.89879,200838.093027,141
1657723769.89879,200838.0930338,114
1657723769.89879,200838.0930421,98
1657723769.91774,200838.0930485,110
1657723769.91774,200838.0930553,114
1657723769.91774,200838.0930639,105
1657723769.91774,200838.0930706,107
1657723769.91774,200838.0930796,98
1657723769.91774,200838.0930859,88
1657723769.91774,200838.093092,203
1657723769.91774,200838.0931005,492
1657723769.91774,200838.0931091,775
1657723769.91774,200838.0931163,569
1657723769.91774,200838.0931251,-200
1657723769.91774,200838.0931335,-562
1657723769.91774,200838.0931404,-215
1657723769.91774,200838.093149,-23
1657723769.91774,200838.0931577,-71
1657723769.91774,200838.0931641,14
1657723769.91774,200838.0931705,69
1657723769.91774,200838.0931775,26
1657723769.91774,200838.093184,35
1657723769.91774,200838.0931904,66
1657723769.91774,200838.0931988,59
1657723769.91774,200838.0932073,55
1657723769.91774,200838.0932142,62
1657723769.91774,200838.0932229,66
1657723770.08594,200838.0932299,69
1657723770.08594,200838.0932367,69
1657723770.08594,200838.0932435,69
1657723770.08594,200838.0932498,76
1657723770.08594,200838.0932563,81
1657723770.08594,200838.0932627,81
1657723770.08594,200838.0932694,83
1657723770.08594,200838.093278,83
1657723770.08594,200838.0932847,81
1657723770.08594,200838.0932933,86
1657723770.08594,200838.0932999,95
1657723770.08594,200838.0933087,93
1657723770.08594,200838.0933154,83
1657723770.08594,200838.093324,83
1657723770.08594,200838.0933305,93
1657723770.08594,200838.0933391,95
1657723770.08594,200838.093346,90
1657723770.08594,200838.0933538,86
1657723770.08594,200838.0933606,83
1657723770.08594,200838.0933689,78
1657723770.08594,200838.0933757,66
1657723770.08594,200838.0933839,57
1657723770.08594,200838.0933906,57
1657723770.08594,200838.0933994,66
1657723770.08594,200838.0934062,66
1657723770.08594,200838.0934143,62
1657723770.08594,200838.0934218,64
1657723770.08594,200838.0934308,69
1657723770.08594,200838.0934366,66
1657723770.08594,200838.0934473,59
1657723770.08594,200838.0934556,59
1657723770.08594,200838.0934619,62
1657723770.08594,200838.0934683,62
1657723770.08594,200838.0934748,62
1657723770.08594,200838.0934816,69
1657723770.08594,200838.0934882,74
1657723770.08594,200838.093495,78
1657723770.08594,200838.0935019,83
1657723770.08594,200838.2901404,86
1657723770.08594,200838.2901592,90
1657723770.08594,200838.2901741,98
1657723770.08594,200838.2901873,102
1657723770.08594,200838.2901964,110
1657723770.08594,200838.2901996,117
1657723770.08594,200838.2902018,117
1657723770.08594,200838.2902039,114
1657723770.08594,200838.2902072,114
1657723770.08594,200838.2902202,114
1657723770.08594,200838.2902272,119
1657723770.08594,200838.2902295,119
1657723770.09793,200838.2902323,117
1657723770.09793,200838.2902399,112
1657723770.09793,200838.2902521,105
1657723770.09793,200838.2902611,100
1657723770.09793,200838.2902648,105
1657723770.09793,200838.2902669,105
1657723770.09793,200838.2902694,100
1657723770.09793,200838.2902767,95
1657723770.09793,200838.2902894,90
1657723770.09793,200838.2902964,83
1657723770.09793,200838.2902988,90
1657723770.09793,200838.2903008,95
1657723770.09793,200838.2903029,90
1657723770.09793,200838.2903052,88
1657723770.09793,200838.2903122,90
1657723770.09793,200838.2903249,88
1657723770.09793,200838.2903311,88
1657723770.09793,200838.2903381,93
1657723770.09793,200838.2903448,95
1657723770.09793,200838.2903513,83
1657723770.09793,200838.2903609,81
1657723770.09793,200838.2903662,93
1657723770.09793,200838.290372,95
1657723770.09793,200838.2903777,90
1657723770.3256,200838.2903818,93
1657723770.3256,200838.2903854,95
1657723770.3256,200838.290389,88
1657723770.3256,200838.2903923,88
1657723770.3256,200838.2903965,93
1657723770.3256,200838.2904003,93
1657723770.3256,200838.2904048,90
1657723770.3256,200838.2904092,86
1657723770.3256,200838.2904142,76
1657723770.3256,200838.2904181,69
1657723770.3256,200838.2904223,66
1657723770.3256,200838.2904268,64
1657723770.3256,200838.2904315,62
1657723770.3256,200838.2904366,50
1657723770.3256,200838.290442,43
1657723770.3256,200838.2904489,47
1657723770.3256,200838.2904559,50
1657723770.3256,200838.290463,52
1657723770.3256,200838.2904694,57
1657723770.3256,200838.2904734,57
1657723770.3256,200838.2904764,52
1657723770.3256,200838.2904799,52
1657723770.3256,200838.2904836,57
1657723770.3256,200838.2904881,59
1657723770.3256,200838.2904931,62
1657723770.3256,200838.2904978,62
1657723770.3256,200838.2905029,62
1657723770.3256,200838.2905071,57
1657723770.3256,200838.2905101,59
1657723770.3256,200838.2905148,64
1657723770.3256,200838.2905197,66
1657723770.3256,200838.2905239,69
1657723770.3256,200838.2905294,69
1657723770.3256,200838.2905365,66
1657723770.3256,200838.2905434,69
1657723770.3256,200838.2905482,74
1657723770.3256,200838.2905545,76
1657723770.3256,200838.5317614,76
1657723770.3256,200838.5317806,76
1657723770.3256,200838.5317872,69
1657723770.3256,200838.5317953,62
1657723770.3256,200838.5318012,62
1657723770.3256,200838.5318084,64
1657723770.3256,200838.5318162,59
1657723770.3256,200838.531821,59
1657723770.3256,200838.5318246,52
1657723770.3256,200838.531828,33
1657723770.3256,200838.5318315,21
1657723770.3256,200838.5318361,31
1657723770.3256,200838.5318404,45
1657723770.33856,200838.5318435,64
1657723770.33856,200838.5318472,88
1657723770.33856,200838.5318521,110
1657723770.33856,200838.5318584,112
1657723770.33856,200838.5318622,95
1657723770.33856,200838.5318763,74
1657723770.33856,200838.5318821,69
1657723770.33856,200838.5318876,78
1657723770.33856,200838.5318925,81
1657723770.33856,200838.5318962,81
1657723770.33856,200838.531901,86
1657723770.33856,200838.5319069,88
1657723770.33856,200838.5319115,136
1657723770.33856,200838.5319159,327
1657723770.33856,200838.5319191,636
1657723770.33856,200838.5319444,722
1657723770.33856,200838.5319522,174
1657723770.33856,200838.5319555,-490
1657723770.33856,200838.5319584,-416
1657723770.33856,200838.5319613,-76
1657723770.33856,200838.5319644,-62
1657723770.33856,200838.5319673,-43
1657723770.33856,200838.5319704,57
1657723770.33856,200838.5319736,45
1657723770.42533,200838.5319769,26
1657723770.42533,200838.5319804,64
1657723770.42533,200838.5319834,66
1657723770.42533,200838.5319865,47
1657723770.42533,200838.5319896,55
1657723770.42533,200838.5319926,55
1657723770.42533,200838.5319956,38
1657723770.42533,200838.5319984,40
1657723770.42533,200838.5320013,55
1657723770.42533,200838.5320125,62
1657723770.42533,200838.5320251,59
1657723770.42533,200838.5320314,47
1657723770.42533,200838.5320364,45
1657723770.42533,200838.5320409,59
1657723770.42533,200838.5320451,64
1657723770.42533,200838.5320493,62
1657723770.42533,200838.5320539,69
1657723770.42533,200838.5320584,74
1657723770.42533,200838.5320631,76
1657723770.42533,200838.5320679,83
1657723770.42533,200838.5320729,78
1657723770.42533,200838.5320773,69
1657723770.42533,200838.5320815,69
1657723770.42533,200838.5320854,66
1657723770.42533,200838.5320894,64
1657723770.42533,200838.532094,64
1657723770.42533,200838.5320973,59
1657723770.42533,200838.5321005,45
1657723770.42533,200838.532104,40
1657723770.42533,200838.5321074,40
1657723770.42533,200838.5321107,35
1657723770.42533,200838.5321144,40
1657723770.42533,200838.5321182,50
1657723770.42533,200838.5321221,50
1657723770.42533,200838.5321258,50
1657723770.42533,200838.5321302,47
1657723770.42533,200838.629764,38
1657723770.42533,200838.629782,38
1657723770.42533,200838.6297927,50
1657723770.42533,200838.629805,55
1657723770.42533,200838.6298098,59
1657723770.42533,200838.6298119,55
1657723770.42533,200838.629814,43
1657723770.42533,200838.6298162,52
1657723770.42533,200838.6298184,64
1657723770.42533,200838.6298205,62
1657723770.42533,200838.6298236,66
1657723770.42533,200838.6298348,78
1657723770.42533,200838.6298426,86
1657723770.42533,200838.6298494,88
1657723770.4363,200838.6298599,88
1657723770.4363,200838.6298692,98
1657723770.4363,200838.6298814,112
1657723770.4363,200838.629887,114
1657723770.4363,200838.6298892,114
1657723770.4363,200838.6298913,114
1657723770.4363,200838.6298934,114
1657723770.4363,200838.6298955,119
1657723770.4363,200838.6298975,124
1657723770.4363,200838.6299003,122
1657723770.4363,200838.6299111,119
1657723770.4363,200838.6299193,119
1657723770.4363,200838.6299217,119
1657723770.4363,200838.6299239,114
1657723770.4363,200838.6299259,112
1657723770.4363,200838.6299287,112
1657723770.4363,200838.6299394,107
1657723770.4363,200838.6299467,105
1657723770.4363,200838.629949,107
1657723770.4363,200838.6299511,105
1657723770.4363,200838.6299532,100
1657723770.4363,200838.629971,102
1657723770.4363,200838.6299743,98
1657723770.4363,200838.6299763,88
1657723770.52893,200838.6299783,93
1657723770.52893,200838.6299803,105
1657723770.52893,200838.6299829,110
1657723770.52893,200838.6299934,112
1657723770.52893,200838.6299997,114
1657723770.52893,200838.6300021,114
1657723770.52893,200838.6300054,112
1657723770.52893,200838.6300138,119
1657723770.52893,200838.6300194,124
1657723770.52893,200838.6300237,122
1657723770.52893,200838.6300324,124
1657723770.52893,200838.6300372,129
1657723770.52893,200838.6300475,124
1657723770.52893,200838.6300555,126
1657723770.52893,200838.6300635,131
1657723770.52893,200838.6300769,131
1657723770.52893,200838.6300898,133
1657723770.52893,200838.630103,138
1657723770.52893,200838.6301132,141
1657723770.52893,200838.6301319,138
1657723770.52893,200838.6301535,136
1657723770.52893,200838.6301583,138
1657723770.52893,200838.6301606,129
1657723770.52893,200838.6301627,119
1657723770.52893,200838.6301764,117
1657723770.52893,200838.6301866,110
1657723770.52893,200838.6301942,107
1657723770.52893,200838.6302076,122
1657723770.52893,200838.6302208,143
1657723770.52893,200838.6302341,162
1657723770.52893,200838.6302476,184
1657723770.52893,200838.6302607,189
1657723770.52893,200838.6302741,162
1657723770.52893,200838.630287,131
1657723770.52893,200838.6303002,129
1657723770.52893,200838.7282709,141
1657723770.52893,200838.7282949,143
1657723770.52893,200838.7283082,143
1657723770.52893,200838.7283164,143
1657723770.52893,200838.7283227,138
1657723770.52893,200838.7283291,210
1657723770.52893,200838.7283351,459
1657723770.52893,200838.7283415,791
1657723770.52893,200838.7283478,794
1657723770.52893,200838.7283556,122
1657723770.52893,200838.7283622,-495
1657723770.52893,200838.7283689,-279
1657723770.52893,200838.7283735,50
1657723770.52893,200838.7283777,11
1657723770.52893,200838.728381,43
1657723770.54588,200838.7283843,138
1657723770.54588,200838.728389,107
1657723770.54588,200838.7283972,93
1657723770.54588,200838.7284046,126
1657723770.54588,200838.7284121,117
1657723770.54588,200838.7284208,102
1657723770.54588,200838.7284291,107
1657723770.54588,200838.7284347,102
1657723770.54588,200838.7284437,93
1657723770.54588,200838.7284497,100
1657723770.54588,200838.7284559,98
1657723770.54588,200838.7284627,83
1657723770.54588,200838.7284693,78
1657723770.54588,200838.7284778,76
1657723770.54588,200838.7284859,71
1657723770.54588,200838.7284942,78
1657723770.54588,200838.7284997,83
1657723770.54588,200838.7285057,86
1657723770.54588,200838.7285112,90
1657723770.54588,200838.7285248,93
1657723770.54588,200838.7285378,90
1657723770.54588,200838.7285505,95
1657723770.54588,200838.7285645,100
1657723770.54588,200838.728574,98
1657723770.67161,200838.7285838,93
1657723770.67161,200838.7285892,86
1657723770.67161,200838.7285936,69
1657723770.67161,200838.7285984,64
1657723770.67161,200838.7286029,69
1657723770.67161,200838.7286072,71
1657723770.67161,200838.7286116,76
1657723770.67161,200838.7286162,81
1657723770.67161,200838.7286219,83
1657723770.67161,200838.7286266,88
1657723770.67161,200838.7286308,95
1657723770.67161,200838.7286364,95
1657723770.67161,200838.7286413,93
1657723770.67161,200838.7286492,83
1657723770.67161,200838.7286948,66
1657723770.67161,200838.728706,57
1657723770.67161,200838.7287125,62
1657723770.67161,200838.7287228,69
1657723770.67161,200838.7287314,69
1657723770.67161,200838.7287363,71
1657723770.67161,200838.7287407,74
1657723770.67161,200838.7287453,76
1657723770.67161,200838.72875,86
1657723770.67161,200838.7287565,95
1657723770.67161,200838.7287644,98
1657723770.67161,200838.7287787,105
1657723770.67161,200838.7287896,112
1657723770.67161,200838.7287974,117
1657723770.67161,200838.7288046,124
1657723770.67161,200838.728811,129
1657723770.67161,200838.7288198,136
1657723770.67161,200838.7288247,138
1657723770.67161,200838.7288309,138
1657723770.67161,200838.7288343,136
1657723770.67161,200838.8761263,136
1657723770.67161,200838.8761454,138
1657723770.67161,200838.8761507,141
1657723770.67161,200838.8761548,138
1657723770.67161,200838.8761589,138
1657723770.67161,200838.8761703,136
1657723770.67161,200838.8761743,133
1657723770.67161,200838.8761822,131
1657723770.67161,200838.8761861,131
1657723770.67161,200838.876195,131
1657723770.67161,200838.8762029,126
1657723770.67161,200838.8762086,119
1657723770.67161,200838.8762833,117
1657723770.67161,200838.876296,117
1657723770.67161,200838.8763059,117
1657723770.67161,200838.8763144,119
1657723770.68258,200838.8763182,122
1657723770.68258,200838.876322,114
1657723770.68258,200838.8763257,95
1657723770.68258,200838.8763293,86
1657723770.68258,200838.8763328,93
1657723770.68258,200838.8763365,95
1657723770.68258,200838.8763422,93
1657723770.68258,200838.876347,95
1657723770.68258,200838.8763525,90
1657723770.68258,200838.8763563,81
1657723770.68258,200838.8763604,86
1657723770.68258,200838.8763641,98
1657723770.68258,200838.8763679,95
1657723770.68258,200838.8763727,88
1657723770.68258,200838.8763781,88
1657723770.68258,200838.8763859,76
1657723770.68258,200838.8763898,64
1657723770.68258,200838.8764014,71
1657723770.68258,200838.8764068,76
1657723770.68258,200838.8764107,74
1657723770.68258,200838.8764145,76
1657723770.68258,200838.8764183,81
1657723770.68258,200838.8764221,76
1657723770.68258,200838.8764275,76
1657723770.8242,200838.8764313,86
1657723770.8242,200838.8764349,88
1657723770.8242,200838.8764387,81
1657723770.8242,200838.8764425,78
1657723770.8242,200838.8764463,78
1657723770.8242,200838.8764501,66
1657723770.8242,200838.876454,59
1657723770.8242,200838.8764576,76
1657723770.8242,200838.8764614,83
1657723770.8242,200838.8764655,71
1657723770.8242,200838.8764732,62
1657723770.8242,200838.8764789,57
1657723770.8242,200838.8764924,59
1657723770.8242,200838.8764961,66
1657723770.8242,200838.8765012,71
1657723770.8242,200838.8765066,76
1657723770.8242,200838.8765104,71
1657723770.8242,200838.8765157,62
1657723770.8242,200838.8765195,64
1657723770.8242,200838.8765248,71
1657723770.8242,200838.8765288,71
1657723770.8242,200838.8765325,78
1657723770.8242,200838.8765363,81
1657723770.8242,200838.87654,76
1657723770.8242,200838.8765437,74
1657723770.8242,200838.8765476,76
1657723770.8242,200838.8765514,74
1657723770.8242,200838.8765551,69
1657723770.8242,200838.8765628,66
1657723770.8242,200838.8765723,74
1657723770.8242,200838.8765818,90
1657723770.8242,200838.8765855,114
1657723770.8242,200838.8765892,133
1657723770.8242,200839.0205147,145
1657723770.8242,200839.0205313,133
1657723770.8242,200839.0205359,102
1657723770.8242,200839.0205396,88
1657723770.8242,200839.0205431,102
1657723770.8242,200839.0205467,110
1657723770.8242,200839.0205502,107

1657723770.8242,200839.0205537,112
1657723770.8242,200839.0205573,112
1657723770.8242,200839.0205608,133
1657723770.8242,200839.0205644,289
1657723770.8242,200839.0205679,634
1657723770.8242,200839.0205715,880
1657723770.8242,200839.020575,435
1657723770.8242,200839.0205786,-433
1657723770.8242,200839.0205822,-559
1657723770.8242,200839.0205858,-131
1657723770.83916,200839.0205894,-40
1657723770.83916,200839.020593,-57
1657723770.83916,200839.0205965,74
1657723770.83916,200839.0206001,100
1657723770.83916,200839.0206037,52
1657723770.83916,200839.0206072,86
1657723770.83916,200839.0206107,117
1657723770.83916,200839.0206145,107
1657723770.83916,200839.020618,112
1657723770.83916,200839.020624,122
1657723770.83916,200839.0206277,117
1657723770.83916,200839.0206329,112
1657723770.83916,200839.0206368,117
1657723770.83916,200839.0206421,122
1657723770.83916,200839.0206458,126
1657723770.83916,200839.020651,126
1657723770.83916,200839.0206547,119
1657723770.83916,200839.02066,105
1657723770.83916,200839.0206638,98
1657723770.83916,200839.0206693,107
1657723770.83916,200839.0206731,112
1657723770.83916,200839.0206784,112
1657723770.83916,200839.0206821,114
1657723770.83916,200839.0206875,112
1657723770.91136,200839.0206952,107
1657723770.91136,200839.0207032,105
1657723770.91136,200839.0207095,102
1657723770.91136,200839.0207157,93
1657723770.91136,200839.0207217,81
1657723770.91136,200839.0207281,64
1657723770.91136,200839.0207332,45
1657723770.91136,200839.0207368,33
1657723770.91136,200839.0207404,38
1657723770.91136,200839.0207439,40
1657723770.91136,200839.0207478,45
1657723770.91136,200839.0207516,52
1657723770.91136,200839.0208051,62
1657723770.91136,200839.0208101,71
1657723770.91136,200839.0208138,86
1657723770.91136,200839.0208198,90
1657723770.91136,200839.0208236,88
1657723770.91136,200839.0208291,88
1657723770.91136,200839.0208346,83
1657723770.91136,200839.0208383,74
1657723770.91136,200839.0208476,76
1657723770.91136,200839.0208535,83
1657723770.91136,200839.0208573,86
1657723770.91136,200839.0208609,88
1657723770.91136,200839.0208644,93
1657723770.91136,200839.0208679,98
1657723770.91136,200839.0208714,102
1657723770.91136,200839.020875,112
1657723770.91136,200839.0208785,114
1657723770.91136,200839.020882,114
1657723770.91136,200839.0208864,112
1657723770.91136,200839.0208924,102
1657723770.91136,200839.1192647,93
1657723770.91136,200839.1192939,95
1657723770.91136,200839.1193033,98
1657723770.91136,200839.1193112,86
1657723770.91136,200839.1193184,81
1657723770.91136,200839.1193308,78
1657723770.91136,200839.1193445,64
1657723770.91136,200839.1193581,57
1657723770.91136,200839.1193665,59
1657723770.91136,200839.1193727,59
1657723770.91136,200839.1194913,59
1657723770.91136,200839.1195036,55
1657723770.91136,200839.1195113,40
1657723770.91136,200839.1195173,33
1657723770.91136,200839.1195236,35
1657723770.91136,200839.1195288,35
1657723770.91136,200839.119535,38
1657723770.91136,200839.1195411,43
1657723770.92233,200839.1195472,45
1657723770.92233,200839.1195532,43
1657723770.92233,200839.1195566,40
1657723770.92233,200839.1195611,40
1657723770.92233,200839.1195667,40
1657723770.92233,200839.1195704,38
1657723770.92233,200839.1195744,38
1657723770.92233,200839.1195777,38
1657723770.92233,200839.1195818,35
1657723770.92233,200839.1195854,38
1657723770.92233,200839.1195887,40
1657723770.92233,200839.1195917,43
1657723770.92233,200839.1195947,45
1657723770.92233,200839.1195976,40
1657723770.92233,200839.119602,38
1657723770.92233,200839.1196056,45
1657723770.92233,200839.1196091,52
1657723770.92233,200839.1196163,52
1657723770.92233,200839.1196214,50
1657723770.92233,200839.1196254,50
1657723770.92233,200839.1196304,50
1657723770.92233,200839.1196341,52
1657723770.92233,200839.1196383,55
1657723770.92233,200839.1196436,62
1657723771.10542,200839.1196497,64
1657723771.10542,200839.1196542,64
1657723771.10542,200839.1196607,66
1657723771.10542,200839.1196827,69
1657723771.10542,200839.1196928,74
1657723771.10542,200839.1197055,76
1657723771.10542,200839.1197121,76
1657723771.10542,200839.1197181,71
1657723771.10542,200839.1197222,64
1657723771.10542,200839.1197254,57
1657723771.10542,200839.1197289,57
1657723771.10542,200839.1197341,69
1657723771.10542,200839.1197377,93
1657723771.10542,200839.1197412,117
1657723771.10542,200839.1197446,133
1657723771.10542,200839.1197481,138
1657723771.10542,200839.1197525,119
1657723771.10542,200839.1197566,90
1657723771.10542,200839.119761,93
1657723771.10542,200839.1197653,107
1657723771.10542,200839.1197698,102
1657723771.10542,200839.1197737,95
1657723771.10542,200839.1197803,93
1657723771.10542,200839.1197875,102
1657723771.10542,200839.1197938,217
1657723771.10542,200839.1197989,516
1657723771.10542,200839.1198023,868
1657723771.10542,200839.119809,753
1657723771.10542,200839.1198136,-55
1657723771.10542,200839.1198174,-559
1657723771.10542,200839.1198221,-217
1657723771.10542,200839.3122571,40
1657723771.10542,200839.3122773,-43
1657723771.10542,200839.3122823,9
1657723771.10542,200839.3122865,88
1657723771.10542,200839.3122928,47
1657723771.10542,200839.3123,47
1657723771.10542,200839.3123036,86
1657723771.10542,200839.3123071,81
1657723771.10542,200839.3123108,69
1657723771.10542,200839.3123146,81
1657723771.10542,200839.3123186,83
1657723771.10542,200839.3123242,81
1657723771.10542,200839.3123282,86
1657723771.10542,200839.3123319,86
1657723771.10542,200839.3123353,93
1657723771.10542,200839.3123387,98
1657723771.10542,200839.3123424,88
1657723771.10542,200839.3123462,86
1657723771.10542,200839.3123499,95
1657723771.12601,200839.3123541,100
1657723771.12601,200839.3123597,93
1657723771.12601,200839.3123655,86
1657723771.12601,200839.3123687,86
1657723771.12601,200839.3123716,95
1657723771.12601,200839.3123745,100
1657723771.12601,200839.3123775,93
1657723771.12601,200839.3123816,90
1657723771.12601,200839.312385,90
1657723771.12601,200839.3123885,83
1657723771.12601,200839.312394,81
1657723771.12601,200839.3123974,78
1657723771.12601,200839.3124024,76
1657723771.12601,200839.3124061,78
1657723771.12601,200839.3124094,90
1657723771.12601,200839.3124145,100
1657723771.12601,200839.3124198,110
1657723771.12601,200839.3124232,119
1657723771.12601,200839.3124265,124
1657723771.12601,200839.3124309,126
1657723771.12601,200839.3124342,131
1657723771.12601,200839.3124377,129
1657723771.12601,200839.3124449,124
1657723771.12601,200839.3124483,124
1657723771.21583,200839.3124516,126
1657723771.21583,200839.3124767,124
1657723771.21583,200839.3124867,119
1657723771.21583,200839.3125049,119
1657723771.21583,200839.3125141,114
1657723771.21583,200839.3125181,107
1657723771.21583,200839.3125219,107
1657723771.21583,200839.3125255,114
1657723771.21583,200839.312529,122
1657723771.21583,200839.3125325,124
1657723771.21583,200839.3125364,126
1657723771.21583,200839.3125401,129
1657723771.21583,200839.3125436,136
1657723771.21583,200839.3125472,138
1657723771.21583,200839.3125507,138
1657723771.21583,200839.3125542,143
1657723771.21583,200839.3125583,143
1657723771.21583,200839.312562,133
1657723771.21583,200839.3125654,124
1657723771.21583,200839.3125691,117
1657723771.21583,200839.3125728,110
1657723771.21583,200839.3125765,119
1657723771.21583,200839.3125803,122
1657723771.21583,200839.3125839,110
1657723771.21583,200839.3125876,105
1657723771.21583,200839.3125911,112
1657723771.21583,200839.3125986,112
1657723771.21583,200839.3126022,112
1657723771.21583,200839.312606,110
1657723771.21583,200839.3126096,95
1657723771.21583,200839.4100019,78
1657723771.21583,200839.4100211,86
1657723771.21583,200839.4100279,95
1657723771.21583,200839.4100342,93
1657723771.21583,200839.4100406,93
1657723771.21583,200839.4100467,78
1657723771.21583,200839.4100529,52
1657723771.21583,200839.4100592,52
1657723771.21583,200839.4100662,62
1657723771.21583,200839.4100744,64
1657723771.21583,200839.4100808,66
1657723771.21583,200839.4100872,69
1657723771.21583,200839.4100934,64
1657723771.21583,200839.4100997,66
1657723771.21583,200839.410106,71
1657723771.21583,200839.4101124,74
1657723771.21583,200839.4101209,78
1657723771.21583,200839.4101292,81
1657723771.21583,200839.4101373,66
1657723771.21583,200839.4101436,55
1657723771.23777,200839.4101501,66
1657723771.23777,200839.4101567,76
1657723771.23777,200839.410163,76
1657723771.23777,200839.4101693,74
1657723771.23777,200839.4101783,66
1657723771.23777,200839.4101865,57
1657723771.23777,200839.4101933,55
1657723771.23777,200839.4101997,59
1657723771.23777,200839.410206,59
1657723771.23777,200839.4102123,59
1657723771.23777,200839.4102206,50
1657723771.23777,200839.4102289,33
1657723771.23777,200839.4102371,26
1657723771.23777,200839.4102434,33
1657723771.23777,200839.4102499,38
1657723771.23777,200839.4102563,38
1657723771.23777,200839.4102627,35
1657723771.23777,200839.410269,26
1657723771.23777,200839.4102776,19
1657723771.23777,200839.4102841,9
1657723771.23777,200839.4102905,4
1657723771.23777,200839.410299,2
1657723771.23777,200839.4103072,7
1657723771.23777,200839.4103138,19
1657723771.30347,200839.4103221,38
1657723771.30347,200839.4103311,62
1657723771.30347,200839.4103566,88
1657723771.30347,200839.4103628,98
1657723771.30347,200839.4103677,78
1657723771.30347,200839.4103719,55
1657723771.30347,200839.4103782,52
1657723771.30347,200839.4103826,64
1657723771.30347,200839.4103895,69
1657723771.30347,200839.4103965,69
1657723771.30347,200839.4104037,59
1657723771.30347,200839.4104078,52
1657723771.30347,200839.4104123,122
1657723771.30347,200839.4104179,361
1657723771.30347,200839.4104211,705
1657723771.30347,200839.4104252,717
1657723771.30347,200839.410429,35
1657723771.30347,200839.410432,-576
1657723771.30347,200839.410435,-358
1657723771.30347,200839.4104381,-45
1657723771.30347,200839.410441,-86
1657723771.30347,200839.4104439,-40
1657723771.30347,200839.4104468,57
1657723771.30347,200839.4104497,28
1657723771.30347,200839.4104526,14
1657723771.30347,200839.4104554,40
1657723771.30347,200839.4104584,28
1657723771.30347,200839.4104613,21
1657723771.30347,200839.4104641,35
1657723771.30347,200839.5078502,40
1657723771.30347,200839.5078621,38
1657723771.30347,200839.5078663,33
1657723771.30347,200839.5078685,23
1657723771.30347,200839.5078707,28
1657723771.30347,200839.5078728,38
1657723771.30347,200839.507875,43
1657723771.30347,200839.5078771,45
1657723771.30347,200839.5078794,38
1657723771.30347,200839.5078814,33
1657723771.30347,200839.5078835,40
1657723771.30347,200839.5078855,47
1657723771.30347,200839.5078875,50
1657723771.30347,200839.5078895,57
1657723771.30347,200839.5078915,57
1657723771.30347,200839.5078935,43
1657723771.30347,200839.5078956,28
1657723771.30347,200839.5078976,38
1657723771.30347,200839.5078997,52
1657723771.30347,200839.5079018,50
1657723771.30347,200839.5079079,38
1657723771.32641,200839.5079196,28
1657723771.32641,200839.5079231,16
1657723771.32641,200839.5079253,19
1657723771.32641,200839.5079273,31
1657723771.32641,200839.5079294,40
1657723771.32641,200839.5079314,50
1657723771.32641,200839.507936,57
1657723771.32641,200839.5079477,50
1657723771.32641,200839.5079533,40
1657723771.32641,200839.5079564,40
1657723771.32641,200839.5079585,45
1657723771.32641,200839.5079605,47
1657723771.32641,200839.5079635,52
1657723771.32641,200839.5079762,45
1657723771.32641,200839.5079822,35
1657723771.32641,200839.5079888,45
1657723771.32641,200839.5079911,59
1657723771.32641,200839.5080014,64
1657723771.32641,200839.50801,69
1657723771.32641,200839.5080125,74
1657723771.32641,200839.5080147,78
1657723771.32641,200839.5080168,81
1657723771.32641,200839.5080188,86
1657723771.32641,200839.5080209,90
1657723771.41472,200839.5080229,95
1657723771.41472,200839.5080249,95
1657723771.41472,200839.5080268,83
1657723771.41472,200839.5080287,83
1657723771.41472,200839.5080307,90
1657723771.41472,200839.5080326,93
1657723771.41472,200839.5080357,93
1657723771.41472,200839.5080391,88
1657723771.41472,200839.5080475,76
1657723771.41472,200839.5080532,66
1657723771.41472,200839.5080578,69
1657723771.41472,200839.508063,76
1657723771.41472,200839.50807,76
1657723771.41472,200839.5080751,69
1657723771.41472,200839.5080861,55
1657723771.41472,200839.5080912,43
1657723771.41472,200839.5080934,43
1657723771.41472,200839.5080955,40
1657723771.41472,200839.5080976,35
1657723771.41472,200839.5080997,40
1657723771.41472,200839.5081019,38
1657723771.41472,200839.5081039,28
1657723771.41472,200839.5081059,33
1657723771.41472,200839.508108,40
1657723771.41472,200839.5081101,43
1657723771.41472,200839.5081122,43
1657723771.41472,200839.5081143,45
1657723771.41472,200839.5081168,45
1657723771.41472,200839.6067466,47
1657723771.41472,200839.6067667,55
1657723771.41472,200839.6067798,62
1657723771.41472,200839.6067898,62
1657723771.41472,200839.6068006,64
1657723771.41472,200839.6068103,59
1657723771.41472,200839.606818,45
1657723771.41472,200839.6068244,45
1657723771.41472,200839.6068318,55
1657723771.41472,200839.6068359,52
1657723771.41472,200839.6068439,47
1657723771.41472,200839.6068517,43
1657723771.41472,200839.6068587,35
1657723771.41472,200839.6068633,35
1657723771.41472,200839.6068675,45
1657723771.41472,200839.6068718,45
1657723771.41472,200839.606877,40
1657723771.41472,200839.606882,40
1657723771.41472,200839.6068867,31
1657723771.41472,200839.6068912,19
1657723771.41472,200839.6068964,19
1657723771.41472,200839.6069005,14
1657723771.43766,200839.6069045,9
1657723771.43766,200839.6069091,11
1657723771.43766,200839.6069129,19
1657723771.43766,200839.6069166,23
1657723771.43766,200839.6069203,52
1657723771.43766,200839.6069247,83
1657723771.43766,200839.6069286,86
1657723771.43766,200839.6069351,78
1657723771.43766,200839.6069418,62
1657723771.43766,200839.6069473,28
1657723771.43766,200839.606952,33
1657723771.43766,200839.6069568,64
1657723771.43766,200839.6069616,62
1657723771.43766,200839.6069683,52
1657723771.43766,200839.6069726,47
1657723771.43766,200839.6069774,57
1657723771.43766,200839.6069839,200
1657723771.43766,200839.6069898,531
1657723771.43766,200839.6069961,775
1657723771.43766,200839.6070018,394
1657723771.43766,200839.6070079,-418
1657723771.43766,200839.6070123,-598
1657723771.43766,200839.6070165,-198
1657723771.43766,200839.607023,-74
1657723771.54537,200839.6070276,-93
1657723771.54537,200839.6070315,14
1657723771.54537,200839.607036,45
1657723771.54537,200839.6070433,4
1657723771.54537,200839.6070471,33
1657723771.54537,200839.6070516,55
1657723771.54537,200839.6070562,35
1657723771.54537,200839.6070606,40
1657723771.54537,200839.6070644,57
1657723771.54537,200839.6070688,52
1657723771.54537,200839.6070732,47
