Time,TimeLsl,Value
1658820623.39451,139975.5075596,135
1658820623.39451,139975.5075774,154
1658820623.39451,139975.5075822,168
1658820623.39451,139975.5075882,188
1658820623.39451,139975.5075926,209
1658820623.39451,139975.5075994,229
1658820623.39451,139975.5076057,246
1658820623.39451,139975.5076102,263
1658820623.39451,139975.5076162,260
1658820623.39451,139975.5076208,246
1658820623.39451,139975.5076269,234
1658820623.39451,139975.5076314,224
1658820623.39451,139975.5076374,197
1658820623.39451,139975.5076436,144
1658820623.39451,139975.507648,84
1658820623.39451,139975.5076539,38
1658820623.39451,139975.507658,-7
1658820623.39451,139975.5076643,-50
1658820623.39451,139975.5076717,-62
1658820623.39451,139975.5076772,-55
1658820623.39451,139975.5076849,-62
1658820623.39451,139975.5077919,-74
1658820623.39451,139975.5078105,-77
1658820623.39451,139975.5078167,-74
1658820623.39451,139975.5078205,-67
1658820623.39451,139975.5078257,-57
1658820623.39451,139975.5078293,-43
1658820623.39451,139975.5078344,-31
1658820623.39451,139975.507838,-26
1658820623.39451,139975.5078431,-21
1658820623.39451,139975.5078467,-9
1658820623.39451,139975.5078504,7
1658820623.39451,139975.5078555,24
1658820623.39451,139975.507859,26
1658820623.39451,139975.5078643,21
1658820623.39451,139975.5078678,26
1658820623.39451,139975.5078728,36
1658820623.39451,139975.5078762,36
1658820623.39451,139975.5078813,38
1658820623.39451,139975.5078848,41
1658820623.39451,139975.5078898,38
1658820623.39451,139975.5078934,36
1658820623.39451,139975.5078985,36
1658820623.39451,139975.5079021,31
1658820623.39451,139975.5079071,41
1658820623.39451,139975.5079109,67
1658820623.39451,139975.5079145,82
1658820623.39451,139975.5079195,82
1658820623.39451,139975.5079231,77
1658820623.39451,139975.5079282,57
1658820623.53214,139975.5079317,36
1658820623.53214,139975.5079372,28
1658820623.53214,139975.5079412,26
1658820623.53214,139975.5079463,26
1658820623.53214,139975.5079497,38
1658820623.53214,139975.5079547,41
1658820623.53214,139975.5079583,14
1658820623.53214,139975.5079634,28
1658820623.53214,139975.507967,354
1658820623.53214,139975.507972,1073
1658820623.53214,139975.5079756,1614
1658820623.53214,139975.5079791,1122
1658820623.53214,139975.5079842,-185
1658820623.53214,139975.5079878,-719
1658820623.53214,139975.5079927,-183
1658820623.53214,139975.5079963,77
1658820623.53214,139975.5080014,-65
1658820623.53214,139975.5080049,-4
1658820623.53214,139975.5080099,79
1658820623.53214,139975.5080135,24
1658820623.53214,139975.5080186,31
1658820623.53214,139975.5080221,79
1658820623.53214,139975.508027,72
1658820623.53214,139975.9497692,67
1658820623.53214,139975.9497882,94
1658820623.53214,139975.9497981,110
1658820623.53214,139975.9498023,113
1658820623.53214,139975.9498078,127
1658820623.53214,139975.949811,144
1658820623.53214,139975.9498143,156
1658820623.53214,139975.9498176,178
1658820623.53214,139975.9498207,202
1658820623.53214,139975.9498241,212
1658820623.53214,139975.94983,231
1658820623.53214,139975.9498333,248
1658820623.53214,139975.9498366,238
1658820623.53214,139975.9498425,221
1658820623.53214,139975.9498454,219
1658820623.53214,139975.9498483,209
1658820623.53214,139975.9498513,173
1658820623.53214,139975.9498543,110
1658820623.53214,139975.9498573,38
1658820623.53214,139975.9498602,-21
1658820623.53214,139975.9498631,-45
1658820623.53214,139975.9498784,-55
1658820623.53214,139975.949892,-74
1658820623.53214,139975.9499,-86
1658820623.53214,139975.9499068,-86
1658820623.53214,139975.949913,-82
1658820623.53214,139975.9499173,-77
1658820623.58905,139975.9499219,-72
1658820623.58905,139975.9499293,-60
1658820623.58905,139975.9499323,-50
1658820623.58905,139975.9499352,-45
1658820623.58905,139975.9499385,-43
1658820623.58905,139975.9499439,-31
1658820623.58905,139975.9499567,-12
1658820623.58905,139975.9499702,2
1658820623.58905,139975.9499832,9
1658820623.58905,139975.9499963,12
1658820623.58905,139975.9500095,19
1658820623.58905,139975.9500225,21
1658820623.58905,139975.9500355,24
1658820623.58905,139975.9500472,21
1658820623.58905,139975.9500546,21
1658820623.58905,139975.950059,21
1658820623.58905,139975.9500646,16
1658820623.58905,139975.9500688,12
1658820623.58905,139975.9500731,7
1658820623.58905,139975.9500792,7
1658820623.58905,139975.9500831,9
1658820623.58905,139975.9500918,7
1658820623.58905,139975.9500955,12
1658820623.58905,139975.9500995,33
1658820623.58905,139975.9501061,55
1658820623.58905,139975.9501094,62
1658820623.58905,139975.9501191,55
1658820623.58905,139975.9501229,41
1658820623.58905,139975.9501264,33
1658820623.58905,139975.9501389,33
1658820623.58905,139975.9501496,31
1658820623.58905,139975.9501534,38
1658820623.58905,139975.9501566,45
1658820623.58905,139975.9501689,50
1658820623.58905,139975.9501839,33
1658820623.58905,139975.9501972,31
1658820623.58905,139975.9502103,289
1658820623.58905,139975.9502236,972
1658820623.58905,139975.9502365,1623
1658820623.58905,139975.9502495,1336
1658820623.58905,139975.9502625,38
1658820623.58905,139975.9502758,-733
1658820623.58905,139975.950289,-279
1658820623.58905,139975.9503021,91
1658820623.58905,139975.9503153,-55
1658820623.58905,139975.9503283,-48
1658820623.58905,139976.4826716,57
1658820623.58905,139976.4826883,21
1658820623.58905,139976.4826932,7
1658820623.58905,139976.4827,50
1658820623.61398,139976.4827034,57
1658820623.61398,139976.482708,48
1658820623.61398,139976.4827109,62
1658820623.61398,139976.4827138,74
1658820623.61398,139976.4827168,74
1658820623.61398,139976.4827213,79
1658820623.61398,139976.482726,98
1658820623.61398,139976.4827307,120
1658820623.61398,139976.4827341,137
1658820623.61398,139976.4827374,164
1658820623.61398,139976.4827425,185
1658820623.61398,139976.482746,185
1658820623.61398,139976.4827492,188
1658820623.61398,139976.4827526,202
1658820623.61398,139976.4827559,212
1658820623.61398,139976.482759,202
1658820623.61398,139976.4827622,180
1658820623.61398,139976.4827655,144
1658820623.61398,139976.482769,84
1658820623.61398,139976.4827735,31
1658820623.61398,139976.4827769,-9
1658820623.61398,139976.4827804,-50
1658820623.61398,139976.4827839,-77
1658820623.61398,139976.4827873,-84
1658820623.61398,139976.4827907,-94
1658820623.61398,139976.4827941,-101
1658820623.61398,139976.4827996,-96
1658820623.61398,139976.4828031,-91
1658820623.61398,139976.4828063,-91
1658820623.61398,139976.4828097,-82
1658820623.61398,139976.482813,-79
1658820623.61398,139976.4828162,-77
1658820623.61398,139976.4828196,-65
1658820623.61398,139976.4828228,-60
1658820623.61398,139976.482826,-55
1658820623.61398,139976.4828291,-45
1658820623.61398,139976.4828321,-41
1658820623.61398,139976.4828354,-38
1658820623.61398,139976.4828384,-28
1658820623.61398,139976.4828419,-16
1658820623.61398,139976.4828452,-12
1658820623.61398,139976.4828506,-7
1658820623.61398,139976.4828539,-7
1658820623.61398,139976.4828574,-12
1658820623.61398,139976.4828606,-7
1658820623.61398,139976.482864,0
1658820623.61398,139976.4828675,0
1658820623.61398,139976.4828708,4
1658820623.61398,139976.482874,4
1658820623.61398,139976.4828771,-7
1658820623.62694,139976.4828804,-9
1658820623.62694,139976.4828841,14
1658820623.62694,139976.4828874,38
1658820623.62694,139976.4828904,43
1658820623.62694,139976.4828934,38
1658820623.62694,139976.4828963,26
1658820623.62694,139976.4828996,12
1658820623.62694,139976.4829032,4
1658820623.62694,139976.4829067,12
1658820623.62694,139976.4829104,14
1658820623.62694,139976.4829139,9
1658820623.62694,139976.4829222,12
1658820623.62694,139976.4829269,-2
1658820623.62694,139976.4829334,-16
1658820623.62694,139976.4829371,195
1658820623.62694,139976.4829423,837
1658820623.62694,139976.4829459,1544
1658820623.62694,139976.4829514,1416
1658820623.62694,139976.4829552,166
1658820623.62694,139977.1168988,-776
1658820623.62694,139977.1169171,-405
1658820623.62694,139977.1169254,55
1658820624.15308,139977.1169334,-72
1658820624.15308,139977.116937,-91
1658820624.15308,139977.1169413,19
1658820624.15308,139977.1169443,-24
1658820624.15308,139977.1169499,-43
1658820624.15308,139977.1169558,14
1658820624.15308,139977.1169622,21
1658820624.15308,139977.1169677,9
1658820624.15308,139977.1169723,24
1658820624.15308,139977.1169784,19
1658820624.15308,139977.1169852,16
1658820624.15308,139977.1169925,45
1658820624.15308,139977.1169964,65
1658820624.15308,139977.1170006,77
1658820624.15308,139977.1170043,106
1658820624.15308,139977.1170073,135
1658820624.15308,139977.1170103,152
1658820624.15308,139977.1170134,173
1658820624.15308,139977.1170213,190
1658820624.15308,139977.1170294,188
1658820624.15308,139977.117037,185
1658820624.15308,139977.1170438,183
1658820624.15308,139977.1170496,166
1658820624.15308,139977.1170535,142
1658820624.15308,139977.117057,98
1658820624.15308,139977.1170606,38
1658820624.15308,139977.1170653,-14
1658820624.15308,139977.1170716,-62
1658820624.15308,139977.1170781,-96
1658820624.15308,139977.1170857,-106
1658820624.15308,139977.1170945,-103
1658820624.15308,139977.1171025,-103
1658820624.15308,139977.1171094,-101
1658820624.15308,139977.1171157,-94
1658820624.15308,139977.1171222,-86
1658820624.15308,139977.1171302,-82
1658820624.15308,139977.1171443,-74
1658820624.15308,139977.1171545,-69
1658820624.15308,139977.1171623,-60
1658820624.15308,139977.1171709,-43
1658820624.15308,139977.1171844,-31
1658820624.15308,139977.117199,-21
1658820624.15308,139977.1172135,-14
1658820624.15308,139977.1172243,-7
1658820624.15308,139977.1172328,2
1658820624.15308,139977.1172379,12
1658820624.15308,139977.1172463,16
1658820624.15308,139977.117254,12
1658820624.15308,139977.1172598,12
1658820624.15308,139977.1172685,19
1658820624.16605,139977.1172801,21
1658820624.16605,139977.1172944,14
1658820624.16605,139977.1173059,7
1658820624.16605,139977.1173144,12
1658820624.16605,139977.1173205,9
1658820624.16605,139977.1173282,2
1658820624.16605,139977.1173344,14
1658820624.16605,139977.1173423,45
1658820624.16605,139977.1173515,57
1658820624.16605,139977.1174246,53
1658820624.16605,139977.1174352,50
1658820624.16605,139977.1174393,43
1658820624.16605,139977.1174428,28
1658820624.16605,139977.1174462,28
1658820624.16605,139977.1174496,33
1658820624.16605,139977.1174529,41
1658820624.16605,139977.1174564,45
1658820624.16605,139977.1174601,41
1658820624.16605,139977.1174634,16
1658820624.16605,139977.1174681,77
1658820624.16605,139977.7030625,506
1658820624.16605,139977.7030813,1274
1658820624.16605,139977.7030968,1667
1658820624.16605,139977.7031049,883
1658820624.74837,139977.703114,-441
1658820624.74837,139977.7031211,-658
1658820624.74837,139977.7031282,-43
1658820624.74837,139977.703135,67
1658820624.74837,139977.70314,-94
1658820624.74837,139977.7031433,-14
1658820624.74837,139977.7031494,31
1658820624.74837,139977.7031527,-14
1658820624.74837,139977.7031588,7
1658820624.74837,139977.703162,38
1658820624.74837,139977.7031671,19
1658820624.74837,139977.7031702,7
1658820624.74837,139977.7031732,21
1658820624.74837,139977.703176,36
1658820624.74837,139977.703179,43
1658820624.74837,139977.7031819,57
1658820624.74837,139977.7031848,82
1658820624.74837,139977.7031877,106
1658820624.74837,139977.7031906,115
1658820624.74837,139977.7031935,130
1658820624.74837,139977.7031964,159
1658820624.74837,139977.7031992,190
1658820624.74837,139977.7032022,197
1658820624.74837,139977.7032051,195
1658820624.74837,139977.7032079,190
1658820624.74837,139977.7032108,180
1658820624.74837,139977.7032137,156
1658820624.74837,139977.7032165,123
1658820624.74837,139977.7032195,69
1658820624.74837,139977.7032224,12
1658820624.74837,139977.7032254,-31
1658820624.74837,139977.7032283,-60
1658820624.74837,139977.7032312,-79
1658820624.74837,139977.703234,-84
1658820624.74837,139977.7032369,-84
1658820624.74837,139977.7032399,-84
1658820624.74837,139977.7032427,-84
1658820624.74837,139977.7032456,-84
1658820624.74837,139977.7032484,-72
1658820624.74837,139977.7032513,-53
1658820624.74837,139977.7032543,-48
1658820624.74837,139977.7032572,-53
1658820624.74837,139977.70326,-48
1658820624.74837,139977.7032628,-43
1658820624.74837,139977.7032657,-31
1658820624.74837,139977.7032686,-16
1658820624.74837,139977.7032714,-9
1658820624.74837,139977.7032742,-9
1658820624.74837,139977.7032771,-4
1658820624.74837,139977.70328,0
1658820624.77031,139977.7032829,2
1658820624.77031,139977.7032858,4
1658820624.77031,139977.7032887,7
1658820624.77031,139977.7032915,12
1658820624.77031,139977.7032943,14
1658820624.77031,139977.7032971,9
1658820624.77031,139977.7033001,14
1658820624.77031,139977.7033031,14
1658820624.77031,139977.7033059,4
1658820624.77031,139977.7033088,9
1658820624.77031,139977.7033117,33
1658820624.77031,139977.7033146,48
1658820624.77031,139977.7033175,48
1658820624.77031,139977.7033204,50
1658820624.77031,139977.7033232,53
1658820624.77031,139977.703326,36
1658820624.77031,139977.703329,19
1658820624.77031,139977.7033319,26
1658820624.77031,139977.7033348,38
1658820624.77031,139978.2869372,45
1658820624.77031,139978.2869547,53
1658820624.77031,139978.2869633,38
1658820624.77031,139978.2869698,21
1658820624.77031,139978.2869757,224
1658820625.28145,139978.286983,846
1658820625.28145,139978.2869889,1529
1658820625.28145,139978.286992,1399
1658820625.28145,139978.2869964,178
1658820625.28145,139978.2870007,-738
1658820625.28145,139978.2870055,-366
1658820625.28145,139978.2870127,82
1658820625.28145,139978.2870188,-60
1658820625.28145,139978.2870238,-86
1658820625.28145,139978.287028,36
1658820625.28145,139978.2870318,-7
1658820625.28145,139978.2870352,-45
1658820625.28145,139978.2870387,9
1658820625.28145,139978.2870423,21
1658820625.28145,139978.2870497,2
1658820625.28145,139978.2870561,21
1658820625.28145,139978.2870597,41
1658820625.28145,139978.2870647,45
1658820625.28145,139978.2870678,65
1658820625.28145,139978.2870726,79
1658820625.28145,139978.2870758,84
1658820625.28145,139978.2870808,108
1658820625.28145,139978.2870854,142
1658820625.28145,139978.2870887,164
1658820625.28145,139978.2870919,180
1658820625.28145,139978.2870954,202
1658820625.28145,139978.2870995,209
1658820625.28145,139978.2871029,195
1658820625.28145,139978.2871062,185
1658820625.28145,139978.2871116,180
1658820625.28145,139978.287115,152
1658820625.28145,139978.2871201,106
1658820625.28145,139978.2871245,50
1658820625.28145,139978.2871345,-4
1658820625.28145,139978.2871465,-45
1658820625.28145,139978.2871591,-69
1658820625.28145,139978.2871699,-74
1658820625.28145,139978.2871822,-72
1658820625.28145,139978.2871928,-79
1658820625.28145,139978.2872053,-84
1658820625.28145,139978.2872145,-77
1658820625.28145,139978.2872236,-65
1658820625.28145,139978.2872343,-55
1658820625.28145,139978.2872379,-48
1658820625.28145,139978.2872417,-43
1658820625.28145,139978.2872437,-38
1658820625.28145,139978.287249,-19
1658820625.28145,139978.2872601,-7
1658820625.28145,139978.2872687,-2
1658820625.28145,139978.2872803,12
1658820625.3024,139978.2872963,28
1658820625.3024,139978.2873115,24
1658820625.3024,139978.2873206,26
1658820625.3024,139978.287328,31
1658820625.3024,139978.2873342,36
1658820625.3024,139978.2873415,38
1658820625.3024,139978.2873481,41
1658820625.3024,139978.287355,36
1658820625.3024,139978.2873606,36
1658820625.3024,139978.2873672,38
1658820625.3024,139978.2873743,38
1658820625.3024,139978.2873832,38
1658820625.3024,139978.2873887,45
1658820625.3024,139978.2874014,55
1658820625.3024,139978.2874143,69
1658820625.3024,139978.2874222,79
1658820625.3024,139978.2874279,74
1658820625.3024,139978.2874371,57
1658820625.3024,139978.8226942,45
1658820625.3024,139978.8227127,45
1658820625.3024,139978.8227173,50
1658820625.3024,139978.8227228,55
1658820625.3024,139978.8227278,60
1658820625.3024,139978.8227318,60
1658820625.81463,139978.8227375,36
1658820625.81463,139978.8227412,53
1658820625.81463,139978.8227449,374
1658820625.81463,139978.822749,1078
1658820625.81463,139978.8227544,1614
1658820625.81463,139978.8227576,1088
1658820625.81463,139978.8227614,-246
1658820625.81463,139978.8227649,-728
1658820625.81463,139978.82277,-159
1658820625.81463,139978.8227735,60
1658820625.81463,139978.8227919,-103
1658820625.81463,139978.8227969,-24
1658820625.81463,139978.8228026,60
1658820625.81463,139978.8228062,4
1658820625.81463,139978.8228114,9
1658820625.81463,139978.8228148,45
1658820625.81463,139978.8228182,28
1658820625.81463,139978.822823,28
1658820625.81463,139978.8228298,57
1658820625.81463,139978.8228331,69
1658820625.81463,139978.8228773,79
1658820625.81463,139978.8228867,96
1658820625.81463,139978.8228927,103
1658820625.81463,139978.822896,123
1658820625.81463,139978.8229012,154
1658820625.81463,139978.8229055,173
1658820625.81463,139978.8229089,193
1658820625.81463,139978.8229123,214
1658820625.81463,139978.8229173,221
1658820625.81463,139978.8229207,226
1658820625.81463,139978.8229258,234
1658820625.81463,139978.8229292,224
1658820625.81463,139978.8229347,202
1658820625.81463,139978.8229384,171
1658820625.81463,139978.8229439,120
1658820625.81463,139978.8229474,69
1658820625.81463,139978.8229526,28
1658820625.81463,139978.8229566,-12
1658820625.81463,139978.8229618,-38
1658820625.81463,139978.8229658,-41
1658820625.81463,139978.8229764,-38
1658820625.81463,139978.8229885,-41
1658820625.81463,139978.822998,-48
1658820625.81463,139978.8230034,-48
1658820625.81463,139978.8230176,-36
1658820625.81463,139978.8230298,-28
1658820625.81463,139978.8230419,-24
1658820625.81463,139978.8230503,-16
1658820625.81463,139978.8230557,-9
1658820625.81463,139978.8230626,2
1658820625.83757,139978.8230676,19
1658820625.83757,139978.8230799,28
1658820625.83757,139978.8230893,33
1658820625.83757,139978.8230975,41
1658820625.83757,139978.823104,41
1658820625.83757,139978.8231122,38
1658820625.83757,139978.8231179,48
1658820625.83757,139978.8231269,57
1658820625.83757,139978.8231325,50
1658820625.83757,139978.8231403,41
1658820625.83757,139978.823147,43
1658820625.83757,139978.8231551,48
1658820625.83757,139978.8231611,45
1658820625.83757,139978.823174,41
1658820625.83757,139978.8231842,53
1658820625.83757,139978.8231926,82
1658820625.83757,139978.8231997,91
1658820625.83757,139979.3593422,74
1658820625.83757,139979.3593602,60
1658820625.83757,139979.3593686,38
1658820625.83757,139979.3593733,21
1658820625.83757,139979.3593804,33
1658820625.83757,139979.3593844,41
1658820625.83757,139979.3593969,36
1658820626.34637,139979.3594066,43
1658820626.34637,139979.359414,36
1658820626.34637,139979.3594211,4
1658820626.34637,139979.3594282,156
1658820626.34637,139979.3594356,733
1658820626.34637,139979.3594414,1445
1658820626.34637,139979.3594513,1476
1658820626.34637,139979.3594595,374
1658820626.34637,139979.3594663,-685
1658820626.34637,139979.3594799,-468
1658820626.34637,139979.3594903,48
1658820626.34637,139979.3594981,-26
1658820626.34637,139979.3595033,-89
1658820626.34637,139979.3595102,28
1658820626.34637,139979.3595139,24
1658820626.34637,139979.3595272,-4
1658820626.34637,139979.3595405,38
1658820626.34637,139979.359552,38
1658820626.34637,139979.3595664,16
1658820626.34637,139979.3595795,36
1658820626.34637,139979.35959,57
1658820626.34637,139979.3595975,72
1658820626.34637,139979.3596031,89
1658820626.34637,139979.3596099,101
1658820626.34637,139979.3596156,113
1658820626.34637,139979.359622,137
1658820626.34637,139979.3596318,161
1658820626.34637,139979.3596422,178
1658820626.34637,139979.3596498,197
1658820626.34637,139979.359659,224
1658820626.34637,139979.3596666,236
1658820626.34637,139979.3596751,238
1658820626.34637,139979.3596819,241
1658820626.34637,139979.3596906,231
1658820626.34637,139979.3596973,195
1658820626.34637,139979.3597059,149
1658820626.34637,139979.3597125,96
1658820626.34637,139979.3597208,41
1658820626.34637,139979.3597276,-2
1658820626.34637,139979.359736,-26
1658820626.34637,139979.3597426,-38
1658820626.34637,139979.3597516,-45
1658820626.34637,139979.3597595,-41
1658820626.34637,139979.3597661,-38
1658820626.34637,139979.3597752,-48
1658820626.34637,139979.3597819,-50
1658820626.34637,139979.3597881,-38
1658820626.34637,139979.3597925,-33
1658820626.34637,139979.3597982,-31
1658820626.34637,139979.3598024,-14
1658820626.35734,139979.3598079,0
1658820626.35734,139979.3598128,7
1658820626.35734,139979.3598182,16
1658820626.35734,139979.3598217,24
1658820626.35734,139979.3598264,24
1658820626.35734,139979.359832,31
1658820626.35734,139979.3598355,43
1658820626.35734,139979.3598413,50
1658820626.35734,139979.359845,48
1658820626.35734,139979.3598501,45
1658820626.35734,139979.3598538,38
1658820626.35734,139979.3598591,21
1658820626.35734,139979.3598643,12
1658820626.35734,139979.3598681,19
1658820626.35734,139979.3598717,33
1658820626.35734,139979.3598801,53
1658820626.35734,139979.8963391,60
1658820626.35734,139979.8963594,60
1658820626.35734,139979.896374,53
1658820626.35734,139979.8963873,33
1658820626.35734,139979.8963966,16
1658820626.35734,139979.896399,14
1658820626.35734,139979.8964012,31
1658820626.35734,139979.8964041,38
1658820626.89431,139979.8964061,26
1658820626.89431,139979.8964081,2
1658820626.89431,139979.8964102,-43
1658820626.89431,139979.8964122,24
1658820626.89431,139979.8964141,484
1658820626.89431,139979.896416,1230
1658820626.89431,139979.8964179,1522
1658820626.89431,139979.8964198,646
1658820626.89431,139979.8964218,-608
1658820626.89431,139979.8964237,-673
1658820626.89431,139979.8964293,-67
1658820626.89431,139979.8964372,-16
1658820626.89431,139979.8964419,-132
1658820626.89431,139979.8964458,-19
1658820626.89431,139979.8964496,12
1658820626.89431,139979.8964535,-43
1658820626.89431,139979.8964573,-16
1658820626.89431,139979.8964611,19
1658820626.89431,139979.8964653,16
1658820626.89431,139979.8964728,26
1658820626.89431,139979.8964772,48
1658820626.89431,139979.8964819,62
1658820626.89431,139979.8964854,72
1658820626.89431,139979.8964889,91
1658820626.89431,139979.8964972,123
1658820626.89431,139979.8965016,147
1658820626.89431,139979.8965038,161
1658820626.89431,139979.8965057,185
1658820626.89431,139979.8965076,207
1658820626.89431,139979.8965095,224
1658820626.89431,139979.8965115,231
1658820626.89431,139979.8965134,236
1658820626.89431,139979.8965153,238
1658820626.89431,139979.8965171,224
1658820626.89431,139979.8965228,193
1658820626.89431,139979.8965307,152
1658820626.89431,139979.8965353,103
1658820626.89431,139979.8965393,50
1658820626.89431,139979.8965431,9
1658820626.89431,139979.8965469,-26
1658820626.89431,139979.8965508,-50
1658820626.89431,139979.8965546,-60
1658820626.89431,139979.8965585,-60
1658820626.89431,139979.896562,-55
1658820626.89431,139979.8965655,-53
1658820626.89431,139979.8965688,-55
1658820626.89431,139979.8965722,-57
1658820626.89431,139979.8965756,-45
1658820626.89431,139979.8965826,-33
1658820626.89431,139979.8965913,-33
1658820626.91699,139979.896596,-26
1658820626.91699,139979.8966001,-12
1658820626.91699,139979.8966041,-12
1658820626.91699,139979.8966079,-19
1658820626.91699,139979.8966117,-9
1658820626.91699,139979.8966156,9
1658820626.91699,139979.8966192,9
1658820626.91699,139979.8966228,2
1658820626.91699,139979.8966261,9
1658820626.91699,139979.8966295,14
1658820626.91699,139979.8966329,12
1658820626.91699,139979.8966366,16
1658820626.91699,139979.8966401,19
1658820626.91699,139979.8966435,19
1658820626.91699,139979.8966469,12
1658820626.91699,139980.4311012,2
1658820626.91699,139980.4311131,4
1658820626.91699,139980.4311155,26
1658820626.91699,139980.4311189,38
1658820626.91699,139980.4311211,33
1658820626.91699,139980.4311232,21
1658820626.91699,139980.4311254,0
1658820626.91699,139980.4311275,-7
1658820626.91699,139980.4311296,4
1658820627.47125,139980.4311316,4
1658820627.47125,139980.4311335,0
1658820627.47125,139980.4311354,4
1658820627.47125,139980.4311374,-21
1658820627.47125,139980.4311393,-72
1658820627.47125,139980.4311411,33
1658820627.47125,139980.4311431,559
1658820627.47125,139980.4311492,1329
1658820627.47125,139980.4311581,1568
1658820627.47125,139980.4311664,603
1658820627.47125,139980.4311742,-658
1658820627.47125,139980.4311797,-658
1658820627.47125,139980.4311935,-55
1658820627.47125,139980.4312037,-43
1658820627.47125,139980.4312129,-139
1658820627.47125,139980.4312256,-24
1658820627.47125,139980.4312346,-21
1658820627.47125,139980.4312411,-69
1658820627.47125,139980.4312496,-24
1658820627.47125,139980.4312521,7
1658820627.47125,139980.4312541,7
1658820627.47125,139980.4312562,24
1658820627.47125,139980.4312582,38
1658820627.47125,139980.4312603,48
1658820627.47125,139980.4312623,69
1658820627.47125,139980.4312645,84
1658820627.47125,139980.4312665,89
1658820627.47125,139980.4312685,115
1658820627.47125,139980.4312705,149
1658820627.47125,139980.4312726,168
1658820627.47125,139980.4312746,193
1658820627.47125,139980.4312767,221
1658820627.47125,139980.4312787,236
1658820627.47125,139980.4312807,238
1658820627.47125,139980.4312828,238
1658820627.47125,139980.4312848,221
1658820627.47125,139980.4312868,190
1658820627.47125,139980.4312889,152
1658820627.47125,139980.4312908,101
1658820627.47125,139980.4312929,55
1658820627.47125,139980.4312952,4
1658820627.47125,139980.4312972,-43
1658820627.47125,139980.4312992,-62
1658820627.47125,139980.4313013,-74
1658820627.47125,139980.4313033,-94
1658820627.47125,139980.4313053,-98
1658820627.47125,139980.4313074,-89
1658820627.47125,139980.4313094,-86
1658820627.47125,139980.4313115,-91
1658820627.47125,139980.4313136,-82
1658820627.49517,139980.4313157,-69
1658820627.49517,139980.4313177,-57
1658820627.49517,139980.4313198,-45
1658820627.49517,139980.4313218,-43
1658820627.49517,139980.4313238,-45
1658820627.49517,139980.4313259,-28
1658820627.49517,139980.4313281,-19
1658820627.49517,139980.43133,-21
1658820627.49517,139980.431332,-12
1658820627.49517,139980.4313341,2
1658820627.49517,139980.4313362,0
1658820627.49517,139980.4313381,-2
1658820627.49517,139980.4313402,0
1658820627.49517,139980.4313423,7
1658820627.49517,139981.016362,14
1658820627.49517,139981.0163805,9
1658820627.49517,139981.0163958,2
1658820627.49517,139981.0164106,0
1658820627.49517,139981.01642,4
1658820627.49517,139981.0164226,14
1658820627.49517,139981.0164247,28
1658820627.49517,139981.0164267,48
1658820627.49517,139981.0164288,43
1658820627.49517,139981.0164308,7
1658820628.00442,139981.0164328,-14
1658820628.00442,139981.0164348,-9
1658820628.00442,139981.0164367,-2
1658820628.00442,139981.0164386,4
1658820628.00442,139981.0164404,4
1658820628.00442,139981.0164423,-12
1658820628.00442,139981.0164442,-36
1658820628.00442,139981.0164468,-55
1658820628.00442,139981.0164489,137
1658820628.00442,139981.0164507,781
1658820628.00442,139981.0164527,1520
1658820628.00442,139981.0164546,1438
1658820628.00442,139981.0164568,200
1658820628.00442,139981.0164587,-801
1658820628.00442,139981.0164607,-465
1658820628.00442,139981.0164626,21
1658820628.00442,139981.0164648,-94
1658820628.00442,139981.016472,-125
1658820628.00442,139981.0164802,0
1658820628.00442,139981.0164881,-24
1658820628.00442,139981.0164974,-45
1658820628.00442,139981.0165075,9
1658820628.00442,139981.0165126,19
1658820628.00442,139981.016523,4
1658820628.00442,139981.0165265,28
1658820628.00442,139981.0165303,50
1658820628.00442,139981.0165323,60
1658820628.00442,139981.0165343,86
1658820628.00442,139981.0165364,108
1658820628.00442,139981.0165384,118
1658820628.00442,139981.016545,139
1658820628.00442,139981.0165527,171
1658820628.00442,139981.016557,200
1658820628.00442,139981.016561,231
1658820628.00442,139981.0165652,255
1658820628.00442,139981.0165691,250
1658820628.00442,139981.0165737,238
1658820628.00442,139981.0165791,234
1658820628.00442,139981.0165827,217
1658820628.00442,139981.0165862,185
1658820628.00442,139981.0165896,139
1658820628.00442,139981.0165932,74
1658820628.00442,139981.0165996,16
1658820628.00442,139981.016603,-21
1658820628.00442,139981.0166064,-60
1658820628.00442,139981.0166117,-82
1658820628.00442,139981.0166152,-79
1658820628.00442,139981.0166184,-84
1658820628.00442,139981.0166229,-94
1658820628.00442,139981.0166282,-89
1658820628.01439,139981.0166319,-82
1658820628.01439,139981.0166356,-79
1658820628.01439,139981.0166408,-82
1658820628.01439,139981.0166444,-79
1658820628.01439,139981.0166481,-65
1658820628.01439,139981.0166532,-50
1658820628.01439,139981.0166567,-45
1658820628.01439,139981.0166602,-33
1658820628.01439,139981.0166652,-19
1658820628.01439,139981.0166688,-12
1658820628.01439,139981.0166724,-4
1658820628.01439,139981.0166774,9
1658820628.01439,139981.016681,12
1658820628.01439,139981.5530202,4
1658820628.01439,139981.5530342,7
1658820628.01439,139981.5530382,9
1658820628.01439,139981.5530418,9
1658820628.01439,139981.5530453,19
1658820628.01439,139981.5530487,21
1658820628.01439,139981.5530522,14
1658820628.01439,139981.5530574,14
1658820628.01439,139981.5530609,21
1658820628.01439,139981.5530643,21
1658820628.01439,139981.5530679,16
1658820628.63553,139981.5530729,16
1658820628.63553,139981.5530768,16
1658820628.63553,139981.5530804,21
1658820628.63553,139981.5530839,26
1658820628.63553,139981.5530873,19
1658820628.63553,139981.5530908,0
1658820628.63553,139981.5530942,-19
1658820628.63553,139981.5530977,-36
1658820628.63553,139981.5531011,-41
1658820628.63553,139981.5531045,-21
1658820628.63553,139981.5531079,0
1658820628.63553,139981.5531113,-7
1658820628.63553,139981.5531147,-41
1658820628.63553,139981.553118,14
1658820628.63553,139981.5531214,446
1658820628.63553,139981.5531248,1225
1658820628.63553,139981.5531282,1611
1658820628.63553,139981.5531315,789
1658820628.63553,139981.5531349,-540
1658820628.63553,139981.5531383,-719
1658820628.63553,139981.5531418,-103
1658820628.63553,139981.5531453,-4
1658820628.63553,139981.5531488,-120
1658820628.63553,139981.5531523,2
1658820628.63553,139981.5531558,48
1658820628.63553,139981.5531593,0
1658820628.63553,139981.5531643,26
1658820628.63553,139981.5531678,45
1658820628.63553,139981.5531724,33
1658820628.63553,139981.5531762,55
1658820628.63553,139981.5531797,84
1658820628.63553,139981.5531832,84
1658820628.63553,139981.5531883,91
1658820628.63553,139981.5531918,113
1658820628.63553,139981.5531954,135
1658820628.63553,139981.5531989,156
1658820628.63553,139981.5532039,183
1658820628.63553,139981.5532076,212
1658820628.63553,139981.5532123,236
1658820628.63553,139981.5532167,253
1658820628.63553,139981.5532203,267
1658820628.63553,139981.5532238,279
1658820628.63553,139981.5532272,287
1658820628.63553,139981.553232,277
1658820628.63553,139981.5532354,243
1658820628.63553,139981.5532428,193
1658820628.63553,139981.5532492,130
1658820628.63553,139981.5532576,62
1658820628.63553,139981.5532641,12
1658820628.63553,139981.5532723,-19
1658820628.65648,139981.5532792,-50
1658820628.65648,139981.5532881,-74
1658820628.65648,139981.5532947,-82
1658820628.65648,139981.5533013,-74
1658820628.65648,139981.5533051,-62
1658820628.65648,139981.5533099,-60
1658820628.65648,139981.5533135,-60
1658820628.65648,139981.5533186,-65
1658820628.65648,139981.553323,-67
1658820628.65648,139981.5533281,-55
1658820628.65648,139981.5533316,-41
1658820628.65648,139981.5533351,-31
1658820628.65648,139982.1866255,-14
1658820628.65648,139982.1866418,-4
1658820628.65648,139982.1866463,-4
1658820628.65648,139982.18665,4
1658820628.65648,139982.1866557,14
1658820628.65648,139982.1866628,21
1658820628.65648,139982.1866669,21
1658820628.65648,139982.1866874,16
1658820628.65648,139982.1866967,0
1658820628.65648,139982.1867041,-12
1658820628.65648,139982.1867091,-7
1658820628.65648,139982.1867132,0
1658820629.17149,139982.1867178,-2
1658820629.17149,139982.1867248,0
1658820629.17149,139982.1867315,0
1658820629.17149,139982.1867387,-12
1658820629.17149,139982.186744,-14
1658820629.17149,139982.1867474,-7
1658820629.17149,139982.1867537,-9
1658820629.17149,139982.1867583,-12
1658820629.17149,139982.1867621,-7
1658820629.17149,139982.1867659,4
1658820629.17149,139982.1867711,31
1658820629.17149,139982.1867766,36
1658820629.17149,139982.1867837,16
1658820629.17149,139982.1867889,7
1658820629.17149,139982.1867929,14
1658820629.17149,139982.1867959,21
1658820629.17149,139982.186799,16
1658820629.17149,139982.1868019,9
1658820629.17149,139982.1868047,12
1658820629.17149,139982.1868076,9
1658820629.17149,139982.1868105,-7
1658820629.17149,139982.1868135,-9
1658820629.17149,139982.1868164,236
1658820629.17149,139982.1868193,916
1658820629.17149,139982.1868221,1578
1658820629.17149,139982.1868275,1286
1658820629.17149,139982.1868306,-41
1658820629.17149,139982.1868344,-827
1658820629.17149,139982.18687,-364
1658820629.17149,139982.1868771,7
1658820629.17149,139982.1868806,-120
1658820629.17149,139982.1868838,-69
1658820629.17149,139982.1868871,43
1658820629.17149,139982.1868903,-12
1658820629.17149,139982.1868935,-24
1658820629.17149,139982.1868967,36
1658820629.17149,139982.1868999,48
1658820629.17149,139982.1869032,41
1658820629.17149,139982.1869064,65
1658820629.17149,139982.1869096,91
1658820629.17149,139982.1869128,110
1658820629.17149,139982.186916,123
1658820629.17149,139982.1869192,135
1658820629.17149,139982.1869223,166
1658820629.17149,139982.1869255,200
1658820629.17149,139982.1869287,212
1658820629.17149,139982.1869319,226
1658820629.17149,139982.1869352,275
1658820629.17149,139982.1869384,316
1658820629.17149,139982.1869416,325
1658820629.19244,139982.1869448,325
1658820629.19244,139982.186948,323
1658820629.19244,139982.1869512,299
1658820629.19244,139982.1869545,255
1658820629.19244,139982.1869578,190
1658820629.19244,139982.186961,110
1658820629.19244,139982.1869642,43
1658820629.19244,139982.1869674,2
1658820629.19244,139982.1869707,-28
1658820629.19244,139982.1869739,-57
1658820629.19244,139982.1869772,-74
1658820629.19244,139982.7236339,-69
1658820629.19244,139982.7236489,-67
1658820629.19244,139982.7236545,-72
1658820629.19244,139982.7236626,-62
1658820629.19244,139982.7236686,-53
1658820629.19244,139982.723676,-53
1658820629.19244,139982.723681,-53
1658820629.19244,139982.7236869,-45
1658820629.19244,139982.7236927,-31
1658820629.19244,139982.7236987,-19
1658820629.19244,139982.7237034,-14
1658820629.19244,139982.7237095,-2
1658820629.19244,139982.7237142,7
1658820629.75718,139982.72372,14
1658820629.75718,139982.7237244,24
1658820629.75718,139982.7237287,28
1658820629.75718,139982.723733,28
1658820629.75718,139982.7237378,36
1658820629.75718,139982.7237421,28
1658820629.75718,139982.7237464,7
1658820629.75718,139982.7237507,9
1658820629.75718,139982.7237551,31
1658820629.75718,139982.7237594,33
1658820629.75718,139982.7237637,21
1658820629.75718,139982.7237673,0
1658820629.75718,139982.7237708,-16
1658820629.75718,139982.7237743,-7
1658820629.75718,139982.7237777,4
1658820629.75718,139982.7237815,2
1658820629.75718,139982.7237888,0
1658820629.75718,139982.7237925,4
1658820629.75718,139982.7238547,21
1658820629.75718,139982.7238594,41
1658820629.75718,139982.7238783,43
1658820629.75718,139982.7238934,36
1658820629.75718,139982.7238978,21
1658820629.75718,139982.7239006,12
1658820629.75718,139982.7239033,14
1658820629.75718,139982.7239062,21
1658820629.75718,139982.7239088,31
1658820629.75718,139982.7239114,41
1658820629.75718,139982.723914,26
1658820629.75718,139982.7239201,4
1658820629.75718,139982.7239269,195
1658820629.75718,139982.723933,837
1658820629.75718,139982.7239366,1587
1658820629.75718,139982.7239417,1544
1658820629.75718,139982.7239459,328
1658820629.75718,139982.7239496,-714
1658820629.75718,139982.7239557,-434
1658820629.75718,139982.7239626,41

1658820629.75718,139982.7239686,-55
1658820629.75718,139982.7239726,-60
1658820629.75718,139982.723976,72
1658820629.75718,139982.7239793,45
1658820629.75718,139982.7239824,16
1658820629.75718,139982.723986,57
1658820629.75718,139982.723992,65
1658820629.75718,139982.723995,60
1658820629.75718,139982.7239981,74
1658820629.75718,139982.7240013,86
1658820629.75718,139982.7240045,94
1658820629.75718,139982.7240077,106
1658820629.78112,139982.7240109,118
1658820629.78112,139982.724015,144
1658820629.78112,139982.7240185,173
1658820629.78112,139982.724022,193
1658820629.78112,139982.7240255,212
1658820629.78112,139982.724029,246
1658820629.78112,139982.7240325,275
1658820629.78112,139982.7240358,287
1658820629.78112,139982.7240389,289
1658820629.78112,139982.7240438,289
1658820629.78112,139983.3083083,284
1658820629.78112,139983.3083214,263
1658820629.78112,139983.3083251,207
1658820629.78112,139983.3083284,127
1658820629.78112,139983.3083316,55
1658820629.78112,139983.3083349,2
1658820629.78112,139983.3083387,-28
1658820629.78112,139983.3083421,-41
1658820629.78112,139983.3083471,-53
1658820629.78112,139983.3083503,-74
1658820629.78112,139983.3083535,-84
1658820629.78112,139983.3083568,-69
1658820629.78112,139983.3083601,-57
1658820629.78112,139983.3083633,-53
1658820630.24665,139983.3083665,-53
1658820630.24665,139983.3083697,-65
1658820630.24665,139983.3083729,-72
1658820630.24665,139983.3083762,-69
1658820630.24665,139983.3083795,-65
1658820630.24665,139983.3083827,-57
1658820630.24665,139983.3083859,-43
1658820630.24665,139983.3083905,-33
1658820630.24665,139983.3083939,-26
1658820630.24665,139983.3083971,-19
1658820630.24665,139983.3084004,-4
1658820630.24665,139983.3084037,12
1658820630.24665,139983.3084069,19
1658820630.24665,139983.3084101,16
1658820630.24665,139983.3084132,9
1658820630.24665,139983.3084164,12
1658820630.24665,139983.3084197,14
1658820630.24665,139983.3084229,16
1658820630.24665,139983.3084261,28
1658820630.24665,139983.3084294,41
1658820630.24665,139983.3084329,43
1658820630.24665,139983.3084361,38
1658820630.24665,139983.3084394,36
1658820630.24665,139983.3084426,38
1658820630.24665,139983.3084459,53
1658820630.24665,139983.3084491,67
1658820630.24665,139983.3084523,69
1658820630.24665,139983.3084567,65
1658820630.24665,139983.30846,60
1658820630.24665,139983.3084632,43
1658820630.24665,139983.3084668,31
1658820630.24665,139983.30847,41
1658820630.24665,139983.3084732,48
1658820630.24665,139983.3084803,48
1658820630.24665,139983.3085045,55
1658820630.24665,139983.3085084,55
1658820630.24665,139983.3085116,28
1658820630.24665,139983.3085149,171
1658820630.24665,139983.3085308,745
1658820630.24665,139983.3085469,1491
1658820630.24665,139983.3085545,1551
1658820630.24665,139983.3085675,434
1658820630.24665,139983.3085737,-685
1658820630.24665,139983.3085774,-504
1658820630.24665,139983.308581,24
1658820630.24665,139983.3085845,-31
1658820630.24665,139983.3085886,-77
1658820630.24665,139983.3085923,53
1658820630.24665,139983.3085959,45
1658820630.24665,139983.3085993,16
1658820630.26859,139983.3086028,67
1658820630.26859,139983.3086072,77
1658820630.26859,139983.3086106,57
1658820630.26859,139983.3086146,72
1658820630.26859,139983.3086186,84
1658820630.26859,139983.3086226,94
1658820630.26859,139983.3086261,115
1658820630.26859,139983.3086293,132
1658820630.26859,139983.3086327,147
1658820630.26859,139983.7956459,173
1658820630.26859,139983.7956573,202
1658820630.26859,139983.7956602,226
1658820630.26859,139983.7956627,255
1658820630.26859,139983.7956651,282
1658820630.26859,139983.7956677,294
1658820630.26859,139983.7956699,296
1658820630.26859,139983.7956719,291
1658820630.26859,139983.795674,277
1658820630.26859,139983.7956761,238
1658820630.26859,139983.7956783,176
1658820630.26859,139983.7956811,98
1658820630.26859,139983.7956873,24
1658820630.26859,139983.795699,-26
1658820630.26859,139983.7957045,-65
1658820630.89557,139983.7957077,-101
1658820630.89557,139983.7957098,-115
1658820630.89557,139983.7957117,-113
1658820630.89557,139983.795714,-113
1658820630.89557,139983.7957159,-110
1658820630.89557,139983.7957177,-103
1658820630.89557,139983.7957196,-98
1658820630.89557,139983.7957215,-89
1658820630.89557,139983.7957234,-69
1658820630.89557,139983.7957253,-69
1658820630.89557,139983.7957271,-82
1658820630.89557,139983.7957291,-72
1658820630.89557,139983.795731,-60
1658820630.89557,139983.7957331,-57
1658820630.89557,139983.7957351,-45
1658820630.89557,139983.795738,-33
1658820630.89557,139983.79574,-26
1658820630.89557,139983.7957427,-16
1658820630.89557,139983.7957448,-4
1658820630.89557,139983.7957469,2
1658820630.89557,139983.7957489,7
1658820630.89557,139983.7957509,12
1658820630.89557,139983.795753,16
1658820630.89557,139983.795755,21
1658820630.89557,139983.7957569,21
1658820630.89557,139983.7957589,19
1658820630.89557,139983.7957609,24
1658820630.89557,139983.7957629,31
1658820630.89557,139983.7957657,28
1658820630.89557,139983.7957677,24
1658820630.89557,139983.7957703,26
1658820630.89557,139983.7957724,31
1658820630.89557,139983.7957746,50
1658820630.89557,139983.7957766,65
1658820630.89557,139983.7957787,62
1658820630.89557,139983.7957808,60
1658820630.89557,139983.7957828,57
1658820630.89557,139983.7957848,41
1658820630.89557,139983.7957868,33
1658820630.89557,139983.7957888,36
1658820630.89557,139983.7957909,41
1658820630.89557,139983.7957929,45
1658820630.89557,139983.795795,55
1658820630.89557,139983.7957976,45
1658820630.89557,139983.7957996,21
1658820630.89557,139983.7958017,132
1658820630.89557,139983.7958038,632
1658820630.89557,139983.7958058,1334
1658820630.89557,139983.7958078,1445
1658820630.89557,139983.7958099,422
1658820630.90554,139983.7958119,-673
1658820630.90554,139983.7958139,-535
1658820630.90554,139983.795816,0
1658820630.90554,139983.795818,-24
1658820630.90554,139983.7958201,-65
1658820630.90554,139983.7958222,62
1658820630.90554,139983.7958243,53
1658820630.90554,139983.7958263,16
1658820630.90554,139984.4299675,57
1658820630.90554,139984.4299842,62
1658820630.90554,139984.4299883,38
1658820630.90554,139984.4299954,50
1658820630.90554,139984.4299987,67
1658820630.90554,139984.4300018,77
1658820630.90554,139984.4300048,91
1658820630.90554,139984.4300076,113
1658820630.90554,139984.4300106,127
1658820630.90554,139984.4300134,130
1658820630.90554,139984.4300162,154
1658820630.90554,139984.4300194,197
1658820630.90554,139984.4300253,231
1658820630.90554,139984.4300287,258
1658820630.90554,139984.4300319,279
1658820630.90554,139984.4300355,279
1658820631.36736,139984.43004,275
1658820631.36736,139984.4300455,275
1658820631.36736,139984.4300505,253
1658820631.36736,139984.4300557,197
1658820631.36736,139984.4300592,127
1658820631.36736,139984.4300637,53
1658820631.36736,139984.4300696,-7
1658820631.36736,139984.4300756,-41
1658820631.36736,139984.4300821,-57
1658820631.36736,139984.430087,-74
1658820631.36736,139984.4300916,-74
1658820631.36736,139984.4300971,-77
1658820631.36736,139984.430104,-84
1658820631.36736,139984.4301107,-77
1658820631.36736,139984.4301176,-62
1658820631.36736,139984.4301217,-50
1658820631.36736,139984.4301258,-33
1658820631.36736,139984.4301289,-26
1658820631.36736,139984.4301319,-28
1658820631.36736,139984.4301348,-21
1658820631.36736,139984.4301376,-12
1658820631.36736,139984.4301406,0
1658820631.36736,139984.4301434,9
1658820631.36736,139984.4301463,9
1658820631.36736,139984.4301491,12
1658820631.36736,139984.4301519,26
1658820631.36736,139984.4301548,38
1658820631.36736,139984.4301576,41
1658820631.36736,139984.4301605,48
1658820631.36736,139984.4301633,55
1658820631.36736,139984.4301661,62
1658820631.36736,139984.4301689,72
1658820631.36736,139984.4301716,79
1658820631.36736,139984.4301745,74
1658820631.36736,139984.4301773,74
1658820631.36736,139984.4301806,77
1658820631.36736,139984.4301939,69
1658820631.36736,139984.4302036,55
1658820631.36736,139984.4302171,62
1658820631.36736,139984.4302292,94
1658820631.36736,139984.4302416,113
1658820631.36736,139984.4302539,113
1658820631.36736,139984.4302617,101
1658820631.36736,139984.4302714,77
1658820631.36736,139984.4302833,60
1658820631.36736,139984.4302911,72
1658820631.36736,139984.4302949,84
1658820631.36736,139984.4303012,82
1658820631.36736,139984.430314,79
1658820631.36736,139984.4303272,67
1658820631.38831,139984.4303392,36
1658820631.38831,139984.4303465,135
1658820631.38831,139984.4303592,639
1658820631.38831,139984.4303722,1404
1658820631.38831,139984.4303857,1643
1658820631.38831,139984.430396,690
1658820631.38831,139984.4304036,-562
1658820631.38831,139984.9182192,-595
1658820631.38831,139984.9182348,-28
1658820631.38831,139984.9182393,-16
1658820631.38831,139984.9182432,-103
1658820631.38831,139984.9182471,26
1658820631.38831,139984.9182508,31
1658820631.38831,139984.9182545,-21
1658820631.38831,139984.9182582,16
1658820631.38831,139984.918262,38
1658820631.38831,139984.9182656,26
1658820631.38831,139984.9182693,38
1658820631.38831,139984.918273,55
1658820631.38831,139984.9182766,62
1658820631.38831,139984.9182803,79
1658820631.38831,139984.918284,98
1658820631.38831,139984.9182877,113
1658820631.38831,139984.9182914,139
1658820632.04705,139984.9182952,166
1658820632.04705,139984.9182993,180
1658820632.04705,139984.918303,200
1658820632.04705,139984.9183067,231
1658820632.04705,139984.9183102,255
1658820632.04705,139984.9183139,270
1658820632.04705,139984.9183174,279
1658820632.04705,139984.918321,272
1658820632.04705,139984.9183246,231
1658820632.04705,139984.9183284,168
1658820632.04705,139984.9183323,96
1658820632.04705,139984.918336,33
1658820632.04705,139984.9183396,-19
1658820632.04705,139984.9183433,-69
1658820632.04705,139984.918347,-108
1658820632.04705,139984.9183507,-123
1658820632.04705,139984.9183543,-123
1658820632.04705,139984.9183578,-123
1658820632.04705,139984.9183614,-118
1658820632.04705,139984.918365,-108
1658820632.04705,139984.9183684,-106
1658820632.04705,139984.9183719,-98
1658820632.04705,139984.9183754,-86
1658820632.04705,139984.9183789,-79
1658820632.04705,139984.9183825,-72
1658820632.04705,139984.9183859,-60
1658820632.04705,139984.918391,-60
1658820632.04705,139984.9183953,-57
1658820632.04705,139984.9183989,-45
1658820632.04705,139984.9184044,-33
1658820632.04705,139984.9184095,-24
1658820632.04705,139984.9184145,-12
1658820632.04705,139984.9184181,-9
1658820632.04705,139984.9184218,-7
1658820632.04705,139984.9184253,2
1658820632.04705,139984.9184307,4
1658820632.04705,139984.9184341,0
1658820632.04705,139984.9184377,0
1658820632.04705,139984.9184429,4
1658820632.04705,139984.9184474,4
1658820632.04705,139984.918454,9
1658820632.04705,139984.9184585,16
1658820632.04705,139984.9184639,-7
1658820632.04705,139984.9184678,-31
1658820632.04705,139984.9184734,-4
1658820632.04705,139984.9184771,24
1658820632.04705,139984.9184821,14
1658820632.04705,139984.9184853,12
1658820632.04705,139984.9184887,36
1658820632.04705,139984.9184941,50
1658820632.06998,139984.9184973,26
1658820632.06998,139984.9185026,2
1658820632.06998,139984.9185056,14
1658820632.06998,139984.9185087,21
1658820632.06998,139984.9185154,14
1658820632.06998,139984.9185186,14
1658820632.06998,139985.5997723,-9
1658820632.06998,139985.5997923,-33
1658820632.06998,139985.5997981,214
1658820632.06998,139985.5998037,924
1658820632.06998,139985.59981,1614
1658820632.06998,139985.599817,1360
1658820632.06998,139985.5998215,38
1658820632.06998,139985.5998267,-827
1658820632.06998,139985.5998323,-410
1658820632.06998,139985.5998388,-26
1658820632.06998,139985.599843,-164
1658820632.06998,139985.5998464,-118
1658820632.06998,139985.599855,0
1658820632.06998,139985.5998616,-57
1658820632.06998,139985.5998705,-72
1658820632.06998,139985.5998844,-33
1658820632.06998,139985.5998917,-43
1658820632.06998,139985.5998951,-41
1658820632.49097,139985.5998973,-14
1658820632.49097,139985.5998993,0
1658820632.49097,139985.5999013,9
1658820632.49097,139985.5999058,24
1658820632.49097,139985.5999161,45
1658820632.49097,139985.5999253,79
1658820632.49097,139985.5999304,115
1658820632.49097,139985.5999343,142
1658820632.49097,139985.5999381,171
1658820632.49097,139985.5999441,217
1658820632.49097,139985.5999482,246
1658820632.49097,139985.5999542,258
1658820632.49097,139985.5999633,277
1658820632.49097,139985.5999664,294
1658820632.49097,139985.5999684,287
1658820632.49097,139985.5999705,255
1658820632.49097,139985.5999725,190
1658820632.49097,139985.5999781,118
1658820632.49097,139985.5999888,57
1658820632.49097,139985.5999976,2
1658820632.49097,139985.6000049,-33
1658820632.49097,139985.6000143,-45
1658820632.49097,139985.6000203,-60
1658820632.49097,139985.6000326,-62
1658820632.49097,139985.6000436,-53
1658820632.49097,139985.6000523,-50
1658820632.49097,139985.6000601,-38
1658820632.49097,139985.6000674,-21
1658820632.49097,139985.6000697,-16
1658820632.49097,139985.6000718,-14
1658820632.49097,139985.6000739,-4
1658820632.49097,139985.600076,-2
1658820632.49097,139985.600078,0
1658820632.49097,139985.6000806,9
1658820632.49097,139985.6000888,12
1658820632.49097,139985.6000998,7
1658820632.49097,139985.6001037,12
1658820632.49097,139985.6001057,24
1658820632.49097,139985.6001077,28
1658820632.49097,139985.6001097,38
1658820632.49097,139985.6001128,53
1658820632.49097,139985.6001259,57
1658820632.49097,139985.6001324,57
1658820632.49097,139985.6001347,60
1658820632.49097,139985.6001368,62
1658820632.49097,139985.6001389,65
1658820632.49097,139985.6001409,65
1658820632.49097,139985.6001432,60
1658820632.49097,139985.6001508,57
1658820632.49097,139985.6001646,69
1658820632.51291,139985.6001787,91
1658820632.51291,139985.600192,106
1658820632.51291,139985.6002054,113
1658820632.51291,139985.6002193,115
1658820632.51291,139985.6002327,103
1658820632.51291,139986.0384074,84
1658820632.51291,139986.0384255,82
1658820632.51291,139986.0384421,101
1658820632.51291,139986.038457,110
1658820632.51291,139986.0384711,108
1658820632.51291,139986.0384854,110
1658820632.51291,139986.0385005,98
1658820632.51291,139986.0385147,108
1658820632.51291,139986.0385291,439
1658820632.51291,139986.0385438,1179
1658820632.51291,139986.038557,1749
1658820632.51291,139986.0385699,1266
1658820632.51291,139986.0385829,-118
1658820632.51291,139986.038596,-738
1658820632.51291,139986.0386049,-190
1658820632.51291,139986.0386075,86
1658820632.51291,139986.0386097,-74
1658820632.51291,139986.0386118,-7
1658820632.51291,139986.038614,77
1658820633.02567,139986.038616,9
1658820633.02567,139986.038618,4
1658820633.02567,139986.0386198,43
1658820633.02567,139986.0386217,31
1658820633.02567,139986.0386236,38
1658820633.02567,139986.0386255,60
1658820633.02567,139986.0386274,50
1658820633.02567,139986.0386292,50
1658820633.02567,139986.0386311,91
1658820633.02567,139986.0386329,125
1658820633.02567,139986.0386347,135
1658820633.02567,139986.0386366,154
1658820633.02567,139986.0386384,188
1658820633.02567,139986.0386404,219
1658820633.02567,139986.0386441,241
1658820633.02567,139986.0386463,265
1658820633.02567,139986.0386483,296
1658820633.02567,139986.0386503,306
1658820633.02567,139986.0386523,291
1658820633.02567,139986.0386543,277
1658820633.02567,139986.0386563,253
1658820633.02567,139986.0386584,195
1658820633.02567,139986.0386604,110
1658820633.02567,139986.0386624,41
1658820633.02567,139986.0386643,2
1658820633.02567,139986.0386663,-21
1658820633.02567,139986.0386684,-48
1658820633.02567,139986.0386711,-57
1658820633.02567,139986.0386732,-48
1658820633.02567,139986.0386753,-36
1658820633.02567,139986.0386772,-33
1658820633.02567,139986.0386793,-31
1658820633.02567,139986.0386813,-14
1658820633.02567,139986.0386834,2
1658820633.02567,139986.0386854,7
1658820633.02567,139986.0386874,14
1658820633.02567,139986.0386894,24
1658820633.02567,139986.0386914,36
1658820633.02567,139986.0386935,50
1658820633.02567,139986.0386955,62
1658820633.02567,139986.0386975,67
1658820633.02567,139986.0386997,67
1658820633.02567,139986.0387017,69
1658820633.02567,139986.0387037,77
1658820633.02567,139986.0387057,82
1658820633.02567,139986.0387076,91
1658820633.02567,139986.0387096,101
1658820633.02567,139986.0387116,103
1658820633.02567,139986.0387136,98
1658820633.02567,139986.0387157,101
1658820633.04745,139986.0387176,106
1658820633.04745,139986.0387197,101
1658820633.04745,139986.0387216,96
1658820633.04745,139986.0387237,106
1658820633.04745,139986.5739437,120
1658820633.04745,139986.5739887,125
1658820633.04745,139986.5739981,120
1658820633.04745,139986.5740061,113
1658820633.04745,139986.5740132,98
1658820633.04745,139986.5740188,86
1658820633.04745,139986.5740224,89
1658820633.04745,139986.5740259,96
1658820633.04745,139986.5740295,86
1658820633.04745,139986.5740331,72
1658820633.04745,139986.5740365,62
1658820633.04745,139986.5740413,43
1658820633.04745,139986.5740468,231
1658820633.04745,139986.5740522,880
1658820633.04745,139986.5740558,1645
1658820633.04745,139986.5740592,1640
1658820633.04745,139986.5740628,436
1658820633.04745,139986.5740666,-687
1658820633.04745,139986.5740703,-480
1658820633.04745,139986.574074,16
1658820633.609,139986.5740775,-72
1658820633.609,139986.5740811,-101
1658820633.609,139986.5740847,36
1658820633.609,139986.5740883,14
1658820633.609,139986.5740921,-9
1658820633.609,139986.5740957,43
1658820633.609,139986.5740995,31
1658820633.609,139986.5741035,0
1658820633.609,139986.5741078,26
1658820633.609,139986.5741116,45
1658820633.609,139986.5741152,48
1658820633.609,139986.5741189,65
1658820633.609,139986.5741226,86
1658820633.609,139986.5741261,101
1658820633.609,139986.5741297,125
1658820633.609,139986.5741333,152
1658820633.609,139986.574137,178
1658820633.609,139986.5741409,217
1658820633.609,139986.5741448,248
1658820633.609,139986.5741487,248
1658820633.609,139986.5741564,263
1658820633.609,139986.5741605,291
1658820633.609,139986.5741643,267
1658820633.609,139986.57417,219
1658820633.609,139986.574174,185
1658820633.609,139986.5741779,120
1658820633.609,139986.5741818,43
1658820633.609,139986.5741856,7
1658820633.609,139986.5741898,-9
1658820633.609,139986.5741934,-41
1658820633.609,139986.574197,-62
1658820633.609,139986.5742007,-55
1658820633.609,139986.5742042,-33
1658820633.609,139986.5742083,-21
1658820633.609,139986.5742118,-19
1658820633.609,139986.5742156,-16
1658820633.609,139986.5742192,-12
1658820633.609,139986.5742229,-2
1658820633.609,139986.5742263,7
1658820633.609,139986.5742309,12
1658820633.609,139986.5742345,14
1658820633.609,139986.5742377,19
1658820633.609,139986.5742429,31
1658820633.609,139986.574248,33
1658820633.609,139986.574255,28
1658820633.609,139986.574262,24
1658820633.609,139986.574269,14
1658820633.609,139986.5742728,19
1658820633.609,139986.5742771,38
1658820633.609,139986.5742805,45
1658820633.62097,139986.5742838,38
1658820633.62097,139986.5742875,31
1658820633.62097,139986.574291,38
1658820633.62097,139987.1594942,38
1658820633.62097,139987.1595051,28
1658820633.62097,139987.1595088,26
1658820633.62097,139987.1595121,36
1658820633.62097,139987.1595144,43
1658820633.62097,139987.1595165,33
1658820633.62097,139987.1595185,16
1658820633.62097,139987.1595205,12
1658820633.62097,139987.1595226,4
1658820633.62097,139987.1595247,-7
1658820633.62097,139987.1595268,0
1658820633.62097,139987.1595288,-4
1658820633.62097,139987.1595309,-26
1658820633.62097,139987.1595329,-26
1658820633.62097,139987.159535,-9
1658820633.62097,139987.1595371,-26
1658820633.62097,139987.1595391,-2
1658820633.62097,139987.1595412,354
1658820633.62097,139987.1595434,1100
1658820633.62097,139987.1595455,1628
1658820633.62097,139987.1595475,1078
1658820634.19117,139987.1595496,-301
1658820634.19117,139987.1595516,-837
1658820634.19117,139987.1595536,-272
1658820634.19117,139987.1595555,-36
1658820634.19117,139987.1595574,-195
1658820634.19117,139987.1595593,-103
1658820634.19117,139987.1595612,-14
1658820634.19117,139987.1595631,-79
1658820634.19117,139987.1595651,-72
1658820634.19117,139987.159567,-24
1658820634.19117,139987.159569,-31
1658820634.19117,139987.159571,-28
1658820634.19117,139987.1595728,-4
1658820634.19117,139987.1595747,16
1658820634.19117,139987.1595766,41
1658820634.19117,139987.1595786,50
1658820634.19117,139987.1595804,41
1658820634.19117,139987.1595823,48
1658820634.19117,139987.1595848,84
1658820634.19117,139987.1595922,118
1658820634.19117,139987.1595994,154
1658820634.19117,139987.1596136,200
1658820634.19117,139987.1596274,229
1658820634.19117,139987.159641,229
1658820634.19117,139987.1596502,238
1658820634.19117,139987.1596528,258
1658820634.19117,139987.1596549,243
1658820634.19117,139987.1596569,180
1658820634.19117,139987.1596591,94
1658820634.19117,139987.1596611,21
1658820634.19117,139987.1596632,-28
1658820634.19117,139987.1596653,-79
1658820634.19117,139987.1596674,-118
1658820634.19117,139987.1596695,-130
1658820634.19117,139987.1596715,-132
1658820634.19117,139987.1596736,-139
1658820634.19117,139987.1596757,-135
1658820634.19117,139987.1596779,-123
1658820634.19117,139987.1596799,-110
1658820634.19117,139987.159682,-108
1658820634.19117,139987.1596851,-113
1658820634.19117,139987.1596872,-106
1658820634.19117,139987.1596893,-106
1658820634.19117,139987.1596914,-103
1658820634.19117,139987.1596939,-67
1658820634.19117,139987.1596961,-38
1658820634.19117,139987.1596982,-48
1658820634.19117,139987.1597002,-43
1658820634.19117,139987.1597023,-16
1658820634.19117,139987.1597043,-14
1658820634.20214,139987.1597064,-24
1658820634.20214,139987.1597085,-9
1658820634.20214,139987.7448812,4
1658820634.20214,139987.7448961,2
1658820634.20214,139987.7449002,2
1658820634.20214,139987.7449056,0
1658820634.20214,139987.7449094,-9
1658820634.20214,139987.7449145,-2
1658820634.20214,139987.7449181,38
1658820634.20214,139987.7449231,60
1658820634.20214,139987.7449267,24
1658820634.20214,139987.7449302,-12
1658820634.20214,139987.7449337,-2
1658820634.20214,139987.7449372,9
1658820634.20214,139987.7449407,0
1658820634.20214,139987.7449442,-4
1658820634.20214,139987.7449476,-9
1658820634.20214,139987.744951,-26
1658820634.20214,139987.7449544,-33
1658820634.20214,139987.7449578,-50
1658820634.20214,139987.7449614,-48
1658820634.20214,139987.7449649,258
1658820634.20214,139987.7449694,1001
1658820634.20214,139987.744973,1623
1658820634.82306,139987.7449782,1247
1658820634.82306,139987.7449817,-101
1658820634.82306,139987.7449853,-837
1658820634.82306,139987.7449887,-328
1658820634.82306,139987.7449921,28
1658820634.82306,139987.7449956,-139
1658820634.82306,139987.744999,-101
1658820634.82306,139987.7450025,16
1658820634.82306,139987.7450059,-21
1658820634.82306,139987.7450093,-9
1658820634.82306,139987.7450128,43
1658820634.82306,139987.7450162,24
1658820634.82306,139987.7450196,12
1658820634.82306,139987.7450231,43
1658820634.82306,139987.7450265,65
1658820634.82306,139987.7450299,77
1658820634.82306,139987.7450334,106
1658820634.82306,139987.7450369,127
1658820634.82306,139987.7450403,139
1658820634.82306,139987.7450437,159
1658820634.82306,139987.7450472,190
1658820634.82306,139987.7450506,226
1658820634.82306,139987.745054,250
1658820634.82306,139987.7450574,275
1658820634.82306,139987.7450608,306
1658820634.82306,139987.7450642,313
1658820634.82306,139987.7450676,299
1658820634.82306,139987.7450711,284
1658820634.82306,139987.7450747,253
1658820634.82306,139987.7450781,195
1658820634.82306,139987.7450815,123
1658820634.82306,139987.745085,50
1658820634.82306,139987.7450884,4
1658820634.82306,139987.7450918,-21
1658820634.82306,139987.7450953,-45
1658820634.82306,139987.7450987,-57
1658820634.82306,139987.7451022,-53
1658820634.82306,139987.7451057,-45
1658820634.82306,139987.7451094,-38
1658820634.82306,139987.745113,-21
1658820634.82306,139987.7451165,-16
1658820634.82306,139987.74512,-26
1658820634.82306,139987.7451235,-26
1658820634.82306,139987.7451294,-21
1658820634.82306,139987.7451331,-14
1658820634.82306,139987.7451368,16
1658820634.82306,139987.745142,36
1658820634.82306,139987.7451456,26
1658820634.82306,139987.7451508,31
1658820634.82306,139987.7451544,43
1658820634.83403,139987.7451579,41
1658820634.83403,139988.378621,41
1658820634.83403,139988.3786349,45
1658820634.83403,139988.3786425,43
1658820634.83403,139988.3786515,38
1658820634.83403,139988.3786584,43
1658820634.83403,139988.3786669,36
1658820634.83403,139988.3786733,28
1658820634.83403,139988.3786797,38
1658820634.83403,139988.378687,60
1658820634.83403,139988.3786983,84
1658820634.83403,139988.3787066,103
1658820634.83403,139988.3787118,94
1658820634.83403,139988.3787183,48
1658820634.83403,139988.3787234,21
1658820634.83403,139988.3787288,24
1658820634.83403,139988.3787335,24
1658820634.83403,139988.3787388,24
1658820634.83403,139988.3787426,28
1658820634.83403,139988.3787479,12
1658820634.83403,139988.3787516,-33
1658820634.83403,139988.3787557,-60
1658820634.83403,139988.3787622,166
1658820634.83403,139988.3787669,861
1658820635.31123,139988.378773,1607
1658820635.31123,139988.3787767,1481
1658820635.31123,139988.3787801,207
1658820635.31123,139988.3787836,-772
1658820635.31123,139988.3787871,-415
1658820635.31123,139988.3787912,43
1658820635.31123,139988.3787958,-91
1658820635.31123,139988.3788006,-98
1658820635.31123,139988.378818,31
1658820635.31123,139988.3788331,-4
1658820635.31123,139988.3788417,-26
1658820635.31123,139988.3788458,26
1658820635.31123,139988.3788514,21
1658820635.31123,139988.3788563,12
1658820635.31123,139988.3788617,60
1658820635.31123,139988.3788682,86
1658820635.31123,139988.3788754,82
1658820635.31123,139988.3788821,98
1658820635.31123,139988.3788869,115
1658820635.31123,139988.3788944,123
1658820635.31123,139988.3788977,144
1658820635.31123,139988.3789043,168
1658820635.31123,139988.3789079,200
1658820635.31123,139988.3789207,243
1658820635.31123,139988.3789369,270
1658820635.31123,139988.3789476,279
1658820635.31123,139988.3789554,299
1658820635.31123,139988.3789611,301
1658820635.31123,139988.3789671,279
1658820635.31123,139988.3789727,250
1658820635.31123,139988.3789802,197
1658820635.31123,139988.3789878,118
1658820635.31123,139988.3789969,41
1658820635.31123,139988.3790017,-12
1658820635.31123,139988.3790102,-33
1658820635.31123,139988.379017,-43
1658820635.31123,139988.379026,-65
1658820635.31123,139988.3790328,-72
1658820635.31123,139988.379041,-60
1658820635.31123,139988.3790464,-62
1658820635.31123,139988.3790544,-60
1658820635.31123,139988.3790633,-38
1658820635.31123,139988.3790721,-21
1658820635.31123,139988.3790804,-28
1658820635.31123,139988.3790867,-36
1658820635.31123,139988.379095,-21
1658820635.31123,139988.3791014,-7
1658820635.31123,139988.3791101,-4
1658820635.31123,139988.3791169,4
1658820635.31123,139988.3791258,19
1658820635.3232,139988.8655772,28
1658820635.3232,139988.865596,41
1658820635.3232,139988.8656021,38
1658820635.3232,139988.8656064,24
1658820635.3232,139988.86561,26
1658820635.3232,139988.8656136,33
1658820635.3232,139988.8656185,31
1658820635.3232,139988.8656217,33
1658820635.3232,139988.8656255,33
1658820635.3232,139988.8656284,21
1658820635.3232,139988.8656314,33
1658820635.3232,139988.8656425,60
1658820635.3232,139988.8656653,53
1658820635.3232,139988.8656747,31
1658820635.3232,139988.8656791,28
1658820635.3232,139988.865683,21
1658820635.3232,139988.8656891,4
1658820635.3232,139988.8656927,9
1658820635.3232,139988.8656964,26
1658820635.3232,139988.8657001,33
1658820635.3232,139988.8657036,28
1658820635.3232,139988.8657067,-9
1658820635.3232,139988.8657098,-65
1658820635.3232,139988.8657126,82
1658820635.89831,139988.8657154,690
1658820635.89831,139988.8657183,1486
1658820635.89831,139988.8657215,1655
1658820635.89831,139988.8657253,612
1658820635.89831,139988.8657289,-641
1658820635.89831,139988.8657322,-608
1658820635.89831,139988.8657357,-24
1658820635.89831,139988.8657392,-38
1658820635.89831,139988.8657428,-132
1658820635.89831,139988.8657465,0
1658820635.89831,139988.8657496,2
1658820635.89831,139988.8657539,-31
1658820635.89831,139988.865757,14
1658820635.89831,139988.8657597,2
1658820635.89831,139988.8657623,-9
1658820635.89831,139988.8657649,60
1658820635.89831,139988.8657674,84
1658820635.89831,139988.8657707,48
1658820635.89831,139988.8657734,67
1658820635.89831,139988.8657762,118
1658820635.89831,139988.865779,147
1658820635.89831,139988.8657816,176
1658820635.89831,139988.8657843,200
1658820635.89831,139988.865787,207
1658820635.89831,139988.8657897,226
1658820635.89831,139988.8657924,253
1658820635.89831,139988.865795,275
1658820635.89831,139988.8657978,279
1658820635.89831,139988.8658004,275
1658820635.89831,139988.8658032,275
1658820635.89831,139988.8658059,260
1658820635.89831,139988.8658086,202
1658820635.89831,139988.8658113,132
1658820635.89831,139988.8658141,74
1658820635.89831,139988.8658168,21
1658820635.89831,139988.8658196,-16
1658820635.89831,139988.8658223,-45
1658820635.89831,139988.8658251,-69
1658820635.89831,139988.8658277,-74
1658820635.89831,139988.8658304,-69
1658820635.89831,139988.8658331,-72
1658820635.89831,139988.8658373,-69
1658820635.89831,139988.8658436,-53
1658820635.89831,139988.8658475,-48
1658820635.89831,139988.8658513,-65
1658820635.89831,139988.8658552,-57
1658820635.89831,139988.8658584,-14
1658820635.89831,139988.8658614,-2
1658820635.89831,139988.8658644,-26
1658820635.89831,139989.4503219,-38
1658820635.92123,139989.4503398,-33
1658820635.92123,139989.450356,-9
1658820635.92123,139989.45037,2
1658820635.92123,139989.4503798,-9
1658820635.92123,139989.450387,-21
1658820635.92123,139989.4503949,-50
1658820635.92123,139989.4504046,-48
1658820635.92123,139989.4504171,16
1658820635.92123,139989.4504258,50
1658820635.92123,139989.4504356,19
1658820635.92123,139989.450442,-2
1658820635.92123,139989.4504445,2
1658820635.92123,139989.4504465,16
1658820635.92123,139989.4504486,24
1658820635.92123,139989.4504506,12
1658820635.92123,139989.4504527,2
1658820635.92123,139989.4504547,-19
1658820635.92123,139989.4504568,-50
1658820635.92123,139989.4504588,-41
1658820635.92123,139989.4504612,-12
1658820635.92123,139989.4504688,-16
1658820635.92123,139989.4504796,-28
1658820635.92123,139989.4504831,-36
1658820635.92123,139989.450486,-69
1658820636.38789,139989.4504894,89
1658820636.38789,139989.450499,726
1658820636.38789,139989.4505086,1515
1658820636.38789,139989.4505156,1561
1658820636.38789,139989.4505205,390
1658820636.38789,139989.4505253,-752
1658820636.38789,139989.4505326,-545
1658820636.38789,139989.4505368,9
1658820636.38789,139989.4505477,-50
1658820636.38789,139989.4505546,-120
1658820636.38789,139989.4505659,-2
1658820636.38789,139989.4505759,-9
1658820636.38789,139989.4505826,-38
1658820636.38789,139989.4506057,9
1658820636.38789,139989.4506112,9
1658820636.38789,139989.4506149,-2
1658820636.38789,139989.4506184,48
1658820636.38789,139989.4506219,74
1658820636.38789,139989.4506254,69
1658820636.38789,139989.4506312,106
1658820636.38789,139989.4506346,147
1658820636.38789,139989.450638,137
1658820636.38789,139989.4506414,137
1658820636.38789,139989.4506448,183
1658820636.38789,139989.4506482,231
1658820636.38789,139989.4506516,255
1658820636.38789,139989.4506549,267
1658820636.38789,139989.4506583,275
1658820636.38789,139989.4506616,260
1658820636.38789,139989.4506649,275
1658820636.38789,139989.4506682,304
1658820636.38789,139989.4506716,272
1658820636.38789,139989.4506749,202
1658820636.38789,139989.4506782,144
1658820636.38789,139989.4506815,77
1658820636.38789,139989.4506849,7
1658820636.38789,139989.4506883,-38
1658820636.38789,139989.4506921,-67
1658820636.38789,139989.4506954,-72
1658820636.38789,139989.4506988,-65
1658820636.38789,139989.4507022,-67
1658820636.38789,139989.4507056,-86
1658820636.38789,139989.450709,-106
1658820636.38789,139989.4507124,-113
1658820636.38789,139989.4507156,-110
1658820636.38789,139989.4507189,-106
1658820636.38789,139989.4507221,-96
1658820636.38789,139989.4507254,-72
1658820636.38789,139989.9382988,-57
1658820636.38789,139989.938317,-50
1658820636.41083,139989.9383324,-33
1658820636.41083,139989.9383462,-24
1658820636.41083,139989.9383553,-57
1658820636.41083,139989.9383577,-74
1658820636.41083,139989.9383598,-48
1658820636.41083,139989.938363,-43
1658820636.41083,139989.9383651,-62
1658820636.41083,139989.9383678,-53
1658820636.41083,139989.9383698,-45
1658820636.41083,139989.9383718,-53
1658820636.41083,139989.9383742,-19
1658820636.41083,139989.9383763,26
1658820636.41083,139989.9383783,7
1658820636.41083,139989.9383803,-31
1658820636.41083,139989.9383824,-26
1658820636.41083,139989.9383844,-28
1658820636.41083,139989.9383866,-53
1658820636.41083,139989.9383886,-55
1658820636.41083,139989.9383907,-53
1658820636.41083,139989.9383928,-67
1658820636.41083,139989.9383947,-67
1658820636.41083,139989.9383967,-50
1658820636.41083,139989.9383988,-50
1658820636.41083,139989.9384008,-72
1658820636.96892,139989.9384029,-14
1658820636.96892,139989.9384049,405
1658820636.96892,139989.9384067,1177
1658820636.96892,139989.9384086,1587
1658820636.96892,139989.9384105,815
1658820636.96892,139989.9384124,-538
1658820636.96892,139989.9384143,-786
1658820636.96892,139989.9384162,-159
1658820636.96892,139989.9384181,-38
1658820636.96892,139989.93842,-164
1658820636.96892,139989.9384218,-16
1658820636.96892,139989.9384237,36
1658820636.96892,139989.9384257,-36
1658820636.96892,139989.9384277,0
1658820636.96892,139989.9384298,55
1658820636.96892,139989.9384326,33
1658820636.96892,139989.9384347,24
1658820636.96892,139989.9384367,50
1658820636.96892,139989.9384402,65
1658820636.96892,139989.9384523,79
1658820636.96892,139989.9384638,106
1658820636.96892,139989.9384743,130
1658820636.96892,139989.9384843,161
1658820636.96892,139989.9384868,207
1658820636.96892,139989.9384889,236
1658820636.96892,139989.938491,258
1658820636.96892,139989.938493,282
1658820636.96892,139989.9384953,296
1658820636.96892,139989.9385027,320
1658820636.96892,139989.9385134,337
1658820636.96892,139989.938517,325
1658820636.96892,139989.9385206,289
1658820636.96892,139989.9385226,236
1658820636.96892,139989.9385254,154
1658820636.96892,139989.9385274,79
1658820636.96892,139989.9385294,24
1658820636.96892,139989.9385316,-21
1658820636.96892,139989.9385337,-45
1658820636.96892,139989.9385362,-53
1658820636.96892,139989.9385384,-65
1658820636.96892,139989.9385405,-62
1658820636.96892,139989.9385426,-50
1658820636.96892,139989.9385446,-60
1658820636.96892,139989.9385467,-74
1658820636.96892,139989.9385488,-57
1658820636.96892,139989.9385509,-43
1658820636.96892,139989.9385529,-50
1658820636.96892,139990.5235188,-45
1658820636.96892,139990.5235384,-26
1658820636.96892,139990.5235425,-2
1658820636.99086,139990.5236083,19
1658820636.99086,139990.5236222,12
1658820636.99086,139990.5236295,-33
1658820636.99086,139990.5236347,-57
1658820636.99086,139990.5236415,-26
1658820636.99086,139990.5236457,0
1658820636.99086,139990.5236493,-7
1658820636.99086,139990.523653,-2
1658820636.99086,139990.523657,0
1658820636.99086,139990.523661,-16
1658820636.99086,139990.5236649,-21
1658820636.99086,139990.5236685,2
1658820636.99086,139990.523672,24
1658820636.99086,139990.5236757,19
1658820636.99086,139990.5236795,4
1658820636.99086,139990.5236835,9
1658820636.99086,139990.523689,24
1658820636.99086,139990.5236931,21
1658820636.99086,139990.5236963,12
1658820636.99086,139990.5236995,19
1658820636.99086,139990.5237026,28
1658820636.99086,139990.5237055,33
1658820636.99086,139990.5237083,36
1658820636.99086,139990.5237112,16
1658820637.56721,139990.523714,48
1658820637.56721,139990.5237168,424

1658820637.56721,139990.5237197,1182
1658820637.56721,139990.5237223,1684
1658820637.56721,139990.523725,1073
1658820637.56721,139990.5237276,-299
1658820637.56721,139990.5237304,-750
1658820637.56721,139990.5237332,-166
1658820637.56721,139990.5237362,43
1658820637.56721,139990.5237411,-106
1658820637.56721,139990.5237458,-21
1658820637.56721,139990.5237501,53
1658820637.56721,139990.5237543,9
1658820637.56721,139990.5237576,31
1658820637.56721,139990.5237615,62
1658820637.56721,139990.5237654,55
1658820637.56721,139990.5237689,79
1658820637.56721,139990.5237731,106
1658820637.56721,139990.5237766,98
1658820637.56721,139990.5237816,91
1658820637.56721,139990.523788,115
1658820637.56721,139990.5237937,147
1658820637.56721,139990.5237971,166
1658820637.56721,139990.5238018,200
1658820637.56721,139990.5238051,248
1658820637.56721,139990.5238083,267
1658820637.56721,139990.5238119,255
1658820637.56721,139990.5238151,263
1658820637.56721,139990.5238189,287
1658820637.56721,139990.5238251,306
1658820637.56721,139990.5238289,301
1658820637.56721,139990.5238344,282
1658820637.56721,139990.523838,253
1658820637.56721,139990.5238419,188
1658820637.56721,139990.5238473,94
1658820637.56721,139990.5238516,24
1658820637.56721,139990.5238567,-16
1658820637.56721,139990.5238602,-45
1658820637.56721,139990.5238671,-77
1658820637.56721,139990.5238725,-89
1658820637.56721,139990.5238762,-48
1658820637.56721,139990.5238813,-14
1658820637.56721,139990.5238858,-50
1658820637.56721,139990.5238909,-89
1658820637.56721,139990.5238945,-62
1658820637.56721,139990.5238989,-33
1658820637.56721,139991.109971,-53
1658820637.56721,139991.1099945,-60
1658820637.56721,139991.1099968,-53
1658820637.56721,139991.1099987,-62
1658820637.59015,139991.1100006,-55
1658820637.59015,139991.1100024,-14
1658820637.59015,139991.1100042,-9
1658820637.59015,139991.1100064,-33
1658820637.59015,139991.1100083,-21
1658820637.59015,139991.1100331,-2
1658820637.59015,139991.1100354,0
1658820637.59015,139991.1100374,0
1658820637.59015,139991.1100396,-33
1658820637.59015,139991.1100417,-48
1658820637.59015,139991.1100437,-31
1658820637.59015,139991.1100458,-50
1658820637.59015,139991.1100478,-50
1658820637.59015,139991.1100499,-14
1658820637.59015,139991.1100521,-7
1658820637.59015,139991.1100541,-12
1658820637.59015,139991.1100562,-9
1658820637.59015,139991.1100582,-41
1658820637.59015,139991.1100602,-57
1658820637.59015,139991.1100623,-33
1658820637.59015,139991.1100644,-50
1658820637.59015,139991.1100664,-86
1658820637.59015,139991.1100684,-43
1658820637.59015,139991.1100704,-7
1658820638.10221,139991.1100724,-53
1658820638.10221,139991.1100744,125
1658820638.10221,139991.1100764,801
1658820638.10221,139991.1100783,1546
1658820638.10221,139991.1100802,1442
1658820638.10221,139991.1100822,200
1658820638.10221,139991.1100843,-805
1658820638.10221,139991.1100861,-477
1658820638.10221,139991.110088,0
1658820638.10221,139991.11009,-120
1658820638.10221,139991.1100919,-132
1658820638.10221,139991.1100937,9
1658820638.10221,139991.1100957,-19
1658820638.10221,139991.1100976,-41
1658820638.10221,139991.1100994,14
1658820638.10221,139991.1101013,2
1658820638.10221,139991.1101033,-21
1658820638.10221,139991.1101053,9
1658820638.10221,139991.1101071,38
1658820638.10221,139991.110109,50
1658820638.10221,139991.1101109,53
1658820638.10221,139991.1101134,67
1658820638.10221,139991.1101198,120
1658820638.10221,139991.1101286,154
1658820638.10221,139991.1101363,161
1658820638.10221,139991.1101386,188
1658820638.10221,139991.1101407,209
1658820638.10221,139991.1101427,243
1658820638.10221,139991.1101447,296
1658820638.10221,139991.1101467,304
1658820638.10221,139991.1101487,272
1658820638.10221,139991.1101508,243
1658820638.10221,139991.110153,212
1658820638.10221,139991.1101551,176
1658820638.10221,139991.1101571,132
1658820638.10221,139991.1101591,60
1658820638.10221,139991.1101611,-31
1658820638.10221,139991.1101632,-77
1658820638.10221,139991.1101653,-60
1658820638.10221,139991.1101673,-45
1658820638.10221,139991.1101694,-60
1658820638.10221,139991.1101715,-48
1658820638.10221,139991.1101735,-26
1658820638.10221,139991.1101755,-74
1658820638.10221,139991.1101775,-103
1658820638.10221,139991.6464034,-53
1658820638.10221,139991.6464146,-31
1658820638.10221,139991.6464174,-55
1658820638.10221,139991.6464199,-45
1658820638.10221,139991.6464223,-16
1658820638.12316,139991.6464245,-2
1658820638.12316,139991.6464267,0
1658820638.12316,139991.6464288,-4
1658820638.12316,139991.6464309,-21
1658820638.12316,139991.6464561,-19
1658820638.12316,139991.6464584,12
1658820638.12316,139991.6464604,0
1658820638.12316,139991.6464623,-43
1658820638.12316,139991.6464651,-36
1658820638.12316,139991.6464686,-9
1658820638.12316,139991.6464707,-16
1658820638.12316,139991.6464727,-43
1658820638.12316,139991.6464747,-48
1658820638.12316,139991.6464767,-7
1658820638.12316,139991.6464788,38
1658820638.12316,139991.6464807,9
1658820638.12316,139991.6464827,-33
1658820638.12316,139991.6464847,-2
1658820638.12316,139991.6464868,21
1658820638.12316,139991.6464889,-24
1658820638.12316,139991.6464908,-48
1658820638.12316,139991.6464928,-41
1658820638.12316,139991.6464948,-53
1658820638.12316,139991.6464969,-41
1658820638.68988,139991.6464988,9
1658820638.68988,139991.6465008,31
1658820638.68988,139991.6465027,-16
1658820638.68988,139991.6465046,113
1658820638.68988,139991.6465064,733
1658820638.68988,139991.6465083,1500
1658820638.68988,139991.6465102,1544
1658820638.68988,139991.646512,407
1658820638.68988,139991.6465139,-740
1658820638.68988,139991.6465177,-538
1658820638.68988,139991.6465197,48
1658820638.68988,139991.6465227,-53
1658820638.68988,139991.6465282,-171
1658820638.68988,139991.6465363,-7
1658820638.68988,139991.6465422,19
1658820638.68988,139991.6465486,-36
1658820638.68988,139991.6465549,2
1658820638.68988,139991.646562,21
1658820638.68988,139991.6465693,21
1658820638.68988,139991.646578,48
1658820638.68988,139991.6465832,41
1658820638.68988,139991.646591,36
1658820638.68988,139991.6465987,91
1658820638.68988,139991.64661,135
1658820638.68988,139991.646622,144
1658820638.68988,139991.646627,168
1658820638.68988,139991.6466343,188
1658820638.68988,139991.6466429,185
1658820638.68988,139991.6466499,217
1658820638.68988,139991.6466522,270
1658820638.68988,139991.6466554,291
1658820638.68988,139991.6466575,287
1658820638.68988,139991.6466595,287
1658820638.68988,139991.6466614,301
1658820638.68988,139991.6466634,304
1658820638.68988,139991.6466654,236
1658820638.68988,139991.6466674,127
1658820638.68988,139991.6466694,77
1658820638.68988,139991.6466718,57
1658820638.68988,139991.6466738,2
1658820638.68988,139991.6466758,-38
1658820638.68988,139991.6466779,-33
1658820638.68988,139991.6466813,-31
1658820638.68988,139991.6466941,-45
1658820638.68988,139992.2310406,-38
1658820638.68988,139992.2310521,-16
1658820638.68988,139992.2310545,-14
1658820638.68988,139992.2310574,-21
1658820638.68988,139992.2310615,-12
1658820638.68988,139992.2310636,-9
1658820638.71282,139992.2310656,-19
1658820638.71282,139992.2310676,-19
1658820638.71282,139992.2310695,-31
1658820638.71282,139992.2310716,-36
1658820638.71282,139992.2310736,-12
1658820638.71282,139992.2310756,-16
1658820638.71282,139992.2310778,-43
1658820638.71282,139992.2310802,-24
1658820638.71282,139992.2310859,9
1658820638.71282,139992.2310975,2
1658820638.71282,139992.2311033,-12
1658820638.71282,139992.2311054,14
1658820638.71282,139992.2311076,33
1658820638.71282,139992.2311098,9
1658820638.71282,139992.2311171,0
1658820638.71282,139992.2311281,-2
1658820638.71282,139992.2311317,-21
1658820638.71282,139992.2311355,-12
1658820638.71282,139992.2311377,31
1658820638.71282,139992.2311494,50
1658820638.71282,139992.2311572,53
1658820638.71282,139992.2311604,55
1658820638.71282,139992.2311625,28
1658820638.71282,139992.2311646,-2
1658820639.31441,139992.231168,4
1658820639.31441,139992.2311793,19
1658820639.31441,139992.2311844,24
1658820639.31441,139992.2311878,28
1658820639.31441,139992.2312009,28
1658820639.31441,139992.2312227,19
1658820639.31441,139992.2312346,7
1658820639.31441,139992.2312395,217
1658820639.31441,139992.2312439,880
1658820639.31441,139992.2312488,1597
1658820639.31441,139992.2312545,1454
1658820639.31441,139992.2312582,195
1658820639.31441,139992.2312617,-764
1658820639.31441,139992.2312649,-395
1658820639.31441,139992.2312689,91
1658820639.31441,139992.2312725,-41
1658820639.31441,139992.2312787,-86
1658820639.31441,139992.2312821,36
1658820639.31441,139992.2312871,33
1658820639.31441,139992.2312905,21
1658820639.31441,139992.2312938,55
1658820639.31441,139992.2312985,50
1658820639.31441,139992.2313018,48
1658820639.31441,139992.231305,74
1658820639.31441,139992.2313086,108
1658820639.31441,139992.2313137,123
1658820639.31441,139992.2313172,120
1658820639.31441,139992.231323,149
1658820639.31441,139992.2313288,180
1658820639.31441,139992.2313331,197
1658820639.31441,139992.2313406,234
1658820639.31441,139992.2313459,258
1658820639.31441,139992.2313524,263
1658820639.31441,139992.2313597,291
1658820639.31441,139992.2313696,306
1658820639.31441,139992.2313797,308
1658820639.31441,139992.2313852,328
1658820639.31441,139992.2313931,330
1658820639.31441,139992.2314019,291
1658820639.31441,139992.2314066,219
1658820639.31441,139992.2314129,147
1658820639.31441,139992.2314214,91
1658820639.31441,139992.2314261,26
1658820639.31441,139992.864388,-31
1658820639.31441,139992.8644451,-45
1658820639.31441,139992.8644529,-36
1658820639.31441,139992.864458,-41
1658820639.31441,139992.8644627,-36
1658820639.31441,139992.864467,-24
1658820639.31441,139992.8644744,-31
1658820639.33535,139992.8644806,-41
1658820639.33535,139992.8644843,-36
1658820639.33535,139992.8644907,-26
1658820639.33535,139992.8644966,-31
1658820639.33535,139992.8645007,-53
1658820639.33535,139992.8645071,-41
1658820639.33535,139992.8645133,-7
1658820639.33535,139992.8645172,-14
1658820639.33535,139992.8645227,-28
1658820639.33535,139992.864527,-24
1658820639.33535,139992.8645332,-28
1658820639.33535,139992.8645395,-28
1658820639.33535,139992.8645454,-21
1658820639.33535,139992.864552,-16
1658820639.33535,139992.8645582,-2
1658820639.33535,139992.8645648,21
1658820639.33535,139992.8645714,7
1658820639.33535,139992.8645795,-55
1658820639.33535,139992.8645858,-91
1658820639.33535,139992.8645909,-45
1658820639.33535,139992.8645944,-19
1658820639.33535,139992.8645996,-41
1658820639.33535,139992.8646032,-43
1658820639.33535,139992.8646087,-26
1658820639.79968,139992.8646137,-2
1658820639.79968,139992.8646176,24
1658820639.79968,139992.8646223,26
1658820639.79968,139992.8646268,-14
1658820639.79968,139992.8646323,-36
1658820639.79968,139992.8646439,-16
1658820639.79968,139992.8646513,-21
1658820639.79968,139992.8646567,-33
1658820639.79968,139992.864663,0
1658820639.79968,139992.8646667,31
1658820639.79968,139992.8646725,2
1658820639.79968,139992.8646787,-31
1658820639.79968,139992.8646992,84
1658820639.79968,139992.8647135,579
1658820639.79968,139992.8647225,1363
1658820639.79968,139992.8647297,1664
1658820639.79968,139992.864737,704
1658820639.79968,139992.8647453,-624
1658820639.79968,139992.8647526,-658
1658820639.79968,139992.8647599,-21
1658820639.79968,139992.8647676,7
1658820639.79968,139992.8647768,-108
1658820639.79968,139992.8647795,28
1658820639.79968,139992.8647848,50
1658820639.79968,139992.8647978,-36
1658820639.79968,139992.8648103,2
1658820639.79968,139992.8648195,74
1658820639.79968,139992.8648283,60
1658820639.79968,139992.8648398,38
1658820639.79968,139992.8648544,72
1658820639.79968,139992.8648672,98
1658820639.79968,139992.8648806,120
1658820639.79968,139992.864894,137
1658820639.79968,139992.8649073,132
1658820639.79968,139992.8649203,161
1658820639.79968,139992.8649336,214
1658820639.79968,139992.864946,236
1658820639.79968,139992.8649599,243
1658820639.79968,139992.8649719,272
1658820639.79968,139992.864981,308
1658820639.79968,139992.8649899,316
1658820639.79968,139992.8649955,306
1658820639.79968,139993.3511553,291
1658820639.79968,139993.3511766,267
1658820639.79968,139993.3511908,236
1658820639.79968,139993.3511989,185
1658820639.79968,139993.3512071,106
1658820639.79968,139993.3512187,2
1658820639.79968,139993.3512253,-38
1658820639.79968,139993.3512314,-26
1658820639.8316,139993.351236,-55
1658820639.8316,139993.3512405,-110
1658820639.8316,139993.351245,-115
1658820639.8316,139993.3512506,-91
1658820639.8316,139993.3512587,-84
1658820639.8316,139993.3512677,-82
1658820639.8316,139993.3512738,-96
1658820639.8316,139993.3512774,-120
1658820639.8316,139993.3512834,-103
1658820639.8316,139993.3512905,-77
1658820639.8316,139993.3512994,-84
1658820639.8316,139993.3513065,-79
1658820639.8316,139993.3513114,-50
1658820639.8316,139993.3513193,-48
1658820639.8316,139993.351329,-72
1658820639.8316,139993.3513348,-77
1658820639.8316,139993.3513369,-38
1658820639.8316,139993.3513396,-21
1658820639.8316,139993.3513469,-48
1658820639.8316,139993.3513595,-55
1658820639.8316,139993.3513711,-45
1658820639.8316,139993.3513856,-53
1658820639.8316,139993.3513998,-57
1658820639.8316,139993.3514142,-53
1658820640.35125,139993.3514244,-50
1658820640.35125,139993.35143,-38
1658820640.35125,139993.35144,-28
1658820640.35125,139993.3514489,-57
1658820640.35125,139993.3514564,-62
1658820640.35125,139993.3514623,-19
1658820640.35125,139993.3514711,-4
1658820640.35125,139993.3514816,-12
1658820640.35125,139993.3514856,4
1658820640.35125,139993.3514894,-7
1658820640.35125,139993.3514913,-36
1658820640.35125,139993.3514938,-26
1658820640.35125,139993.3515046,2
1658820640.35125,139993.3515152,-9
1658820640.35125,139993.3515236,-36
1658820640.35125,139993.3515341,-19
1658820640.35125,139993.3515435,12
1658820640.35125,139993.3515459,-2
1658820640.35125,139993.3515487,28
1658820640.35125,139993.3515583,427
1658820640.35125,139993.3515691,1218
1658820640.35125,139993.3515743,1650
1658820640.35125,139993.3515807,861
1658820640.35125,139993.3515852,-509
1658820640.35125,139993.3515899,-776
1658820640.35125,139993.351596,-152
1658820640.35125,139993.3516005,-4
1658820640.35125,139993.3516068,-123
1658820640.35125,139993.3516116,-16
1658820640.35125,139993.3516183,12
1658820640.35125,139993.3516232,-33
1658820640.35125,139993.3516299,9
1658820640.35125,139993.3516346,16
1658820640.35125,139993.3516449,2
1658820640.35125,139993.3516583,36
1658820640.35125,139993.3516687,55
1658820640.35125,139993.351676,65
1658820640.35125,139993.3516819,94
1658820640.35125,139993.351691,130
1658820640.35125,139993.3516986,159
1658820640.35125,139993.3517051,147
1658820640.35125,139993.8873927,144
1658820640.35125,139993.8874052,212
1658820640.35125,139993.8874091,267
1658820640.35125,139993.8874113,263
1658820640.35125,139993.8874134,275
1658820640.35125,139993.8874154,301
1658820640.35125,139993.8874174,277
1658820640.35125,139993.8874202,250
1658820640.35125,139993.8874286,246
1658820640.37377,139993.8874384,197
1658820640.37377,139993.8874422,115
1658820640.37377,139993.8874456,31
1658820640.37377,139993.8874504,-53
1658820640.37377,139993.8874572,-101
1658820640.37377,139993.8874624,-108
1658820640.37377,139993.8874681,-132
1658820640.37377,139993.8874726,-154
1658820640.37377,139993.8874827,-139
1658820640.37377,139993.8874883,-154
1658820640.37377,139993.8874911,-185
1658820640.37377,139993.8874932,-161
1658820640.37377,139993.8874996,-137
1658820640.37377,139993.8875089,-142
1658820640.37377,139993.8875143,-130
1658820640.37377,139993.8875204,-110
1658820640.37377,139993.8875245,-96
1658820640.37377,139993.8875442,-69
1658820640.37377,139993.8875656,-55
1658820640.37377,139993.887568,-67
1658820640.37377,139993.88757,-69
1658820640.37377,139993.8875718,-55
1658820640.37377,139993.8875781,-41
1658820640.37377,139993.8875902,-19
1658820640.92961,139993.8875975,-2
1658820640.92961,139993.8876027,-12
1658820640.92961,139993.8876086,-31
1658820640.92961,139993.8876135,-28
1658820640.92961,139993.8876184,-16
1658820640.92961,139993.8876235,-9
1658820640.92961,139993.8876294,-7
1658820640.92961,139993.8876356,2
1658820640.92961,139993.8876427,12
1658820640.92961,139993.88765,2
1658820640.92961,139993.8876565,0
1658820640.92961,139993.8876629,9
1658820640.92961,139993.8876715,7
1658820640.92961,139993.8876765,2
1658820640.92961,139993.8876785,21
1658820640.92961,139993.8876812,43
1658820640.92961,139993.8876834,24
1658820640.92961,139993.8876854,-7
1658820640.92961,139993.8876875,7
1658820640.92961,139993.8876894,41
1658820640.92961,139993.8876914,31
1658820640.92961,139993.8876934,4
1658820640.92961,139993.8876953,19
1658820640.92961,139993.8876974,33
1658820640.92961,139993.8876993,24
1658820640.92961,139993.8877014,171
1658820640.92961,139993.8877035,726
1658820640.92961,139993.8877054,1440
1658820640.92961,139993.8877074,1476
1658820640.92961,139993.8877094,340
1658820640.92961,139993.8877114,-764
1658820640.92961,139993.8877134,-533
1658820640.92961,139993.8877154,38
1658820640.92961,139993.8877174,-4
1658820640.92961,139993.8877194,-45
1658820640.92961,139993.8877214,62
1658820640.92961,139993.8877234,28
1658820640.92961,139993.8877254,4
1658820640.92961,139993.8877278,57
1658820640.92961,139993.8877299,65
1658820640.92961,139994.4724546,53
1658820640.92961,139994.4724753,53
1658820640.92961,139994.4724875,69
1658820640.92961,139994.4724959,106
1658820640.92961,139994.472504,106
1658820640.92961,139994.4725103,82
1658820640.92961,139994.4725185,115
1658820640.92961,139994.4725253,166
1658820640.92961,139994.4725313,178
1658820640.92961,139994.4725396,190
1658820640.95155,139994.4725471,238
1658820640.95155,139994.4725554,277
1658820640.95155,139994.4725614,282
1658820640.95155,139994.4725674,291
1658820640.95155,139994.4725755,284
1658820640.95155,139994.4725819,231
1658820640.95155,139994.4725898,183
1658820640.95155,139994.4725959,156
1658820640.95155,139994.4726039,89
1658820640.95155,139994.4726099,4
1658820640.95155,139994.4726179,-48
1658820640.95155,139994.472624,-77
1658820640.95155,139994.4726316,-106
1658820640.95155,139994.4726376,-125
1658820640.95155,139994.4726439,-120
1658820640.95155,139994.4726523,-101
1658820640.95155,139994.4726576,-106
1658820640.95155,139994.4726639,-125
1658820640.95155,139994.4726723,-108
1658820640.95155,139994.472678,-77
1658820640.95155,139994.4726839,-74
1658820640.95155,139994.4726921,-84
1658820640.95155,139994.472698,-69
1658820640.95155,139994.4727041,-43
1658820641.46396,139994.4727119,-33
1658820641.46396,139994.4727178,-28
1658820641.46396,139994.4727237,-16
1658820641.46396,139994.4727422,-16
1658820641.46396,139994.4727477,-16
1658820641.46396,139994.4727683,9
1658820641.46396,139994.4727741,14
1658820641.46396,139994.4727798,-4
1658820641.46396,139994.4727858,9
1658820641.46396,139994.4727943,36
1658820641.46396,139994.4728,31
1658820641.46396,139994.4728076,16
1658820641.46396,139994.4728107,19
1658820641.46396,139994.4728136,33
1658820641.46396,139994.4728165,28
1658820641.46396,139994.4728194,19
1658820641.46396,139994.4728222,43
1658820641.46396,139994.4728251,62
1658820641.46396,139994.4728279,26
1658820641.46396,139994.4728307,2
1658820641.46396,139994.4728336,36
1658820641.46396,139994.4728364,57
1658820641.46396,139994.4728393,57
1658820641.46396,139994.4728426,77
1658820641.46396,139994.4728661,91
1658820641.46396,139994.4728868,84
1658820641.46396,139994.4728915,62
1658820641.46396,139994.4728981,55
1658820641.46396,139994.4729054,55
1658820641.46396,139994.4729103,53
1658820641.46396,139994.4729435,53
1658820641.46396,139994.4729512,57
1658820641.46396,139994.472954,60
1658820641.46396,139994.4729568,33
1658820641.46396,139994.4729595,28
1658820641.46396,139994.4729622,318
1658820641.46396,139994.4729649,1027
1658820641.46396,139994.4729677,1607
1658820641.46396,139994.4729704,1155
1658820641.46396,139995.0082472,-188
1658820641.46396,139995.0082692,-793
1658820641.46396,139995.0082834,-236
1658820641.46396,139995.0082891,72
1658820641.46396,139995.0082942,-91
1658820641.46396,139995.0083005,-26
1658820641.46396,139995.0083084,89
1658820641.46396,139995.0083159,31
1658820641.46396,139995.0083191,38
1658820641.46396,139995.0083244,113
1658820641.46396,139995.0083277,86
1658820641.4859,139995.0083311,28
1658820641.4859,139995.0083348,60
1658820641.4859,139995.0083383,89
1658820641.4859,139995.0083434,48
1658820641.4859,139995.0083481,41
1658820641.4859,139995.0083522,106
1658820641.4859,139995.0083577,147
1658820641.4859,139995.0083615,149
1658820641.4859,139995.0083672,176
1658820641.4859,139995.0083714,205
1658820641.4859,139995.0083773,236
1658820641.4859,139995.0083826,284
1658820641.4859,139995.0083864,308
1658820641.4859,139995.0083923,291
1658820641.4859,139995.0083981,272
1658820641.4859,139995.0084026,258
1658820641.4859,139995.0084071,236
1658820641.4859,139995.0084129,183
1658820641.4859,139995.0084174,108
1658820641.4859,139995.0084218,45
1658820641.4859,139995.0084277,2
1658820641.4859,139995.0084321,-43
1658820641.4859,139995.0084384,-72
1658820641.4859,139995.0084447,-62
1658820642.04342,139995.0084509,-57
1658820642.04342,139995.0084566,-69
1658820642.04342,139995.008461,-72
1658820642.04342,139995.0084656,-74
1658820642.04342,139995.0084701,-50
1658820642.04342,139995.008474,-19
1658820642.04342,139995.0084784,-24
1658820642.04342,139995.0084827,-26
1658820642.04342,139995.0084867,-7
1658820642.04342,139995.0084936,2
1658820642.04342,139995.0084985,-2
1658820642.04342,139995.0085032,-4
1658820642.04342,139995.008507,14
1658820642.04342,139995.0085115,33
1658820642.04342,139995.0085178,50
1658820642.04342,139995.008545,62
1658820642.04342,139995.008554,60
1658820642.04342,139995.0085582,57
1658820642.04342,139995.0085639,62
1658820642.04342,139995.0085696,45
1658820642.04342,139995.0085733,36
1658820642.04342,139995.008577,55
1658820642.04342,139995.0085812,60
1658820642.04342,139995.00859,41
1658820642.04342,139995.0085967,45
1658820642.04342,139995.0086026,48
1658820642.04342,139995.0086059,26
1658820642.04342,139995.0086114,26
1658820642.04342,139995.0086161,48
1658820642.04342,139995.0086198,43
1658820642.04342,139995.0086258,31
1658820642.04342,139995.008631,48
1658820642.04342,139995.0086418,82
1658820642.04342,139995.0086469,84
1658820642.04342,139995.008649,65
1658820642.04342,139995.0086511,53
1658820642.04342,139995.0086531,45
1658820642.04342,139995.0086552,36
1658820642.04342,139995.5934068,41
1658820642.04342,139995.5934208,74
1658820642.04342,139995.593427,84
1658820642.04342,139995.5934352,41
1658820642.04342,139995.5934397,9
1658820642.04342,139995.5934441,127
1658820642.04342,139995.5934485,579
1658820642.04342,139995.5934531,1310
1658820642.04342,139995.5934581,1609
1658820642.04342,139995.5934644,694
1658820642.04342,139995.5934687,-608
1658820642.04342,139995.5934731,-658
1658820642.06535,139995.5934776,-14
1658820642.06535,139995.5934838,24
1658820642.06535,139995.5934882,-130
1658820642.06535,139995.5934945,-19
1658820642.06535,139995.5934998,12
1658820642.06535,139995.5935061,-45
1658820642.06535,139995.593512,-21
1658820642.06535,139995.5935175,4
1658820642.06535,139995.5935236,21
1658820642.06535,139995.5935284,57
1658820642.06535,139995.5935342,45
1658820642.06535,139995.5935386,24
1658820642.06535,139995.5935442,72
1658820642.06535,139995.5935495,127
1658820642.06535,139995.5935554,130
1658820642.06535,139995.593561,137
1658820642.06535,139995.5935661,173
1658820642.06535,139995.5935722,209
1658820642.06535,139995.5935767,253
1658820642.06535,139995.5935826,304
1658820642.06535,139995.5935868,313
1658820642.06535,139995.5935913,301
1658820642.06535,139995.5935958,320
1658820642.06535,139995.5936015,337
1658820642.57733,139995.593606,299
1658820642.57733,139995.5936103,246
1658820642.57733,139995.5936146,205
1658820642.57733,139995.5936188,139
1658820642.57733,139995.5936231,74
1658820642.57733,139995.5936276,43
1658820642.57733,139995.5936336,7
1658820642.57733,139995.593638,-16
1658820642.57733,139995.5936437,-4
1658820642.57733,139995.5936483,-2
1658820642.57733,139995.5936541,-14
1658820642.57733,139995.5936586,0
1658820642.57733,139995.5936644,0
1658820642.57733,139995.5936687,0
1658820642.57733,139995.593674,16
1658820642.57733,139995.5936798,9
1658820642.57733,139995.5936851,-2
1658820642.57733,139995.5936907,26
1658820642.57733,139995.5936973,50
1658820642.57733,139995.5937548,55
1658820642.57733,139995.5937632,62
1658820642.57733,139995.5937669,77
1658820642.57733,139995.5937702,91
1658820642.57733,139995.5937733,86
1658820642.57733,139995.5937766,74
1658820642.57733,139995.5937799,89
1658820642.57733,139995.5937832,110
1658820642.57733,139995.5937867,101
1658820642.57733,139995.5937906,94
1658820642.57733,139995.5937957,103
1658820642.57733,139995.5937999,91
1658820642.57733,139995.5938035,69
1658820642.57733,139995.5938071,82
1658820642.57733,139995.5938107,106
1658820642.57733,139995.5938142,113
1658820642.57733,139995.5938176,106
1658820642.57733,139995.5938213,86
1658820642.57733,139996.1312085,79
1658820642.57733,139996.1312226,118
1658820642.57733,139996.131226,166
1658820642.57733,139996.1312328,154
1658820642.57733,139996.1312356,108
1658820642.57733,139996.1312383,101
1658820642.57733,139996.1312427,113
1658820642.57733,139996.1312462,108
1658820642.57733,139996.131249,91
1658820642.57733,139996.1312517,86
1658820642.57733,139996.1312544,96
1658820642.57733,139996.1312571,84
1658820642.57733,139996.1312599,43
1658820642.59908,139996.1312624,50
1658820642.59908,139996.1312705,313
1658820642.59908,139996.1312775,969
1658820642.59908,139996.1312826,1602
1658820642.59908,139996.1312894,1293
1658820642.59908,139996.1312985,-41
1658820642.59908,139996.131304,-801
1658820642.59908,139996.1313171,-294
1658820642.59908,139996.131326,72
1658820642.59908,139996.1313308,-89
1658820642.59908,139996.1313354,-53
1658820642.59908,139996.1313448,65
1658820642.59908,139996.1313537,19
1658820642.59908,139996.1313632,-14
1658820642.59908,139996.1313717,21
1658820642.59908,139996.1313814,45
1658820642.59908,139996.131389,60
1658820642.59908,139996.1313956,89
1658820642.59908,139996.1314008,115
1658820642.59908,139996.1314069,120
1658820642.59908,139996.1314122,108
1658820642.59908,139996.1314179,108
1658820642.59908,139996.1314218,147
1658820642.59908,139996.1314273,188
1658820643.11617,139996.131431,214
1658820643.11617,139996.131435,248
1658820643.11617,139996.131439,289
1658820643.11617,139996.1314428,306
1658820643.11617,139996.1314476,289
1658820643.11617,139996.1314546,277
1658820643.11617,139996.1314648,291
1658820643.11617,139996.1314721,294
1658820643.11617,139996.1314792,250
1658820643.11617,139996.131485,185
1658820643.11617,139996.131489,132
1658820643.11617,139996.1314995,82
1658820643.11617,139996.1315096,28
1658820643.11617,139996.1315163,-12
1658820643.11617,139996.1315234,-31
1658820643.11617,139996.1315325,-36
1658820643.11617,139996.1315443,-53
1658820643.11617,139996.1315505,-55
1658820643.11617,139996.1315542,-31
1658820643.11617,139996.1315582,-28
1658820643.11617,139996.1315641,-33
1658820643.11617,139996.1315679,-9
1658820643.11617,139996.1315729,2
1658820643.11617,139996.1315766,-4
1658820643.11617,139996.1315814,16
1658820643.11617,139996.1315888,53
1658820643.11617,139996.131601,45
1658820643.11617,139996.1316109,24
1658820643.11617,139996.1316291,38
1658820643.11617,139996.1316425,65
1658820643.11617,139996.1316464,69
1658820643.11617,139996.1316497,62
1658820643.11617,139996.1316527,57
1658820643.11617,139996.1316559,72
1658820643.11617,139996.1316589,86
1658820643.11617,139996.1316619,65
1658820643.11617,139996.665801,36
1658820643.11617,139996.6658182,43
1658820643.11617,139996.6658227,62
1658820643.11617,139996.6658283,55
1658820643.11617,139996.6658323,48
1658820643.11617,139996.6658423,45
1658820643.11617,139996.6658478,43
1658820643.11617,139996.6658516,69
1658820643.11617,139996.6658572,74
1658820643.11617,139996.6658609,36
1658820643.11617,139996.665867,43
1658820643.11617,139996.6658707,65
1658820643.11617,139996.6658759,31
1658820643.11617,139996.6658794,9
1658820643.13013,139996.6658849,21
1658820643.13013,139996.6658884,21
1658820643.13013,139996.665892,24
1658820643.13013,139996.6658955,38
1658820643.13013,139996.6659011,36
1658820643.13013,139996.6659049,21
1658820643.13013,139996.6659107,173
1658820643.13013,139996.6659147,723
1658820643.13013,139996.6659204,1421
1658820643.13013,139996.665924,1411
1658820643.13013,139996.6659277,241
1658820643.13013,139996.6659337,-813
1658820643.13013,139996.6659373,-516
1658820643.13013,139996.6659425,28
1658820643.13013,139996.6659461,-57
1658820643.13013,139996.6659498,-98
1658820643.13013,139996.6659551,36
1658820643.13013,139996.6659588,14
1658820643.13013,139996.6659622,-19
1658820643.13013,139996.6659683,31
1658820643.13013,139996.665972,38
1658820643.13013,139996.6659772,16
1658820643.13013,139996.6659828,21
1658820643.13013,139996.6659868,21
1658820643.75371,139996.665992,33
1658820643.75371,139996.6659967,60
1658820643.75371,139996.6660043,86
1658820643.75371,139996.6660079,113
1658820643.75371,139996.6660116,144
1658820643.75371,139996.6660158,178
1658820643.75371,139996.6660193,212
1658820643.75371,139996.6660229,246
1658820643.75371,139996.6660267,270
1658820643.75371,139996.6660323,279
1658820643.75371,139996.6660358,277
1658820643.75371,139996.6660394,270
1658820643.75371,139996.6660447,270
1658820643.75371,139996.6660482,258
1658820643.75371,139996.6660535,212
1658820643.75371,139996.6660572,139
1658820643.75371,139996.6660623,79
1658820643.75371,139996.666067,38
1658820643.75371,139996.6660722,2
1658820643.75371,139996.6660761,-19
1658820643.75371,139996.6660812,-28
1658820643.75371,139996.6660847,-33
1658820643.75371,139996.6660884,-31
1658820643.75371,139996.6660936,-14
1658820643.75371,139996.6660971,-7
1658820643.75371,139996.6661006,-14
1658820643.75371,139996.6661058,-7
1658820643.75371,139996.6661092,12
1658820643.75371,139996.6661128,16
1658820643.75371,139996.666118,19
1658820643.75371,139996.6661218,26
1658820643.75371,139996.6661268,41
1658820643.75371,139996.6661321,65
1658820643.75371,139996.6661377,69
1658820643.75371,139996.6661467,65
1658820643.75371,139997.2990726,94
1658820643.75371,139997.2990861,96
1658820643.75371,139997.2990898,65
1658820643.75371,139997.299094,79
1658820643.75371,139997.299099,98
1658820643.75371,139997.2991023,67
1658820643.75371,139997.2991055,28
1658820643.75371,139997.2991088,31
1658820643.75371,139997.2991122,77
1658820643.75371,139997.2991207,118
1658820643.75371,139997.2991325,98
1658820643.75371,139997.2991365,53
1658820643.75371,139997.2991406,55
1658820643.75371,139997.2991426,69
1658820643.75371,139997.2991445,50
1658820643.77665,139997.2991466,24
1658820643.77665,139997.2991487,24
1658820643.77665,139997.2991507,53
1658820643.77665,139997.2991528,72
1658820643.77665,139997.2991548,72
1658820643.77665,139997.2991573,38
1658820643.77665,139997.2991593,33
1658820643.77665,139997.2991614,354
1658820643.77665,139997.2991635,1061
1658820643.77665,139997.2991655,1565
1658820643.77665,139997.2991675,1018
1658820643.77665,139997.2991696,-299
1658820643.77665,139997.2991715,-757
1658820643.77665,139997.2991736,-156
1658820643.77665,139997.2991757,108
1658820643.77665,139997.2991777,-48
1658820643.77665,139997.2991797,-12
1658820643.77665,139997.2991817,36
1658820643.77665,139997.2991837,-9
1658820643.77665,139997.2991858,19
1658820643.77665,139997.2991877,65
1658820643.77665,139997.2991898,53
1658820643.77665,139997.2991917,53
1658820643.77665,139997.2991938,79
1658820644.29673,139997.2991958,91
1658820644.29673,139997.2991978,108
1658820644.29673,139997.2991996,132
1658820644.29673,139997.2992016,147
1658820644.29673,139997.2992035,166
1658820644.29673,139997.2992053,195
1658820644.29673,139997.2992072,219
1658820644.29673,139997.299209,250
1658820644.29673,139997.299211,282
1658820644.29673,139997.2992129,308
1658820644.29673,139997.2992159,320
1658820644.29673,139997.2992248,323
1658820644.29673,139997.2992347,316
1658820644.29673,139997.2992411,291
1658820644.29673,139997.2992895,246
1658820644.29673,139997.2992916,197
1658820644.29673,139997.2993067,137
1658820644.29673,139997.2993091,77
1658820644.29673,139997.2993111,33
1658820644.29673,139997.299313,7
1658820644.29673,139997.2993151,0
1658820644.29673,139997.2993173,12
1658820644.29673,139997.2993193,19
1658820644.29673,139997.2993214,4
1658820644.29673,139997.2993235,-12
1658820644.29673,139997.2993256,-2
1658820644.29673,139997.2993276,16
1658820644.29673,139997.2993296,24
1658820644.29673,139997.2993315,33
1658820644.29673,139997.2993335,53
1658820644.29673,139997.2993356,62
1658820644.29673,139997.2993377,69
1658820644.29673,139997.2993399,94
1658820644.29673,139997.2993421,108
1658820644.29673,139997.8368073,103
1658820644.29673,139997.8368367,98
1658820644.29673,139997.8368419,108
1658820644.29673,139997.8368622,110
1658820644.29673,139997.8368662,103
1658820644.29673,139997.8368718,101
1658820644.29673,139997.8368776,110
1658820644.29673,139997.8368863,125
1658820644.29673,139997.8368941,125
1658820644.29673,139997.8369063,108
1658820644.29673,139997.8369205,108
1658820644.29673,139997.8369335,113
1658820644.29673,139997.836947,94
1658820644.29673,139997.8369605,74
1658820644.29673,139997.836974,65
1658820644.29673,139997.8369877,60
1658820644.30771,139997.8370011,72
1658820644.30771,139997.8370145,86
1658820644.30771,139997.8370282,74
1658820644.30771,139997.8370437,41
1658820644.30771,139997.837056,94
1658820644.30771,139997.8370672,470
1658820644.30771,139997.8370791,1141
1658820644.30771,139997.8370937,1508
1658820644.30771,139997.8371055,817
1658820644.30771,139997.8371207,-434
1658820644.30771,139997.8371343,-682
1658820644.30771,139997.8371618,-86
1658820644.30771,139997.8371906,38
1658820644.30771,139997.8372043,-96
1658820644.30771,139997.8372177,21
1658820644.30771,139997.8372313,96
1658820644.30771,139997.8372448,33
1658820644.30771,139997.8372583,21
1658820644.30771,139997.8372678,36
1658820644.30771,139997.8372753,53
1658820644.30771,139997.8372859,77
1658820644.30771,139997.8372946,60
1658820644.30771,139997.8373075,55
1658820644.30771,139997.8373163,103
1658820644.86486,139997.8373202,130
1658820644.86486,139997.8373251,139
1658820644.86486,139997.8373327,166
1658820644.86486,139997.8373382,193
1658820644.86486,139997.8373454,221
1658820644.86486,139997.8373542,241
1658820644.86486,139997.8373672,238
1658820644.86486,139997.8373755,234
1658820644.86486,139997.8373799,253
1658820644.86486,139997.8373841,270
1658820644.86486,139997.8373888,258
1658820644.86486,139997.8373927,231
1658820644.86486,139997.8373964,197
1658820644.86486,139997.8374001,139
1658820644.86486,139997.8374041,72
1658820644.86486,139997.8374088,16
1658820644.86486,139997.8374129,-14
1658820644.86486,139997.8374162,-24
1658820644.86486,139997.8374232,-28
1658820644.86486,139997.8374264,-43
1658820644.86486,139997.8374396,-48
1658820644.86486,139997.837453,-36
1658820644.86486,139997.8374667,-28
1658820644.86486,139997.8374803,-26
1658820644.86486,139997.8374939,-21
1658820644.86486,139997.8375062,-14
1658820644.86486,139997.8375138,-9
1658820644.86486,139997.8375181,4
1658820644.86486,139997.8375236,21
1658820644.86486,139997.8375273,28
1658820644.86486,139997.8375311,33
1658820644.86486,139997.8375366,38
1658820644.86486,139997.8375405,41
1658820644.86486,139998.4208339,41
1658820644.86486,139998.4208479,48
1658820644.86486,139998.4208525,57
1658820644.86486,139998.4208594,57
1658820644.86486,139998.4208689,50
1658820644.86486,139998.4208756,48
1658820644.86486,139998.4208798,60

1658820644.86486,139998.420885,69
1658820644.86486,139998.4208888,69
1658820644.86486,139998.4208939,62
1658820644.86486,139998.4208985,38
1658820644.86486,139998.420902,7
1658820644.86486,139998.4209076,0
1658820644.86486,139998.4209127,12
1658820644.86486,139998.4209178,-19
1658820644.86486,139998.4209215,-41
1658820644.86486,139998.4209252,-7
1658820644.8868,139998.4209303,-33
1658820644.8868,139998.4209355,-98
1658820644.8868,139998.4209412,118
1658820644.8868,139998.4209487,784
1658820644.8868,139998.4209541,1440
1658820644.8868,139998.4209581,1228
1658820644.8868,139998.4209634,-14
1658820644.8868,139998.4209669,-822
1658820644.8868,139998.4209705,-381
1658820644.8868,139998.4209758,24
1658820644.8868,139998.4209802,-106
1658820644.8868,139998.4209838,-89
1658820644.8868,139998.4209875,33
1658820644.8868,139998.4209929,9
1658820644.8868,139998.4209965,-2
1658820644.8868,139998.4210003,48
1658820644.8868,139998.4210054,36
1658820644.8868,139998.4210092,7
1658820644.8868,139998.4210138,43
1658820644.8868,139998.4210191,82
1658820644.8868,139998.4210266,79
1658820644.8868,139998.4210323,77
1658820644.8868,139998.4210358,96
1658820644.8868,139998.4210396,147
1658820645.42027,139998.421045,195
1658820645.42027,139998.4210485,197
1658820645.42027,139998.421052,193
1658820645.42027,139998.4210555,209
1658820645.42027,139998.4210591,234
1658820645.42027,139998.4210627,255
1658820645.42027,139998.4210663,253
1658820645.42027,139998.4210698,248
1658820645.42027,139998.4210734,243
1658820645.42027,139998.421077,197
1658820645.42027,139998.4210806,135
1658820645.42027,139998.4210843,91
1658820645.42027,139998.4210879,36
1658820645.42027,139998.4210914,-53
1658820645.42027,139998.4210951,-94
1658820645.42027,139998.4210989,-57
1658820645.42027,139998.4211024,-60
1658820645.42027,139998.4211058,-94
1658820645.42027,139998.4211093,-65
1658820645.42027,139998.4211131,-43
1658820645.42027,139998.4211169,-89
1658820645.42027,139998.4211394,-115
1658820645.42027,139998.421152,-86
1658820645.42027,139998.4211619,-50
1658820645.42027,139998.4211702,-33
1658820645.42027,139998.421176,-36
1658820645.42027,139998.4211794,-21
1658820645.42027,139998.4211852,7
1658820645.42027,139998.4211886,-14
1658820645.42027,139998.4211941,-65
1658820645.42027,139998.4211974,-38
1658820645.42027,139998.4212029,0
1658820645.42027,139998.9589712,-19
1658820645.42027,139998.9589849,-24
1658820645.42027,139998.9589892,-28
1658820645.42027,139998.9589962,-45
1658820645.42027,139998.9590015,-12
1658820645.42027,139998.9590065,36
1658820645.42027,139998.9590101,24
1658820645.42027,139998.959015,-16
1658820645.42027,139998.9590185,-9
1658820645.42027,139998.9590234,4
1658820645.42027,139998.9590277,-43
1658820645.42027,139998.9590312,-86
1658820645.42027,139998.9590348,-62
1658820645.42027,139998.9590398,-43
1658820645.42027,139998.9590446,-50
1658820645.42027,139998.959048,-45
1658820645.42027,139998.9590516,-50
1658820645.42027,139998.9590552,-91
1658820645.44322,139998.9590589,79
1658820645.44322,139998.9590641,692
1658820645.44322,139998.9590683,1370
1658820645.44322,139998.9590718,1269
1658820645.44322,139998.959075,45
1658820645.44322,139998.9590784,-916
1658820645.44322,139998.9590818,-511
1658820645.44322,139998.9590866,-9
1658820645.44322,139998.9590899,-144
1658820645.44322,139998.9590933,-142
1658820645.44322,139998.9590978,4
1658820645.44322,139998.959101,-36
1658820645.44322,139998.9591051,-65
1658820645.44322,139998.9591084,-21
1658820645.44322,139998.9591118,-9
1658820645.44322,139998.9591165,-2
1658820645.44322,139998.9591215,12
1658820645.44322,139998.9591261,24
1658820645.44322,139998.9591304,36
1658820645.44322,139998.9591337,65
1658820645.44322,139998.959137,130
1658820645.44322,139998.9591404,173
1658820645.44322,139998.959145,152
1658820645.44322,139998.9591486,144
1658820645.95197,139998.9591533,224
1658820645.95197,139998.9591566,289
1658820645.95197,139998.9591597,272
1658820645.95197,139998.9591639,255
1658820645.95197,139998.9591687,275
1658820645.95197,139998.9591735,287
1658820645.95197,139998.9591775,270
1658820645.95197,139998.9591816,234
1658820645.95197,139998.9591854,188
1658820645.95197,139998.9591889,132
1658820645.95197,139998.9591946,74
1658820645.95197,139998.9591978,7
1658820645.95197,139998.9592012,-48
1658820645.95197,139998.9592053,-74
1658820645.95197,139998.9592093,-79
1658820645.95197,139998.9592143,-77
1658820645.95197,139998.9592197,-65
1658820645.95197,139998.9592229,-53
1658820645.95197,139998.9592272,-45
1658820645.95197,139998.9592322,-48
1658820645.95197,139998.9592356,-67
1658820645.95197,139998.959239,-62
1658820645.95197,139998.9592441,-19
1658820645.95197,139998.9592475,-16
1658820645.95197,139998.9592505,-79
1658820645.95197,139998.9592538,-72
1658820645.95197,139998.9592571,7
1658820645.95197,139998.959262,38
1658820645.95197,139998.9592655,4
1658820645.95197,139998.9592691,-12
1658820645.95197,139998.9592742,-19
1658820645.95197,139999.4938797,-41
1658820645.95197,139999.4939043,-26
1658820645.95197,139999.4939068,-4
1658820645.95197,139999.4939088,-31
1658820645.95197,139999.4939119,-33
1658820645.95197,139999.493914,2
1658820645.95197,139999.4939159,4
1658820645.95197,139999.4939178,-2
1658820645.95197,139999.4939197,7
1658820645.95197,139999.4939216,0
1658820645.95197,139999.4939235,-4
1658820645.95197,139999.4939264,-4
1658820645.95197,139999.4939346,-43
1658820645.95197,139999.4939461,-67
1658820645.95197,139999.4939558,-28
1658820645.95197,139999.4939601,-4
1658820645.95197,139999.4939643,-31
1658820645.95197,139999.493972,-53
1658820645.95197,139999.4939813,166
1658820645.97391,139999.4939838,813
1658820645.97391,139999.4939858,1462
1658820645.97391,139999.4939879,1213
1658820645.97391,139999.49399,-67
1658820645.97391,139999.4939932,-897
1658820645.97391,139999.4940033,-443
1658820645.97391,139999.4940114,-7
1658820645.97391,139999.4940139,-137
1658820645.97391,139999.494016,-115
1658820645.97391,139999.4940181,12
1658820645.97391,139999.4940201,-41
1658820645.97391,139999.4940221,-60
1658820645.97391,139999.4940249,9
1658820645.97391,139999.4940349,48
1658820645.97391,139999.4940435,67
1658820645.97391,139999.494046,45
1658820645.97391,139999.4940481,9
1658820645.97391,139999.4940501,36
1658820645.97391,139999.4940525,74
1658820645.97391,139999.4940605,108
1658820645.97391,139999.4940719,149
1658820645.97391,139999.4940745,185
1658820645.97391,139999.4940766,217
1658820645.97391,139999.4940786,246
1658820646.48624,139999.4940807,270
1658820646.48624,139999.4940873,299
1658820646.48624,139999.4940972,320
1658820646.48624,139999.4941083,323
1658820646.48624,139999.494118,318
1658820646.48624,139999.494129,316
1658820646.48624,139999.4941334,267
1658820646.48624,139999.4941357,149
1658820646.48624,139999.4941376,55
1658820646.48624,139999.4941397,26
1658820646.48624,139999.4941419,7
1658820646.48624,139999.4941495,-12
1658820646.48624,139999.4941602,-24
1658820646.48624,139999.4941636,-31
1658820646.48624,139999.4941673,-24
1658820646.48624,139999.4941706,-14
1658820646.48624,139999.4941812,-31
1658820646.48624,139999.4941886,-45
1658820646.48624,139999.494191,-21
1658820646.48624,139999.4941932,-24
1658820646.48624,139999.4941966,-55
1658820646.48624,139999.4942095,-19
1658820646.48624,139999.4942153,24
1658820646.48624,139999.4942175,7
1658820646.48624,139999.4942197,-12
1658820646.48624,139999.4942217,-2
1658820646.48624,139999.4942238,28
1658820646.48624,139999.4942298,50
1658820646.48624,139999.4942409,28
1658820646.48624,139999.4942461,2
1658820646.48624,140000.0294755,16
1658820646.48624,140000.0295017,26
1658820646.48624,140000.0295046,12
1658820646.48624,140000.0295068,9
1658820646.48624,140000.02951,19
1658820646.48624,140000.0295121,26
1658820646.48624,140000.0295141,38
1658820646.48624,140000.0295161,41
1658820646.48624,140000.0295181,28
1658820646.48624,140000.0295201,24
1658820646.48624,140000.0295221,26
1658820646.48624,140000.0295241,4
1658820646.48624,140000.0295263,-43
1658820646.48624,140000.0295283,-53
1658820646.48624,140000.0295303,-43
1658820646.48624,140000.0295323,-53
1658820646.48624,140000.0295343,-41
1658820646.48624,140000.0295363,-36
1658820646.48624,140000.0295406,-43
1658820646.48624,140000.0295428,207
1658820646.50719,140000.0295448,902
1658820646.50719,140000.0295866,1570
1658820646.50719,140000.0295981,1271
1658820646.50719,140000.0296049,-77
1658820646.50719,140000.0296122,-866
1658820646.50719,140000.0296157,-361
1658820646.50719,140000.029622,28
1658820646.50719,140000.0296281,-125
1658820646.50719,140000.0296342,-84
1658820646.50719,140000.0296435,41
1658820646.50719,140000.0296541,2
1658820646.50719,140000.0296621,7
1658820646.50719,140000.0296734,53
1658820646.50719,140000.0296769,28
1658820646.50719,140000.0296799,24
1658820646.50719,140000.0296829,72
1658820646.50719,140000.0296858,96
1658820646.50719,140000.0296887,98
1658820646.50719,140000.0296916,106
1658820646.50719,140000.0296976,120
1658820646.50719,140000.0296996,147
1658820646.50719,140000.0297015,176
1658820646.50719,140000.0297036,205
1658820646.50719,140000.0297057,234
1658820647.10783,140000.0297078,260
1658820647.10783,140000.0297098,279
1658820647.10783,140000.0297118,287
1658820647.10783,140000.0297138,291
1658820647.10783,140000.0297157,291
1658820647.10783,140000.0297176,265
1658820647.10783,140000.0297195,221
1658820647.10783,140000.0297215,166
1658820647.10783,140000.0297234,96
1658820647.10783,140000.0297254,53
1658820647.10783,140000.0297274,38
1658820647.10783,140000.0297294,7
1658820647.10783,140000.0297314,-28
1658820647.10783,140000.0297351,-28
1658820647.10783,140000.0297402,-41
1658820647.10783,140000.029745,-72
1658820647.10783,140000.02975,-72
1658820647.10783,140000.0297549,-45
1658820647.10783,140000.0297573,-38
1658820647.10783,140000.0297594,-38
1658820647.10783,140000.0297615,-26
1658820647.10783,140000.0297637,-9
1658820647.10783,140000.0297657,7
1658820647.10783,140000.0297678,14
1658820647.10783,140000.0297699,12
1658820647.10783,140000.029772,31
1658820647.10783,140000.0297742,55
1658820647.10783,140000.0297762,38
1658820647.10783,140000.0297783,26
1658820647.10783,140000.6634524,48
1658820647.10783,140000.6634735,60
1658820647.10783,140000.6634882,50
1658820647.10783,140000.6635056,28
1658820647.10783,140000.663516,19
1658820647.10783,140000.6635186,2
1658820647.10783,140000.6635209,-16
1658820647.10783,140000.663523,-7
1658820647.10783,140000.6635252,19
1658820647.10783,140000.6635274,43
1658820647.10783,140000.663535,50
1658820647.10783,140000.6635474,33
1658820647.10783,140000.6635555,14
1658820647.10783,140000.6635617,-7
1658820647.10783,140000.663572,-38
1658820647.10783,140000.6635836,-41
1658820647.10783,140000.6635926,-19
1658820647.10783,140000.6635999,-4
1658820647.10783,140000.6636106,9
1658820647.10783,140000.6636149,33
1658820647.10783,140000.663617,21
1658820647.13078,140000.6636206,-48
1658820647.13078,140000.6636309,50
1658820647.13078,140000.663639,605
1658820647.13078,140000.6636415,1389
1658820647.13078,140000.6636437,1628
1658820647.13078,140000.6636458,682
1658820647.13078,140000.6636489,-567
1658820647.13078,140000.6636617,-586
1658820647.13078,140000.6636683,4
1658820647.13078,140000.6636705,-12
1658820647.13078,140000.6636726,-139
1658820647.13078,140000.6636746,2
1658820647.13078,140000.6636767,38
1658820647.13078,140000.6636796,-28
1658820647.13078,140000.6636898,-9
1658820647.13078,140000.663698,36
1658820647.13078,140000.6637004,55
1658820647.13078,140000.6637025,77
1658820647.13078,140000.6637046,96
1658820647.13078,140000.6637066,77
1658820647.13078,140000.6637092,74
1658820647.13078,140000.6637191,118
1658820647.13078,140000.663728,149
1658820647.13078,140000.6637307,166
1658820647.64818,140000.6637327,202
1658820647.64818,140000.6637346,246
1658820647.64818,140000.6637366,289
1658820647.64818,140000.6637391,304
1658820647.64818,140000.6637483,270
1658820647.64818,140000.6637556,265
1658820647.64818,140000.6637626,296
1658820647.64818,140000.6637742,284
1658820647.64818,140000.6637822,253
1658820647.64818,140000.6637866,219
1658820647.64818,140000.6637923,156
1658820647.64818,140000.6637961,94
1658820647.64818,140000.6638,48
1658820647.64818,140000.6638055,-14
1658820647.64818,140000.6638098,-50
1658820647.64818,140000.6638138,-16
1658820647.64818,140000.6638182,9
1658820647.64818,140000.6638235,-7
1658820647.64818,140000.6638283,-24
1658820647.64818,140000.6638336,-28
1658820647.64818,140000.6638382,-16
1658820647.64818,140000.6638435,0
1658820647.64818,140000.6638471,-7
1658820647.64818,140000.6638507,-24
1658820647.64818,140000.6638544,-7
1658820647.64818,140000.6638579,16
1658820647.64818,140000.663863,12
1658820647.64818,140000.6638666,21
1658820647.64818,140001.2032946,45
1658820647.64818,140001.2033158,45
1658820647.64818,140001.2033209,48
1658820647.64818,140001.2033279,74
1658820647.64818,140001.2033342,77
1658820647.64818,140001.2033401,43
1658820647.64818,140001.2033461,36
1658820647.64818,140001.2033499,45
1658820647.64818,140001.2033557,26
1658820647.64818,140001.2033635,24
1658820647.64818,140001.2033713,55
1658820647.64818,140001.2033775,72
1658820647.64818,140001.2033856,36
1658820647.64818,140001.2033923,-4
1658820647.64818,140001.2033996,21
1658820647.64818,140001.203403,57
1658820647.64818,140001.2034062,36
1658820647.64818,140001.2034095,31
1658820647.64818,140001.2034161,74
1658820647.64818,140001.20342,67
1658820647.64818,140001.2034233,0
1658820647.64818,140001.2034267,-38
1658820647.66414,140001.2034351,-14
1658820647.66414,140001.2035478,2
1658820647.66414,140001.2035562,2
1658820647.66414,140001.2035636,9
1658820647.66414,140001.2035696,0
1658820647.66414,140001.2035752,4
1658820647.66414,140001.2035799,255
1658820647.66414,140001.2035842,921
1658820647.66414,140001.2035879,1597
1658820647.66414,140001.2035908,1334
