Time,TimeLsl,Value
1659104147.34554,423504.1055496,-91
1659104147.34554,423504.1055653,-84
1659104147.34554,423504.1055981,-74
1659104147.34554,423504.1056066,-64
1659104147.34554,423504.1056137,-57
1659104147.34554,423504.1056232,-50
1659104147.34554,423504.1056307,-45
1659104147.34554,423504.1056386,-45
1659104147.34554,423504.1056455,-48
1659104147.34554,423504.1056511,-55
1659104147.34554,423504.1056594,-67
1659104147.34554,423504.1056658,-67
1659104147.34554,423504.1056693,-60
1659104147.34554,423504.1056746,-64
1659104147.34554,423504.105681,-67
1659104147.34554,423504.1056891,-79
1659104147.34554,423504.1056941,-98
1659104147.34554,423504.1056992,-98
1659104147.34554,423504.1057061,-91
1659104147.34554,423504.1057119,-91
1659104147.34554,423504.1057202,-76
1659104147.34554,423504.1057244,-67
1659104147.34554,423504.1057321,-64
1659104147.34554,423504.1057388,-50
1659104147.34554,423504.105742,-31
1659104147.34554,423504.1057465,-38
1659104147.34554,423504.1057531,-55
1659104147.34554,423504.1057607,-60
1659104147.34554,423504.1057673,-57
1659104147.34554,423504.1057724,-55
1659104147.34554,423504.1057754,-45
1659104147.34554,423504.1057803,-38
1659104147.34554,423504.1057882,-38
1659104147.34554,423504.1057946,-33
1659104147.34554,423504.1057999,-33
1659104147.34554,423504.1058055,7
1659104147.34554,423504.1058129,225
1659104147.34554,423504.1058174,628
1659104147.34554,423504.1058249,924
1659104147.34554,423504.1058314,626
1659104147.34554,423504.1058364,-264
1659104147.34554,423504.1058423,-789
1659104147.34554,423504.1058456,-532
1659104147.34554,423504.1058485,-192
1659104147.34554,423504.1058514,-81
1659104147.34554,423504.1058543,0
1659104147.34554,423504.1058572,33
1659104147.34554,423504.1058601,12
1659104147.34554,423504.105863,24
1659104147.34554,423504.1058659,50
1659104147.45481,423504.1058689,57
1659104147.45481,423504.1058718,57
1659104147.45481,423504.1058746,55
1659104147.45481,423504.1058773,60
1659104147.45481,423504.1058803,74
1659104147.45481,423504.1058831,93
1659104147.45481,423504.1058859,112
1659104147.45481,423504.1058888,136
1659104147.45481,423504.1058919,160
1659104147.45481,423504.1058948,182
1659104147.45481,423504.1058994,204
1659104147.45481,423504.1059025,228
1659104147.45481,423504.1059054,252
1659104147.45481,423504.1059082,271
1659104147.45481,423504.1059111,283
1659104147.45481,423504.1059143,283
1659104147.45481,423504.1059197,264
1659104147.45481,423504.1059242,232
1659104147.45481,423504.1059304,192
1659104147.45481,423504.1059353,136
1659104147.45481,423504.1059424,64
1659104147.45481,423504.1059456,0
1659104147.45481,423504.1059486,-52
1659104147.45481,423504.6421201,-98
1659104147.45481,423504.6421387,-122
1659104147.45481,423504.6421464,-129
1659104147.45481,423504.6421539,-136
1659104147.45481,423504.6421574,-141
1659104147.45481,423504.6421622,-139
1659104147.45481,423504.6421691,-141
1659104147.45481,423504.6421759,-136
1659104147.45481,423504.6421813,-124
1659104147.45481,423504.6421851,-117
1659104147.45481,423504.6421882,-110
1659104147.45481,423504.6421916,-103
1659104147.45481,423504.6421967,-108
1659104147.45481,423504.642202,-117
1659104147.45481,423504.6422069,-110
1659104147.45481,423504.6422103,-100
1659104147.45481,423504.642216,-100
1659104147.45481,423504.642222,-105
1659104147.45481,423504.6422287,-117
1659104147.45481,423504.6422353,-134
1659104147.45481,423504.6422421,-129
1659104147.45481,423504.6422483,-115
1659104147.45481,423504.6422523,-120
1659104147.45481,423504.6422551,-129
1659104147.45481,423504.6422588,-124
1659104147.45481,423504.6422619,-117
1659104147.45481,423504.6422664,-115
1659104147.49122,423504.6422712,-105
1659104147.49122,423504.6422756,-98
1659104147.49122,423504.6422814,-93
1659104147.49122,423504.6422846,-91
1659104147.49122,423504.642291,-81
1659104147.49122,423504.642296,-64
1659104147.49122,423504.6423005,-50
1659104147.49122,423504.6423039,-38
1659104147.49122,423504.6423069,-26
1659104147.49122,423504.6423098,-16
1659104147.49122,423504.6423127,-31
1659104147.49122,423504.6423169,-50
1659104147.49122,423504.6423209,-52
1659104147.49122,423504.6423271,-45
1659104147.49122,423504.6423401,-43
1659104147.49122,423504.6423504,-43
1659104147.49122,423504.6423554,-45
1659104147.49122,423504.6423627,-50
1659104147.49122,423504.642366,-52
1659104147.49122,423504.6423786,-45
1659104147.49122,423504.6423874,31
1659104147.49122,423504.6423938,292
1659104147.49122,423504.6423972,677
1659104147.49122,423504.6424099,869
1659104147.49122,423504.6424183,456
1659104147.49122,423504.6424241,-369
1659104147.49122,423504.6424386,-710
1659104147.49122,423504.6424533,-412
1659104147.49122,423504.6424658,-136
1659104147.49122,423504.6424735,-52
1659104147.49122,423504.6424775,2
1659104147.49122,423504.6424838,21
1659104147.49122,423504.6424872,24
1659104147.49122,423504.6425006,45
1659104147.49122,423504.6425126,60
1659104147.49122,423504.642533,67
1659104147.49122,423504.642538,79
1659104147.49122,423504.6425416,91
1659104147.49122,423504.6425449,98
1659104147.49122,423504.6425481,112
1659104147.49122,423504.6425512,134
1659104147.49122,423504.6425543,156
1659104147.49122,423504.6425573,170
1659104147.49122,423504.6425605,180
1659104147.49122,423504.6425813,199
1659104147.49122,423504.6425921,225
1659104147.49122,423505.2760193,249
1659104147.49122,423505.2760381,273
1659104147.78925,423505.2760489,290
1659104147.78925,423505.2760579,297
1659104147.78925,423505.2760621,295
1659104147.78925,423505.27607,285
1659104147.78925,423505.2760761,266
1659104147.78925,423505.27608,228
1659104147.78925,423505.276084,172
1659104147.78925,423505.2760874,91
1659104147.78925,423505.2760928,9
1659104147.78925,423505.2760978,-40
1659104147.78925,423505.2761036,-72
1659104147.78925,423505.2761093,-103
1659104147.78925,423505.2761127,-127
1659104147.78925,423505.2761159,-146
1659104147.78925,423505.2761195,-163
1659104147.78925,423505.2761227,-160
1659104147.78925,423505.2761259,-146
1659104147.78925,423505.2761291,-136
1659104147.78925,423505.2761335,-129
1659104147.78925,423505.2761376,-122
1659104147.78925,423505.2761435,-115
1659104147.78925,423505.2761489,-105
1659104147.78925,423505.2761523,-93
1659104147.78925,423505.2761557,-81
1659104147.78925,423505.2761589,-74
1659104147.78925,423505.276165,-60
1659104147.78925,423505.2761684,-57
1659104147.78925,423505.2761717,-60
1659104147.78925,423505.2761752,-55
1659104147.78925,423505.2761786,-43
1659104147.78925,423505.2761836,-40
1659104147.78925,423505.2761899,-43
1659104147.78925,423505.2761981,-50
1659104147.78925,423505.2762045,-60
1659104147.78925,423505.2762125,-69
1659104147.78925,423505.2762203,-74
1659104147.78925,423505.2762267,-67
1659104147.78925,423505.2762341,-62
1659104147.78925,423505.2762404,-60
1659104147.78925,423505.2762492,-55
1659104147.78925,423505.2762576,-52
1659104147.78925,423505.2762637,-43
1659104147.78925,423505.2762701,-28
1659104147.78925,423505.2762782,-24
1659104147.78925,423505.276285,-24
1659104147.78925,423505.2762934,-21
1659104147.78925,423505.2763001,-14
1659104147.78925,423505.2763092,-4
1659104147.78925,423505.2763162,7
1659104147.78925,423505.2763244,16
1659104147.84004,423505.2763297,19
1659104147.84004,423505.2763414,19
1659104147.84004,423505.2763465,26
1659104147.84004,423505.2763507,36
1659104147.84004,423505.2763552,40
1659104147.84004,423505.2763593,45
1659104147.84004,423505.2763639,52
1659104147.84004,423505.27637,50
1659104147.84004,423505.2763795,55
1659104147.84004,423505.2763878,84
1659104147.84004,423505.2763958,100
1659104147.84004,423505.2764013,105
1659104147.84004,423505.276407,115
1659104147.84004,423505.2764135,122
1659104147.84004,423505.2764169,105
1659104147.84004,423505.2764233,91
1659104147.84004,423505.2764287,93
1659104147.84004,423505.2764335,96
1659104147.84004,423505.2764366,98
1659104147.84004,423505.2764395,98
1659104147.84004,423505.2764425,98
1659104147.84004,423505.7636564,100
1659104147.84004,423505.7636776,105
1659104147.84004,423505.7636821,108
1659104148.35994,423505.7636854,170
1659104148.35994,423505.7636887,412
1659104148.35994,423505.7636919,794
1659104148.35994,423505.7636952,1029
1659104148.35994,423505.7636983,681
1659104148.35994,423505.7637017,-170
1659104148.35994,423505.7637049,-621
1659104148.35994,423505.7637082,-357
1659104148.35994,423505.7637114,-52
1659104148.35994,423505.7637147,36
1659104148.35994,423505.7637179,93
1659104148.35994,423505.7637211,122
1659104148.35994,423505.7637244,117
1659104148.35994,423505.7637276,134
1659104148.35994,423505.7637307,156
1659104148.35994,423505.763734,160
1659104148.35994,423505.7637387,158
1659104148.35994,423505.7637419,163
1659104148.35994,423505.7637451,184
1659104148.35994,423505.7637492,201
1659104148.35994,423505.7637523,211
1659104148.35994,423505.7637556,228
1659104148.35994,423505.7637588,247
1659104148.35994,423505.7637621,259
1659104148.35994,423505.7637655,278
1659104148.35994,423505.7637687,297
1659104148.35994,423505.763772,304
1659104148.35994,423505.7637753,316
1659104148.35994,423505.7637785,340
1659104148.35994,423505.7637818,350
1659104148.35994,423505.763785,352
1659104148.35994,423505.7637882,355
1659104148.35994,423505.7637914,340
1659104148.35994,423505.7637947,309
1659104148.35994,423505.7637978,266
1659104148.35994,423505.7638012,206
1659104148.35994,423505.7638046,139
1659104148.35994,423505.7638081,81
1659104148.35994,423505.7638116,36
1659104148.35994,423505.7638149,4
1659104148.35994,423505.7638186,-14
1659104148.35994,423505.7638218,-28
1659104148.35994,423505.7638254,-28
1659104148.35994,423505.7638288,-24
1659104148.35994,423505.7638321,-16
1659104148.35994,423505.7638356,-4
1659104148.35994,423505.7638407,2
1659104148.35994,423505.7638512,0
1659104148.35994,423505.7638545,-4
1659104148.35994,423505.7638598,-4
1659104148.37191,423505.7638631,-4
1659104148.37191,423505.7638665,0
1659104148.37191,423505.7638698,4
1659104148.37191,423505.7638731,7
1659104148.37191,423505.7638781,9
1659104148.37191,423505.7638828,12
1659104148.37191,423505.7638861,16
1659104148.37191,423505.7638894,24
1659104148.37191,423505.7638943,26
1659104148.37191,423505.7638976,21
1659104148.37191,423505.7639011,19
1659104148.37191,423505.7639061,21
1659104148.37191,423505.7639094,21
1659104148.37191,423505.7639143,19
1659104148.37191,423505.7639176,26
1659104148.37191,423505.7639208,33
1659104148.37191,423505.7639239,28
1659104148.37191,423505.7639288,26
1659104148.37191,423505.7639321,31
1659104148.37191,423505.7639354,36
1659104148.37191,423506.3991517,40
1659104148.37191,423506.3991994,48
1659104148.37191,423506.3992107,48
1659104148.37191,423506.3992186,40
1659104148.84424,423506.3992241,45
1659104148.84424,423506.3992287,60
1659104148.84424,423506.3992336,62
1659104148.84424,423506.3992383,57
1659104148.84424,423506.3992429,55
1659104148.84424,423506.3992469,43
1659104148.84424,423506.399251,28
1659104148.84424,423506.3992554,28
1659104148.84424,423506.3992603,36
1659104148.84424,423506.3992649,36
1659104148.84424,423506.3992694,31
1659104148.84424,423506.3992738,19
1659104148.84424,423506.3992785,7
1659104148.84424,423506.399283,12
1659104148.84424,423506.3992873,24
1659104148.84424,423506.3992916,28
1659104148.84424,423506.399296,26
1659104148.84424,423506.3993007,12
1659104148.84424,423506.3993051,0
1659104148.84424,423506.3993091,7
1659104148.84424,423506.3993131,16
1659104148.84424,423506.3993171,16
1659104148.84424,423506.3993211,33
1659104148.84424,423506.3993256,57
1659104148.84424,423506.3993299,57
1659104148.84424,423506.3993345,57
1659104148.84424,423506.3993384,69
1659104148.84424,423506.3993423,62
1659104148.84424,423506.3993468,48
1659104148.84424,423506.399351,48
1659104148.84424,423506.3993549,48
1659104148.84424,423506.3993588,36
1659104148.84424,423506.399363,26
1659104148.84424,423506.3993673,40
1659104148.84424,423506.3993719,55
1659104148.84424,423506.3993763,45
1659104148.84424,423506.3993812,36
1659104148.84424,423506.3993861,81
1659104148.84424,423506.3993907,295
1659104148.84424,423506.3993952,669
1659104148.84424,423506.3994,960
1659104148.84424,423506.3994051,717
1659104148.84424,423506.3994102,-132
1659104148.84424,423506.3994151,-710
1659104148.84424,423506.3994203,-492
1659104148.84424,423506.3994254,-134
1659104148.84424,423506.3994306,-36
1659104148.84424,423506.3994356,21
1659104148.84424,423506.3994402,62
1659104148.84424,423506.3994452,55
1659104148.85721,423506.3994503,69
1659104148.85721,423506.3994552,96
1659104148.85721,423506.3994599,93
1659104148.85721,423506.3994647,91
1659104148.85721,423506.3994696,112
1659104148.85721,423506.3994743,129
1659104148.85721,423506.3994783,136
1659104148.85721,423506.3994823,148
1659104148.85721,423506.3994864,163
1659104148.85721,423506.3994905,175
1659104148.85721,423506.3994947,192
1659104148.85721,423506.3994988,206
1659104148.85721,423506.3995028,213
1659104148.85721,423506.399507,230
1659104148.85721,423506.3995115,254
1659104148.85721,423506.3995158,271
1659104148.85721,423506.3995202,283
1659104148.85721,423506.3995242,290
1659104148.85721,423506.3995282,285
1659104148.85721,423506.8864349,268
1659104148.85721,423506.8864772,242
1659104148.85721,423506.8865123,196
1659104148.85721,423506.8865226,129
1659104148.85721,423506.8865283,60
1659104149.42432,423506.8865331,2
1659104149.42432,423506.8865366,-48
1659104149.42432,423506.8865408,-84
1659104149.42432,423506.8865444,-105
1659104149.42432,423506.886548,-115
1659104149.42432,423506.8865515,-110
1659104149.42432,423506.8865549,-105
1659104149.42432,423506.8865587,-105
1659104149.42432,423506.8865621,-110
1659104149.42432,423506.8865655,-112
1659104149.42432,423506.886569,-105
1659104149.42432,423506.8865724,-91
1659104149.42432,423506.8865759,-81
1659104149.42432,423506.8865794,-86
1659104149.42432,423506.8865837,-96
1659104149.42432,423506.8865871,-86
1659104149.42432,423506.8865906,-69
1659104149.42432,423506.8865941,-60
1659104149.42432,423506.8865976,-52
1659104149.42432,423506.886601,-50
1659104149.42432,423506.8866044,-52
1659104149.42432,423506.8866079,-50
1659104149.42432,423506.8866114,-43
1659104149.42432,423506.8866149,-33
1659104149.42432,423506.8866184,-26
1659104149.42432,423506.8866218,-26
1659104149.42432,423506.8866253,-38
1659104149.42432,423506.8866287,-50
1659104149.42432,423506.8866322,-45
1659104149.42432,423506.8866356,-43
1659104149.42432,423506.8866404,-43
1659104149.42432,423506.886644,-31
1659104149.42432,423506.8866475,-19
1659104149.42432,423506.8866509,-24
1659104149.42432,423506.8866544,-21
1659104149.42432,423506.8866578,-9
1659104149.42432,423506.8866613,-2
1659104149.42432,423506.8866648,2
1659104149.42432,423506.8866695,12
1659104149.42432,423506.8866729,12
1659104149.42432,423506.8866764,14
1659104149.42432,423506.8866799,26
1659104149.42432,423506.8866833,36
1659104149.42432,423506.8866869,36
1659104149.42432,423506.8866911,38
1659104149.42432,423506.8866945,40
1659104149.42432,423506.8866979,40
1659104149.42432,423506.8867013,38
1659104149.42432,423506.8867048,40
1659104149.42432,423506.8867083,48
1659104149.43529,423506.8867118,52
1659104149.43529,423506.8867152,50
1659104149.43529,423506.8867187,50
1659104149.43529,423506.8867221,52
1659104149.43529,423506.8867256,55
1659104149.43529,423506.8867292,57
1659104149.43529,423506.8867327,60
1659104149.43529,423506.8867371,60
1659104149.43529,423506.8867432,60
1659104149.43529,423506.8867469,67
1659104149.43529,423506.8867507,72
1659104149.43529,423506.8867542,64
1659104149.43529,423506.8867576,57
1659104149.43529,423506.8867619,57
1659104149.43529,423506.8867671,55
1659104149.43529,423506.8867707,55
1659104149.43529,423506.8867758,57
1659104149.43529,423506.8867794,52
1659104149.43529,423507.4692666,50
1659104149.43529,423507.4692853,69
1659104149.43529,423507.4692944,76
1659104149.43529,423507.4693014,74
1659104149.43529,423507.4693069,93
1659104149.43529,423507.4693132,105
1659104149.98013,423507.4693172,76
1659104149.98013,423507.4693233,40
1659104149.98013,423507.4693291,24
1659104149.98013,423507.4693349,12
1659104149.98013,423507.4693402,0
1659104149.98013,423507.4693446,9
1659104149.98013,423507.4693485,16
1659104149.98013,423507.4693526,14
1659104149.98013,423507.4693577,14
1659104149.98013,423507.4693634,9
1659104149.98013,423507.4693704,86
1659104149.98013,423507.4693773,372
1659104149.98013,423507.4693816,749
1659104149.98013,423507.4693851,866
1659104149.98013,423507.4693978,393
1659104149.98013,423507.4694108,-391
1659104149.98013,423507.4694182,-640
1659104149.98013,423507.4694268,-316
1659104149.98013,423507.4694306,-79
1659104149.98013,423507.4694328,-28
1659104149.98013,423507.4694348,21
1659104149.98013,423507.4694369,48
1659104149.98013,423507.4694391,45
1659104149.98013,423507.4694411,69
1659104149.98013,423507.4694485,100
1659104149.98013,423507.4694595,108
1659104149.98013,423507.4694676,108
1659104149.98013,423507.4695107,122
1659104149.98013,423507.4695251,139
1659104149.98013,423507.4695335,148
1659104149.98013,423507.4695406,163
1659104149.98013,423507.469548,180
1659104149.98013,423507.4695539,201
1659104149.98013,423507.4695615,223
1659104149.98013,423507.469569,244
1659104149.98013,423507.4695765,264
1659104149.98013,423507.4695832,295
1659104149.98013,423507.4695898,321
1659104149.98013,423507.4695974,336
1659104149.98013,423507.4696031,350
1659104149.98013,423507.4696107,355
1659104149.98013,423507.4696167,348
1659104149.98013,423507.4696247,333
1659104149.98013,423507.4696306,304
1659104149.98013,423507.4696381,259
1659104149.98013,423507.4696456,199
1659104149.98013,423507.4696523,132
1659104149.98013,423507.4696601,72
1659104149.98013,423507.469666,21
1659104149.98013,423507.4696735,-14
1659104150.00107,423507.4696794,-38
1659104150.00107,423507.4696867,-50
1659104150.00107,423507.469692,-60
1659104150.00107,423507.4697003,-67
1659104150.00107,423507.4697074,-69
1659104150.00107,423507.4697131,-69
1659104150.00107,423507.4697207,-60
1659104150.00107,423507.469726,-48
1659104150.00107,423507.4697336,-40
1659104150.00107,423507.4697401,-33
1659104150.00107,423507.4697478,-28
1659104150.00107,423507.4697565,-26
1659104150.00107,423507.4697622,-19
1659104150.00107,423507.4697677,-2
1659104150.00107,423507.4697714,21
1659104150.00107,423507.4697769,28
1659104150.00107,423507.4697813,9
1659104150.00107,423508.0061688,-9
1659104150.00107,423508.0061896,-4
1659104150.00107,423508.0061984,4
1659104150.00107,423508.0062037,4
1659104150.00107,423508.0062098,7
1659104150.00107,423508.0062145,7
1659104150.00107,423508.0062203,4
1659104150.49843,423508.0062248,2
1659104150.49843,423508.0062291,4
1659104150.49843,423508.006234,4
1659104150.49843,423508.0062413,2
1659104150.49843,423508.0062491,0
1659104150.49843,423508.0062565,-14
1659104150.49843,423508.0062639,-26
1659104150.49843,423508.0062712,-21
1659104150.49843,423508.0062763,-12
1659104150.49843,423508.0062824,-12
1659104150.49843,423508.0062921,-16
1659104150.49843,423508.0062999,-26
1659104150.49843,423508.0063092,-38
1659104150.49843,423508.0063165,-31
1659104150.49843,423508.0063248,-16
1659104150.49843,423508.006334,-14
1659104150.49843,423508.0063419,-12
1659104150.49843,423508.0063453,-2
1659104150.49843,423508.0063484,2
1659104150.49843,423508.0063517,7
1659104150.49843,423508.006355,19
1659104150.49843,423508.0063584,28
1659104150.49843,423508.0063617,36
1659104150.49843,423508.006365,40
1659104150.49843,423508.0063686,40
1659104150.49843,423508.0063744,45
1659104150.49843,423508.0063779,60
1659104150.49843,423508.0063811,69
1659104150.49843,423508.0063846,74
1659104150.49843,423508.006388,79
1659104150.49843,423508.0063922,81
1659104150.49843,423508.0064002,84
1659104150.49843,423508.006408,91
1659104150.49843,423508.0064139,100
1659104150.49843,423508.006422,108
1659104150.49843,423508.0064301,115
1659104150.49843,423508.0064374,134
1659104150.49843,423508.0064428,148
1659104150.49843,423508.0064464,153
1659104150.49843,423508.0064521,168
1659104150.49843,423508.0064557,187
1659104150.49843,423508.0064608,182
1659104150.49843,423508.006467,148
1659104150.49843,423508.0064708,129
1659104150.49843,423508.0064765,134
1659104150.49843,423508.0064804,136
1659104150.49843,423508.0064861,136
1659104150.49843,423508.0064902,141
1659104150.49843,423508.0064958,151
1659104150.49843,423508.0064995,153
1659104150.5084,423508.006503,148
1659104150.5084,423508.0065065,192
1659104150.5084,423508.0065111,403
1659104150.5084,423508.0065175,787
1659104150.5084,423508.0065227,1092
1659104150.5084,423508.0065267,873
1659104150.5084,423508.0065305,57
1659104150.5084,423508.0065346,-537
1659104150.5084,423508.0065404,-388
1659104150.5084,423508.0065442,-57
1659104150.5084,423508.00655,69
1659104150.5084,423508.0065536,141
1659104150.5084,423508.0065631,175
1659104150.5084,423508.0065684,158
1659104150.5084,423508.0065723,172
1659104150.5084,423508.0065781,199
1659104150.5084,423508.5425484,213
1659104150.5084,423508.542571,228
1659104150.5084,423508.5425855,235
1659104150.5084,423508.5426148,240
1659104150.5084,423508.5426223,254
1659104150.5084,423508.542627,266
1659104150.5084,423508.5426313,278
1659104150.5084,423508.5426369,292
1659104151.1301,423508.5426432,304
1659104151.1301,423508.54265,307
1659104151.1301,423508.5426563,319
1659104151.1301,423508.5426632,348
1659104151.1301,423508.5426862,374
1659104151.1301,423508.5426984,398
1659104151.1301,423508.5427063,420
1659104151.1301,423508.5427108,417
1659104151.1301,423508.5427158,391
1659104151.1301,423508.5427205,374
1659104151.1301,423508.5427247,360
1659104151.1301,423508.5427289,319
1659104151.1301,423508.5427331,247
1659104151.1301,423508.5427375,168
1659104151.1301,423508.542742,100
1659104151.1301,423508.5427477,48
1659104151.1301,423508.542753,7
1659104151.1301,423508.5427581,-16
1659104151.1301,423508.5427649,-28
1659104151.1301,423508.5427703,-36
1659104151.1301,423508.5427756,-43
1659104151.1301,423508.5427798,-40
1659104151.1301,423508.542787,-33
1659104151.1301,423508.5427947,-21
1659104151.1301,423508.5428017,-4
1659104151.1301,423508.5428147,7
1659104151.1301,423508.5428213,9
1659104151.1301,423508.5428249,14
1659104151.1301,423508.5428305,26
1659104151.1301,423508.5428341,38
1659104151.1301,423508.5428411,45
1659104151.1301,423508.5428469,50
1659104151.1301,423508.5428528,43
1659104151.1301,423508.5428592,36
1659104151.1301,423508.5428625,38
1659104151.1301,423508.5428699,45
1659104151.1301,423508.5428735,50
1659104151.1301,423508.5428807,52
1659104151.1301,423508.5428866,55
1659104151.1301,423508.5428908,52
1659104151.1301,423508.5428941,50
1659104151.1301,423508.5429,52
1659104151.1301,423508.5429055,57
1659104151.1301,423508.5429114,60
1659104151.1301,423508.5429154,60
1659104151.1301,423508.5429216,60
1659104151.1301,423508.5429354,62
1659104151.1301,423508.5429387,69
1659104151.1301,423508.5429466,69
1659104151.1301,423508.5429517,62
1659104151.14008,423508.5429601,48
1659104151.14008,423508.5429673,48
1659104151.14008,423508.5429756,55
1659104151.14008,423508.5429797,57
1659104151.14008,423508.5429899,62
1659104151.14008,423508.5429956,69
1659104151.14008,423508.542998,69
1659104151.14008,423508.5430041,67
1659104151.14008,423508.5430158,67
1659104151.14008,423508.5430236,64
1659104151.14008,423508.5430322,69
1659104151.14008,423508.5430408,76
1659104151.14008,423508.5430488,84
1659104151.14008,423508.5430551,76
1659104151.14008,423508.5430627,67
1659104151.14008,423509.1754953,62
1659104151.14008,423509.1755128,62
1659104151.14008,423509.1755196,72
1659104151.14008,423509.1755274,86
1659104151.14008,423509.1755319,91
1659104151.14008,423509.1755399,86
1659104151.14008,423509.1755461,79
1659104151.14008,423509.1755549,64
1659104151.14008,423509.1755629,52
1659104151.72321,423509.1755711,43
1659104151.72321,423509.1755783,33
1659104151.72321,423509.1755876,24
1659104151.72321,423509.1755919,12
1659104151.72321,423509.1756036,2
1659104151.72321,423509.1756142,9
1659104151.72321,423509.1756216,16
1659104151.72321,423509.175626,9
1659104151.72321,423509.1756304,48
1659104151.72321,423509.1756351,266
1659104151.72321,423509.1756422,669
1659104151.72321,423509.1756498,979
1659104151.72321,423509.1756574,729
1659104151.72321,423509.1756625,-134
1659104151.72321,423509.1756694,-737
1659104151.72321,423509.1756742,-549
1659104151.72321,423509.1756779,-204
1659104151.72321,423509.1756843,-76
1659104151.72321,423509.1756895,0
1659104151.72321,423509.1756968,36
1659104151.72321,423509.1757008,24
1659104151.72321,423509.1757062,38
1659104151.72321,423509.1757119,55
1659104151.72321,423509.175726,57
1659104151.72321,423509.1757367,67
1659104151.72321,423509.1757447,81
1659104151.72321,423509.1757547,93
1659104151.72321,423509.1757595,105
1659104151.72321,423509.1757623,122
1659104151.72321,423509.1757678,136
1659104151.72321,423509.1757788,153
1659104151.72321,423509.1757823,170
1659104151.72321,423509.1757853,192
1659104151.72321,423509.1757882,220
1659104151.72321,423509.1757912,252
1659104151.72321,423509.1757952,273
1659104151.72321,423509.1757972,292
1659104151.72321,423509.1757993,314
1659104151.72321,423509.1758069,326
1659104151.72321,423509.1758213,328
1659104151.72321,423509.1758345,312
1659104151.72321,423509.1758497,273
1659104151.72321,423509.1758605,213
1659104151.72321,423509.175868,146
1659104151.72321,423509.1758799,76
1659104151.72321,423509.175893,9
1659104151.72321,423509.1759063,-40
1659104151.72321,423509.175915,-76
1659104151.72321,423509.1759176,-105
1659104151.72321,423509.1759197,-117
1659104151.73446,423509.1759218,-117
1659104151.73446,423509.175924,-117
1659104151.73446,423509.175926,-115
1659104151.73446,423509.175928,-108
1659104151.73446,423509.17593,-105
1659104151.73446,423509.1759325,-105
1659104151.73446,423509.1759346,-93
1659104151.73446,423509.1759373,-76
1659104151.73446,423509.1759394,-64
1659104151.73446,423509.1759413,-60
1659104151.73446,423509.1759434,-57
1659104151.73446,423509.1759455,-52
1659104151.73446,423509.1759476,-40
1659104151.73446,423509.1759496,-31
1659104151.73446,423509.7619294,-24
1659104151.73446,423509.7619487,-14
1659104151.73446,423509.7619571,-12
1659104151.73446,423509.761964,-14
1659104151.73446,423509.7619684,-9
1659104151.73446,423509.7619742,-2
1659104151.73446,423509.7619818,-4
1659104151.73446,423509.7619894,0
1659104151.73446,423509.761999,0
1659104151.73446,423509.7620101,-16
1659104152.20566,423509.7620216,-26
1659104152.20566,423509.7620262,-14
1659104152.20566,423509.7620301,-4
1659104152.20566,423509.7620339,-7
1659104152.20566,423509.7620387,-12
1659104152.20566,423509.7620424,-24
1659104152.20566,423509.7620454,-36
1659104152.20566,423509.7620488,-28
1659104152.20566,423509.7620615,-16
1659104152.20566,423509.7620771,-12
1659104152.20566,423509.7620848,-7
1659104152.20566,423509.7620915,-4
1659104152.20566,423509.7620967,-7
1659104152.20566,423509.7621,-4
1659104152.20566,423509.7621037,4
1659104152.20566,423509.7621101,12
1659104152.20566,423509.7621147,12
1659104152.20566,423509.7621183,14
1659104152.20566,423509.7621236,16
1659104152.20566,423509.7621271,19
1659104152.20566,423509.7621307,26
1659104152.20566,423509.7621357,43
1659104152.20566,423509.7621391,60
1659104152.20566,423509.7621435,62
1659104152.20566,423509.7621492,62
1659104152.20566,423509.7621527,67
1659104152.20566,423509.7621562,60
1659104152.20566,423509.7621615,38
1659104152.20566,423509.7621662,26
1659104152.20566,423509.7621718,26
1659104152.20566,423509.7621755,21
1659104152.20566,423509.7621795,12
1659104152.20566,423509.7621831,9
1659104152.20566,423509.7621866,4
1659104152.20566,423509.76219,2
1659104152.20566,423509.7621954,4
1659104152.20566,423509.7621988,52
1659104152.20566,423509.762203,268
1659104152.20566,423509.762207,650
1659104152.20566,423509.7622105,933
1659104152.20566,423509.762214,684
1659104152.20566,423509.7622188,-134
1659104152.20566,423509.7622226,-689
1659104152.20566,423509.7622283,-496
1659104152.20566,423509.7622332,-158
1659104152.20566,423509.7622391,-40
1659104152.20566,423509.7622434,26
1659104152.20566,423509.7622481,60
1659104152.20566,423509.7622517,55
1659104152.20566,423509.762257,72
1659104152.21663,423509.762261,91
1659104152.21663,423509.7622666,100
1659104152.21663,423509.7622701,112
1659104152.21663,423509.7622746,124
1659104152.21663,423509.7622795,134
1659104152.21663,423509.7622827,151
1659104152.21663,423509.7622861,165
1659104152.21663,423509.7622915,180
1659104152.21663,423509.762296,199
1659104152.21663,423509.7622996,218
1659104152.21663,423509.7623032,240
1659104152.21663,423509.7623068,268
1659104152.21663,423509.7623105,297
1659104152.21663,423510.2483244,319
1659104152.21663,423510.2483434,340
1659104152.21663,423510.2483512,357
1659104152.21663,423510.2483576,369
1659104152.21663,423510.2483621,374
1659104152.21663,423510.2483681,362
1659104152.21663,423510.2483725,328
1659104152.21663,423510.2483783,283
1659104152.21663,423510.2483823,216
1659104152.21663,423510.2483875,141
1659104152.21663,423510.2483916,79
1659104152.79508,423510.248396,26
1659104152.79508,423510.2484002,-16
1659104152.79508,423510.2484042,-50
1659104152.79508,423510.248408,-67
1659104152.79508,423510.2484118,-69
1659104152.79508,423510.2484157,-67
1659104152.79508,423510.2484197,-69
1659104152.79508,423510.2484238,-81
1659104152.79508,423510.2484297,-91
1659104152.79508,423510.2484337,-81
1659104152.79508,423510.2484397,-64
1659104152.79508,423510.248444,-60
1659104152.79508,423510.2484499,-52
1659104152.79508,423510.2484558,-52
1659104152.79508,423510.2484598,-62
1659104152.79508,423510.248464,-62
1659104152.79508,423510.2484699,-45
1659104152.79508,423510.248474,-38
1659104152.79508,423510.2484796,-36
1659104152.79508,423510.2484838,-26
1659104152.79508,423510.2484893,-24
1659104152.79508,423510.2484935,-26
1659104152.79508,423510.2485,-21
1659104152.79508,423510.2485042,-16
1659104152.79508,423510.2485101,-24
1659104152.79508,423510.2485153,-31
1659104152.79508,423510.2485214,-28
1659104152.79508,423510.2485256,-28
1659104152.79508,423510.2485299,-26
1659104152.79508,423510.248534,-19
1659104152.79508,423510.2485397,-14
1659104152.79508,423510.2485438,-14
1659104152.79508,423510.2485498,-16
1659104152.79508,423510.2485538,-16
1659104152.79508,423510.2485597,-14
1659104152.79508,423510.2485637,-14
1659104152.79508,423510.2485676,-12
1659104152.79508,423510.2485739,-2
1659104152.79508,423510.248578,2
1659104152.79508,423510.248582,-4
1659104152.79508,423510.2485875,-2
1659104152.79508,423510.2485915,9
1659104152.79508,423510.2485971,14
1659104152.79508,423510.2486011,14
1659104152.79508,423510.2486067,16
1659104152.79508,423510.2486107,28
1659104152.79508,423510.2486163,48
1659104152.79508,423510.2486208,57
1659104152.79508,423510.2486264,69
1659104152.79508,423510.2486303,84
1659104152.80605,423510.2486342,81
1659104152.80605,423510.24864,55
1659104152.80605,423510.248644,33
1659104152.80605,423510.2486481,28
1659104152.80605,423510.2486538,26
1659104152.80605,423510.2486587,19
1659104152.80605,423510.2486644,19
1659104152.80605,423510.2486684,21
1659104152.80605,423510.2486738,16
1659104152.80605,423510.2486779,16
1659104152.80605,423510.2486836,38
1659104152.80605,423510.2486876,177
1659104152.80605,423510.8329265,516
1659104152.80605,423510.8329392,876
1659104152.80605,423510.8329438,842
1659104152.80605,423510.8329479,163
1659104152.80605,423510.8329504,-580
1659104152.80605,423510.8329529,-619
1659104152.80605,423510.8329553,-254
1659104152.80605,423510.8329577,-64
1659104152.80605,423510.8329601,-2
1659104152.80605,423510.8329626,28
1659104152.80605,423510.832965,21
1659104152.80605,423510.8329672,38
1659104153.3384,423510.8329695,67
1659104153.3384,423510.8329717,69
1659104153.3384,423510.8329739,72
1659104153.3384,423510.8329761,76
1659104153.3384,423510.8329782,76
1659104153.3384,423510.8329803,88
1659104153.3384,423510.8329828,112
1659104153.3384,423510.832985,122
1659104153.3384,423510.832987,141
1659104153.3384,423510.8329892,165
1659104153.3384,423510.8329913,184
1659104153.3384,423510.8329933,206
1659104153.3384,423510.8329953,240
1659104153.3384,423510.8329974,266
1659104153.3384,423510.8329995,292
1659104153.3384,423510.8330017,316
1659104153.3384,423510.8330038,324
1659104153.3384,423510.8330061,316
1659104153.3384,423510.8330082,307
1659104153.3384,423510.8330104,292
1659104153.3384,423510.8330125,256
1659104153.3384,423510.8330146,196
1659104153.3384,423510.8330167,127
1659104153.3384,423510.8330188,60
1659104153.3384,423510.8330209,-4
1659104153.3384,423510.8330231,-55
1659104153.3384,423510.8330259,-76
1659104153.3384,423510.833028,-88
1659104153.3384,423510.8330303,-98
1659104153.3384,423510.8330324,-98
1659104153.3384,423510.8330345,-93
1659104153.3384,423510.8330368,-88
1659104153.3384,423510.833039,-79
1659104153.3384,423510.8330411,-67
1659104153.3384,423510.8330433,-55
1659104153.3384,423510.8330456,-50
1659104153.3384,423510.8330479,-45
1659104153.3384,423510.8330502,-38
1659104153.3384,423510.8330524,-28
1659104153.3384,423510.8330545,-19
1659104153.3384,423510.8330569,-9
1659104153.3384,423510.833059,-4
1659104153.3384,423510.8330612,-2
1659104153.3384,423510.8330634,0
1659104153.3384,423510.8330656,7
1659104153.3384,423510.8330678,14
1659104153.3384,423510.83307,21
1659104153.3384,423510.8330725,21
1659104153.3384,423510.8330748,19
1659104153.3384,423510.8330769,21
1659104153.35025,423510.833079,24
1659104153.35025,423510.8330812,28
1659104153.35025,423510.8330834,33
1659104153.35025,423510.8330857,38
1659104153.35025,423510.8330879,40
1659104153.35025,423510.83309,40
1659104153.35025,423510.8330924,40
1659104153.35025,423510.8330946,40
1659104153.35025,423510.8330967,50
1659104153.35025,423510.833099,57
1659104153.35025,423510.8331012,55
1659104153.35025,423511.370011,52
1659104153.35025,423511.3700316,57
1659104153.35025,423511.3700443,64
1659104153.35025,423511.370059,69
1659104153.35025,423511.3700677,74
1659104153.35025,423511.3700753,88
1659104153.35025,423511.3700841,105
1659104153.35025,423511.3701265,110
1659104153.35025,423511.3701391,115
1659104153.35025,423511.3701469,129
1659104153.35025,423511.3701513,134
1659104153.35025,423511.3701553,110
1659104153.35025,423511.370159,72
1659104153.86745,423511.3701626,57
1659104153.86745,423511.3701662,69
1659104153.86745,423511.3701703,74
1659104153.86745,423511.3701743,74
1659104153.86745,423511.3701781,76
1659104153.86745,423511.3701819,62
1659104153.86745,423511.3701858,45
1659104153.86745,423511.370191,52
1659104153.86745,423511.3701948,144
1659104153.86745,423511.3701982,424
1659104153.86745,423511.3702014,823
1659104153.86745,423511.3702048,969
1659104153.86745,423511.3702083,456
1659104153.86745,423511.3702116,-393
1659104153.86745,423511.3702151,-674
1659104153.86745,423511.370219,-357
1659104153.86745,423511.3702226,-91
1659104153.86745,423511.3702264,4
1659104153.86745,423511.3702303,62
1659104153.86745,423511.3702341,74
1659104153.86745,423511.3702377,81
1659104153.86745,423511.3702414,105
1659104153.86745,423511.3702452,117
1659104153.86745,423511.3702492,124
1659104153.86745,423511.3702531,139
1659104153.86745,423511.3702572,148
1659104153.86745,423511.3702609,160
1659104153.86745,423511.3702649,184
1659104153.86745,423511.3702688,201
1659104153.86745,423511.3702727,213
1659104153.86745,423511.3702768,235
1659104153.86745,423511.3702841,261
1659104153.86745,423511.3702879,283
1659104153.86745,423511.3702915,309
1659104153.86745,423511.3702946,333
1659104153.86745,423511.3702987,357
1659104153.86745,423511.3703043,381
1659104153.86745,423511.3703081,400

1659104153.86745,423511.3703116,410
1659104153.86745,423511.3703173,408
1659104153.86745,423511.3703209,396
1659104153.86745,423511.3703247,367
1659104153.86745,423511.370329,314
1659104153.86745,423511.3703341,249
1659104153.86745,423511.3703386,177
1659104153.86745,423511.3703426,112
1659104153.86745,423511.3703466,55
1659104153.86745,423511.3703512,19
1659104153.86745,423511.370355,2
1659104153.86745,423511.370359,-4
1659104153.8864,423511.3703627,-7
1659104153.8864,423511.3703663,2
1659104153.8864,423511.3703699,7
1659104153.8864,423511.3703749,9
1659104153.8864,423511.3703784,19
1659104153.8864,423511.3703924,31
1659104153.8864,423511.3703976,40
1659104153.8864,423511.3704026,43
1659104153.8864,423511.3704067,45
1659104153.8864,423511.3704129,57
1659104153.8864,423511.9055289,72
1659104153.8864,423511.9055537,76
1659104153.8864,423511.9055654,76
1659104153.8864,423511.9055718,79
1659104153.8864,423511.9055798,84
1659104153.8864,423511.9055858,81
1659104153.8864,423511.9055941,81
1659104153.8864,423511.9056003,86
1659104153.8864,423511.9056082,86
1659104153.8864,423511.9056168,69
1659104153.8864,423511.9056249,60
1659104153.8864,423511.9056629,64
1659104153.8864,423511.9056817,67
1659104153.8864,423511.9056964,69
1659104154.44935,423511.9057013,62
1659104154.44935,423511.9057047,36
1659104154.44935,423511.9057081,19
1659104154.44935,423511.9057114,31
1659104154.44935,423511.9057147,31
1659104154.44935,423511.905718,24
1659104154.44935,423511.9057212,31
1659104154.44935,423511.9057244,33
1659104154.44935,423511.9057277,31
1659104154.44935,423511.9057309,48
1659104154.44935,423511.9057341,72
1659104154.44935,423511.9057374,84
1659104154.44935,423511.9057406,91
1659104154.44935,423511.9057438,98
1659104154.44935,423511.9057471,81
1659104154.44935,423511.9057503,57
1659104154.44935,423511.9057535,57
1659104154.44935,423511.9057567,64
1659104154.44935,423511.9057599,60
1659104154.44935,423511.9057631,60
1659104154.44935,423511.9057664,60
1659104154.44935,423511.9057697,57
1659104154.44935,423511.9057729,60
1659104154.44935,423511.905776,57
1659104154.44935,423511.9057793,100
1659104154.44935,423511.9057826,333
1659104154.44935,423511.9057858,753
1659104154.44935,423511.9057891,1049
1659104154.44935,423511.9057923,744
1659104154.44935,423511.9057957,-144
1659104154.44935,423511.905799,-698
1659104154.44935,423511.9058022,-475
1659104154.44935,423511.9058054,-141
1659104154.44935,423511.9058086,-19
1659104154.44935,423511.9058118,72
1659104154.44935,423511.9058151,110
1659104154.44935,423511.9058187,86
1659104154.44935,423511.9058219,96
1659104154.44935,423511.9058251,115
1659104154.44935,423511.9058284,115
1659104154.44935,423511.9058316,122
1659104154.44935,423511.9058348,134
1659104154.44935,423511.905838,141
1659104154.44935,423511.9058413,151
1659104154.44935,423511.9058445,165
1659104154.44935,423511.9058477,177
1659104154.44935,423511.9058509,192
1659104154.44935,423511.9058542,211
1659104154.44935,423511.9058574,230
1659104154.44935,423511.9058606,249
1659104154.46032,423511.9058639,276
1659104154.46032,423511.9058671,302
1659104154.46032,423511.9058703,314
1659104154.46032,423511.9058735,328
1659104154.46032,423511.9058771,343
1659104154.46032,423511.9058803,338
1659104154.46032,423511.9058835,321
1659104154.46032,423511.9058868,290
1659104154.46032,423511.9058901,237
1659104154.46032,423512.4906851,165
1659104154.46032,423512.490701,91
1659104154.46032,423512.4907056,24
1659104154.46032,423512.4907095,-33
1659104154.46032,423512.4907132,-76
1659104154.46032,423512.490717,-117
1659104154.46032,423512.4907206,-153
1659104154.46032,423512.4907256,-165
1659104154.46032,423512.4907297,-170
1659104154.46032,423512.4907347,-180
1659104154.46032,423512.4907383,-180
1659104154.46032,423512.4907445,-177
1659104154.46032,423512.4907554,-187
1659104154.46032,423512.4907661,-189
1659104154.46032,423512.4907753,-172
1659104155.031,423512.4907852,-160
1659104155.031,423512.4907936,-153
1659104155.031,423512.4908013,-148
1659104155.031,423512.4908102,-144
1659104155.031,423512.4908201,-139
1659104155.031,423512.4908265,-127
1659104155.031,423512.4908352,-120
1659104155.031,423512.4908485,-115
1659104155.031,423512.4908628,-108
1659104155.031,423512.4908758,-105
1659104155.031,423512.4908843,-103
1659104155.031,423512.4908869,-96
1659104155.031,423512.490889,-91
1659104155.031,423512.4908913,-91
1659104155.031,423512.4908989,-86
1659104155.031,423512.4909117,-79
1659104155.031,423512.4909189,-79
1659104155.031,423512.4909265,-74
1659104155.031,423512.4909393,-67
1659104155.031,423512.4909465,-60
1659104155.031,423512.4909489,-55
1659104155.031,423512.4909511,-50
1659104155.031,423512.4909583,-52
1659104155.031,423512.4909712,-48
1659104155.031,423512.4909829,-24
1659104155.031,423512.4909975,-12
1659104155.031,423512.49101,-9
1659104155.031,423512.4910215,0
1659104155.031,423512.4910361,14
1659104155.031,423512.4910494,4
1659104155.031,423512.4910626,-19
1659104155.031,423512.491076,-21
1659104155.031,423512.4911316,-12
1659104155.031,423512.4911451,-12
1659104155.031,423512.4911586,-7
1659104155.031,423512.4911718,-4
1659104155.031,423512.4911849,-2
1659104155.031,423512.4911983,2
1659104155.031,423512.4912074,4
1659104155.031,423512.4912133,62
1659104155.031,423512.4912192,307
1659104155.031,423512.4912222,698
1659104155.031,423512.4912251,933
1659104155.031,423512.491228,597
1659104155.031,423512.4912312,-242
1659104155.031,423512.4912359,-710
1659104155.031,423512.4912485,-458
1659104155.031,423512.4912615,-127
1659104155.031,423512.4912749,-24
1659104155.031,423512.4912867,28
1659104155.04297,423512.4913,60
1659104155.04297,423512.4913144,60
1659104155.04297,423512.4913275,76
1659104155.04297,423512.4913393,98
1659104155.04297,423512.4913524,98
1659104155.04297,423512.4913624,100
1659104155.04297,423512.4913671,117
1659104155.04297,423512.4913727,129
1659104155.04297,423513.0758611,124
1659104155.04297,423513.0758818,122
1659104155.04297,423513.07589,136
1659104155.04297,423513.0758954,153
1659104155.04297,423513.0759012,170
1659104155.04297,423513.0759048,196
1659104155.04297,423513.0759097,225
1659104155.04297,423513.0759144,252
1659104155.04297,423513.0759198,271
1659104155.04297,423513.0759267,273
1659104155.04297,423513.0759328,276
1659104155.04297,423513.0759382,288
1659104155.04297,423513.0759495,290
1659104155.04297,423513.0759558,276
1659104155.04297,423513.0759579,244
1659104155.04297,423513.0759601,182
1659104155.61572,423513.0759627,100
1659104155.61572,423513.0759647,36
1659104155.61572,423513.0759676,-14
1659104155.61572,423513.0759704,-62
1659104155.61572,423513.0759806,-98
1659104155.61572,423513.0759872,-120
1659104155.61572,423513.0759896,-129
1659104155.61572,423513.075992,-129
1659104155.61572,423513.0760018,-129
1659104155.61572,423513.0760102,-124
1659104155.61572,423513.0760157,-115
1659104155.61572,423513.0760209,-110
1659104155.61572,423513.0760302,-105
1659104155.61572,423513.0760396,-91
1659104155.61572,423513.0760447,-79
1659104155.61572,423513.0760467,-69
1659104155.61572,423513.0760488,-67
1659104155.61572,423513.0760509,-69
1659104155.61572,423513.0760528,-69
1659104155.61572,423513.0760549,-57
1659104155.61572,423513.0760569,-45
1659104155.61572,423513.0760589,-38
1659104155.61572,423513.0760613,-33
1659104155.61572,423513.0760663,-33
1659104155.61572,423513.0760779,-31
1659104155.61572,423513.0760914,-26
1659104155.61572,423513.0760985,-21
1659104155.61572,423513.0761028,-16
1659104155.61572,423513.0761069,-16
1659104155.61572,423513.0761109,-19
1659104155.61572,423513.0761192,-19
1659104155.61572,423513.0761271,-21
1659104155.61572,423513.076141,-24
1659104155.61572,423513.0761535,-14
1659104155.61572,423513.0761654,-12
1659104155.61572,423513.0761737,-16
1659104155.61572,423513.07618,-4
1659104155.61572,423513.0761858,14
1659104155.61572,423513.0761921,14
1659104155.61572,423513.0762013,26
1659104155.61572,423513.0762084,50
1659104155.61572,423513.0762163,52
1659104155.61572,423513.0762212,31
1659104155.61572,423513.076225,16
1659104155.61572,423513.0762375,19
1659104155.61572,423513.0762464,21
1659104155.61572,423513.0762544,21
1659104155.61572,423513.0762679,26
1659104155.61572,423513.0762814,28
1659104155.61572,423513.0762935,19
1659104155.62669,423513.076302,7
1659104155.62669,423513.0763085,7
1659104155.62669,423513.0763141,96
1659104155.62669,423513.0763192,376
1659104155.62669,423513.076323,768
1659104155.62669,423513.0763286,914
1659104155.62669,423513.0763323,429
1659104155.62669,423513.6606628,-388
1659104155.62669,423513.6606768,-662
1659104155.62669,423513.6606817,-355
1659104155.62669,423513.6606865,-91
1659104155.62669,423513.6606894,12
1659104155.62669,423513.660694,69
1659104155.62669,423513.6606968,79
1659104155.62669,423513.6606994,81
1659104155.62669,423513.6607022,105
1659104155.62669,423513.6607048,120
1659104155.62669,423513.6607076,127
1659104155.62669,423513.6607143,136
1659104155.62669,423513.6607244,132
1659104155.62669,423513.6607329,129
1659104155.62669,423513.6607405,144
1659104155.62669,423513.6607428,168
1659104155.62669,423513.660745,187
1659104156.15998,423513.6607471,204
1659104156.15998,423513.6607492,213
1659104156.15998,423513.6607537,220
1659104156.15998,423513.6607639,244
1659104156.15998,423513.6607686,280
1659104156.15998,423513.6607707,312
1659104156.15998,423513.6607726,331
1659104156.15998,423513.6607745,333
1659104156.15998,423513.6607777,331
1659104156.15998,423513.6607877,324
1659104156.15998,423513.6607958,312
1659104156.15998,423513.6608027,285
1659104156.15998,423513.6608133,240
1659104156.15998,423513.6608175,180
1659104156.15998,423513.6608238,110
1659104156.15998,423513.6608288,52
1659104156.15998,423513.660835,19
1659104156.15998,423513.6608381,-2
1659104156.15998,423513.6608409,-19
1659104156.15998,423513.6608439,-21
1659104156.15998,423513.6608467,-19
1659104156.15998,423513.6608498,-24
1659104156.15998,423513.6608527,-16
1659104156.15998,423513.6608555,0
1659104156.15998,423513.6608584,14
1659104156.15998,423513.6608613,26
1659104156.15998,423513.6608643,33
1659104156.15998,423513.6608671,36
1659104156.15998,423513.6608723,40
1659104156.15998,423513.6608787,55
1659104156.15998,423513.6608818,74
1659104156.15998,423513.6608847,74
1659104156.15998,423513.6608876,64
1659104156.15998,423513.6608906,69
1659104156.15998,423513.6608937,88
1659104156.15998,423513.6608969,96
1659104156.15998,423513.6608999,93
1659104156.15998,423513.660903,98
1659104156.15998,423513.6609062,98
1659104156.15998,423513.6609091,86
1659104156.15998,423513.6609128,79
1659104156.15998,423513.6609157,79
1659104156.15998,423513.6609188,69
1659104156.15998,423513.660922,64
1659104156.15998,423513.6609254,72
1659104156.15998,423513.66093,79
1659104156.15998,423513.6609349,79
1659104156.15998,423513.6609653,76
1659104156.15998,423513.6609811,86
1659104156.15998,423513.6609907,110
1659104156.16995,423513.6609974,117
1659104156.16995,423513.6610047,112
1659104156.16995,423513.6610122,127
1659104156.16995,423513.6610191,148
1659104156.16995,423513.6610264,144
1659104156.16995,423513.6610314,122
1659104156.16995,423514.1968099,117
1659104156.16995,423514.1968224,120
1659104156.16995,423514.1968261,120
1659104156.16995,423514.1968283,122
1659104156.16995,423514.1968304,122
1659104156.16995,423514.1968324,115
1659104156.16995,423514.1968345,112
1659104156.16995,423514.1968366,110
1659104156.16995,423514.1968386,112
1659104156.16995,423514.1968407,252
1659104156.16995,423514.1968427,638
1659104156.16995,423514.1968448,1032
1659104156.16995,423514.1968468,914
1659104156.16995,423514.196849,115
1659104156.16995,423514.196855,-602
1659104156.16995,423514.1968668,-549
1659104156.16995,423514.1968705,-189
1659104156.16995,423514.1968746,-16
1659104156.68834,423514.1968766,81
1659104156.68834,423514.1968787,139
1659104156.68834,423514.1968806,129
1659104156.68834,423514.1968832,127
1659104156.68834,423514.196894,136
1659104156.68834,423514.1969001,141
1659104156.68834,423514.1969024,158
1659104156.68834,423514.1969045,172
1659104156.68834,423514.1969079,187
1659104156.68834,423514.1969176,204
1659104156.68834,423514.1969277,213
1659104156.68834,423514.1969385,228
1659104156.68834,423514.1969506,249
1659104156.68834,423514.1969537,266
1659104156.68834,423514.1969559,285
1659104156.68834,423514.1969579,307
1659104156.68834,423514.19696,331
1659104156.68834,423514.196962,357
1659104156.68834,423514.196964,381
1659104156.68834,423514.1969661,396
1659104156.68834,423514.1969682,408
1659104156.68834,423514.1969702,410
1659104156.68834,423514.1969734,398
1659104156.68834,423514.1969754,369
1659104156.68834,423514.1969774,324
1659104156.68834,423514.1969794,259
1659104156.68834,423514.1969814,187
1659104156.68834,423514.1969835,124
1659104156.68834,423514.1969855,76
1659104156.68834,423514.1969875,28
1659104156.68834,423514.1969896,-9
1659104156.68834,423514.1969916,-26
1659104156.68834,423514.1969937,-28
1659104156.68834,423514.1969957,-33
1659104156.68834,423514.1969986,-40
1659104156.68834,423514.1970007,-38
1659104156.68834,423514.1970028,-31
1659104156.68834,423514.1970048,-26
1659104156.68834,423514.1970068,-19
1659104156.68834,423514.1970089,-9
1659104156.68834,423514.197011,-2
1659104156.68834,423514.1970131,2
1659104156.68834,423514.1970151,4
1659104156.68834,423514.1970172,12
1659104156.68834,423514.1970193,19
1659104156.68834,423514.1970212,21
1659104156.68834,423514.1970241,26
1659104156.68834,423514.1970262,28
1659104156.68834,423514.1970282,21
1659104156.68834,423514.1970304,19
1659104156.70429,423514.1970325,26
1659104156.70429,423514.1970346,31
1659104156.70429,423514.1970366,28
1659104156.70429,423514.1970387,31
1659104156.70429,423514.1970408,33
1659104156.70429,423514.7333018,33
1659104156.70429,423514.7333223,36
1659104156.70429,423514.7333375,38
1659104156.70429,423514.7333513,38
1659104156.70429,423514.7333616,40
1659104156.70429,423514.7333709,52
1659104156.70429,423514.7333779,55
1659104156.70429,423514.7333886,50
1659104156.70429,423514.7333996,69
1659104156.70429,423514.7334068,88
1659104156.70429,423514.7334178,81
1659104156.70429,423514.7334284,50
1659104156.70429,423514.733436,19
1659104156.70429,423514.7334473,7
1659104156.70429,423514.7334574,14
1659104156.70429,423514.7334628,19
1659104156.70429,423514.7334765,16
1659104156.70429,423514.7334875,14
1659104156.70429,423514.7334926,0
1659104157.28159,423514.7335249,-14
1659104157.28159,423514.7335342,14
1659104157.28159,423514.7335415,189
1659104157.28159,423514.7335487,561
1659104157.28159,423514.733554,909
1659104157.28159,423514.7335577,782
1659104157.28159,423514.7335607,-4
1659104157.28159,423514.7335641,-705
1659104157.28159,423514.7335673,-619
1659104157.28159,423514.7335717,-232
1659104157.28159,423514.7335763,-64
1659104157.28159,423514.7335806,4
1659104157.28159,423514.7335866,45
1659104157.28159,423514.73359,40
1659104157.28159,423514.7335952,45
1659104157.28159,423514.7335996,64
1659104157.28159,423514.7336031,67
1659104157.28159,423514.7336059,69
1659104157.28159,423514.7336088,84
1659104157.28159,423514.7336119,88
1659104157.28159,423514.7336168,91
1659104157.28159,423514.7336226,105
1659104157.28159,423514.7336262,124
1659104157.28159,423514.7336291,136
1659104157.28159,423514.7336319,151
1659104157.28159,423514.7336349,163
1659104157.28159,423514.7336378,180
1659104157.28159,423514.7336408,208
1659104157.28159,423514.7336436,235
1659104157.28159,423514.7336465,254
1659104157.28159,423514.7336494,268
1659104157.28159,423514.7336522,276
1659104157.28159,423514.733655,268
1659104157.28159,423514.7336579,256
1659104157.28159,423514.7336608,232
1659104157.28159,423514.7336637,184
1659104157.28159,423514.7336679,117
1659104157.28159,423514.7336732,48
1659104157.28159,423514.73368,-12
1659104157.28159,423514.733683,-55
1659104157.28159,423514.7336858,-88
1659104157.28159,423514.7336973,-108
1659104157.28159,423514.7337132,-117
1659104157.28159,423514.733723,-122
1659104157.28159,423514.7337284,-122
1659104157.28159,423514.7337423,-112
1659104157.28159,423514.7337549,-100
1659104157.28159,423514.733767,-96
1659104157.28159,423514.7337808,-86
1659104157.28159,423514.7337921,-76
1659104157.29256,423514.7338036,-72
1659104157.29256,423514.7338124,-72
1659104157.29256,423514.7338262,-69
1659104157.29256,423514.73384,-60
1659104157.29256,423515.3193175,-48
1659104157.29256,423515.3193386,-40
1659104157.29256,423515.3193526,-36
1659104157.29256,423515.3193628,-33
1659104157.29256,423515.3193727,-26
1659104157.29256,423515.3193789,-24
1659104157.29256,423515.3193884,-21
1659104157.29256,423515.3193914,-19
1659104157.29256,423515.3193935,-24
1659104157.29256,423515.3193956,-40
1659104157.29256,423515.3193976,-43
1659104157.29256,423515.3193998,-33
1659104157.29256,423515.3194019,-26
1659104157.29256,423515.319404,-24
1659104157.29256,423515.319406,-26
1659104157.29256,423515.319408,-33
1659104157.29256,423515.3194101,-38
1659104157.29256,423515.3194121,-36
1659104157.29256,423515.3194143,-31
1659104157.29256,423515.3194163,-14
1659104157.86026,423515.3194185,2
1659104157.86026,423515.3194205,7
1659104157.86026,423515.3194224,16
1659104157.86026,423515.3194243,36
1659104157.86026,423515.3194261,45
1659104157.86026,423515.319428,28
1659104157.86026,423515.3194299,14
1659104157.86026,423515.3194371,16
1659104157.86026,423515.3194491,16
1659104157.86026,423515.3194585,7
1659104157.86026,423515.3194629,7
1659104157.86026,423515.3194705,16
1659104157.86026,423515.319475,24
1659104157.86026,423515.3194853,24
1659104157.86026,423515.3194928,33
1659104157.86026,423515.319569,148
1659104157.86026,423515.3195765,458
1659104157.86026,423515.319579,818
1659104157.86026,423515.3195812,866
1659104157.86026,423515.3195832,283
1659104157.86026,423515.3195854,-511
1659104157.86026,423515.3195875,-667
1659104157.86026,423515.3195896,-309
1659104157.86026,423515.3195947,-76
1659104157.86026,423515.3196056,-2
1659104157.86026,423515.3196122,45
1659104157.86026,423515.3196162,50
1659104157.86026,423515.3196214,50
1659104157.86026,423515.3196253,72
1659104157.86026,423515.3196332,86
1659104157.86026,423515.319641,96
1659104157.86026,423515.3196448,110
1659104157.86026,423515.3196468,120
1659104157.86026,423515.3196489,129
1659104157.86026,423515.319651,146
1659104157.86026,423515.319653,163
1659104157.86026,423515.3196551,177
1659104157.86026,423515.3196571,196
1659104157.86026,423515.3196592,213
1659104157.86026,423515.3196613,225
1659104157.86026,423515.3196637,240
1659104157.86026,423515.3196658,256
1659104157.86026,423515.3196678,268
1659104157.86026,423515.3196698,283
1659104157.86026,423515.3196718,295
1659104157.86026,423515.3196738,292
1659104157.86026,423515.3196758,283
1659104157.86026,423515.3196779,264
1659104157.86026,423515.31968,228
1659104157.86026,423515.3196881,175
1659104157.87122,423515.3196902,110
1659104157.87122,423515.3196933,48
1659104157.87122,423515.3196953,-7
1659104157.87122,423515.9033477,-48
1659104157.87122,423515.9033681,-64
1659104157.87122,423515.9033838,-76
1659104157.87122,423515.9033988,-86
1659104157.87122,423515.9034463,-88
1659104157.87122,423515.9034545,-86
1659104157.87122,423515.9034582,-84
1659104157.87122,423515.9034615,-74
1659104157.87122,423515.9034647,-62
1659104157.87122,423515.9034688,-52
1659104157.87122,423515.9034721,-43
1659104157.87122,423515.9034764,-38
1659104157.87122,423515.9034796,-33
1659104157.87122,423515.9034829,-24
1659104157.87122,423515.9034861,-16
1659104157.87122,423515.9034894,-12
1659104157.87122,423515.9034926,-7
1659104157.87122,423515.9034959,-4
1659104157.87122,423515.9034991,-14
1659104157.87122,423515.9035023,-26
1659104157.87122,423515.9035056,-26
1659104158.44836,423515.9035089,-24
1659104158.44836,423515.903512,-24
1659104158.44836,423515.9035153,-21
1659104158.44836,423515.9035185,-24
1659104158.44836,423515.9035217,-33
1659104158.44836,423515.9035249,-31
1659104158.44836,423515.9035282,-21
1659104158.44836,423515.9035314,-28
1659104158.44836,423515.9035347,-36
1659104158.44836,423515.9035379,-28
1659104158.44836,423515.9035412,-21
1659104158.44836,423515.9035445,-16
1659104158.44836,423515.9035477,-7
1659104158.44836,423515.9035509,-2
1659104158.44836,423515.9035542,-2
1659104158.44836,423515.9035575,7
1659104158.44836,423515.9035607,26
1659104158.44836,423515.903564,38
1659104158.44836,423515.9035672,48
1659104158.44836,423515.9035705,67
1659104158.44836,423515.9035737,79
1659104158.44836,423515.903577,72
1659104158.44836,423515.9035802,52
1659104158.44836,423515.9035834,43
1659104158.44836,423515.9035866,48
1659104158.44836,423515.9035899,50
1659104158.44836,423515.9035931,57
1659104158.44836,423515.9035964,62
1659104158.44836,423515.9035996,64
1659104158.44836,423515.9036029,69
1659104158.44836,423515.9036062,69
1659104158.44836,423515.9036094,84
1659104158.44836,423515.9036127,237
1659104158.44836,423515.903616,600
1659104158.44836,423515.9036192,953
1659104158.44836,423515.9036224,869
1659104158.44836,423515.9036257,163
1659104158.44836,423515.903629,-525
1659104158.44836,423515.9036326,-516
1659104158.44836,423515.9036361,-168
1659104158.44836,423515.9036393,12
1659104158.44836,423515.9036427,84
1659104158.44836,423515.9036459,120
1659104158.44836,423515.9036492,117
1659104158.44836,423515.9036525,134
1659104158.44836,423515.9036558,160
1659104158.44836,423515.9036592,168
1659104158.44836,423515.9036624,177
1659104158.44836,423515.9036656,187
1659104158.44836,423515.903669,194
1659104158.45833,423515.9036723,208
1659104158.45833,423515.9036757,225
1659104158.45833,423516.4896125,242
1659104158.45833,423516.4896319,264
1659104158.45833,423516.4896412,283
1659104158.45833,423516.4896482,295
1659104158.45833,423516.4896555,312
1659104158.45833,423516.4896626,336
1659104158.45833,423516.4896694,364
1659104158.45833,423516.4896765,391
1659104158.45833,423516.4896838,386
1659104158.45833,423516.4896944,367
1659104158.45833,423516.4897032,362
1659104158.45833,423516.4897094,350
1659104158.45833,423516.4897142,316
1659104158.45833,423516.4897194,273
1659104158.45833,423516.4897263,211
1659104158.45833,423516.4897331,127
1659104158.45833,423516.4897381,57
1659104158.45833,423516.4897452,14
1659104158.45833,423516.4897519,-19
1659104158.45833,423516.4897583,-40
1659104158.45833,423516.4897638,-45
1659104158.45833,423516.4897686,-50
1659104158.93664,423516.4897731,-67
1659104158.93664,423516.4897777,-74
1659104158.93664,423516.4897823,-57
1659104158.93664,423516.4897871,-36
1659104158.93664,423516.4897916,-28
1659104158.93664,423516.4897961,-31
1659104158.93664,423516.4898006,-16
1659104158.93664,423516.4898055,2
1659104158.93664,423516.4898099,12
1659104158.93664,423516.48983,24
1659104158.93664,423516.4898465,38
1659104158.93664,423516.4898548,38
1659104158.93664,423516.4898649,31
1659104158.93664,423516.489872,38
1659104158.93664,423516.4898858,52
1659104158.93664,423516.4898997,60
1659104158.93664,423516.4899124,64
1659104158.93664,423516.4899225,69
1659104158.93664,423516.4899358,62
1659104158.93664,423516.4899492,64
1659104158.93664,423516.4899625,74
1659104158.93664,423516.4899757,74
1659104158.93664,423516.4899848,69
1659104158.93664,423516.4899889,74
1659104158.93664,423516.4900016,76
1659104158.93664,423516.4900106,74
1659104158.93664,423516.4900213,79
1659104158.93664,423516.4900311,88
1659104158.93664,423516.4900356,93
1659104158.93664,423516.4900398,96
1659104158.93664,423516.4900452,103
1659104158.93664,423516.4900492,105
1659104158.93664,423516.4900553,105
1659104158.93664,423516.4900594,108
1659104158.93664,423516.4900654,120
1659104158.93664,423516.4900694,132
1659104158.93664,423516.4900736,139
1659104158.93664,423516.4900781,151
1659104158.93664,423516.4900847,163
1659104158.93664,423516.4900894,160
1659104158.93664,423516.490094,141
1659104158.93664,423516.4900985,124
1659104158.93664,423516.4901031,124
1659104158.93664,423516.4901068,124
1659104158.93664,423516.4901102,122
1659104158.93664,423516.4901135,124
1659104158.93664,423516.4901175,124
1659104158.93664,423516.4901219,120
1659104158.93664,423516.4901253,117
1659104158.93664,423516.4901289,127
1659104158.94861,423516.4901327,252
1659104158.94861,423516.9761039,604
1659104158.94861,423516.9761179,1020
1659104158.94861,423516.9761225,1034
1659104158.94861,423516.9761255,328
1659104158.94861,423516.9761284,-516
1659104158.94861,423516.9761313,-621
1659104158.94861,423516.9761341,-247
1659104158.94861,423516.9761369,-43
1659104158.94861,423516.9761397,38
1659104158.94861,423516.9761425,100
1659104158.94861,423516.9761453,100
1659104158.94861,423516.9761481,98
1659104158.94861,423516.9761509,120
1659104158.94861,423516.9761536,124
1659104158.94861,423516.9761564,117
1659104158.94861,423516.9761591,117
1659104158.94861,423516.9761618,129
1659104158.94861,423516.9761646,139
1659104158.94861,423516.9761673,136
1659104158.94861,423516.97617,134
1659104158.94861,423516.9761727,146
1659104158.94861,423516.9761753,172
1659104158.94861,423516.976178,194
1659104159.52328,423516.9761806,216
1659104159.52328,423516.9761834,237
1659104159.52328,423516.976186,247
1659104159.52328,423516.9761887,259
1659104159.52328,423516.976191,276
1659104159.52328,423516.976193,285
1659104159.52328,423516.9761949,283
1659104159.52328,423516.9761969,266
1659104159.52328,423516.9761991,228
1659104159.52328,423516.9762015,182
1659104159.52328,423516.9762037,132
1659104159.52328,423516.9762059,62
1659104159.52328,423516.9762081,-12
1659104159.52328,423516.9762102,-62
1659104159.52328,423516.9762123,-100
1659104159.52328,423516.9762175,-132
1659104159.52328,423516.9762262,-144
1659104159.52328,423516.9762364,-144
1659104159.52328,423516.9762434,-139
1659104159.52328,423516.9762539,-134
1659104159.52328,423516.9762573,-127
1659104159.52328,423516.976261,-124
1659104159.52328,423516.976263,-112
1659104159.52328,423516.9762651,-100
1659104159.52328,423516.9762672,-91
1659104159.52328,423516.9762694,-81
1659104159.52328,423516.9762714,-76
1659104159.52328,423516.9762734,-74
1659104159.52328,423516.9762755,-67
1659104159.52328,423516.9762775,-57
1659104159.52328,423516.9762796,-45
1659104159.52328,423516.9762817,-40
1659104159.52328,423516.9762837,-40
1659104159.52328,423516.9762857,-43
1659104159.52328,423516.9762877,-43
1659104159.52328,423516.9762898,-38
1659104159.52328,423516.9762918,-36
1659104159.52328,423516.9762938,-33
1659104159.52328,423516.9762959,-31
1659104159.52328,423516.9762979,-31
1659104159.52328,423516.9763,-31
1659104159.52328,423516.9763021,-26
1659104159.52328,423516.9763049,-19
1659104159.52328,423516.976313,-19
1659104159.52328,423516.9763251,-26
1659104159.52328,423516.9763303,-28
1659104159.52328,423516.9763324,-21
1659104159.52328,423516.9763344,-19
1659104159.52328,423516.9763364,-14
1659104159.52328,423516.9763385,-7
1659104159.53425,423517.56098,-2
1659104159.53425,423517.5610011,-2
1659104159.53425,423517.561013,-7
1659104159.53425,423517.5610192,-4
1659104159.53425,423517.5610241,12
1659104159.53425,423517.5610284,31
1659104159.53425,423517.5610326,33
1659104159.53425,423517.5610377,24
1659104159.53425,423517.5610421,21
1659104159.53425,423517.5610462,12
1659104159.53425,423517.5610505,-12
1659104159.53425,423517.5610551,-16
1659104159.53425,423517.5610591,-12
1659104159.53425,423517.5610637,-16
1659104159.53425,423517.561068,-26
1659104159.53425,423517.5610794,-31
1659104159.53425,423517.5611319,-36
1659104159.53425,423517.561143,-26
1659104159.53425,423517.5611534,-16
1659104159.53425,423517.5611599,-9
1659104159.53425,423517.5611715,105
1659104159.53425,423517.5611767,408
1659104159.53425,423517.561179,770
1659104159.53425,423517.5611812,842
1659104160.05552,423517.5611832,290
1659104160.05552,423517.5611866,-518
1659104160.05552,423517.5611981,-720
1659104160.05552,423517.5612032,-364
1659104160.05552,423517.5612137,-117
1659104160.05552,423517.5612229,-40
1659104160.05552,423517.5612319,9
1659104160.05552,423517.5612413,19
1659104160.05552,423517.5612551,19
1659104160.05552,423517.5612697,48
1659104160.05552,423517.5612794,62
1659104160.05552,423517.561282,69
1659104160.05552,423517.5612842,86
1659104160.05552,423517.5612862,96
1659104160.05552,423517.5612884,105
1659104160.05552,423517.5612904,127
1659104160.05552,423517.5612925,139
1659104160.05552,423517.5612946,146
1659104160.05552,423517.5612965,160
1659104160.05552,423517.5612996,177
1659104160.05552,423517.5613016,194
1659104160.05552,423517.5613044,218
1659104160.05552,423517.5613065,244
1659104160.05552,423517.5613086,261
1659104160.05552,423517.5613108,276
1659104160.05552,423517.5613129,288
1659104160.05552,423517.561315,292
1659104160.05552,423517.5613171,290
1659104160.05552,423517.5613191,273
1659104160.05552,423517.5613212,232
1659104160.05552,423517.5613232,177
1659104160.05552,423517.5613253,115
1659104160.05552,423517.5613279,52
1659104160.05552,423517.56133,0
1659104160.05552,423517.5613321,-45
1659104160.05552,423517.5613342,-79
1659104160.05552,423517.5613363,-93
1659104160.05552,423517.5613383,-100
1659104160.05552,423517.5613403,-98
1659104160.05552,423517.5613424,-91
1659104160.05552,423517.5613445,-81
1659104160.05552,423517.5613466,-76
1659104160.05552,423517.5613486,-72
1659104160.05552,423517.5613507,-62
1659104160.05552,423517.5613543,-50
1659104160.05552,423517.5613586,-36
1659104160.05552,423517.5613629,-28
1659104160.05552,423517.561369,-26
1659104160.05552,423517.5613734,-31
1659104160.05552,423518.0970835,-31
1659104160.06749,423518.0971016,-19
1659104160.06749,423518.0971275,-12
1659104160.06749,423518.0971415,-9
1659104160.06749,423518.0971487,0
1659104160.06749,423518.097154,4
1659104160.06749,423518.097161,-4
1659104160.06749,423518.0971667,0
1659104160.06749,423518.0971737,14
1659104160.06749,423518.0971776,14
1659104160.06749,423518.0971819,9
1659104160.06749,423518.0971882,2
1659104160.06749,423518.0971952,-12
1659104160.06749,423518.0971994,-14
1659104160.06749,423518.0972128,0
1659104160.06749,423518.097351,4
1659104160.06749,423518.097362,0
1659104160.06749,423518.0973672,-4
1659104160.06749,423518.0973763,-21
1659104160.06749,423518.0973821,-28
1659104160.06749,423518.0973906,-14
1659104160.06749,423518.0973978,-7
1659104160.06749,423518.0974059,-4
1659104160.06749,423518.0974102,2
1659104160.06749,423518.0974172,-2
1659104160.64619,423518.0974245,0
1659104160.64619,423518.0974311,24
1659104160.64619,423518.0974361,43
1659104160.64619,423518.097442,55
1659104160.64619,423518.0974471,67
1659104160.64619,423518.0974534,72
1659104160.64619,423518.09746,55
1659104160.64619,423518.097464,40
1659104160.64619,423518.0974674,38
1659104160.64619,423518.0974703,36
1659104160.64619,423518.0974734,28
1659104160.64619,423518.0974762,31
1659104160.64619,423518.097479,33
1659104160.64619,423518.0974819,33
1659104160.64619,423518.0974847,38
1659104160.64619,423518.0974875,43
1659104160.64619,423518.0974903,91
1659104160.64619,423518.0974932,304
1659104160.64619,423518.097496,679
1659104160.64619,423518.0974988,933
1659104160.64619,423518.0975016,655
1659104160.64619,423518.0975129,-124
1659104160.64619,423518.0975227,-621
1659104160.64619,423518.0975378,-448
1659104160.64619,423518.0975491,-146
1659104160.64619,423518.097558,-14
1659104160.64619,423518.097567,57
1659104160.64619,423518.0975787,81
1659104160.64619,423518.0975931,76
1659104160.64619,423518.0976066,96
1659104160.64619,423518.0976197,103
1659104160.64619,423518.0976322,100
1659104160.64619,423518.0976423,115
1659104160.64619,423518.0976542,132
1659104160.64619,423518.0976617,139
1659104160.64619,423518.0976759,148
1659104160.64619,423518.0976829,165
1659104160.64619,423518.097689,182
1659104160.64619,423518.097696,196
1659104160.64619,423518.0976998,208
1659104160.64619,423518.0977041,218
1659104160.64619,423518.0977076,240
1659104160.64619,423518.0977152,266
1659104160.64619,423518.0977198,290
1659104160.64619,423518.097723,312
1659104160.64619,423518.0977302,333
1659104160.64619,423518.0977359,348
1659104160.64619,423518.0977423,348
1659104160.64619,423518.6828875,333
1659104160.64619,423518.6829042,309
1659104160.65816,423518.6829113,268
1659104160.65816,423518.6829153,213
1659104160.65816,423518.682919,148
1659104160.65816,423518.6829233,86
1659104160.65816,423518.682927,43
1659104160.65816,423518.6829304,14
1659104160.65816,423518.682936,-24
1659104160.65816,423518.6829399,-60
1659104160.65816,423518.6829433,-62
1659104160.65816,423518.6829467,-52
1659104160.65816,423518.6829499,-45
1659104160.65816,423518.6829534,-36
1659104160.65816,423518.6829567,-31
1659104160.65816,423518.6829605,-36
1659104160.65816,423518.6829639,-33
1659104160.65816,423518.6829673,-24
1659104160.65816,423518.6829729,-12
1659104160.65816,423518.6829766,4
1659104160.65816,423518.6829819,16
1659104160.65816,423518.6829856,21
1659104160.65816,423518.6829909,26
1659104160.65816,423518.6829946,33
1659104160.65816,423518.6829998,38
1659104160.65816,423518.6830033,48
1659104161.23766,423518.6830087,52
1659104161.23766,423518.6830122,48
1659104161.23766,423518.6830159,48
1659104161.23766,423518.6830195,57
1659104161.23766,423518.6830229,64
1659104161.23766,423518.6830262,67
1659104161.23766,423518.6830297,74
1659104161.23766,423518.6830335,81
1659104161.23766,423518.6830373,79
1659104161.23766,423518.6830411,84
1659104161.23766,423518.6830448,96
1659104161.23766,423518.6830483,103
1659104161.23766,423518.6830521,105
1659104161.23766,423518.6830557,105
1659104161.23766,423518.6830592,108
1659104161.23766,423518.6830628,112
1659104161.23766,423518.6830668,115
1659104161.23766,423518.6830704,115
1659104161.23766,423518.6830737,124
1659104161.23766,423518.6830781,136
1659104161.23766,423518.6830821,144
1659104161.23766,423518.6830877,144
1659104161.23766,423518.6830916,146
1659104161.23766,423518.6830949,158
1659104161.23766,423518.6830985,172
1659104161.23766,423518.6831038,165
1659104161.23766,423518.6831084,139
1659104161.23766,423518.6831146,124
1659104161.23766,423518.6831183,129
1659104161.23766,423518.6831236,132
1659104161.23766,423518.6831271,120
1659104161.23766,423518.683132,110
1659104161.23766,423518.6831371,115
1659104161.23766,423518.6831405,115
1659104161.23766,423518.6831438,108
1659104161.23766,423518.6831481,165
1659104161.23766,423518.6831531,424
1659104161.23766,423518.6831563,854
1659104161.23766,423518.6831595,1106
1659104161.23766,423518.683163,722
1659104161.23766,423518.683168,-177
1659104161.23766,423518.6831716,-648
1659104161.23766,423518.683177,-396
1659104161.23766,423518.6831816,-88
1659104161.23766,423518.6831851,31
1659104161.23766,423518.6831888,108
1659104161.23766,423518.683194,120
1659104161.23766,423519.2677676,98
1659104161.23766,423519.2677816,120
1659104161.23766,423519.2677861,148
1659104161.24963,423519.2677883,151
1659104161.24963,423519.2677903,151
1659104161.24963,423519.2677923,146
1659104161.24963,423519.2677943,136
1659104161.24963,423519.2677964,146
1659104161.24963,423519.2677986,170
1659104161.24963,423519.2678008,182
1659104161.24963,423519.2678055,194
1659104161.24963,423519.267816,204
1659104161.24963,423519.2678246,206
1659104161.24963,423519.2678333,218
1659104161.24963,423519.2678397,252
1659104161.24963,423519.267842,283
1659104161.24963,423519.2678441,295
1659104161.24963,423519.2678481,307
1659104161.24963,423519.2678557,314
1659104161.24963,423519.2678672,307
1659104161.24963,423519.2678733,290
1659104161.24963,423519.2678777,268
1659104161.24963,423519.2678832,220
1659104161.24963,423519.2678895,153
1659104161.24963,423519.2678944,84
1659104161.24963,423519.2679005,24
1659104161.24963,423519.2679074,-19
1659104161.76869,423519.2679138,-52
1659104161.76869,423519.2679185,-74

1659104161.76869,423519.2679237,-81
1659104161.76869,423519.2679305,-88
1659104161.76869,423519.2679377,-93
1659104161.76869,423519.2679447,-91
1659104161.76869,423519.2679506,-79
1659104161.76869,423519.2679542,-72
1659104161.76869,423519.2679571,-67
1659104161.76869,423519.2679602,-60
1659104161.76869,423519.2679637,-50
1659104161.76869,423519.2679682,-43
1659104161.76869,423519.2679751,-36
1659104161.76869,423519.2679802,-31
1659104161.76869,423519.2679864,-28
1659104161.76869,423519.2679935,-21
1659104161.76869,423519.2680004,-19
1659104161.76869,423519.2680049,-16
1659104161.76869,423519.2680109,-14
1659104161.76869,423519.2680189,-14
1659104161.76869,423519.2680264,-14
1659104161.76869,423519.2680373,-12
1659104161.76869,423519.2680538,-24
1659104161.76869,423519.2680654,-36
1659104161.76869,423519.2680799,-31
1659104161.76869,423519.2680903,-26
1659104161.76869,423519.2680979,-24
1659104161.76869,423519.2681018,-21
1659104161.76869,423519.2681081,-16
1659104161.76869,423519.2681141,-14
1659104161.76869,423519.2681219,-16
1659104161.76869,423519.2681304,-16
1659104161.76869,423519.2681354,-9
1659104161.76869,423519.2681498,-7
1659104161.76869,423519.2681638,-9
1659104161.76869,423519.2681765,-14
1659104161.76869,423519.2681875,-12
1659104161.76869,423519.2682005,-2
1659104161.76869,423519.2682144,7
1659104161.76869,423519.268228,16
1659104161.76869,423519.2682407,31
1659104161.76869,423519.2682492,36
1659104161.76869,423519.2682549,19
1659104161.76869,423519.2682772,-2
1659104161.76869,423519.2682896,-2
1659104161.76869,423519.268302,4
1659104161.76869,423519.8046462,4
1659104161.76869,423519.8046695,4
1659104161.76869,423519.8046829,4
1659104161.76869,423519.8046901,2
1659104161.77966,423519.8047015,4
1659104161.77966,423519.8047115,14
1659104161.77966,423519.8047164,96
1659104161.77966,423519.8047218,360
1659104161.77966,423519.8047292,729
1659104161.77966,423519.8047386,876
1659104161.77966,423519.8047485,417
1659104161.77966,423519.8047616,-427
1659104161.77966,423519.8047753,-765
1659104161.77966,423519.8047869,-453
1659104161.77966,423519.8048005,-170
1659104161.77966,423519.8048093,-100
1659104161.77966,423519.8048159,-48
1659104161.77966,423519.804829,-21
1659104161.77966,423519.8048379,-24
1659104161.77966,423519.8048423,0
1659104161.77966,423519.8048522,21
1659104161.77966,423519.8048811,21
1659104161.77966,423519.8048887,26
1659104161.77966,423519.8048968,38
1659104161.77966,423519.8049012,55
1659104161.77966,423519.8049074,74
1659104161.77966,423519.8049143,88
1659104161.77966,423519.80492,100
1659104162.30194,423519.804924,120
1659104162.30194,423519.8049274,146
1659104162.30194,423519.804931,172
1659104162.30194,423519.804942,199
1659104162.30194,423519.8049481,225
1659104162.30194,423519.8049518,247
1659104162.30194,423519.8049554,266
1659104162.30194,423519.8049592,276
1659104162.30194,423519.8049646,285
1659104162.30194,423519.8049715,285
1659104162.30194,423519.8049756,268
1659104162.30194,423519.8049822,235
1659104162.30194,423519.8049873,182
1659104162.30194,423519.8050216,112
1659104162.30194,423519.8050369,40
1659104162.30194,423519.8050483,-16
1659104162.30194,423519.805058,-57
1659104162.30194,423519.8050657,-84
1659104162.30194,423519.8050714,-103
1659104162.30194,423519.8051377,-110
1659104162.30194,423519.8051507,-105
1659104162.30194,423519.8051613,-100
1659104162.30194,423519.8051747,-93
1659104162.30194,423519.8051879,-86
1659104162.30194,423519.8052011,-76
1659104162.30194,423519.8052143,-69
1659104162.30194,423519.8052276,-67
1659104162.30194,423519.8052407,-64
1659104162.30194,423519.8052542,-55
1659104162.30194,423519.805264,-43
1659104162.30194,423519.8052666,-33
1659104162.30194,423519.8052688,-26
1659104162.30194,423519.8052709,-24
1659104162.30194,423519.805273,-16
1659104162.30194,423519.8052752,-9
1659104162.30194,423519.8052772,-2
1659104162.30194,423519.8052794,2
1659104162.30194,423519.8052814,4
1659104162.30194,423519.8052835,2
1659104162.30194,423519.8052856,4
1659104162.30194,423519.8052876,9
1659104162.30194,423519.8052897,12
1659104162.30194,423519.8052919,12
1659104162.30194,423519.8052939,14
1659104162.30194,423519.8052959,19
1659104162.30194,423520.3417343,24
1659104162.30194,423520.341752,21
1659104162.30194,423520.3417606,16
1659104162.30194,423520.3417658,21
1659104162.30194,423520.3417723,31
1659104162.32161,423520.3417772,28
1659104162.32161,423520.3417837,26
1659104162.32161,423520.3417882,31
1659104162.32161,423520.3417925,45
1659104162.32161,423520.3417989,52
1659104162.32161,423520.3418055,55
1659104162.32161,423520.3418101,60
1659104162.32161,423520.341816,60
1659104162.32161,423520.3418202,45
1659104162.32161,423520.3418245,24
1659104162.32161,423520.3418304,12
1659104162.32161,423520.3418346,16
1659104162.32161,423520.3418403,9
1659104162.32161,423520.3418455,-7
1659104162.32161,423520.3418511,-9
1659104162.32161,423520.3418551,-2
1659104162.32161,423520.341859,-4
1659104162.32161,423520.3418646,-9
1659104162.32161,423520.3418685,0
1659104162.32161,423520.341874,105
1659104162.32161,423520.3418781,408
1659104162.32161,423520.3418821,777
1659104162.32161,423520.341888,818
1659104162.32161,423520.3418922,223
1659104162.97977,423520.3418976,-540
1659104162.97977,423520.3419017,-669
1659104162.97977,423520.3419056,-336
1659104162.97977,423520.3419097,-115
1659104162.97977,423520.3419136,-31
1659104162.97977,423520.3419179,9
1659104162.97977,423520.3419219,2
1659104162.97977,423520.3419259,14
1659104162.97977,423520.3419304,38
1659104162.97977,423520.3419359,45
1659104162.97977,423520.3419408,57
1659104162.97977,423520.341947,76
1659104162.97977,423520.3419547,91
1659104162.97977,423520.3419629,105
1659104162.97977,423520.3419725,120
1659104162.97977,423520.3419828,134
1659104162.97977,423520.3419895,144
1659104162.97977,423520.3420029,158
1659104162.97977,423520.3420122,180
1659104162.97977,423520.3420178,208
1659104162.97977,423520.3420235,230
1659104162.97977,423520.3420275,247
1659104162.97977,423520.3420313,273
1659104162.97977,423520.3420366,302
1659104162.97977,423520.3420407,312
1659104162.97977,423520.3420465,312
1659104162.97977,423520.3420505,307
1659104162.97977,423520.3420562,285
1659104162.97977,423520.3420612,249
1659104162.97977,423520.3420668,204
1659104162.97977,423520.3420709,141
1659104162.97977,423520.3420762,76
1659104162.97977,423520.3420814,26
1659104162.97977,423520.3420915,-14
1659104162.97977,423520.3421017,-43
1659104162.97977,423520.3421087,-55
1659104162.97977,423520.3421427,-60
1659104162.97977,423520.3421538,-60
1659104162.97977,423520.3421599,-55
1659104162.97977,423520.3421657,-48
1659104162.97977,423520.3421723,-40
1659104162.97977,423520.342178,-31
1659104162.97977,423520.3421826,-16
1659104162.97977,423520.3421861,-2
1659104162.97977,423521.0227872,7
1659104162.97977,423521.0228067,12
1659104162.97977,423521.022817,16
1659104162.97977,423521.0228257,21
1659104162.97977,423521.022832,26
1659104162.97977,423521.0228451,26
1659104162.99044,423521.0228515,33
1659104162.99044,423521.0228538,40
1659104162.99044,423521.022856,28
1659104162.99044,423521.022858,14
1659104162.99044,423521.02286,21
1659104162.99044,423521.022862,33
1659104162.99044,423521.0228641,31
1659104162.99044,423521.0228661,31
1659104162.99044,423521.0228737,36
1659104162.99044,423521.0228845,36
1659104162.99044,423521.022888,40
1659104162.99044,423521.0228917,52
1659104162.99044,423521.0228938,55
1659104162.99044,423521.0228961,57
1659104162.99044,423521.0229054,57
1659104162.99044,423521.0229145,45
1659104162.99044,423521.0229171,36
1659104162.99044,423521.0229211,48
1659104162.99044,423521.0229241,50
1659104162.99044,423521.0229329,50
1659104162.99044,423521.0229432,64
1659104162.99044,423521.0229475,64
1659104162.99044,423521.0229512,55
1659104162.99044,423521.0229547,79
1659104163.4676,423521.0229583,108
1659104163.4676,423521.0229618,105
1659104163.4676,423521.0229653,81
1659104163.4676,423521.0229689,72
1659104163.4676,423521.0229723,79
1659104163.4676,423521.0229756,81
1659104163.4676,423521.022979,79
1659104163.4676,423521.0229837,81
1659104163.4676,423521.0229868,88
1659104163.4676,423521.022991,88
1659104163.4676,423521.0229966,76
1659104163.4676,423521.0230038,69
1659104163.4676,423521.0230098,153
1659104163.4676,423521.0230142,453
1659104163.4676,423521.0230182,873
1659104163.4676,423521.0230242,1015
1659104163.4676,423521.0230314,475
1659104163.4676,423521.0230558,-384
1659104163.4676,423521.0230629,-640
1659104163.4676,423521.0230678,-314
1659104163.4676,423521.0230714,-55
1659104163.4676,423521.0230762,60
1659104163.4676,423521.0230796,129
1659104163.4676,423521.0230829,129
1659104163.4676,423521.0230863,132
1659104163.4676,423521.0230896,163
1659104163.4676,423521.023093,175
1659104163.4676,423521.0230964,180
1659104163.4676,423521.0230998,194
1659104163.4676,423521.0231032,204
1659104163.4676,423521.0231066,218
1659104163.4676,423521.0231099,240
1659104163.4676,423521.0231132,252
1659104163.4676,423521.0231166,264
1659104163.4676,423521.0231199,285
1659104163.4676,423521.0231232,307
1659104163.4676,423521.0231266,319
1659104163.4676,423521.0231319,336
1659104163.4676,423521.0231367,362
1659104163.4676,423521.02314,384
1659104163.4676,423521.0231434,403
1659104163.4676,423521.0231482,417
1659104163.4676,423521.0231516,417
1659104163.4676,423521.5118599,408
1659104163.4676,423521.5118799,393
1659104163.4676,423521.5118884,364
1659104163.4676,423521.5118957,316
1659104163.4676,423521.5118987,256
1659104163.4676,423521.5119017,182
1659104163.4676,423521.5119053,112
1659104163.47857,423521.5119111,76
1659104163.47857,423521.5119142,57
1659104163.47857,423521.511917,38
1659104163.47857,423521.5119198,33
1659104163.47857,423521.5119228,26
1659104163.47857,423521.5119257,2
1659104163.47857,423521.5119285,-4
1659104163.47857,423521.5119314,16
1659104163.47857,423521.5119343,31
1659104163.47857,423521.5119371,40
1659104163.47857,423521.51194,52
1659104163.47857,423521.5119428,50
1659104163.47857,423521.5119456,40
1659104163.47857,423521.5119485,50
1659104163.47857,423521.5119514,64
1659104163.47857,423521.5119543,62
1659104163.47857,423521.5119572,57
1659104163.47857,423521.5119601,50
1659104163.47857,423521.5119629,43
1659104163.47857,423521.5119658,45
1659104163.47857,423521.5119687,48
1659104163.47857,423521.5119715,43
1659104163.47857,423521.5119744,40
1659104163.47857,423521.5119773,43
1659104163.95747,423521.5119806,40
1659104163.95747,423521.511989,45
1659104163.95747,423521.5119958,55
1659104163.95747,423521.5120025,60
1659104163.95747,423521.5120095,60
1659104163.95747,423521.5120142,62
1659104163.95747,423521.5120194,57
1659104163.95747,423521.5120255,48
1659104163.95747,423521.5120328,48
1659104163.95747,423521.5120394,64
1659104163.95747,423521.5120457,74
1659104163.95747,423521.5120516,72
1659104163.95747,423521.5120576,76
1659104163.95747,423521.512064,91
1659104163.95747,423521.5120705,91
1659104163.95747,423521.5120767,74
1659104163.95747,423521.512085,52
1659104163.95747,423521.5120912,48
1659104163.95747,423521.5120992,48
1659104163.95747,423521.5121072,43
1659104163.95747,423521.5121152,45
1659104163.95747,423521.5121223,50
1659104163.95747,423521.512128,50
1659104163.95747,423521.5121374,48
1659104163.95747,423521.5121432,55
1659104163.95747,423521.5121462,175
1659104163.95747,423521.512149,520
1659104163.95747,423521.5121518,936
1659104163.95747,423521.5121547,953
1659104163.95747,423521.5121581,230
1659104163.95747,423521.5121639,-631
1659104163.95747,423521.5121669,-725
1659104163.95747,423521.5121698,-336
1659104163.95747,423521.5121726,-122
1659104163.95747,423521.5121755,-24
1659104163.95747,423521.5121783,48
1659104163.95747,423521.5121812,38
1659104163.95747,423521.512184,33
1659104163.95747,423521.512187,64
1659104163.95747,423521.5121899,74
1659104163.95747,423521.5121927,72
1659104163.95747,423521.5121962,86
1659104163.95747,423521.9975311,103
1659104163.95747,423521.9975498,110
1659104163.95747,423521.9975596,120
1659104163.95747,423521.9975665,134
1659104163.95747,423521.9975729,151
1659104163.95747,423521.9975777,165
1659104163.95747,423521.997585,184
1659104163.95747,423521.9975897,204
1659104163.96844,423521.9975944,213
1659104163.96844,423521.9976012,218
1659104163.96844,423521.9976063,237
1659104163.96844,423521.9976124,254
1659104163.96844,423521.9976171,252
1659104163.96844,423521.9976234,249
1659104163.96844,423521.9976413,242
1659104163.96844,423521.9976485,211
1659104163.96844,423521.9976544,165
1659104163.96844,423521.9976591,112
1659104163.96844,423521.9976632,40
1659104163.96844,423521.9976706,-28
1659104163.96844,423521.9976761,-79
1659104163.96844,423521.9976802,-115
1659104163.96844,423521.9976848,-144
1659104163.96844,423521.9976903,-156
1659104163.96844,423521.9976964,-156
1659104163.96844,423521.9977018,-153
1659104163.96844,423521.9977065,-153
1659104163.96844,423521.9977109,-160
1659104163.96844,423521.9977155,-168
1659104163.96844,423521.9977191,-158
1659104163.96844,423521.9977223,-141
1659104163.96844,423521.9977269,-132
1659104164.59224,423521.9977325,-122
1659104164.59224,423521.9977356,-112
1659104164.59224,423521.9977387,-108
1659104164.59224,423521.9977419,-105
1659104164.59224,423521.9977451,-96
1659104164.59224,423521.9977485,-91
1659104164.59224,423521.9977521,-84
1659104164.59224,423521.9977558,-74
1659104164.59224,423521.9977621,-72
1659104164.59224,423521.997768,-76
1659104164.59224,423521.9977719,-74
1659104164.59224,423521.9977753,-64
1659104164.59224,423521.9977793,-57
1659104164.59224,423521.9977829,-60
1659104164.59224,423521.9977861,-60
1659104164.59224,423521.9977895,-60
1659104164.59224,423521.9977929,-55
1659104164.59224,423521.9977961,-48
1659104164.59224,423521.9977992,-43
1659104164.59224,423521.9978024,-45
1659104164.59224,423521.9978059,-55
1659104164.59224,423521.9978092,-52
1659104164.59224,423521.9978125,-31
1659104164.59224,423521.9978158,-16
1659104164.59224,423521.9978191,-14
1659104164.59224,423521.9978225,0
1659104164.59224,423521.997826,14
1659104164.59224,423521.9978302,2
1659104164.59224,423521.9978364,-24
1659104164.59224,423521.9978398,-26
1659104164.59224,423521.9978432,-19
1659104164.59224,423521.9978466,-21
1659104164.59224,423521.9978501,-21
1659104164.59224,423521.9978532,-19
1659104164.59224,423521.9978571,-19
1659104164.59224,423521.9978606,-14
1659104164.59224,423521.9978642,-9
1659104164.59224,423521.9978678,2
1659104164.59224,423521.9978714,127
1659104164.59224,423521.9978749,453
1659104164.59224,423521.9978783,818
1659104164.59224,423522.6308277,833
1659104164.59224,423522.6308471,201
1659104164.59224,423522.6308546,-578
1659104164.59224,423522.6308621,-681
1659104164.59224,423522.6308672,-328
1659104164.59224,423522.6308742,-141
1659104164.59224,423522.6308796,-79
1659104164.59224,423522.6308863,-24
1659104164.59224,423522.6308916,-21
1659104164.60221,423522.6308985,-28
1659104164.60221,423522.6309037,-19
1659104164.60221,423522.6309109,-21
1659104164.60221,423522.6309159,-33
1659104164.60221,423522.6309216,-19
1659104164.60221,423522.6309255,0
1659104164.60221,423522.630931,9
1659104164.60221,423522.6309374,24
1659104164.60221,423522.630943,43
1659104164.60221,423522.6309468,52
1659104164.60221,423522.6309516,72
1659104164.60221,423522.6309571,105
1659104164.60221,423522.6309622,129
1659104164.60221,423522.630968,153
1659104164.60221,423522.6309724,182
1659104164.60221,423522.6309776,199
1659104164.60221,423522.6309815,211
1659104164.60221,423522.6309855,230
1659104164.60221,423522.6309909,237
1659104164.60221,423522.630995,225
1659104164.60221,423522.630999,206
1659104164.60221,423522.6310047,172
1659104164.60221,423522.6310096,120
1659104164.60221,423522.6310148,57
1659104165.17429,423522.6310195,0
1659104165.17429,423522.6310228,-45
1659104165.17429,423522.6310261,-81
1659104165.17429,423522.6310293,-105
1659104165.17429,423522.6310329,-120
1659104165.17429,423522.6310367,-120
1659104165.17429,423522.6310406,-117
1659104165.17429,423522.6310443,-112
1659104165.17429,423522.6310481,-103
1659104165.17429,423522.6310526,-100
1659104165.17429,423522.6310563,-100
1659104165.17429,423522.6310597,-86
1659104165.17429,423522.6310631,-74
1659104165.17429,423522.6310664,-72
1659104165.17429,423522.6310698,-62
1659104165.17429,423522.6310734,-48
1659104165.17429,423522.6310772,-43
1659104165.17429,423522.6310809,-36
1659104165.17429,423522.6310846,-28
1659104165.17429,423522.6310884,-28
1659104165.17429,423522.631092,-24
1659104165.17429,423522.6310955,-12
1659104165.17429,423522.6310998,-12
1659104165.17429,423522.6311037,-19
1659104165.17429,423522.6311075,-16
1659104165.17429,423522.6311111,-12
1659104165.17429,423522.6311148,-7
1659104165.17429,423522.6311186,-2
1659104165.17429,423522.6311226,2
1659104165.17429,423522.6311263,4
1659104165.17429,423522.6311303,7
1659104165.17429,423522.6311341,12
1659104165.17429,423522.631138,19
1659104165.17429,423522.6311415,21
1659104165.17429,423522.6311448,36
1659104165.17429,423522.6311481,50
1659104165.17429,423522.6311514,50
1659104165.17429,423522.6311553,52
1659104165.17429,423522.6311589,60
1659104165.17429,423522.6311626,62
1659104165.17429,423523.2159481,52
1659104165.17429,423523.215963,28
1659104165.17429,423523.2159669,14
1659104165.17429,423523.2159702,19
1659104165.17429,423523.2159732,24
1659104165.17429,423523.2159761,28
1659104165.17429,423523.2159791,36
1659104165.17429,423523.2159835,38
1659104165.17429,423523.215988,33
1659104165.17429,423523.2159977,28
1659104165.18526,423523.2160042,72
1659104165.18526,423523.2160066,268
1659104165.18526,423523.2160087,636
1659104165.18526,423523.2160106,924
1659104165.18526,423523.2160128,686
1659104165.18526,423523.216015,-108
1659104165.18526,423523.2160172,-655
1659104165.18526,423523.2160193,-484
1659104165.18526,423523.2160214,-151
1659104165.18526,423523.2160235,-7
1659104165.18526,423523.2160256,64
1659104165.18526,423523.2160276,72
1659104165.18526,423523.2160296,57
1659104165.18526,423523.2160364,91
1659104165.18526,423523.2160476,120
1659104165.18526,423523.2160508,124
1659104165.18526,423523.216053,139
1659104165.18526,423523.2160551,153
1659104165.18526,423523.2160572,158
1659104165.18526,423523.2160593,172
1659104165.18526,423523.2160653,189
1659104165.18526,423523.2160764,201
1659104165.18526,423523.2160797,213
1659104165.18526,423523.2160818,225
1659104165.76154,423523.2160839,240
1659104165.76154,423523.2160955,266
1659104165.76154,423523.2161023,295
1659104165.76154,423523.2161117,326
1659104165.76154,423523.2161219,352
1659104165.76154,423523.2161279,364
1659104165.76154,423523.2161321,367
1659104165.76154,423523.2161361,367
1659104165.76154,423523.21614,355
1659104165.76154,423523.2161439,328
1659104165.76154,423523.2161477,288
1659104165.76154,423523.2161512,240
1659104165.76154,423523.2161547,177
1659104165.76154,423523.2161585,115
1659104165.76154,423523.216165,74
1659104165.76154,423523.2161691,50
1659104165.76154,423523.2161727,28
1659104165.76154,423523.2161761,12
1659104165.76154,423523.2161794,9
1659104165.76154,423523.2161827,12
1659104165.76154,423523.2161871,19
1659104165.76154,423523.2161907,40
1659104165.76154,423523.2161943,50
1659104165.76154,423523.2162001,48
1659104165.76154,423523.216205,57
1659104165.76154,423523.2162106,69
1659104165.76154,423523.2162163,79
1659104165.76154,423523.2162205,91
1659104165.76154,423523.2162263,96
1659104165.76154,423523.216231,93
1659104165.76154,423523.2162367,86
1659104165.76154,423523.2162413,81
1659104165.76154,423523.2162473,81
1659104165.76154,423523.216251,86
1659104165.76154,423523.2162571,88
1659104165.76154,423523.2162609,93
1659104165.76154,423523.2162641,98
1659104165.76154,423523.2162751,98
1659104165.76154,423523.2162779,96
1659104165.76154,423523.8022138,105
1659104165.76154,423523.8022303,112
1659104165.76154,423523.8022363,105
1659104165.76154,423523.802245,100
1659104165.76154,423523.8022501,108
1659104165.76154,423523.8022579,98
1659104165.76154,423523.8022626,76
1659104165.76154,423523.8022692,115
1659104165.76154,423523.8022741,182
1659104165.76154,423523.8022803,194
1659104165.76154,423523.8022852,194
1659104165.77052,423523.8022917,199
1659104165.77052,423523.8022966,180
1659104165.77052,423523.8023015,180
1659104165.77052,423523.8023078,189
1659104165.77052,423523.8023126,172
1659104165.77052,423523.8023182,165
1659104165.77052,423523.8023228,170
1659104165.77052,423523.8023293,160
1659104165.77052,423523.8023346,144
1659104165.77052,423523.8023408,144
1659104165.77052,423523.8023458,153
1659104165.77052,423523.8023506,158
1659104165.77052,423523.8023567,158
1659104165.77052,423523.8023614,249
1659104165.77052,423523.8023683,554
1659104165.77052,423523.802373,1001
1659104165.77052,423523.8023792,1190
1659104165.77052,423523.802386,638
1659104165.77052,423523.8023925,-319
1659104165.77052,423523.8023973,-633
1659104165.77052,423523.8024035,-278
1659104165.77052,423523.8024086,-12
1659104165.77052,423523.8024155,93
1659104165.77052,423523.8024202,199
1659104166.24425,423523.8024268,213
1659104166.24425,423523.8024316,184
1659104166.24425,423523.8024369,208
1659104166.24425,423523.8024415,237
1659104166.24425,423523.8024462,237
1659104166.24425,423523.8024507,247
1659104166.24425,423523.8024553,271
1659104166.24425,423523.8024598,278
1659104166.24425,423523.802466,280
1659104166.24425,423523.8024723,295
1659104166.24425,423523.8024767,312
1659104166.24425,423523.802483,333
1659104166.24425,423523.802489,348
1659104166.24425,423523.8024936,364
1659104166.24425,423523.8024996,386
1659104166.24425,423523.8025039,396
1659104166.24425,423523.8025083,398
1659104166.24425,423523.8025129,415
1659104166.24425,423523.8025189,424
1659104166.24425,423523.8025234,415
1659104166.24425,423523.8025278,396
1659104166.24425,423523.8025331,367
1659104166.24425,423523.8025378,309
1659104166.24425,423523.8025439,232
1659104166.24425,423523.8025485,165
1659104166.24425,423523.8025546,98
1659104166.24425,423523.802559,31
1659104166.24425,423523.8025636,-12
1659104166.24425,423523.8025698,-38
1659104166.24425,423523.8025745,-60
1659104166.24425,423523.802579,-74
1659104166.24425,423523.8025851,-74
1659104166.24425,423523.8025904,-76
1659104166.24425,423523.8025969,-84
1659104166.24425,423523.8026016,-84
1659104166.24425,423523.8026076,-74
1659104166.24425,423523.8026122,-64
1659104166.24425,423523.8026184,-57
1659104166.24425,423524.2902446,-57
1659104166.24425,423524.2902652,-55
1659104166.24425,423524.2902805,-50
1659104166.24425,423524.2902954,-38
1659104166.24425,423524.2903103,-26
1659104166.24425,423524.290324,-21
1659104166.24425,423524.2903363,-16
1659104166.24425,423524.290344,-12
1659104166.24425,423524.2903504,-21
1659104166.24425,423524.290364,-43
1659104166.24425,423524.2903775,-36
1659104166.24425,423524.2903889,-19
1659104166.25323,423524.29044,-21
1659104166.25323,423524.2904482,-31
1659104166.25323,423524.2904539,-31
1659104166.25323,423524.2904585,-28
1659104166.25323,423524.2904619,-26
1659104166.25323,423524.2904653,-26
1659104166.25323,423524.2904687,-9
1659104166.25323,423524.2904729,4
1659104166.25323,423524.290478,0
1659104166.25323,423524.2904814,-16
1659104166.25323,423524.2904865,-7
1659104166.25323,423524.2904906,24
1659104166.25323,423524.2904945,16
1659104166.25323,423524.2905013,-14
1659104166.25323,423524.2905067,-12
1659104166.25323,423524.2905133,-4
1659104166.25323,423524.2905214,-2
1659104166.25323,423524.2905239,9
1659104166.25323,423524.2905262,12
1659104166.25323,423524.2905287,7
1659104166.25323,423524.2905308,9
1659104166.25323,423524.2905329,2
1659104166.25323,423524.2905349,45
1659104166.25323,423524.2905371,304
1659104166.93094,423524.2905391,756
1659104166.93094,423524.290541,1025
1659104166.93094,423524.2905431,602
1659104166.93094,423524.2905451,-336
1659104166.93094,423524.290547,-773
1659104166.93094,423524.2905489,-468
1659104166.93094,423524.2905549,-170
1659104166.93094,423524.2905645,-69
1659104166.93094,423524.2905742,26
1659104166.93094,423524.2905796,52
1659104166.93094,423524.2905829,26
1659104166.93094,423524.290585,38
1659104166.93094,423524.290587,50
1659104166.93094,423524.2905891,43
1659104166.93094,423524.2905912,45
1659104166.93094,423524.2905965,55
1659104166.93094,423524.2906078,64
1659104166.93094,423524.290613,79
1659104166.93094,423524.2906152,103
1659104166.93094,423524.2906177,124
1659104166.93094,423524.2906281,132
1659104166.93094,423524.2906362,146
1659104166.93094,423524.2906386,180
1659104166.93094,423524.2906407,206
1659104166.93094,423524.2906427,225
1659104166.93094,423524.2906505,249
1659104166.93094,423524.2906608,271
1659104166.93094,423524.2906642,280
1659104166.93094,423524.2906736,285
1659104166.93094,423524.2906819,276
1659104166.93094,423524.2906952,244
1659104166.93094,423524.2907088,201
1659104166.93094,423524.2907223,144
1659104166.93094,423524.2907357,67
1659104166.93094,423524.2907504,0
1659104166.93094,423524.2907632,-55
1659104166.93094,423524.2907718,-103
1659104166.93094,423524.9713283,-134
1659104166.93094,423524.9713418,-141
1659104166.93094,423524.9713451,-139
1659104166.93094,423524.9713505,-139
1659104166.93094,423524.9713529,-141
1659104166.93094,423524.9713554,-148
1659104166.93094,423524.9713577,-148
1659104166.93094,423524.97136,-141
1659104166.93094,423524.9713622,-132
1659104166.93094,423524.9713645,-124
1659104166.93094,423524.9713667,-115
1659104166.93094,423524.971369,-108
1659104166.93094,423524.9713712,-110
1659104166.94191,423524.9713734,-108
1659104166.94191,423524.9713756,-98
1659104166.94191,423524.9713778,-88
1659104166.94191,423524.97138,-84
1659104166.94191,423524.9713822,-84
1659104166.94191,423524.9713844,-93
1659104166.94191,423524.9713866,-100
1659104166.94191,423524.9713888,-86
1659104166.94191,423524.971391,-74
1659104166.94191,423524.9713932,-74
1659104166.94191,423524.9713955,-74
1659104166.94191,423524.9713978,-84
1659104166.94191,423524.9714,-84
1659104166.94191,423524.9714023,-69
1659104166.94191,423524.9714045,-57
1659104166.94191,423524.9714067,-48
1659104166.94191,423524.9714089,-31
1659104166.94191,423524.9714111,-24
1659104166.94191,423524.9714134,-28
1659104166.94191,423524.9714157,-14
1659104166.94191,423524.971418,9
1659104166.94191,423524.9714203,7
1659104166.94191,423524.9714224,-14
1659104166.94191,423524.9714246,-24
1659104167.32021,423524.9714268,-21
1659104167.32021,423524.9714289,-26
1659104167.32021,423524.9714309,-28
1659104167.32021,423524.971433,-21
1659104167.32021,423524.9714351,-16
1659104167.32021,423524.9714372,-33
1659104167.32021,423524.9714392,-40
1659104167.32021,423524.9714413,-26
1659104167.32021,423524.9714432,48
1659104167.32021,423524.9714455,290
1659104167.32021,423524.9714475,679
1659104167.32021,423524.9714495,871
1659104167.32021,423524.9714514,451
1659104167.32021,423524.9714534,-340
1659104167.32021,423524.9714554,-657
1659104167.32021,423524.9714574,-412
1659104167.32021,423524.9714594,-168
1659104167.32021,423524.9714614,-38
1659104167.32021,423524.9714635,36
1659104167.32021,423524.9714655,38
1659104167.32021,423524.9714678,50
1659104167.32021,423524.9714699,67
1659104167.32021,423524.9714723,69
1659104167.32021,423524.9714751,105
1659104167.32021,423524.9714774,146
1659104167.32021,423524.9714795,151
1659104167.32021,423524.9714816,151
1659104167.32021,423524.9714837,153
1659104167.32021,423524.9714858,160
1659104167.32021,423524.971488,172
1659104167.32021,423524.9714902,184
1659104167.32021,423524.9714922,196
1659104167.32021,423524.9714943,213
1659104167.32021,423524.9714965,235
1659104167.32021,423524.9714986,254
1659104167.32021,423524.9715007,276
1659104167.32021,423525.361663,297
1659104167.32021,423525.3616798,312
1659104167.32021,423525.3616852,309
1659104167.32021,423525.3616934,302
1659104167.32021,423525.3616983,290
1659104167.32021,423525.3617056,261
1659104167.32021,423525.3617111,213
1659104167.32021,423525.3617169,153
1659104167.32021,423525.3617215,81
1659104167.32021,423525.3617273,16
1659104167.32021,423525.3617312,-19
1659104167.32021,423525.3617366,-50
1659104167.32021,423525.3617404,-76
1659104167.32021,423525.361744,-86
1659104167.33019,423525.3617474,-86
1659104167.33019,423525.3617509,-81
1659104167.33019,423525.3617548,-72
1659104167.33019,423525.3617602,-69
1659104167.33019,423525.361764,-64
1659104167.33019,423525.3617688,-45
1659104167.33019,423525.3617768,-36
1659104167.33019,423525.3617828,-40
1659104167.33019,423525.3617926,-33
1659104167.33019,423525.3617993,-16
1659104167.33019,423525.3618069,-12
1659104167.33019,423525.3618138,-9
1659104167.33019,423525.3618228,4
1659104167.33019,423525.3618281,16
1659104167.33019,423525.3618343,14
1659104167.33019,423525.3618383,14
1659104167.33019,423525.3618439,16
1659104167.33019,423525.3618475,21
1659104167.33019,423525.3618517,28
1659104167.33019,423525.3618564,40
1659104167.33019,423525.3618602,38
1659104167.33019,423525.361864,26
1659104167.33019,423525.36187,36
1659104167.33019,423525.3618739,55
1659104167.90538,423525.3618794,64
1659104167.90538,423525.3618832,81
1659104167.90538,423525.3618868,91
1659104167.90538,423525.3618905,96
1659104167.90538,423525.3618941,108
1659104167.90538,423525.3618977,115
1659104167.90538,423525.3619014,103
1659104167.90538,423525.361905,103
1659104167.90538,423525.3619086,110
1659104167.90538,423525.3619123,103
1659104167.90538,423525.3619162,103
1659104167.90538,423525.3619201,120
1659104167.90538,423525.3619256,129
1659104167.90538,423525.3619309,139
1659104167.90538,423525.3619368,153
1659104167.90538,423525.3619425,151
1659104167.90538,423525.3619466,151
1659104167.90538,423525.3619515,290
1659104167.90538,423525.3619545,648
1659104167.90538,423525.3619576,1029
1659104167.90538,423525.3619609,996
1659104167.90538,423525.361964,302
1659104167.90538,423525.3619674,-446
1659104167.90538,423525.3619705,-525
1659104167.90538,423525.3619737,-211
1659104167.90538,423525.3619772,40
1659104167.90538,423525.3619828,192
1659104167.90538,423525.3619863,225
1659104167.90538,423525.3619912,201
1659104167.90538,423525.361994,225
1659104167.90538,423525.3619968,256
1659104167.90538,423525.3619995,252
1659104167.90538,423525.3620023,247
1659104167.90538,423525.3620051,259
1659104167.90538,423525.3620078,271
1659104167.90538,423525.9474117,280
1659104167.90538,423525.9474274,292
1659104167.90538,423525.9474317,309
1659104167.90538,423525.9474395,328
1659104167.90538,423525.9474477,338
1659104167.90538,423525.9474516,338
1659104167.90538,423525.9474578,345
1659104167.90538,423525.9474654,374
1659104167.90538,423525.9474711,417
1659104167.90538,423525.9474801,444
1659104167.90538,423525.9474882,446
1659104167.90538,423525.9475015,441
1659104167.90538,423525.9475148,424
1659104167.90538,423525.9475282,408
1659104167.90538,423525.9475431,408
1659104167.92185,423525.9475535,372
1659104167.92185,423525.9475609,290
1659104167.92185,423525.9475657,213
1659104167.92185,423525.9475703,163
1659104167.92185,423525.9475735,115
1659104167.92185,423525.9475766,64
1659104167.92185,423525.9475798,24
1659104167.92185,423525.9475831,4
1659104167.92185,423525.9475863,-4
1659104167.92185,423525.9475897,-16
1659104167.92185,423525.9475932,-14
1659104167.92185,423525.9475975,-9
1659104167.92185,423525.9476013,-21
1659104167.92185,423525.9476046,-24
1659104167.92185,423525.9476083,-16
1659104167.92185,423525.947612,-21
1659104167.92185,423525.9476165,-26
1659104167.92185,423525.947621,-21
1659104167.92185,423525.9476251,-16
1659104167.92185,423525.9476296,-14
1659104167.92185,423525.9476358,-4
1659104167.92185,423525.9476395,2
1659104167.92185,423525.9476431,4
1659104167.92185,423525.9476467,0
1659104168.48682,423525.9476506,0
1659104168.48682,423525.9476542,9
1659104168.48682,423525.9476579,4
1659104168.48682,423525.9476615,-21
1659104168.48682,423525.9476652,-24
1659104168.48682,423525.9476688,-2
1659104168.48682,423525.947673,9
1659104168.48682,423525.9476769,0
1659104168.48682,423525.9476804,9
1659104168.48682,423525.9476837,24
1659104168.48682,423525.9476872,24
1659104168.48682,423525.9476907,28
1659104168.48682,423525.9476942,60
1659104168.48682,423525.9476979,69
1659104168.48682,423525.9477015,43
1659104168.48682,423525.9477053,21
1659104168.48682,423525.947709,24
1659104168.48682,423525.9477123,19
1659104168.48682,423525.9477155,9
1659104168.48682,423525.9477186,16
1659104168.48682,423525.9477241,26
1659104168.48682,423525.9477276,19
1659104168.48682,423525.9477314,19
1659104168.48682,423525.9477348,26
1659104168.48682,423525.9477387,52
1659104168.48682,423525.9477426,216
1659104168.48682,423525.9477463,592
1659104168.48682,423525.9477498,972
1659104168.48682,423525.9477531,873
1659104168.48682,423525.9477568,81
1659104168.48682,423525.9477606,-645
1659104168.48682,423525.9477641,-602
1659104168.48682,423525.9477676,-237
1659104168.48682,423525.9477711,-28
1659104168.48682,423526.5319511,62
1659104168.48682,423526.5319705,60
1659104168.48682,423526.5319783,43
1659104168.48682,423526.5319834,81
1659104168.48682,423526.5319883,103
1659104168.48682,423526.5319927,98
1659104168.48682,423526.5319968,120
1659104168.48682,423526.5320008,151
1659104168.48682,423526.5320048,153
1659104168.48682,423526.5320091,151
1659104168.48682,423526.5320134,168
1659104168.48682,423526.5320175,168
1659104168.48682,423526.5320213,168
1659104168.48682,423526.5320257,196
1659104168.48682,423526.5320298,194
1659104168.48682,423526.5320337,168
1659104168.49679,423526.5320377,204
1659104168.49679,423526.532042,244
1659104168.49679,423526.5320463,244
1659104168.49679,423526.5320508,252
1659104168.49679,423526.5320556,256
1659104168.49679,423526.5320604,228
1659104168.49679,423526.5320651,189
1659104168.49679,423526.5320694,168
1659104168.49679,423526.5320736,136
1659104168.49679,423526.5320776,86
1659104168.49679,423526.532082,16
1659104168.49679,423526.532087,-76
1659104168.49679,423526.5320918,-139
1659104168.49679,423526.5320969,-156
1659104168.49679,423526.5321043,-158
1659104168.49679,423526.5321093,-160
1659104168.49679,423526.5321142,-180
1659104168.49679,423526.5321192,-184
1659104168.49679,423526.5321239,-170
1659104168.49679,423526.5321289,-182
1659104168.49679,423526.5321337,-168
1659104168.49679,423526.5321385,-112
1659104168.49679,423526.5321432,-115
1659104168.49679,423526.5321474,-136
1659104169.02207,423526.5321513,-110
1659104169.02207,423526.5321557,-96
1659104169.02207,423526.5321596,-93
1659104169.02207,423526.5321637,-103
1659104169.02207,423526.5321676,-134
1659104169.02207,423526.5321716,-122
1659104169.02207,423526.5321757,-91
1659104169.02207,423526.5321796,-91
1659104169.02207,423526.5321837,-93
1659104169.02207,423526.5321885,-110
1659104169.02207,423526.5321927,-132
1659104169.02207,423526.532197,-112
1659104169.02207,423526.532201,-81
1659104169.02207,423526.5322049,-76
1659104169.02207,423526.5322092,-67
1659104169.02207,423526.5322137,-98
1659104169.02207,423526.5322177,-139
1659104169.02207,423526.5322219,-76
1659104169.02207,423526.5322262,2
1659104169.02207,423526.5322308,-14
1659104169.02207,423526.5322354,-48
1659104169.02207,423526.5322399,-26
1659104169.02207,423526.5322443,-9
1659104169.02207,423526.5322485,-33
1659104169.02207,423526.5322528,-57
1659104169.02207,423526.5322569,-45
1659104169.02207,423526.5322615,-24
1659104169.02207,423526.5322661,-36
1659104169.02207,423526.5322707,-21
1659104169.02207,423526.5322752,12
1659104169.02207,423526.5322799,-7
1659104169.02207,423526.5322845,-60
1659104169.02207,423526.5322892,-50
1659104169.02207,423527.0680461,124
1659104169.02207,423527.0680649,456
1659104169.02207,423527.0680772,780
1659104169.02207,423527.06808,785
1659104169.02207,423527.068082,240
1659104169.02207,423527.0681075,-446
1659104169.02207,423527.0681185,-609

1659104169.02207,423527.0681314,-350
1659104169.02207,423527.0681417,-112
1659104169.02207,423527.0681483,40
1659104169.02207,423527.0681571,96
1659104169.02207,423527.0681598,50
1659104169.02207,423527.0681626,12
1659104169.02207,423527.0681718,26
1659104169.02207,423527.0681835,64
1659104169.02207,423527.0681968,86
1659104169.02207,423527.0682103,98
1659104169.03205,423527.0682341,127
1659104169.03205,423527.0682405,127
1659104169.03205,423527.0682464,127
1659104169.03205,423527.0682536,146
1659104169.03205,423527.068257,151
1659104169.03205,423527.06826,196
1659104169.03205,423527.0682637,235
1659104169.03205,423527.0682674,225
1659104169.03205,423527.0682708,261
1659104169.03205,423527.0682738,290
1659104169.03205,423527.0682766,288
1659104169.03205,423527.0682793,352
1659104169.03205,423527.0682821,400
1659104169.03205,423527.0682851,362
1659104169.03205,423527.068288,331
1659104169.03205,423527.0682913,336
1659104169.03205,423527.0682945,309
1659104169.03205,423527.0682977,232
1659104169.03205,423527.068303,184
1659104169.03205,423527.0683087,168
1659104169.03205,423527.0683153,93
1659104169.03205,423527.0683185,2
1659104169.03205,423527.0683215,-16
1659104169.03205,423527.0683279,-14
1659104169.70915,423527.0683327,-12
1659104169.70915,423527.06834,21
1659104169.70915,423527.0683453,28
1659104169.70915,423527.0683518,-9
1659104169.70915,423527.0683566,-14
1659104169.70915,423527.0683605,36
1659104169.70915,423527.0683634,55
1659104169.70915,423527.068367,33
1659104169.70915,423527.0683703,55
1659104169.70915,423527.0683759,81
1659104169.70915,423527.0683797,38
1659104169.70915,423527.0683893,43
1659104169.70915,423527.068398,110
1659104169.70915,423527.0684093,88
1659104169.70915,423527.0684159,38
1659104169.70915,423527.0684246,74
1659104169.70915,423527.0684305,129
1659104169.70915,423527.0684362,103
1659104169.70915,423527.0684402,43
1659104169.70915,423527.0684457,45
1659104169.70915,423527.0684537,81
1659104169.70915,423527.068462,69
1659104169.70915,423527.068474,36
1659104169.70915,423527.0684867,45
1659104169.70915,423527.0684948,86
1659104169.70915,423527.0685046,115
1659104169.70915,423527.0685075,105
1659104169.70915,423527.0685128,84
1659104169.70915,423527.0685263,98
1659104169.70915,423527.0685392,132
1659104169.70915,423527.0685482,122
1659104169.70915,423527.0685696,62
1659104169.70915,423527.7516062,45
1659104169.70915,423527.7516232,93
1659104169.70915,423527.75163,120
1659104169.70915,423527.7516342,103
1659104169.70915,423527.7516376,86
1659104169.70915,423527.751641,81
1659104169.70915,423527.7516443,91
1659104169.70915,423527.7516476,88
1659104169.70915,423527.7516507,72
1659104169.70915,423527.7516539,153
1659104169.70915,423527.7516571,444
1659104169.70915,423527.7516603,847
1659104169.70915,423527.7516635,1039
1659104169.70915,423527.7516667,559
1659104169.70915,423527.75167,-328
1659104169.70915,423527.7516733,-664
1659104169.70915,423527.7516767,-376
1659104169.70915,423527.7516803,-127
1659104169.71843,423527.7516857,-16
1659104169.71843,423527.7516897,76
1659104169.71843,423527.7516929,98
1659104169.71843,423527.7516959,86
1659104169.71843,423527.7516989,112
1659104169.71843,423527.751702,144
1659104169.71843,423527.7517051,122
1659104169.71843,423527.751708,108
1659104169.71843,423527.751711,151
1659104169.71843,423527.7517139,177
1659104169.71843,423527.7517169,165
1659104169.71843,423527.7517196,180
1659104169.71843,423527.7517224,218
1659104169.71843,423527.7517252,235
1659104169.71843,423527.7517282,242
1659104169.71843,423527.7517311,283
1659104169.71843,423527.7517341,312
1659104169.71843,423527.7517372,302
1659104169.71843,423527.7517403,319
1659104169.71843,423527.7517434,357
1659104169.71843,423527.7517465,367
1659104169.71843,423527.7517494,355
1659104169.71843,423527.7517522,343
1659104169.71843,423527.751755,326
1659104170.24619,423527.7517577,292
1659104170.24619,423527.7517604,247
1659104170.24619,423527.7517682,182
1659104170.24619,423527.7517774,96
1659104170.24619,423527.7517822,33
1659104170.24619,423527.7517867,7
1659104170.24619,423527.7517935,-16
1659104170.24619,423527.7517992,-62
1659104170.24619,423527.7518055,-91
1659104170.24619,423527.7518099,-76
1659104170.24619,423527.7518192,-67
1659104170.24619,423527.7518313,-67
1659104170.24619,423527.7518402,-60
1659104170.24619,423527.7518452,-64
1659104170.24619,423527.7518513,-52
1659104170.24619,423527.7518556,-31
1659104170.24619,423527.7518623,-43
1659104170.24619,423527.7518664,-62
1659104170.24619,423527.751872,-50
1659104170.24619,423527.7518796,-33
1659104170.24619,423527.7518858,-26
1659104170.24619,423527.7518882,-26
1659104170.24619,423527.7518904,-24
1659104170.24619,423527.7518924,-19
1659104170.24619,423527.7518945,-21
1659104170.24619,423527.7518968,-26
1659104170.24619,423527.7518989,-28
1659104170.24619,423527.7519009,-21
1659104170.24619,423527.751903,-21
1659104170.24619,423527.7519057,-38
1659104170.24619,423527.7519078,-50
1659104170.24619,423528.2879994,-57
1659104170.24619,423528.2880177,-60
1659104170.24619,423528.288025,-48
1659104170.24619,423528.2880309,-36
1659104170.24619,423528.2880354,-38
1659104170.24619,423528.2880388,-40
1659104170.24619,423528.2880427,-21
1659104170.24619,423528.2880456,-9
1659104170.24619,423528.2880485,-28
1659104170.24619,423528.2880514,-50
1659104170.24619,423528.2880542,-50
1659104170.24619,423528.2880571,-57
1659104170.24619,423528.2880599,-74
1659104170.24619,423528.2880628,-72
1659104170.24619,423528.2880672,-57
1659104170.24619,423528.2880706,-50
1659104170.24619,423528.2880743,-50
1659104170.24619,423528.2880773,-62
1659104170.24619,423528.2880805,-52
1659104170.25617,423528.2881215,88
1659104170.25617,423528.2881362,422
1659104170.25617,423528.2881492,768
1659104170.25617,423528.2881629,749
1659104170.25617,423528.2881772,115
1659104170.25617,423528.2881864,-604
1659104170.25617,423528.2881909,-691
1659104170.25617,423528.2881961,-396
1659104170.25617,423528.288202,-206
1659104170.25617,423528.2882147,-79
1659104170.25617,423528.2882198,-2
1659104170.25617,423528.2882255,-21
1659104170.25617,423528.2882288,-24
1659104170.25617,423528.2882322,12
1659104170.25617,423528.2882359,26
1659104170.25617,423528.288241,36
1659104170.25617,423528.2882447,50
1659104170.25617,423528.2882498,50
1659104170.25617,423528.288253,50
1659104170.25617,423528.2882566,64
1659104170.25617,423528.2882621,81
1659104170.25617,423528.2882682,91
1659104170.25617,423528.2882735,105
1659104170.25617,423528.2882768,122
1659104170.69197,423528.28828,139
1659104170.69197,423528.2882835,163
1659104170.69197,423528.2882873,192
1659104170.69197,423528.2882912,213
1659104170.69197,423528.2882943,223
1659104170.69197,423528.2882975,228
1659104170.69197,423528.2883006,220
1659104170.69197,423528.2883036,211
1659104170.69197,423528.2883067,196
1659104170.69197,423528.2883098,160
1659104170.69197,423528.288313,103
1659104170.69197,423528.2883165,43
1659104170.69197,423528.2883425,-9
1659104170.69197,423528.2884721,-52
1659104170.69197,423528.2885415,-86
1659104170.69197,423528.2885472,-103
1659104170.69197,423528.2885511,-112
1659104170.69197,423528.2885546,-120
1659104170.69197,423528.2885581,-120
1659104170.69197,423528.2885617,-117
1659104170.69197,423528.2885652,-127
1659104170.69197,423528.2885687,-136
1659104170.69197,423528.2885724,-132
1659104170.69197,423528.288576,-129
1659104170.69197,423528.2885815,-112
1659104170.69197,423528.2885851,-81
1659104170.69197,423528.2885886,-74
1659104170.69197,423528.2885921,-69
1659104170.69197,423528.2885955,-50
1659104170.69197,423528.2885991,-43
1659104170.69197,423528.7269865,-45
1659104170.69197,423528.7270068,-43
1659104170.69197,423528.7270167,-33
1659104170.69197,423528.7270219,-24
1659104170.69197,423528.7270281,-26
1659104170.69197,423528.7270324,-28
1659104170.69197,423528.7270385,-21
1659104170.69197,423528.7270426,-12
1659104170.69197,423528.727049,-7
1659104170.69197,423528.7270531,-4
1659104170.69197,423528.7270571,-4
1659104170.69197,423528.7270625,-9
1659104170.69197,423528.7270667,-4
1659104170.69197,423528.7270704,4
1659104170.69197,423528.7270745,4
1659104170.69197,423528.7270804,12
1659104170.69197,423528.7270846,43
1659104170.69197,423528.7270905,62
1659104170.69197,423528.7270949,55
1659104170.69197,423528.7271005,67
1659104170.70809,423528.7271044,67
1659104170.70809,423528.7271084,28
1659104170.70809,423528.7271141,16
1659104170.70809,423528.7271185,43
1659104170.70809,423528.7271242,45
1659104170.70809,423528.7271294,14
1659104170.70809,423528.7271348,21
1659104170.70809,423528.7271388,62
1659104170.70809,423528.7271443,62
1659104170.70809,423528.7271518,45
1659104170.70809,423528.7271572,108
1659104170.70809,423528.7271627,324
1659104170.70809,423528.7271665,677
1659104170.70809,423528.7271701,967
1659104170.70809,423528.7271766,780
1659104170.70809,423528.7271804,-12
1659104170.70809,423528.7271839,-624
1659104170.70809,423528.7271873,-489
1659104170.70809,423528.7271908,-148
1659104170.70809,423528.7271944,2
1659104170.70809,423528.7271976,108
1659104170.70809,423528.727201,151
1659104170.70809,423528.7272042,136
1659104170.70809,423528.7272076,160
1659104171.27316,423528.7272108,194
1659104171.27316,423528.7272148,204
1659104171.27316,423528.7272184,211
1659104171.27316,423528.727222,216
1659104171.27316,423528.7272256,220
1659104171.27316,423528.7272292,240
1659104171.27316,423528.727233,271
1659104171.27316,423528.7272375,288
1659104171.27316,423528.7272408,285
1659104171.27316,423528.7272441,302
1659104171.27316,423528.7272473,333
1659104171.27316,423528.7272506,357
1659104171.27316,423528.7272545,372
1659104171.27316,423528.7272584,386
1659104171.27316,423528.7272647,412
1659104171.27316,423528.7272683,436
1659104171.27316,423528.7272722,448
1659104171.27316,423528.7272757,444
1659104171.27316,423528.7272799,422
1659104171.27316,423528.7272842,398
1659104171.27316,423528.7272907,360
1659104171.27316,423528.7272944,285
1659104171.27316,423528.7272997,208
1659104171.27316,423528.7273033,156
1659104171.27316,423528.7273083,124
1659104171.27316,423528.7273139,84
1659104171.27316,423528.7273175,33
1659104171.27316,423528.7273231,26
1659104171.27316,423528.7273264,50
1659104171.27316,423529.3101962,45
1659104171.27316,423529.3102132,33
1659104171.27316,423529.3102202,38
1659104171.27316,423529.3102312,50
1659104171.27316,423529.3102365,57
1659104171.27316,423529.3102387,62
1659104171.27316,423529.3102408,76
1659104171.27316,423529.3102468,81
1659104171.27316,423529.3102591,81
1659104171.27316,423529.3102653,98
1659104171.27316,423529.3102675,108
1659104171.27316,423529.3102696,86
1659104171.27316,423529.3102717,81
1659104171.27316,423529.3102738,105
1659104171.27316,423529.3102773,105
1659104171.27316,423529.3102902,91
1659104171.27316,423529.3102961,91
1659104171.27316,423529.3102991,86
1659104171.27316,423529.3103013,67
1659104171.27316,423529.3103034,57
1659104171.27316,423529.3103054,57
1659104171.2951,423529.3103087,52
1659104171.2951,423529.3103212,57
1659104171.2951,423529.3103327,50
1659104171.2951,423529.3103394,31
1659104171.2951,423529.3103439,38
1659104171.2951,423529.310348,45
1659104171.2951,423529.3103519,31
1659104171.2951,423529.3103548,48
1659104171.2951,423529.3103583,72
1659104171.2951,423529.3103615,52
1659104171.2951,423529.3103649,21
1659104171.2951,423529.3103682,12
1659104171.2951,423529.3103717,9
1659104171.2951,423529.310375,12
1659104171.2951,423529.3103784,14
1659104171.2951,423529.3103817,14
1659104171.2951,423529.310385,24
1659104171.2951,423529.3103901,38
1659104171.2951,423529.3103931,38
1659104171.2951,423529.3103961,26
1659104171.2951,423529.3103991,93
1659104171.2951,423529.3104026,391
1659104171.2951,423529.3104063,837
1659104171.2951,423529.3104116,1046
1659104171.85508,423529.3104151,549
1659104171.85508,423529.3104183,-388
1659104171.85508,423529.3104226,-753
1659104171.85508,423529.3104259,-444
1659104171.85508,423529.310429,-196
1659104171.85508,423529.3104322,-79
1659104171.85508,423529.3104353,43
1659104171.85508,423529.3104384,45
1659104171.85508,423529.3104416,9
1659104171.85508,423529.3104449,43
1659104171.85508,423529.3104479,69
1659104171.85508,423529.3104511,72
1659104171.85508,423529.3104542,79
1659104171.85508,423529.3104574,76
1659104171.85508,423529.3104609,86
1659104171.85508,423529.3104644,117
1659104171.85508,423529.3104679,136
1659104171.85508,423529.3104714,136
1659104171.85508,423529.3104749,141
1659104171.85508,423529.3104783,153
1659104171.85508,423529.3104816,187
1659104171.85508,423529.3104861,232
1659104171.85508,423529.3104903,240
1659104171.85508,423529.3104937,244
1659104171.85508,423529.3104983,285
1659104171.85508,423529.3105053,307
1659104171.85508,423529.3105095,290
1659104171.85508,423529.310515,283
1659104171.85508,423529.8957585,278
1659104171.85508,423529.895783,228
1659104171.85508,423529.895794,160
1659104171.85508,423529.8958034,103
1659104171.85508,423529.8958102,40
1659104171.85508,423529.8958157,-16
1659104171.85508,423529.8958233,-52
1659104171.85508,423529.8958318,-81
1659104171.85508,423529.8958364,-117
1659104171.85508,423529.8958426,-141
1659104171.85508,423529.8958467,-134
1659104171.85508,423529.8958498,-129
1659104171.85508,423529.8958529,-146
1659104171.85508,423529.8958557,-146
1659104171.85508,423529.8958587,-141
1659104171.85508,423529.8958615,-153
1659104171.85508,423529.8958644,-144
1659104171.85508,423529.8958672,-124
1659104171.85508,423529.8958701,-127
1659104171.85508,423529.8958729,-124
1659104171.85508,423529.8958758,-108
1659104171.85508,423529.8958801,-108
1659104171.86606,423529.8958837,-112
