Time,TimeLsl,Value
1659687488.00053,1006846.9908561,268
1659687488.00053,1006846.9908681,285
1659687488.00053,1006846.9908729,297
1659687488.00053,1006846.9908751,305
1659687488.00053,1006846.9908772,302
1659687488.00053,1006846.9908792,295
1659687488.00053,1006846.9908812,285
1659687488.00053,1006846.9908833,266
1659687488.00053,1006846.9908854,232
1659687488.00053,1006846.9908874,191
1659687488.00053,1006846.9908895,138
1659687488.00053,1006846.9908915,77
1659687488.00053,1006846.9908946,38
1659687488.00053,1006846.9908984,31
1659687488.00053,1006846.9909113,26
1659687488.00053,1006846.9909159,12
1659687488.00053,1006846.9909237,4
1659687488.00053,1006846.9909321,2
1659687488.00053,1006846.9909439,2
1659687488.00053,1006846.9909548,14
1659687488.00053,1006846.9909593,29
1659687488.00053,1006846.9909614,36
1659687488.00053,1006846.9909635,41
1659687488.00053,1006846.9909657,43
1659687488.00053,1006846.9909681,48
1659687488.00053,1006846.9909777,60
1659687488.00053,1006846.9909869,67
1659687488.00053,1006846.9909894,72
1659687488.00053,1006846.9909915,72
1659687488.00053,1006846.9909936,55
1659687488.00053,1006846.9909956,29
1659687488.00053,1006846.9910035,29
1659687488.00053,1006846.991014,41
1659687488.00053,1006846.9910173,48
1659687488.00053,1006846.9910203,58
1659687488.00053,1006846.9910237,62
1659687488.00053,1006846.9910368,62
1659687488.00053,1006846.9910432,62
1659687488.00053,1006846.9910455,62
1659687488.00053,1006846.9910476,60
1659687488.00053,1006846.9910496,67
1659687488.00053,1006846.9910575,75
1659687488.00053,1006846.9910682,72
1659687488.00053,1006846.9910716,72
1659687488.00053,1006846.9910747,79
1659687488.00053,1006846.9910779,89
1659687488.00053,1006846.991091,94
1659687488.00053,1006846.9910977,87
1659687488.00053,1006846.9911001,89
1659687488.00053,1006846.9911022,101
1659687488.1915,1006846.9911043,111
1659687488.1915,1006846.9911098,113
1659687488.1915,1006846.9911206,116
1659687488.1915,1006846.9911255,128
1659687488.1915,1006846.9911285,140
1659687488.1915,1006846.9911306,138
1659687488.1915,1006846.9911359,133
1659687488.1915,1006846.991147,147
1659687488.1915,1006846.9911523,154
1659687488.1915,1006846.9911544,142
1659687488.1915,1006846.9911566,140
1659687488.1915,1006846.9911591,152
1659687488.1915,1006846.9911614,157
1659687488.1915,1006846.9911636,152
1659687488.1915,1006846.9911656,150
1659687488.1915,1006846.9911676,145
1659687488.1915,1006846.9911699,152
1659687488.1915,1006846.9911796,164
1659687488.1915,1006846.9911882,159
1659687488.1915,1006846.9911913,154
1659687488.1915,1006846.9911934,171
1659687488.1915,1006846.9911955,184
1659687488.1915,1006846.9911976,174
1659687488.1915,1006847.4313371,164
1659687488.1915,1006847.4313566,157
1659687488.1915,1006847.4313618,167
1659687488.1915,1006847.4313665,174
1659687488.1915,1006847.4313709,164
1659687488.1915,1006847.4313758,171
1659687488.1915,1006847.4313798,196
1659687488.1915,1006847.4313839,213
1659687488.1915,1006847.4313877,205
1659687488.1915,1006847.4313913,198
1659687488.1915,1006847.4313953,188
1659687488.1915,1006847.4313991,162
1659687488.1915,1006847.4314029,164
1659687488.1915,1006847.4314067,184
1659687488.1915,1006847.4314105,164
1659687488.1915,1006847.4314153,157
1659687488.1915,1006847.4314193,176
1659687488.1915,1006847.431423,169
1659687488.1915,1006847.4314278,152
1659687488.1915,1006847.4314315,176
1659687488.1915,1006847.4314373,179
1659687488.1915,1006847.4314411,138
1659687488.1915,1006847.4314447,246
1659687488.1915,1006847.4314485,690
1659687488.1915,1006847.4314522,1242
1659687488.1915,1006847.431456,1430
1659687488.1915,1006847.4314599,932
1659687488.26411,1006847.4314639,-43
1659687488.26411,1006847.4314678,-510
1659687488.26411,1006847.4314716,-94
1659687488.26411,1006847.4314753,225
1659687488.26411,1006847.4314796,92
1659687488.26411,1006847.4314834,84
1659687488.26411,1006847.4314871,181
1659687488.26411,1006847.4314909,147
1659687488.26411,1006847.4314948,133
1659687488.26411,1006847.4314984,176
1659687488.26411,1006847.431502,186
1659687488.26411,1006847.4315056,181
1659687488.26411,1006847.4315094,193
1659687488.26411,1006847.4315131,203
1659687488.26411,1006847.4315168,222
1659687488.26411,1006847.4315204,242
1659687488.26411,1006847.4315241,251
1659687488.26411,1006847.4315279,273
1659687488.26411,1006847.4315318,288
1659687488.26411,1006847.4315354,283
1659687488.26411,1006847.4315398,307
1659687488.26411,1006847.4315436,341
1659687488.26411,1006847.4315482,348
1659687488.26411,1006847.4315562,360
1659687488.26411,1006847.4315597,389
1659687488.26411,1006847.4315647,404
1659687488.26411,1006847.4315692,421
1659687488.26411,1006847.4315751,438
1659687488.26411,1006847.4315787,445
1659687488.26411,1006847.4315838,467
1659687488.26411,1006847.4315869,474
1659687488.26411,1006847.43159,447
1659687488.26411,1006847.4315932,423
1659687488.26411,1006847.4315987,404
1659687488.26411,1006847.431604,365
1659687488.26411,1006847.4316071,305
1659687488.26411,1006847.4316101,227
1659687488.26411,1006847.4316133,159
1659687488.26411,1006847.4316166,123
1659687488.26411,1006847.4316201,94
1659687488.26411,1006847.4316259,65
1659687488.26411,1006847.4316322,46
1659687488.26411,1006847.4316367,41
1659687488.26411,1006847.4316418,43
1659687488.26411,1006847.4316455,36
1659687488.26411,1006847.4316507,26
1659687488.26411,1006848.1610292,24
1659687488.26411,1006848.1610472,31
1659687488.26411,1006848.1610535,33
1659687488.26411,1006848.1610601,36
1659687488.30802,1006848.161065,19
1659687488.30802,1006848.1610699,2
1659687488.30802,1006848.1610775,9
1659687488.30802,1006848.1610834,24
1659687488.30802,1006848.161089,19
1659687488.30802,1006848.1610975,16
1659687488.30802,1006848.1611038,19
1659687488.30802,1006848.1611075,14
1659687488.30802,1006848.1611109,14
1659687488.30802,1006848.1611167,9
1659687488.30802,1006848.1611217,0
1659687488.30802,1006848.1611291,-14
1659687488.30802,1006848.1611346,-33
1659687488.30802,1006848.1611386,-50
1659687488.30802,1006848.1611427,-48
1659687488.30802,1006848.1611462,-36
1659687488.30802,1006848.1611499,-36
1659687488.30802,1006848.1611538,-33
1659687488.30802,1006848.1611576,-26
1659687488.30802,1006848.1611612,-24
1659687488.30802,1006848.1611657,-24
1659687488.30802,1006848.1611697,-12
1659687488.30802,1006848.1611733,4
1659687488.30802,1006848.1611772,12
1659687488.30802,1006848.1611811,9
1659687488.30802,1006848.161185,9
1659687488.30802,1006848.1611907,19
1659687488.30802,1006848.1611954,26
1659687488.30802,1006848.1612015,29
1659687488.30802,1006848.1612057,31
1659687488.30802,1006848.1612121,36
1659687488.30802,1006848.1612162,41
1659687488.30802,1006848.1612218,41
1659687488.30802,1006848.1612269,38
1659687488.30802,1006848.1612327,38
1659687488.30802,1006848.1612386,36
1659687488.30802,1006848.1612435,33
1659687488.30802,1006848.1612488,43
1659687488.30802,1006848.1612529,60
1659687488.30802,1006848.1612589,94
1659687488.30802,1006848.1612628,135
1659687488.30802,1006848.1612681,138
1659687488.30802,1006848.1612715,96
1659687488.30802,1006848.1612769,77
1659687488.30802,1006848.1612818,87
1659687488.30802,1006848.1612879,99
1659687488.30802,1006848.1612917,108
1659687488.30802,1006848.1612973,116
1659687488.30802,1006848.1613014,106
1659687488.30802,1006848.1613068,94
1659687488.53257,1006848.1613107,87
1659687488.53257,1006848.1613151,101
1659687488.53257,1006848.1613188,106
1659687488.53257,1006848.1613243,77
1659687488.53257,1006848.1613289,92
1659687488.53257,1006848.1613342,334
1659687488.53257,1006848.1613383,823
1659687488.53257,1006848.1613428,1225
1659687488.53257,1006848.1613468,1116
1659687488.53257,1006848.1613523,360
1659687488.53257,1006848.1613563,-392
1659687488.53257,1006848.1613625,-322
1659687488.53257,1006848.1613664,104
1659687488.53257,1006848.1613703,111
1659687488.53257,1006848.1613743,16
1659687488.53257,1006848.1613795,92
1659687488.53257,1006848.1613842,108
1659687488.53257,1006848.1613895,77
1659687488.53257,1006848.1613934,104
1659687488.53257,1006848.6009306,121
1659687488.53257,1006848.600957,111
1659687488.53257,1006848.6009667,118
1659687488.68928,1006848.6009748,130
1659687488.68928,1006848.6009794,128
1659687488.68928,1006848.6009848,128
1659687488.68928,1006848.6009895,140
1659687488.68928,1006848.600994,152
1659687488.68928,1006848.6009986,145
1659687488.68928,1006848.601003,135
1659687488.68928,1006848.6010099,145
1659687488.68928,1006848.6010436,162
1659687488.68928,1006848.6010526,169
1659687488.68928,1006848.601056,169
1659687488.68928,1006848.6010592,162
1659687488.68928,1006848.6010622,164
1659687488.68928,1006848.6010652,191
1659687488.68928,1006848.6010686,217
1659687488.68928,1006848.601072,234
1659687488.68928,1006848.6010755,246
1659687488.68928,1006848.6010789,249
1659687488.68928,1006848.601082,244
1659687488.68928,1006848.6010855,237
1659687488.68928,1006848.6010892,230
1659687488.68928,1006848.6010924,200
1659687488.68928,1006848.6010956,152
1659687488.68928,1006848.6010992,94
1659687488.68928,1006848.6011027,33
1659687488.68928,1006848.6011062,-7
1659687488.68928,1006848.6011095,-24
1659687488.68928,1006848.6011132,-41
1659687488.68928,1006848.6011168,-48
1659687488.68928,1006848.6011202,-48
1659687488.68928,1006848.6011237,-50
1659687488.68928,1006848.601127,-43
1659687488.68928,1006848.6011303,-38
1659687488.68928,1006848.6011357,-41
1659687488.68928,1006848.6011391,-48
1659687488.68928,1006848.6011423,-48
1659687488.68928,1006848.6011457,-50
1659687488.68928,1006848.6011491,-46
1659687488.68928,1006848.6011524,-33
1659687488.68928,1006848.6011559,-24
1659687488.68928,1006848.6011593,-9
1659687488.68928,1006848.6011629,-4
1659687488.68928,1006848.6011663,-19
1659687488.68928,1006848.6011699,-31
1659687488.68928,1006848.6011746,-21
1659687488.68928,1006848.6011781,-9
1659687488.68928,1006848.6011816,-7
1659687488.68928,1006848.6011857,-9
1659687488.68928,1006848.6011892,-12
1659687488.68928,1006848.6011926,-9
1659687488.72618,1006848.6011963,-2
1659687488.72618,1006848.6012056,7
1659687488.72618,1006848.6012132,9
1659687488.72618,1006848.6012169,2
1659687488.72618,1006848.6012207,4
1659687488.72618,1006848.6012243,12
1659687488.72618,1006848.6012279,16
1659687488.72618,1006848.6012316,21
1659687488.72618,1006848.6012355,21
1659687488.72618,1006848.6012397,12
1659687488.72618,1006848.6012439,2
1659687488.72618,1006848.6012477,9
1659687488.72618,1006848.6012512,26
1659687488.72618,1006848.6012545,31
1659687488.72618,1006848.6012581,21
1659687488.72618,1006848.6012615,16
1659687488.72618,1006848.6012652,14
1659687488.72618,1006848.6012686,12
1659687488.72618,1006848.6012724,19
1659687488.72618,1006848.6012759,21
1659687488.72618,1006849.1391003,16
1659687488.72618,1006849.1391181,12
1659687488.72618,1006849.1391236,0
1659687488.72618,1006849.1391275,-2
1659687489.32097,1006849.1391312,9
1659687489.32097,1006849.1391346,14
1659687489.32097,1006849.1391397,24
1659687489.32097,1006849.1391434,65
1659687489.32097,1006849.1391473,92
1659687489.32097,1006849.1391508,70
1659687489.32097,1006849.1391546,29
1659687489.32097,1006849.139158,2
1659687489.32097,1006849.1391616,-7
1659687489.32097,1006849.1391653,-4
1659687489.32097,1006849.1391686,4
1659687489.32097,1006849.1391733,19
1659687489.32097,1006849.1391771,19
1659687489.32097,1006849.139181,-9
1659687489.32097,1006849.139185,-26
1659687489.32097,1006849.1391883,-16
1659687489.32097,1006849.1391924,-16
1659687489.32097,1006849.1391959,-12
1659687489.32097,1006849.1391998,116
1659687489.32097,1006849.1392037,467
1659687489.32097,1006849.1392074,907
1659687489.32097,1006849.1392112,1043
1659687489.32097,1006849.1392148,624
1659687489.32097,1006849.1392183,-116
1659687489.32097,1006849.1392224,-501
1659687489.32097,1006849.1392268,-249
1659687489.32097,1006849.1392306,24
1659687489.32097,1006849.1392345,-21
1659687489.32097,1006849.1392383,-48
1659687489.32097,1006849.1392421,21
1659687489.32097,1006849.1392461,24
1659687489.32097,1006849.1392498,14
1659687489.32097,1006849.1392531,43
1659687489.32097,1006849.1392564,53
1659687489.32097,1006849.1392599,60
1659687489.32097,1006849.1392634,87
1659687489.32097,1006849.1392682,104
1659687489.32097,1006849.1392715,104
1659687489.32097,1006849.1392773,108
1659687489.32097,1006849.1392807,116
1659687489.32097,1006849.1393098,123
1659687489.32097,1006849.1393246,133
1659687489.32097,1006849.1394071,142
1659687489.32097,1006849.1394254,162
1659687489.32097,1006849.1394304,191
1659687489.32097,1006849.1394344,213
1659687489.32097,1006849.1394392,232
1659687489.32097,1006849.1394451,259
1659687489.32097,1006849.1394495,278
1659687489.32097,1006849.1394586,288
1659687489.34597,1006849.1394646,300
1659687489.34597,1006849.1394687,314
1659687489.34597,1006849.1394729,317
1659687489.34597,1006849.1394774,312
1659687489.34597,1006849.1394817,326
1659687489.34597,1006849.1394857,331
1659687489.34597,1006849.1394898,283
1659687489.34597,1006849.1394941,213
1659687489.34597,1006849.1394989,167
1659687489.34597,1006849.1395033,128
1659687489.34597,1006849.1395075,75
1659687489.34597,1006849.1395114,36
1659687489.34597,1006849.1395224,16
1659687489.34597,1006849.139528,-14
1659687489.34597,1006849.1395386,-33
1659687489.34597,1006849.1395444,-24
1659687489.34597,1006849.1395484,-16
1659687489.34597,1006849.1395596,-9
1659687489.34597,1006849.1395646,-4
1659687489.34597,1006849.7692661,-4
1659687489.34597,1006849.7692828,4
1659687489.34597,1006849.7692868,9
1659687489.34597,1006849.76929,-2
1659687489.34597,1006849.769293,-21
1659687489.79748,1006849.769296,-33
1659687489.79748,1006849.7692989,-48
1659687489.79748,1006849.7693017,-70
1659687489.79748,1006849.7693047,-84
1659687489.79748,1006849.7693077,-89
1659687489.79748,1006849.7693121,-96
1659687489.79748,1006849.7693152,-104
1659687489.79748,1006849.7693183,-104
1659687489.79748,1006849.7693223,-104
1659687489.79748,1006849.7693256,-108
1659687489.79748,1006849.7693288,-118
1659687489.79748,1006849.7693321,-104
1659687489.79748,1006849.7693351,-79
1659687489.79748,1006849.7693383,-92
1659687489.79748,1006849.7693414,-121
1659687489.79748,1006849.7693447,-121
1659687489.79748,1006849.7693476,-99
1659687489.79748,1006849.7693509,-77
1659687489.79748,1006849.7693546,-67
1659687489.79748,1006849.7693592,-62
1659687489.79748,1006849.7693643,-46
1659687489.79748,1006849.7693683,-24
1659687489.79748,1006849.7693732,-16
1659687489.79748,1006849.7693792,-7
1659687489.79748,1006849.7693843,19
1659687489.79748,1006849.7693889,38
1659687489.79748,1006849.7693958,38
1659687489.79748,1006849.7694056,38
1659687489.79748,1006849.7694121,55
1659687489.79748,1006849.7694156,77
1659687489.79748,1006849.7694241,84
1659687489.79748,1006849.76943,87
1659687489.79748,1006849.7694403,108
1659687489.79748,1006849.7694528,138
1659687489.79748,1006849.7694625,154
1659687489.79748,1006849.7694675,171
1659687489.79748,1006849.7694753,186
1659687489.79748,1006849.7694822,184
1659687489.79748,1006849.7694891,176
1659687489.79748,1006849.7694964,176
1659687489.79748,1006849.7695033,174
1659687489.79748,1006849.76951,152
1659687489.79748,1006849.7695182,135
1659687489.79748,1006849.7695235,147
1659687489.79748,1006849.7695318,152
1659687489.79748,1006849.7695375,125
1659687489.79748,1006849.7695496,118
1659687489.79748,1006849.7695623,128
1659687489.79748,1006849.7695724,118
1659687489.79748,1006849.7695849,188
1659687489.83955,1006849.7695967,542
1659687489.83955,1006849.7696067,1058
1659687489.83955,1006849.7696142,1283
1659687489.83955,1006849.7696211,961
1659687489.83955,1006849.7696271,191
1659687489.83955,1006849.7696366,-416
1659687489.83955,1006849.7696435,-271
1659687489.83955,1006849.7696524,123
1659687489.83955,1006849.7696632,159
1659687489.83955,1006849.7696771,108
1659687489.83955,1006849.7696899,152
1659687489.83955,1006849.769703,142
1659687489.83955,1006849.7697159,118
1659687489.83955,1006849.7697289,147
1659687489.83955,1006849.7697419,162
1659687489.83955,1006849.7697546,157
1659687489.83955,1006849.7697674,171
1659687489.83955,1006849.769776,186
1659687489.83955,1006850.2599399,184
1659687489.83955,1006850.2599641,193
1659687489.83955,1006850.2599735,217
1659687489.83955,1006850.2599805,232
1659687489.83955,1006850.2599887,242
1659687489.83955,1006850.2599953,256
1659687490.34157,1006850.2600035,273
1659687490.34157,1006850.2600101,295
1659687490.34157,1006850.2600168,322
1659687490.34157,1006850.2600228,336
1659687490.34157,1006850.2600269,351
1659687490.34157,1006850.2600301,382
1659687490.34157,1006850.2600332,418
1659687490.34157,1006850.2600365,435
1659687490.34157,1006850.2600426,428
1659687490.34157,1006850.2600476,416
1659687490.34157,1006850.2600519,409
1659687490.34157,1006850.2600562,394
1659687490.34157,1006850.2600606,382
1659687490.34157,1006850.2600656,363
1659687490.34157,1006850.26007,305
1659687490.34157,1006850.2600731,244
1659687490.34157,1006850.2600761,191
1659687490.34157,1006850.2600792,111
1659687490.34157,1006850.2600823,46
1659687490.34157,1006850.2600854,29
1659687490.34157,1006850.2600911,26
1659687490.34157,1006850.2600969,4
1659687490.34157,1006850.2601018,-33
1659687490.34157,1006850.2601081,-41
1659687490.34157,1006850.2601138,-14
1659687490.34157,1006850.2601192,-7
1659687490.34157,1006850.2601246,-21
1659687490.34157,1006850.2601366,-14
1659687490.34157,1006850.2601456,7
1659687490.34157,1006850.2601688,7
1659687490.34157,1006850.2601866,2
1659687490.34157,1006850.260197,16
1659687490.34157,1006850.2602035,24
1659687490.34157,1006850.260208,2
1659687490.34157,1006850.2602139,-2
1659687490.34157,1006850.2602195,19
1659687490.34157,1006850.2602242,24
1659687490.34157,1006850.260228,0
1659687490.34157,1006850.2602336,-7
1659687490.34157,1006850.2602373,4
1659687490.34157,1006850.2602408,16
1659687490.34157,1006850.2602444,14
1659687490.34157,1006850.2602482,0
1659687490.34157,1006850.2602536,-7
1659687490.34157,1006850.2602581,-4
1659687490.34157,1006850.2602634,-16
1659687490.34157,1006850.260268,-29
1659687490.34157,1006850.2602724,-21
1659687490.34157,1006850.2602969,-9
1659687490.34157,1006850.260311,-7
1659687490.38146,1006850.2603201,-7
1659687490.38146,1006850.2603278,-12
1659687490.38146,1006850.2603351,-16
1659687490.38146,1006850.2603422,-21
1659687490.38146,1006850.26035,-16
1659687490.38146,1006850.2603541,-19
1659687490.38146,1006850.2603573,-55
1659687490.38146,1006850.2603693,-84
1659687490.38146,1006850.2603824,-87
1659687490.38146,1006850.2603897,-84
1659687490.38146,1006850.2604024,-87
1659687490.38146,1006850.2604097,-92
1659687490.38146,1006850.2604168,-99
1659687490.38146,1006850.2604309,-75
1659687490.38146,1006850.2604431,-31
1659687490.38146,1006850.2604631,-21
1659687490.38146,1006850.2604783,-46
1659687490.38146,1006850.7935101,-60
1659687490.38146,1006850.7935306,-70
1659687490.38146,1006850.7935453,-77
1659687490.38146,1006850.7935609,-72
1659687490.38146,1006850.7935732,-75
1659687490.38146,1006850.7935813,-77
1659687490.38146,1006850.7935874,-53
1659687490.98568,1006850.7935963,-53
1659687490.98568,1006850.7936033,-96
1659687490.98568,1006850.7936105,-128
1659687490.98568,1006850.7936155,-140
1659687490.98568,1006850.7936205,-82
1659687490.98568,1006850.7936267,217
1659687490.98568,1006850.7936342,709
1659687490.98568,1006850.7936408,1028
1659687490.98568,1006850.7936533,823
1659687490.98568,1006850.7936633,38
1659687490.98568,1006850.7936726,-627
1659687490.98568,1006850.7936849,-496
1659687490.98568,1006850.7936939,-130
1659687490.98568,1006850.7937023,-138
1659687490.98568,1006850.793713,-203
1659687490.98568,1006850.793721,-150
1659687490.98568,1006850.7937304,-142
1659687490.98568,1006850.7937409,-147
1659687490.98568,1006850.7937482,-118
1659687490.98568,1006850.7937593,-111
1659687490.98568,1006850.7937693,-121
1659687490.98568,1006850.7937749,-123
1659687490.98568,1006850.793788,-121
1659687490.98568,1006850.7937975,-104
1659687490.98568,1006850.7938037,-92
1659687490.98568,1006850.7938156,-67
1659687490.98568,1006850.7938256,-21
1659687490.98568,1006850.7938319,12
1659687490.98568,1006850.7938445,26
1659687490.98568,1006850.7938533,70
1659687490.98568,1006850.7938621,135
1659687490.98568,1006850.7938727,164
1659687490.98568,1006850.7938802,193
1659687490.98568,1006850.793891,246
1659687490.98568,1006850.7939013,271
1659687490.98568,1006850.7939088,288
1659687490.98568,1006850.7939218,334
1659687490.98568,1006850.7939318,353
1659687490.98568,1006850.7939383,329
1659687490.98568,1006850.7939504,307
1659687490.98568,1006850.7939605,290
1659687490.98568,1006850.7939669,251
1659687490.98568,1006850.793979,203
1659687490.98568,1006850.7939891,157
1659687490.98568,1006850.7939953,101
1659687490.98568,1006850.7940076,43
1659687490.98568,1006850.7940178,-14
1659687490.98568,1006850.7940243,-65
1659687490.98568,1006850.7940364,-79
1659687490.98568,1006850.7940452,-72
1659687491.02609,1006850.7940543,-84
1659687491.02609,1006850.7940648,-113
1659687491.02609,1006850.7940721,-133
1659687491.02609,1006850.7940832,-111
1659687491.02609,1006850.7940937,-67
1659687491.02609,1006850.7941011,-43
1659687491.02609,1006850.7941117,-41
1659687491.02609,1006850.7941218,-55
1659687491.02609,1006850.7941273,-55
1659687491.02609,1006850.7941409,-33
1659687491.02609,1006850.7941486,-48
1659687491.02609,1006850.7941593,-70
1659687491.02609,1006850.7941696,-33
1659687491.02609,1006850.7941773,-21
1659687491.02609,1006850.7941886,-55
1659687491.02609,1006850.7941982,-58
1659687491.02609,1006851.4273547,-67
1659687491.02609,1006851.427375,-84
1659687491.02609,1006851.4273822,-55
1659687491.02609,1006851.427388,-29
1659687491.02609,1006851.427391,-58
1659687491.02609,1006851.427394,-94
1659687491.02609,1006851.4273969,-82
1659687491.02609,1006851.4273998,-58
1659687491.6246,1006851.4274029,-50
1659687491.6246,1006851.4274087,-65
1659687491.6246,1006851.4274155,-87
1659687491.6246,1006851.4274219,-87
1659687491.6246,1006851.4274286,-67
1659687491.6246,1006851.4274373,-58
1659687491.6246,1006851.4274515,-53
1659687491.6246,1006851.4274608,-62
1659687491.6246,1006851.4274716,-53
1659687491.6246,1006851.4274824,-33
1659687491.6246,1006851.4274918,-55
1659687491.6246,1006851.4275011,-65
1659687491.6246,1006851.4275119,-50
1659687491.6246,1006851.4275217,-60
1659687491.6246,1006851.4275279,-65
1659687491.6246,1006851.4275337,-60
1659687491.6246,1006851.4275425,-72
1659687491.6246,1006851.4275553,-58
1659687491.6246,1006851.4275637,9
1659687491.6246,1006851.4275906,31
1659687491.6246,1006851.4276043,-2
1659687491.6246,1006851.4276187,-7
1659687491.6246,1006851.4276294,2
1659687491.6246,1006851.4276367,4
1659687491.6246,1006851.4276417,21
1659687491.6246,1006851.4276461,24
1659687491.6246,1006851.4276596,14
1659687491.6246,1006851.4276722,19
1659687491.6246,1006851.4276833,38
1659687491.6246,1006851.4276961,29
1659687491.6246,1006851.4277076,-4
1659687491.6246,1006851.4277176,-26
1659687491.6246,1006851.4277536,-41
1659687491.6246,1006851.4277704,55
1659687491.6246,1006851.4277772,416
1659687491.6246,1006851.4277829,847
1659687491.6246,1006851.4277876,985
1659687491.6246,1006851.4277935,636
1659687491.6246,1006851.4277999,-82
1659687491.6246,1006851.4278085,-508
1659687491.6246,1006851.4278129,-278
1659687491.6246,1006851.427816,12
1659687491.6246,1006851.427819,0
1659687491.6246,1006851.4278219,-14
1659687491.6246,1006851.4278247,29
1659687491.6246,1006851.4278275,19
1659687491.6246,1006851.4278303,19
1659687491.6246,1006851.4278331,46
1659687491.6246,1006851.4278359,46
1659687491.6246,1006851.4278389,38
1659687491.6605,1006851.427842,53
1659687491.6605,1006851.4278451,65
1659687491.6605,1006851.4278511,70
1659687491.6605,1006851.4278579,94
1659687491.6605,1006851.4278797,123
1659687491.6605,1006851.4278875,130
1659687491.6605,1006851.427893,130
1659687491.6605,1006851.4279001,147
1659687491.6605,1006851.4279077,174
1659687491.6605,1006851.4279174,193
1659687491.6605,1006851.4279273,217
1659687491.6605,1006851.4279412,259
1659687491.6605,1006851.4279506,297
1659687491.6605,1006851.4279578,322
1659687491.6605,1006851.4279704,346
1659687491.6605,1006852.0610606,368
1659687491.6605,1006852.0611034,384
1659687491.6605,1006852.0611111,401
1659687491.6605,1006852.0611188,416
1659687491.6605,1006852.0611299,418
1659687491.6605,1006852.0611357,406
1659687491.6605,1006852.0611441,399
1659687491.6605,1006852.0611506,343
1659687491.6605,1006852.0611613,244
1659687492.1023,1006852.0611646,186
1659687492.1023,1006852.0611675,157
1659687492.1023,1006852.0611704,108
1659687492.1023,1006852.0611731,79
1659687492.1023,1006852.0611759,53
1659687492.1023,1006852.0611787,21
1659687492.1023,1006852.0611814,21
1659687492.1023,1006852.0611848,33
1659687492.1023,1006852.0611936,46
1659687492.1023,1006852.0612033,65
1659687492.1023,1006852.0612072,58
1659687492.1023,1006852.0612101,12
1659687492.1023,1006852.0612131,0
1659687492.1023,1006852.0612168,43
1659687492.1023,1006852.0612295,55
1659687492.1023,1006852.0612351,46
1659687492.1023,1006852.0612372,79
1659687492.1023,1006852.0612399,111
1659687492.1023,1006852.061242,89
1659687492.1023,1006852.0612451,67
1659687492.1023,1006852.0612579,84
1659687492.1023,1006852.0612638,89
1659687492.1023,1006852.061266,84
1659687492.1023,1006852.0612681,82
1659687492.1023,1006852.0612701,62
1659687492.1023,1006852.0612721,75
1659687492.1023,1006852.0612773,113
1659687492.1023,1006852.0612885,113
1659687492.1023,1006852.0612938,101
1659687492.1023,1006852.0612959,121
1659687492.1023,1006852.0612979,128
1659687492.1023,1006852.0613,118
1659687492.1023,1006852.061302,130
1659687492.1023,1006852.0613067,138
1659687492.1023,1006852.0613181,99
1659687492.1023,1006852.0613242,92
1659687492.1023,1006852.0613265,135
1659687492.1023,1006852.0613285,142
1659687492.1023,1006852.0613305,123
1659687492.1023,1006852.0613325,142
1659687492.1023,1006852.0613397,150
1659687492.1023,1006852.0613504,106
1659687492.1023,1006852.0613549,96
1659687492.1023,1006852.0613571,121
1659687492.1023,1006852.0613591,96
1659687492.1023,1006852.0613613,79
1659687492.1023,1006852.0613641,123
1659687492.1023,1006852.0613746,130
1659687492.1023,1006852.0613822,94
1659687492.1023,1006852.0613847,84
1659687492.15017,1006852.0613868,89
1659687492.15017,1006852.0613889,82
1659687492.15017,1006852.0613951,92
1659687492.15017,1006852.0614066,290
1659687492.15017,1006852.0614117,752
1659687492.15017,1006852.0614138,1171
1659687492.15017,1006852.0614158,1176
1659687492.15017,1006852.0614179,624
1659687492.15017,1006852.0614206,-193
1659687492.15017,1006852.0614286,-496
1659687492.15017,1006852.0614389,-135
1659687492.15017,1006852.0614428,96
1659687492.15017,1006852.0614458,24
1659687492.15017,1006852.0614489,58
1659687492.15017,1006852.5486911,128
1659687492.15017,1006852.5487019,79
1659687492.15017,1006852.5487058,58
1659687492.15017,1006852.548708,96
1659687492.15017,1006852.5487101,118
1659687492.15017,1006852.5487122,128
1659687492.15017,1006852.5487142,106
1659687492.15017,1006852.5487162,77
1659687492.15017,1006852.5487183,92
1659687492.15017,1006852.5487203,104
1659687492.62293,1006852.5487229,89
1659687492.62293,1006852.5487249,89
1659687492.62293,1006852.5487268,111
1659687492.62293,1006852.5487288,130
1659687492.62293,1006852.5487309,138
1659687492.62293,1006852.5487356,145
1659687492.62293,1006852.5487439,159
1659687492.62293,1006852.5487485,171
1659687492.62293,1006852.5487527,203
1659687492.62293,1006852.5487564,249
1659687492.62293,1006852.5487611,285
1659687492.62293,1006852.5487647,305
1659687492.62293,1006852.5487684,297
1659687492.62293,1006852.5487735,266
1659687492.62293,1006852.5487795,261
1659687492.62293,1006852.5487839,288
1659687492.62293,1006852.5487932,259
1659687492.62293,1006852.5488001,205
1659687492.62293,1006852.5488033,164
1659687492.62293,1006852.5488074,106
1659687492.62293,1006852.5488123,43
1659687492.62293,1006852.54882,-19
1659687492.62293,1006852.5488246,-72
1659687492.62293,1006852.5488296,-84
1659687492.62293,1006852.5488358,-82
1659687492.62293,1006852.5488406,-89
1659687492.62293,1006852.5488435,-96
1659687492.62293,1006852.5488473,-92
1659687492.62293,1006852.5488562,-87
1659687492.62293,1006852.5488615,-101
1659687492.62293,1006852.5488649,-113
1659687492.62293,1006852.548876,-111
1659687492.62293,1006852.5488893,-99
1659687492.62293,1006852.5488975,-55
1659687492.62293,1006852.548901,-38
1659687492.62293,1006852.548912,-58
1659687492.62293,1006852.5489153,-50
1659687492.62293,1006852.5489313,-31
1659687492.62293,1006852.5489341,-24
1659687492.62293,1006852.5489368,-26
1659687492.62293,1006852.548955,-38
1659687492.62293,1006852.5489579,-60
1659687492.62293,1006852.5489606,-48
1659687492.62293,1006852.5489634,-14
1659687492.62293,1006852.5489683,-29
1659687492.62293,1006852.548989,-55
1659687492.62293,1006852.5489982,-36
1659687492.62293,1006852.5490104,-12
1659687492.62293,1006852.5490229,-14
1659687492.62293,1006852.5490318,-16
1659687492.66485,1006852.5490386,-19
1659687492.66485,1006852.5490475,-19
1659687492.66485,1006852.549057,-4
1659687492.66485,1006852.5490679,-7
1659687492.66485,1006852.5490709,-21
1659687492.66485,1006852.5490731,-7
1659687492.66485,1006852.5490753,16
1659687492.66485,1006852.5490781,16
1659687492.66485,1006852.5490803,4
1659687492.66485,1006852.5490824,4
1659687492.66485,1006852.5490844,4
1659687492.66485,1006852.5490865,-14
1659687492.66485,1006852.5490885,-24
1659687492.66485,1006853.0847998,-12
1659687492.66485,1006853.0848156,-2
1659687492.66485,1006853.0848197,24
1659687492.66485,1006853.0848233,55
1659687492.66485,1006853.0848263,60
1659687492.66485,1006853.0848292,60
1659687492.66485,1006853.0848319,43
1659687492.66485,1006853.0848354,-2
1659687492.66485,1006853.0848387,-9
1659687492.66485,1006853.0848415,9
1659687492.66485,1006853.0848444,-2
1659687493.18203,1006853.0848473,-14
1659687493.18203,1006853.0848502,-7
1659687493.18203,1006853.084853,9
1659687493.18203,1006853.0848558,16
1659687493.18203,1006853.0848588,-2
1659687493.18203,1006853.0848618,0
1659687493.18203,1006853.0848646,184
1659687493.18203,1006853.0848676,612
1659687493.18203,1006853.0848705,1021
1659687493.18203,1006853.0848736,1014
1659687493.18203,1006853.0849958,443
1659687493.18203,1006853.0850057,-295
1659687493.18203,1006853.0850098,-474
1659687493.18203,1006853.0850924,-125
1659687493.18203,1006853.0851004,38
1659687493.18203,1006853.0851054,-41
1659687493.18203,1006853.0851089,-29
1659687493.18203,1006853.0851129,4
1659687493.18203,1006853.0851181,-14
1659687493.18203,1006853.0851215,4
1659687493.18203,1006853.0851261,38
1659687493.18203,1006853.0851314,26
1659687493.18203,1006853.0851361,29
1659687493.18203,1006853.0851396,60
1659687493.18203,1006853.0851431,65
1659687493.18203,1006853.0851465,53
1659687493.18203,1006853.0851506,79
1659687493.18203,1006853.0851537,94
1659687493.18203,1006853.0851567,58
1659687493.18203,1006853.0851596,84
1659687493.18203,1006853.0852254,164
1659687493.18203,1006853.085236,164
1659687493.18203,1006853.0852399,130
1659687493.18203,1006853.0852435,157
1659687493.18203,1006853.0852471,174
1659687493.18203,1006853.0852507,159
1659687493.18203,1006853.085254,181
1659687493.18203,1006853.0852573,220
1659687493.18203,1006853.0852608,234
1659687493.18203,1006853.0852643,246
1659687493.18203,1006853.0853507,271
1659687493.18203,1006853.0853713,283
1659687493.18203,1006853.0853798,276
1659687493.18203,1006853.0853869,239
1659687493.18203,1006853.0853931,188
1659687493.18203,1006853.0853992,152
1659687493.18203,1006853.0854054,108
1659687493.18203,1006853.0854117,46
1659687493.18203,1006853.0854178,7
1659687493.18203,1006853.0854244,-24
1659687493.2206,1006853.0854302,-72
1659687493.2206,1006853.0854363,-92
1659687493.2206,1006853.0854423,-72
1659687493.2206,1006853.0854485,-70
1659687493.2206,1006853.0854545,-75
1659687493.2206,1006853.0854592,-70
1659687493.2206,1006853.085464,-70
1659687493.2206,1006853.0854683,-46
1659687493.2206,1006853.085473,-29
1659687493.2206,1006853.0854767,-38
1659687493.2206,1006853.0854823,-16
1659687493.2206,1006853.0854875,-2
1659687493.2206,1006853.6218126,-16
1659687493.2206,1006853.6218325,0
1659687493.2206,1006853.6218391,43
1659687493.2206,1006853.6218458,53
1659687493.2206,1006853.6218528,26
1659687493.2206,1006853.6218635,4
1659687493.2206,1006853.6218677,16
1659687493.2206,1006853.6218714,60
1659687493.2206,1006853.6218751,60
1659687493.2206,1006853.6218787,36
1659687493.2206,1006853.6218824,38
1659687493.2206,1006853.621886,38
1659687493.70035,1006853.6218918,33
1659687493.70035,1006853.6218979,48
1659687493.70035,1006853.6219045,60
1659687493.70035,1006853.6219114,62
1659687493.70035,1006853.6219399,58
1659687493.70035,1006853.6219526,33
1659687493.70035,1006853.6219577,29
1659687493.70035,1006853.6219619,53
1659687493.70035,1006853.6219667,58
1659687493.70035,1006853.6219715,55
1659687493.70035,1006853.6219807,87
1659687493.70035,1006853.6220036,99
1659687493.70035,1006853.6220112,60
1659687493.70035,1006853.6220146,58
1659687493.70035,1006853.6220175,145
1659687493.70035,1006853.6220204,227
1659687493.70035,1006853.622023,200
1659687493.70035,1006853.6220258,169
1659687493.70035,1006853.6220285,200
1659687493.70035,1006853.6220313,196
1659687493.70035,1006853.6220343,162
1659687493.70035,1006853.6220387,176
1659687493.70035,1006853.6220454,208
1659687493.70035,1006853.6220508,205
1659687493.70035,1006853.6220631,196
1659687493.70035,1006853.6220937,208
1659687493.70035,1006853.6221043,210
1659687493.70035,1006853.6221093,208
1659687493.70035,1006853.6221223,222
1659687493.70035,1006853.6221288,205
1659687493.70035,1006853.6221341,200
1659687493.70035,1006853.6221397,452
1659687493.70035,1006853.6221453,966
1659687493.70035,1006853.6221509,1331
1659687493.70035,1006853.6221556,1225
1659687493.70035,1006853.6221642,590
1659687493.70035,1006853.622168,-142
1659687493.70035,1006853.6221733,-259
1659687493.70035,1006853.6221785,99
1659687493.70035,1006853.6221823,225
1659687493.70035,1006853.6221853,138
1659687493.70035,1006853.6221881,154
1659687493.70035,1006853.622191,203
1659687493.70035,1006853.6221939,191
1659687493.70035,1006853.6221967,181
1659687493.70035,1006853.6221994,196
1659687493.70035,1006853.6222022,230
1659687493.70035,1006853.622205,268
1659687493.70035,1006853.6222079,242
1659687493.70035,1006853.6222108,179
1659687493.74224,1006853.6222136,205
1659687493.74224,1006853.6222164,244
1659687493.74224,1006853.6222192,210
1659687493.74224,1006853.622222,222
1659687493.74224,1006853.6222247,297
1659687493.74224,1006853.6222276,343
1659687493.74224,1006853.6222303,285
1659687493.74224,1006853.6222332,203
1659687493.74224,1006853.622236,266
1659687493.74224,1006853.6222388,358
1659687493.74224,1006853.6222417,341
1659687493.74224,1006854.1568627,338
1659687493.74224,1006854.1568818,368
1659687493.74224,1006854.1568875,346
1659687493.74224,1006854.1568918,334
1659687493.74224,1006854.1569146,392
1659687493.74224,1006854.1569231,406
1659687493.74224,1006854.1569278,348
1659687493.74224,1006854.1569313,312
1659687493.74224,1006854.1569341,266
1659687493.74224,1006854.156938,174
1659687493.74224,1006854.1569413,108
1659687493.74224,1006854.1569447,65
1659687493.74224,1006854.1569479,-21
1659687494.28185,1006854.1569511,-84
1659687494.28185,1006854.1569544,-50
1659687494.28185,1006854.1569577,-24
1659687494.28185,1006854.1569609,-53
1659687494.28185,1006854.156964,-70
1659687494.28185,1006854.1569673,-82
1659687494.28185,1006854.1569719,-92
1659687494.28185,1006854.1569752,-53
1659687494.28185,1006854.1569781,-9
1659687494.28185,1006854.1569813,2
1659687494.28185,1006854.1569844,19
1659687494.28185,1006854.1569877,2
1659687494.28185,1006854.1569912,-29
1659687494.28185,1006854.1569946,-2
1659687494.28185,1006854.1569978,26
1659687494.28185,1006854.1570013,7
1659687494.28185,1006854.1570046,-29
1659687494.28185,1006854.1570079,-50
1659687494.28185,1006854.1570113,-9
1659687494.28185,1006854.1570149,41
1659687494.28185,1006854.1570183,24
1659687494.28185,1006854.1570248,21
1659687494.28185,1006854.1570283,55
1659687494.28185,1006854.1570341,31
1659687494.28185,1006854.1570377,-9
1659687494.28185,1006854.1570412,2
1659687494.28185,1006854.1570447,29
1659687494.28185,1006854.1570497,38
1659687494.28185,1006854.1570532,29
1659687494.28185,1006854.1570566,24
1659687494.28185,1006854.15706,60
1659687494.28185,1006854.157065,79
1659687494.28185,1006854.1570685,33
1659687494.28185,1006854.1570753,12
1659687494.28185,1006854.1570789,58
1659687494.28185,1006854.1570823,94
1659687494.28185,1006854.1570856,75
1659687494.28185,1006854.1570896,50

1659687494.28185,1006854.1570953,60
1659687494.28185,1006854.1570987,84
1659687494.28185,1006854.1571034,128
1659687494.28185,1006854.1571069,157
1659687494.28185,1006854.1571103,116
1659687494.28185,1006854.1571138,62
1659687494.28185,1006854.157117,104
1659687494.28185,1006854.1571205,176
1659687494.28185,1006854.1571237,138
1659687494.28185,1006854.1571288,67
1659687494.28185,1006854.1571319,121
1659687494.28185,1006854.1571353,191
1659687494.32573,1006854.1571402,118
1659687494.32573,1006854.1571434,21
1659687494.32573,1006854.1571488,53
1659687494.32573,1006854.1571545,92
1659687494.32573,1006854.1571582,75
1659687494.32573,1006854.1571618,237
1659687494.32573,1006854.1571654,706
1659687494.32573,1006854.1571702,1176
1659687494.32573,1006854.1571737,1176
1659687494.32573,1006854.157179,525
1659687494.32573,1006854.7442459,-285
1659687494.32573,1006854.7442629,-438
1659687494.32573,1006854.7442703,-50
1659687494.32573,1006854.7442761,121
1659687494.32573,1006854.7442812,24
1659687494.32573,1006854.7442914,-12
1659687494.32573,1006854.744298,2
1659687494.32573,1006854.7443053,-9
1659687494.32573,1006854.7443116,12
1659687494.32573,1006854.7443182,60
1659687494.32573,1006854.7443248,46
1659687494.32573,1006854.7443316,-4
1659687494.32573,1006854.7443385,-4
1659687494.32573,1006854.7443455,4
1659687494.92499,1006854.7443524,-7
1659687494.92499,1006854.7443606,29
1659687494.92499,1006854.7443651,77
1659687494.92499,1006854.744369,58
1659687494.92499,1006854.7443725,67
1659687494.92499,1006854.7443766,121
1659687494.92499,1006854.7443818,101
1659687494.92499,1006854.7443868,55
1659687494.92499,1006854.7443921,96
1659687494.92499,1006854.7443981,181
1659687494.92499,1006854.7444044,191
1659687494.92499,1006854.7444098,184
1659687494.92499,1006854.744434,225
1659687494.92499,1006854.7444495,254
1659687494.92499,1006854.7444555,244
1659687494.92499,1006854.7444701,234
1659687494.92499,1006854.7444763,261
1659687494.92499,1006854.7445031,280
1659687494.92499,1006854.7445133,237
1659687494.92499,1006854.7445203,169
1659687494.92499,1006854.7445261,116
1659687494.92499,1006854.7445292,53
1659687494.92499,1006854.7445321,-7
1659687494.92499,1006854.7445349,-31
1659687494.92499,1006854.7445378,-50
1659687494.92499,1006854.7445406,-99
1659687494.92499,1006854.7445434,-147
1659687494.92499,1006854.7445463,-138
1659687494.92499,1006854.7445491,-101
1659687494.92499,1006854.7445519,-96
1659687494.92499,1006854.7445547,-99
1659687494.92499,1006854.7445575,-84
1659687494.92499,1006854.7445603,-75
1659687494.92499,1006854.7445632,-84
1659687494.92499,1006854.7445661,-77
1659687494.92499,1006854.7445689,-67
1659687494.92499,1006854.7445718,-89
1659687494.92499,1006854.7445746,-75
1659687494.92499,1006854.7445774,-36
1659687494.92499,1006854.7445802,-29
1659687494.92499,1006854.744583,-43
1659687494.92499,1006854.7445859,-55
1659687494.92499,1006854.7445888,-46
1659687494.92499,1006854.7445915,-19
1659687494.92499,1006854.7445944,-9
1659687494.92499,1006854.7445972,-16
1659687494.92499,1006854.7446002,-21
1659687494.92499,1006854.744603,-31
1659687494.92499,1006854.7446058,-26
1659687494.92499,1006854.7446086,-2
1659687494.96389,1006854.7446114,-2
1659687494.96389,1006854.7446141,-4
1659687494.96389,1006854.744617,9
1659687494.96389,1006854.7446199,2
1659687494.96389,1006854.7446227,0
1659687494.96389,1006854.7446255,24
1659687494.96389,1006854.7446284,50
1659687494.96389,1006854.7446312,53
1659687494.96389,1006854.744634,21
1659687494.96389,1006855.3760553,-2
1659687494.96389,1006855.3760698,2
1659687494.96389,1006855.3760741,19
1659687494.96389,1006855.3760807,31
1659687494.96389,1006855.3760844,41
1659687494.96389,1006855.3760878,70
1659687494.96389,1006855.3760941,111
1659687494.96389,1006855.3760979,92
1659687494.96389,1006855.3761037,19
1659687494.96389,1006855.3761099,7
1659687494.96389,1006855.3761162,31
1659687494.96389,1006855.3761263,38
1659687494.96389,1006855.3761329,33
1659687494.96389,1006855.3761374,29
1659687494.96389,1006855.3761394,16
1659687495.40656,1006855.3761412,7
1659687495.40656,1006855.3761438,9
1659687495.40656,1006855.3761458,16
1659687495.40656,1006855.3761484,19
1659687495.40656,1006855.3761565,21
1659687495.40656,1006855.376163,113
1659687495.40656,1006855.3761688,457
1659687495.40656,1006855.3761735,985
1659687495.40656,1006855.3761767,1258
1659687495.40656,1006855.3761901,912
1659687495.40656,1006855.376199,84
1659687495.40656,1006855.3762017,-455
1659687495.40656,1006855.3762038,-254
1659687495.40656,1006855.3762059,26
1659687495.40656,1006855.3762079,-89
1659687495.40656,1006855.37621,-213
1659687495.40656,1006855.3762123,-184
1659687495.40656,1006855.3762187,-200
1659687495.40656,1006855.3762327,-237
1659687495.40656,1006855.3762469,-227
1659687495.40656,1006855.376256,-225
1659687495.40656,1006855.3762584,-220
1659687495.40656,1006855.3762604,-196
1659687495.40656,1006855.3762624,-179
1659687495.40656,1006855.3762644,-150
1659687495.40656,1006855.3762664,-111
1659687495.40656,1006855.3762685,-79
1659687495.40656,1006855.3762704,-41
1659687495.40656,1006855.3762855,14
1659687495.40656,1006855.3762877,79
1659687495.40656,1006855.3762897,101
1659687495.40656,1006855.3762917,111
1659687495.40656,1006855.3762936,154
1659687495.40656,1006855.3763111,164
1659687495.40656,1006855.3763132,145
1659687495.40656,1006855.3763152,184
1659687495.40656,1006855.3763173,273
1659687495.40656,1006855.3763192,305
1659687495.40656,1006855.3763212,259
1659687495.40656,1006855.3763232,251
1659687495.40656,1006855.3763253,305
1659687495.40656,1006855.3763273,280
1659687495.40656,1006855.3763293,227
1659687495.40656,1006855.3763314,244
1659687495.40656,1006855.3763334,215
1659687495.40656,1006855.3763355,128
1659687495.40656,1006855.3763375,87
1659687495.40656,1006855.3763395,58
1659687495.40656,1006855.3763416,0
1659687495.40656,1006855.3763437,-38
1659687495.43703,1006855.3763457,-62
1659687495.43703,1006855.3763477,-89
1659687495.43703,1006855.3763498,-84
1659687495.43703,1006855.3763518,-62
1659687495.43703,1006855.3763538,-55
1659687495.43703,1006855.3763558,-53
1659687495.43703,1006855.3763577,-43
1659687495.43703,1006855.3763598,-36
1659687495.43703,1006855.863317,-29
1659687495.43703,1006855.8633382,-16
1659687495.43703,1006855.8633525,-7
1659687495.43703,1006855.8633609,-14
1659687495.43703,1006855.8633703,-29
1659687495.43703,1006855.8633771,-12
1659687495.43703,1006855.8633837,14
1659687495.43703,1006855.8633917,16
1659687495.43703,1006855.8634004,9
1659687495.43703,1006855.8634084,2
1659687495.43703,1006855.8634191,-9
1659687495.43703,1006855.8634263,-19
1659687495.43703,1006855.8634359,-24
1659687495.43703,1006855.863446,-36
1659687495.43703,1006855.863456,-38
1659687495.43703,1006855.8634627,-4
1659687495.99543,1006855.8634749,9
1659687495.99543,1006855.8634836,-24
1659687495.99543,1006855.8634893,-48
1659687495.99543,1006855.8634992,-21
1659687495.99543,1006855.8635077,7
1659687495.99543,1006855.8635151,16
1659687495.99543,1006855.8635198,41
1659687495.99543,1006855.86353,43
1659687495.99543,1006855.8635438,7
1659687495.99543,1006855.8635568,14
1659687495.99543,1006855.8635865,65
1659687495.99543,1006855.863593,99
1659687495.99543,1006855.8635996,92
1659687495.99543,1006855.8636051,62
1659687495.99543,1006855.8636099,70
1659687495.99543,1006855.8636154,101
1659687495.99543,1006855.8636214,111
1659687495.99543,1006855.8636344,128
1659687495.99543,1006855.8636391,162
1659687495.99543,1006855.8636427,179
1659687495.99543,1006855.8636465,164
1659687495.99543,1006855.8636497,138
1659687495.99543,1006855.863654,140
1659687495.99543,1006855.8636574,162
1659687495.99543,1006855.8636608,162
1659687495.99543,1006855.8636642,142
1659687495.99543,1006855.8636677,147
1659687495.99543,1006855.863671,157
1659687495.99543,1006855.8636744,164
1659687495.99543,1006855.8636782,171
1659687495.99543,1006855.8636815,140
1659687495.99543,1006855.8636856,128
1659687495.99543,1006855.8636896,358
1659687495.99543,1006855.8636939,837
1659687495.99543,1006855.8636973,1186
1659687495.99543,1006855.8637008,1084
1659687495.99543,1006855.8637041,489
1659687495.99543,1006855.8637077,-230
1659687495.99543,1006855.863712,-375
1659687495.99543,1006855.8637161,14
1659687495.99543,1006855.863722,205
1659687495.99543,1006855.8637295,133
1659687495.99543,1006855.8637331,140
1659687495.99543,1006855.8637369,159
1659687495.99543,1006855.8637406,152
1659687495.99543,1006855.8637443,181
1659687495.99543,1006855.863748,167
1659687495.99543,1006855.8637515,140
1659687495.99543,1006855.8637548,164
1659687495.99543,1006855.8637582,176
1659687496.03431,1006855.8637615,167
1659687496.03431,1006855.863765,193
1659687496.03431,1006855.8637685,225
1659687496.03431,1006855.8637719,200
1659687496.03431,1006855.8637752,174
1659687496.03431,1006855.8637785,205
1659687496.03431,1006855.8637821,232
1659687496.03431,1006856.4486931,242
1659687496.03431,1006856.4487204,268
1659687496.03431,1006856.4487231,278
1659687496.03431,1006856.4487252,278
1659687496.03431,1006856.4487271,305
1659687496.03431,1006856.4487292,346
1659687496.03431,1006856.448731,380
1659687496.03431,1006856.4487329,380
1659687496.03431,1006856.4487354,358
1659687496.03431,1006856.4487374,348
1659687496.03431,1006856.4487393,351
1659687496.03431,1006856.4487411,331
1659687496.03431,1006856.448743,288
1659687496.03431,1006856.4487448,246
1659687496.03431,1006856.4487467,203
1659687496.03431,1006856.4487486,130
1659687496.03431,1006856.448751,67
1659687496.55644,1006856.4487572,58
1659687496.55644,1006856.4487641,33
1659687496.55644,1006856.448768,-46
1659687496.55644,1006856.4487717,-79
1659687496.55644,1006856.4487754,-67
1659687496.55644,1006856.4487812,-84
1659687496.55644,1006856.4487866,-79
1659687496.55644,1006856.4487925,-26
1659687496.55644,1006856.4488002,-33
1659687496.55644,1006856.448822,-89
1659687496.55644,1006856.4488243,-104
1659687496.55644,1006856.4488263,-67
1659687496.55644,1006856.4488283,-26
1659687496.55644,1006856.4488302,-38
1659687496.55644,1006856.4488321,-53
1659687496.55644,1006856.448834,-62
1659687496.55644,1006856.4488359,-77
1659687496.55644,1006856.4488377,-36
1659687496.55644,1006856.4488396,0
1659687496.55644,1006856.4488415,-43
1659687496.55644,1006856.4488434,-99
1659687496.55644,1006856.4488452,-75
1659687496.55644,1006856.4488471,-19
1659687496.55644,1006856.4488489,-24
1659687496.55644,1006856.4488508,-53
1659687496.55644,1006856.4488526,-50
1659687496.55644,1006856.4488544,-41
1659687496.55644,1006856.4488563,-21
1659687496.55644,1006856.4488582,0
1659687496.55644,1006856.4488601,9
1659687496.55644,1006856.448862,9
1659687496.55644,1006856.4488638,-12
1659687496.55644,1006856.4488657,-4
1659687496.55644,1006856.4488675,21
1659687496.55644,1006856.4488694,-19
1659687496.55644,1006856.4488713,-50
1659687496.55644,1006856.4488732,7
1659687496.55644,1006856.4488751,60
1659687496.55644,1006856.448877,67
1659687496.55644,1006856.4488847,60
1659687496.55644,1006856.4488866,33
1659687496.55644,1006856.4488894,33
1659687496.55644,1006856.4489066,65
1659687496.55644,1006856.4489096,65
1659687496.55644,1006856.4489116,41
1659687496.55644,1006856.4489137,41
1659687496.55644,1006856.4489158,50
1659687496.55644,1006856.4489178,41
1659687496.55644,1006856.4489199,60
1659687496.55644,1006856.4489219,104
1659687496.60234,1006856.4489239,84
1659687496.60234,1006856.4489266,43
1659687496.60234,1006856.4489288,198
1659687496.60234,1006856.4489308,602
1659687496.60234,1006856.4489329,990
1659687496.60234,1006856.448935,1045
1659687496.60234,1006856.9869844,624
1659687496.60234,1006856.9870033,-70
1659687496.60234,1006856.9870089,-404
1659687496.60234,1006856.9870156,-181
1659687496.60234,1006856.9870214,12
1659687496.60234,1006856.9870252,2
1659687496.60234,1006856.9870302,46
1659687496.60234,1006856.9870359,79
1659687496.60234,1006856.9870406,38
1659687496.60234,1006856.9870442,31
1659687496.60234,1006856.9870478,53
1659687496.60234,1006856.9870518,36
1659687496.60234,1006856.9870555,16
1659687496.60234,1006856.9870594,36
1659687496.60234,1006856.987063,62
1659687496.60234,1006856.987069,79
1659687496.60234,1006856.9870732,75
1659687496.60234,1006856.9870792,24
1659687497.12367,1006856.9870835,4
1659687497.12367,1006856.9870877,65
1659687497.12367,1006856.9870917,121
1659687497.12367,1006856.9871088,123
1659687497.12367,1006856.9871235,130
1659687497.12367,1006856.9871317,152
1659687497.12367,1006856.9871362,169
1659687497.12367,1006856.9871403,179
1659687497.12367,1006856.987144,181
1659687497.12367,1006856.9871477,196
1659687497.12367,1006856.9871534,242
1659687497.12367,1006856.9871575,271
1659687497.12367,1006856.9871632,259
1659687497.12367,1006856.9871673,239
1659687497.12367,1006856.9871712,222
1659687497.12367,1006856.9871749,217
1659687497.12367,1006856.9871788,200
1659687497.12367,1006856.9871845,133
1659687497.12367,1006856.9871884,55
1659687497.12367,1006856.9871936,-4
1659687497.12367,1006856.9871975,-65
1659687497.12367,1006856.9872014,-116
1659687497.12367,1006856.9872208,-118
1659687497.12367,1006856.9872409,-111
1659687497.12367,1006856.9872472,-128
1659687497.12367,1006856.9872557,-140
1659687497.12367,1006856.9872648,-138
1659687497.12367,1006856.9872693,-121
1659687497.12367,1006856.9872726,-104
1659687497.12367,1006856.9872758,-104
1659687497.12367,1006856.9872814,-101
1659687497.12367,1006856.9872872,-77
1659687497.12367,1006856.9872925,-43
1659687497.12367,1006856.9872956,-29
1659687497.12367,1006856.9872995,-50
1659687497.12367,1006856.9873039,-70
1659687497.12367,1006856.9873072,-65
1659687497.12367,1006856.9873127,-79
1659687497.12367,1006856.9873158,-75
1659687497.12367,1006856.9873211,-19
1659687497.12367,1006856.9873265,16
1659687497.12367,1006856.9873303,14
1659687497.12367,1006856.9873352,24
1659687497.12367,1006856.9873388,36
1659687497.12367,1006856.9873424,7
1659687497.12367,1006856.9873469,-70
1659687497.12367,1006856.987351,-111
1659687497.12367,1006856.987354,-58
1659687497.12367,1006856.987357,-4
1659687497.12367,1006856.9873599,16
1659687497.15657,1006856.9873628,38
1659687497.15657,1006856.9873657,14
1659687497.15657,1006856.9873686,-33
1659687497.15657,1006856.9873715,-19
1659687497.15657,1006856.9873743,36
1659687497.15657,1006857.5713101,72
1659687497.15657,1006857.5713364,130
1659687497.15657,1006857.571339,184
1659687497.15657,1006857.571341,111
1659687497.15657,1006857.5713429,7
1659687497.15657,1006857.571345,60
1659687497.15657,1006857.571347,162
1659687497.15657,1006857.5713495,150
1659687497.15657,1006857.5713517,111
1659687497.15657,1006857.5713535,99
1659687497.15657,1006857.5713555,89
1659687497.15657,1006857.5713573,121
1659687497.15657,1006857.5713592,179
1659687497.15657,1006857.5713611,208
1659687497.15657,1006857.571363,193
1659687497.15657,1006857.5713659,179
1659687497.15657,1006857.5713715,205
1659687497.15657,1006857.5713781,198
1659687497.15657,1006857.5713822,125
1659687497.71514,1006857.5713859,101
1659687497.71514,1006857.5713905,133
1659687497.71514,1006857.5713955,130
1659687497.71514,1006857.5714013,116
1659687497.71514,1006857.5714067,113
1659687497.71514,1006857.5714125,99
1659687497.71514,1006857.5714215,118
1659687497.71514,1006857.5714283,292
1659687497.71514,1006857.5714306,631
1659687497.71514,1006857.5714335,934
1659687497.71514,1006857.5714356,1009
1659687497.71514,1006857.5714376,699
1659687497.71514,1006857.5714396,65
1659687497.71514,1006857.5714417,-317
1659687497.71514,1006857.5714438,-116
1659687497.71514,1006857.5714458,169
1659687497.71514,1006857.5714479,123
1659687497.71514,1006857.5714499,46
1659687497.71514,1006857.5714521,135
1659687497.71514,1006857.5714541,169
1659687497.71514,1006857.5714561,111
1659687497.71514,1006857.5714581,99
1659687497.71514,1006857.5714601,142
1659687497.71514,1006857.5714621,169
1659687497.71514,1006857.5714641,179
1659687497.71514,1006857.5714661,200
1659687497.71514,1006857.5714681,188
1659687497.71514,1006857.5714701,152
1659687497.71514,1006857.5714728,140
1659687497.71514,1006857.5714749,145
1659687497.71514,1006857.5714774,179
1659687497.71514,1006857.5714795,222
1659687497.71514,1006857.5714815,244
1659687497.71514,1006857.5714835,232
1659687497.71514,1006857.5714855,208
1659687497.71514,1006857.5714875,237
1659687497.71514,1006857.5714895,292
1659687497.71514,1006857.5714915,326
1659687497.71514,1006857.5714936,329
1659687497.71514,1006857.5714957,324
1659687497.71514,1006857.5714976,334
1659687497.71514,1006857.5714997,365
1659687497.71514,1006857.5715017,368
1659687497.71514,1006857.5715043,343
1659687497.71514,1006857.5715065,331
1659687497.71514,1006857.5715085,322
1659687497.71514,1006857.5715105,300
1659687497.71514,1006857.5715125,266
1659687497.71514,1006857.5715146,210
1659687497.71514,1006857.5715166,140
1659687497.75603,1006857.5715187,106
1659687497.75603,1006857.5715207,125
1659687497.75603,1006857.5715228,99
1659687497.75603,1006857.5715248,29
1659687497.75603,1006858.1554122,41
1659687497.75603,1006858.1554292,75
1659687497.75603,1006858.1554657,36
1659687497.75603,1006858.1554793,21
1659687497.75603,1006858.1554929,92
1659687497.75603,1006858.1555066,108
1659687497.75603,1006858.1555159,67
1659687497.75603,1006858.1555186,96
1659687497.75603,1006858.1555249,154
1659687497.75603,1006858.1555385,99
1659687497.75603,1006858.1555609,12
1659687497.75603,1006858.15557,55
1659687497.75603,1006858.1555768,125
1659687497.75603,1006858.1555832,106
1659687497.75603,1006858.1555891,62
1659687497.75603,1006858.1555943,67
1659687497.75603,1006858.1555986,128
1659687497.75603,1006858.155604,145
1659687497.75603,1006858.1556091,125
1659687497.75603,1006858.1556131,135
1659687498.2288,1006858.1556171,89
1659687498.2288,1006858.1556238,77
1659687498.2288,1006858.1556305,113
1659687498.2288,1006858.1556373,79
1659687498.2288,1006858.1556431,62
1659687498.2288,1006858.1556469,77
1659687498.2288,1006858.1556504,84
1659687498.2288,1006858.1556541,130
1659687498.2288,1006858.1556598,162
1659687498.2288,1006858.1556655,92
1659687498.2288,1006858.1556713,82
1659687498.2288,1006858.1556776,171
1659687498.2288,1006858.1556879,135
1659687498.2288,1006858.1556937,77
1659687498.2288,1006858.1556958,164
1659687498.2288,1006858.1556977,213
1659687498.2288,1006858.1556996,157
1659687498.2288,1006858.1557146,147
1659687498.2288,1006858.1557171,203
1659687498.2288,1006858.155741,203
1659687498.2288,1006858.1557481,108
1659687498.2288,1006858.1557507,101
1659687498.2288,1006858.1557529,210
1659687498.2288,1006858.1557549,205
1659687498.2288,1006858.1557582,145
1659687498.2288,1006858.1557709,167
1659687498.2288,1006858.1557766,174
1659687498.2288,1006858.1557789,150
1659687498.2288,1006858.155781,147
1659687498.2288,1006858.155783,157
1659687498.2288,1006858.1557851,159
1659687498.2288,1006858.1557871,184
1659687498.2288,1006858.1557892,372
1659687498.2288,1006858.1557912,752
1659687498.2288,1006858.1557946,1050
1659687498.2288,1006858.1558073,939
1659687498.2288,1006858.1558132,382
1659687498.2288,1006858.1558154,-118
1659687498.2288,1006858.1558175,-96
1659687498.2288,1006858.1558196,138
1659687498.2288,1006858.1558217,159
1659687498.2288,1006858.1558237,123
1659687498.2288,1006858.1558268,169
1659687498.2288,1006858.1558392,188
1659687498.2288,1006858.1558457,196
1659687498.2288,1006858.155848,225
1659687498.2288,1006858.1558507,188
1659687498.2288,1006858.1558528,135
1659687498.2288,1006858.155855,164
1659687498.2288,1006858.1558584,191
1659687498.26471,1006858.155871,169
1659687498.26471,1006858.1558768,169
1659687498.26471,1006858.155879,169
1659687498.26471,1006858.6909952,152
1659687498.26471,1006858.6910171,150
1659687498.26471,1006858.6910248,174
1659687498.26471,1006858.6910319,230
1659687498.26471,1006858.6910369,251
1659687498.26471,1006858.6910421,205
1659687498.26471,1006858.6910486,188
1659687498.26471,1006858.6910533,215
1659687498.26471,1006858.6910645,217
1659687498.26471,1006858.6910693,220
1659687498.26471,1006858.6910814,251
1659687498.26471,1006858.6911074,276
1659687498.26471,1006858.6911159,288
1659687498.26471,1006858.6911254,290
1659687498.26471,1006858.6911308,261
1659687498.26471,1006858.691136,227
1659687498.26471,1006858.6911477,196
1659687498.26471,1006858.6911622,150
1659687498.26471,1006858.6911749,113
1659687498.26471,1006858.6911827,72
1659687498.26471,1006858.6911924,7
1659687498.82959,1006858.6912004,-48
1659687498.82959,1006858.6912051,-75
1659687498.82959,1006858.6912101,-77
1659687498.82959,1006858.691215,-92
1659687498.82959,1006858.6912199,-121
1659687498.82959,1006858.6912249,-128
1659687498.82959,1006858.6912339,-125
1659687498.82959,1006858.6912405,-121
1659687498.82959,1006858.6912479,-106
1659687498.82959,1006858.6912624,-82
1659687498.82959,1006858.6912802,-67
1659687498.82959,1006858.6912871,-65
1659687498.82959,1006858.6912906,-58
1659687498.82959,1006858.6913052,-33
1659687498.82959,1006858.6913128,7
1659687498.82959,1006858.6913154,16
1659687498.82959,1006858.6913175,-24
1659687498.82959,1006858.6913196,-50
1659687498.82959,1006858.6913227,-41
1659687498.82959,1006858.6913309,-36
1659687498.82959,1006858.6913437,-38
1659687498.82959,1006858.6913556,-31
1659687498.82959,1006858.6913689,-31
1659687498.82959,1006858.6913846,-38
1659687498.82959,1006858.6914102,-24
1659687498.82959,1006858.6914385,-4
1659687498.82959,1006858.6914524,-16
1659687498.82959,1006858.6914681,-16
1659687498.82959,1006858.6914793,14
1659687498.82959,1006858.6914864,16
1659687498.82959,1006858.691492,-12
1659687498.82959,1006858.6914978,2
1659687498.82959,1006858.6915062,48
1659687498.82959,1006858.6915175,53
1659687498.82959,1006858.6915331,36
1659687498.82959,1006858.6915482,58
1659687498.82959,1006858.6915571,72
1659687498.82959,1006858.6915702,36
1659687498.82959,1006858.6915845,24
1659687498.82959,1006858.6915989,60
1659687498.82959,1006858.6916129,58
1659687498.82959,1006858.691627,31
1659687498.82959,1006858.6916408,53
1659687498.82959,1006858.6916544,60
1659687498.82959,1006858.6916683,38
1659687498.82959,1006858.6916821,75
1659687498.82959,1006858.6916956,111
1659687498.82959,1006858.6917095,94
1659687498.82959,1006858.6917231,67
1659687498.82959,1006858.6917367,60
1659687498.86448,1006858.6917501,53
1659687498.86448,1006858.6917623,31
1659687498.86448,1006859.2759794,38
1659687498.86448,1006859.2759953,67
1659687498.86448,1006859.2760006,55
1659687498.86448,1006859.2760041,43
1659687498.86448,1006859.2760084,48
1659687498.86448,1006859.2760133,36
1659687498.86448,1006859.2760168,14
1659687498.86448,1006859.2760209,55
1659687498.86448,1006859.2760263,295
1659687498.86448,1006859.2760307,738
1659687498.86448,1006859.2760396,1065
1659687498.86448,1006859.2760522,932
1659687498.86448,1006859.2760599,297
1659687498.86448,1006859.2760688,-360
1659687498.86448,1006859.2760771,-384
1659687498.86448,1006859.2760892,-36
1659687498.86448,1006859.2760987,9
1659687498.86448,1006859.2761035,-96
1659687498.86448,1006859.2761164,-48
1659687498.86448,1006859.2761244,-12
1659687498.86448,1006859.2761359,-26
1659687498.86448,1006859.2761505,16
1659687499.43517,1006859.2761634,33
1659687499.43517,1006859.2761712,0
1659687499.43517,1006859.2761783,7
1659687499.43517,1006859.2761839,43
1659687499.43517,1006859.2761911,46
1659687499.43517,1006859.2762018,46
1659687499.43517,1006859.2762139,62
1659687499.43517,1006859.2762265,67
1659687499.43517,1006859.2762401,79
1659687499.43517,1006859.2762606,96
1659687499.43517,1006859.276263,104
1659687499.43517,1006859.2762649,125
1659687499.43517,1006859.2762668,164
1659687499.43517,1006859.2762687,188
1659687499.43517,1006859.2762705,196
1659687499.43517,1006859.2762723,217
1659687499.43517,1006859.2762971,242
1659687499.43517,1006859.2762992,251
1659687499.43517,1006859.2763011,268
1659687499.43517,1006859.276303,285
1659687499.43517,1006859.2763049,290
1659687499.43517,1006859.2763082,302
1659687499.43517,1006859.2763103,300
1659687499.43517,1006859.2763123,268
1659687499.43517,1006859.2763143,239
1659687499.43517,1006859.2763164,188
1659687499.43517,1006859.2763184,111
1659687499.43517,1006859.2763204,50
1659687499.43517,1006859.2763224,19
1659687499.43517,1006859.2763244,-4
1659687499.43517,1006859.2763265,-26
1659687499.43517,1006859.2763285,-43
1659687499.43517,1006859.2763305,-55
1659687499.43517,1006859.2763326,-65
1659687499.43517,1006859.2763346,-65
1659687499.43517,1006859.2763366,-50
1659687499.43517,1006859.2763387,-50
1659687499.43517,1006859.2763539,-50
1659687499.43517,1006859.276356,-38
1659687499.43517,1006859.276358,-29
1659687499.43517,1006859.2763599,-21
1659687499.43517,1006859.2763774,-14
1659687499.43517,1006859.2763794,-14
1659687499.43517,1006859.2763814,-21
1659687499.43517,1006859.2763834,-31
1659687499.43517,1006859.2763855,-36
1659687499.43517,1006859.2763876,-31
1659687499.43517,1006859.2763895,-14
1659687499.43517,1006859.2763916,7
1659687499.43517,1006859.2763936,14
1659687499.46808,1006859.2763956,9
1659687499.46808,1006859.8608458,2
1659687499.46808,1006859.8608668,0
1659687499.46808,1006859.8608756,12
1659687499.46808,1006859.8608851,19
1659687499.46808,1006859.8608946,12
1659687499.46808,1006859.8608972,24
1659687499.46808,1006859.8608994,48
1659687499.46808,1006859.8609013,41
1659687499.46808,1006859.8609033,21
1659687499.46808,1006859.8609053,24
1659687499.46808,1006859.8609074,38
1659687499.46808,1006859.8609095,38
1659687499.46808,1006859.8609116,21
1659687499.46808,1006859.8609137,12
1659687499.46808,1006859.8609157,9
1659687499.46808,1006859.8609177,7
1659687499.46808,1006859.8609197,16
1659687499.46808,1006859.8609217,38
1659687499.46808,1006859.8609238,50
1659687499.46808,1006859.8609275,65
1659687499.46808,1006859.8609406,101
1659687499.46808,1006859.8609465,125
1659687499.46808,1006859.8609488,128
1659687499.9063,1006859.8609509,125
1659687499.9063,1006859.8609531,118
1659687499.9063,1006859.8609572,106
1659687499.9063,1006859.8609616,108
1659687499.9063,1006859.860966,116
1659687499.9063,1006859.8609702,121
1659687499.9063,1006859.8609743,130
1659687499.9063,1006859.8609789,135
1659687499.9063,1006859.860983,128
1659687499.9063,1006859.8609876,125
1659687499.9063,1006859.8609941,113
1659687499.9063,1006859.8610036,99
1659687499.9063,1006859.8610123,251
1659687499.9063,1006859.8610165,673
1659687499.9063,1006859.8610216,1137
1659687499.9063,1006859.8610245,1263
1659687499.9063,1006859.8610275,803
1659687499.9063,1006859.8610306,-46
1659687499.9063,1006859.8610336,-462
1659687499.9063,1006859.8610366,-116
1659687499.9063,1006859.8610395,164
1659687499.9063,1006859.8610425,62
1659687499.9063,1006859.8610455,41
1659687499.9063,1006859.8610483,118
1659687499.9063,1006859.8610512,94
1659687499.9063,1006859.8610541,67
1659687499.9063,1006859.8610569,92
1659687499.9063,1006859.8610599,101
1659687499.9063,1006859.8610629,94
1659687499.9063,1006859.8610659,94
1659687499.9063,1006859.8610688,106
1659687499.9063,1006859.8610717,111
1659687499.9063,1006859.8610747,111
1659687499.9063,1006859.8610776,123
1659687499.9063,1006859.8610804,133
1659687499.9063,1006859.8610833,128
1659687499.9063,1006859.861087,130
1659687499.9063,1006859.8610946,147
1659687499.9063,1006859.861106,162
1659687499.9063,1006859.8611197,184
1659687499.9063,1006859.8611325,208
1659687499.9063,1006859.8611461,215
1659687499.9063,1006859.8611593,232
1659687499.9063,1006859.8611729,256
1659687499.9063,1006859.8611863,254
1659687499.9063,1006859.8611995,244
1659687499.9063,1006859.8612129,249
1659687499.9063,1006859.8612283,244
1659687499.9063,1006859.8612409,225
1659687499.9063,1006859.8612518,220
1659687499.94569,1006860.3483149,203
1659687499.94569,1006860.3483354,150
1659687499.94569,1006860.3483405,89
1659687499.94569,1006860.3483456,36
1659687499.94569,1006860.3483504,-14
1659687499.94569,1006860.3483548,-46
1659687499.94569,1006860.3483589,-65
1659687499.94569,1006860.3483622,-79
1659687499.94569,1006860.3483655,-87
1659687499.94569,1006860.3483702,-89
1659687499.94569,1006860.3483738,-89
1659687499.94569,1006860.3483774,-82
1659687499.94569,1006860.3483811,-75
1659687499.94569,1006860.3483847,-65
1659687499.94569,1006860.34839,-48
1659687499.94569,1006860.3483945,-38
1659687499.94569,1006860.3484004,-58
1659687499.94569,1006860.348405,-82
1659687499.94569,1006860.3484081,-79
1659687499.94569,1006860.3484112,-53
1659687499.94569,1006860.3484142,-33
1659687499.94569,1006860.3484172,-36
1659687499.94569,1006860.3484203,-50
1659687499.94569,1006860.3484232,-60
1659687500.50684,1006860.3484272,-58
1659687500.50684,1006860.3484341,-50
1659687500.50684,1006860.3484408,-55
1659687500.50684,1006860.3484478,-55
1659687500.50684,1006860.3484527,-38
1659687500.50684,1006860.3484574,-24
1659687500.50684,1006860.3484618,-26
1659687500.50684,1006860.3484678,-29
1659687500.50684,1006860.3484756,-19
1659687500.50684,1006860.3484877,-4
1659687500.50684,1006860.348501,7
1659687500.50684,1006860.3485081,12
1659687500.50684,1006860.3485108,12
1659687500.50684,1006860.3485162,12
1659687500.50684,1006860.3485288,7
1659687500.50684,1006860.3485356,16
1659687500.50684,1006860.3485399,46
1659687500.50684,1006860.3485419,60
1659687500.50684,1006860.3485501,41
1659687500.50684,1006860.3485627,26
1659687500.50684,1006860.3485701,31
1659687500.50684,1006860.3485735,33
1659687500.50684,1006860.348584,33
1659687500.50684,1006860.3485918,38
1659687500.50684,1006860.3485944,38
1659687500.50684,1006860.3485965,48
1659687500.50684,1006860.3485986,72
1659687500.50684,1006860.3486006,87
1659687500.50684,1006860.3486029,87
1659687500.50684,1006860.3486106,75
1659687500.50684,1006860.3486213,60
1659687500.50684,1006860.3486248,55
1659687500.50684,1006860.3486277,60
1659687500.50684,1006860.3486408,62
1659687500.50684,1006860.3486507,62
1659687500.50684,1006860.3486564,67
1659687500.50684,1006860.3486587,77
1659687500.50684,1006860.3486607,84
1659687500.50684,1006860.3486627,77
1659687500.50684,1006860.3486653,48
1659687500.50684,1006860.3486746,58
1659687500.50684,1006860.3486838,261
1659687500.50684,1006860.3486864,733
1659687500.50684,1006860.3486885,1205
1659687500.50684,1006860.3486906,1222
1659687500.50684,1006860.3486926,590
1659687500.50684,1006860.3486994,-208
1659687500.50684,1006860.3487104,-346
1659687500.50684,1006860.3487136,26
1659687500.50684,1006860.9357462,101
1659687500.54572,1006860.9357651,-38
1659687500.54572,1006860.93578,2
1659687500.54572,1006860.9357903,55
1659687500.54572,1006860.9357991,31
1659687500.54572,1006860.9358058,41
1659687500.54572,1006860.9358141,53
1659687500.54572,1006860.9358249,31
1659687500.54572,1006860.9358352,29
1659687500.54572,1006860.9358448,50
1659687500.54572,1006860.9358533,58
1659687500.54572,1006860.9358647,62
1659687500.54572,1006860.9358805,72
1659687500.54572,1006860.9358864,62
1659687500.54572,1006860.9358947,48
1659687500.54572,1006860.935898,62
1659687500.54572,1006860.935901,87
1659687500.54572,1006860.9359041,87
1659687500.54572,1006860.9359078,89
1659687500.54572,1006860.9359112,101
1659687500.54572,1006860.9359164,108
1659687500.54572,1006860.9359194,123
1659687500.54572,1006860.9359226,142
1659687500.54572,1006860.9359257,162
1659687500.54572,1006860.9359324,184
1659687501.0266,1006860.9359395,200
1659687501.0266,1006860.935942,205
1659687501.0266,1006860.9359439,210
1659687501.0266,1006860.9359462,213
1659687501.0266,1006860.9359534,200
1659687501.0266,1006860.9359608,176
1659687501.0266,1006860.9359719,145
1659687501.0266,1006860.9359798,94
1659687501.0266,1006860.9359882,33
1659687501.0266,1006860.9359936,-12
1659687501.0266,1006860.9360067,-41
1659687501.0266,1006860.9360147,-46
1659687501.0266,1006860.9360277,-36
1659687501.0266,1006860.9360393,-36
1659687501.0266,1006860.9360542,-43
1659687501.0266,1006860.9360679,-38
1659687501.0266,1006860.9360813,-36
1659687501.0266,1006860.936096,-46
1659687501.0266,1006860.9361098,-48
1659687501.0266,1006860.9361234,-38
1659687501.0266,1006860.9361372,-36
1659687501.0266,1006860.9361495,-38
1659687501.0266,1006860.9361586,-24
1659687501.0266,1006860.9361677,-12
1659687501.0266,1006860.9361741,-9
1659687501.0266,1006860.9361816,-4
1659687501.0266,1006860.9361878,-4
1659687501.0266,1006860.936191,-9
1659687501.0266,1006860.9361964,-4
1659687501.0266,1006860.9362084,0
1659687501.0266,1006860.9362167,-7
1659687501.0266,1006860.9362283,0
1659687501.0266,1006860.9362438,21
1659687501.0266,1006860.9362578,21
1659687501.0266,1006860.9362713,12
1659687501.0266,1006860.9362849,19
1659687501.0266,1006860.9362984,31
1659687501.0266,1006860.936312,38
1659687501.0266,1006860.9363254,41
1659687501.0266,1006860.9363395,33
1659687501.0266,1006860.9363526,24
1659687501.0266,1006860.9363663,14
1659687501.0266,1006860.93638,21
1659687501.0266,1006860.9364065,46
1659687501.0266,1006860.9364331,53
1659687501.0266,1006860.9364465,38
1659687501.0266,1006860.9364597,33
1659687501.0266,1006860.9364698,43
1659687501.0266,1006861.4704051,58
1659687501.0266,1006861.4704222,60
1659687501.06885,1006861.4704355,58
1659687501.06885,1006861.4704455,55
1659687501.06885,1006861.4704569,48
1659687501.06885,1006861.4704693,38
1659687501.06885,1006861.4704778,38
1659687501.06885,1006861.4704905,48
1659687501.06885,1006861.4705,67
1659687501.06885,1006861.4705025,92
1659687501.06885,1006861.4705046,96
1659687501.06885,1006861.4705067,75
1659687501.06885,1006861.4705088,65
1659687501.06885,1006861.4705108,60
1659687501.06885,1006861.4705129,60
1659687501.06885,1006861.470517,58
1659687501.06885,1006861.4705299,38
1659687501.06885,1006861.4705365,36
1659687501.06885,1006861.4705408,50
1659687501.06885,1006861.4705429,60
1659687501.06885,1006861.4705491,67
1659687501.06885,1006861.4705607,67
1659687501.06885,1006861.4705641,31
1659687501.06885,1006861.470568,-9
1659687501.06885,1006861.47057,111
1659687501.06885,1006861.4705721,510
1659687501.59671,1006861.4705741,990
1659687501.59671,1006861.4705793,1123
1659687501.59671,1006861.4705892,653
1659687501.59671,1006861.4705957,-125
1659687501.59671,1006861.4705991,-440
1659687501.59671,1006861.4706168,-118
1659687501.59671,1006861.470631,75
1659687501.59671,1006861.4706425,-43
1659687501.59671,1006861.4706526,-41
1659687501.59671,1006861.4706606,24
1659687501.59671,1006861.4706701,-12
1659687501.59671,1006861.4706769,-14
1659687501.59671,1006861.4706836,26
1659687501.59671,1006861.4706882,31
1659687501.59671,1006861.4706928,33
1659687501.59671,1006861.4706971,43
1659687501.59671,1006861.470703,36
1659687501.59671,1006861.4707073,43
1659687501.59671,1006861.4707131,60
1659687501.59671,1006861.470717,58
1659687501.59671,1006861.4707215,46
1659687501.59671,1006861.4707287,53
1659687501.59671,1006861.4707379,65
1659687501.59671,1006861.4707464,84
1659687501.59671,1006861.4707556,101
1659687501.59671,1006861.4707614,106
1659687501.59671,1006861.4707672,111
1659687501.59671,1006861.4707709,135
1659687501.59671,1006861.4707745,159
1659687501.59671,1006861.4707782,167
1659687501.59671,1006861.4707817,179
1659687501.59671,1006861.4707853,186
1659687501.59671,1006861.4707905,184
1659687501.59671,1006861.4707942,191
1659687501.59671,1006861.4707991,196
1659687501.59671,1006861.4708036,179
1659687501.59671,1006861.4708105,162
1659687501.59671,1006861.4708192,133
1659687501.59671,1006861.4708261,79
1659687501.59671,1006861.470835,33
1659687501.59671,1006861.4708405,-4
1659687501.59671,1006861.4708462,-36
1659687501.59671,1006861.4708499,-46
1659687501.59671,1006861.4708536,-55
1659687501.59671,1006861.4708574,-75
1659687501.59671,1006861.470861,-67
1659687501.59671,1006861.4708661,-50
1659687501.59671,1006862.0556253,-65
1659687501.59671,1006862.0556556,-79
1659687501.59671,1006862.0556699,-67
1659687501.61766,1006862.0556766,-46
1659687501.61766,1006862.0556823,-29
1659687501.61766,1006862.0557075,-29
1659687501.61766,1006862.0557215,-43
1659687501.61766,1006862.0557268,-53
1659687501.61766,1006862.0557314,-60
1659687501.61766,1006862.0557358,-67
1659687501.61766,1006862.0557402,-62
1659687501.61766,1006862.0557453,-48
1659687501.61766,1006862.0557511,-38
1659687501.61766,1006862.0557562,-55
1659687501.61766,1006862.0557618,-82
1659687501.61766,1006862.0557656,-79
1659687501.61766,1006862.055769,-65
1659687501.61766,1006862.0557729,-65
1659687501.61766,1006862.0557785,-58
1659687501.61766,1006862.0557823,-46
1659687501.61766,1006862.0557878,-48
1659687501.61766,1006862.0557917,-43
1659687501.61766,1006862.0557968,-26
1659687501.61766,1006862.0558006,-12
1659687501.61766,1006862.0558139,-9
1659687501.61766,1006862.0558296,-14
1659687501.61766,1006862.0558386,-14
1659687502.1963,1006862.0558442,-9
1659687502.1963,1006862.0558485,-12

1659687502.1963,1006862.0558525,-9
1659687502.1963,1006862.0558562,2
1659687502.1963,1006862.0558597,2
1659687502.1963,1006862.0558634,-4
1659687502.1963,1006862.055867,0
1659687502.1963,1006862.0558712,9
1659687502.1963,1006862.0558753,21
1659687502.1963,1006862.0558792,29
1659687502.1963,1006862.0558828,24
1659687502.1963,1006862.0558884,24
1659687502.1963,1006862.0558918,19
1659687502.1963,1006862.0558973,4
1659687502.1963,1006862.0559025,4
1659687502.1963,1006862.0559061,19
1659687502.1963,1006862.05591,36
1659687502.1963,1006862.0559161,50
1659687502.1963,1006862.0559201,62
1659687502.1963,1006862.0559254,82
1659687502.1963,1006862.055929,87
1659687502.1963,1006862.0559328,53
1659687502.1963,1006862.0559367,29
1659687502.1963,1006862.0559425,38
1659687502.1963,1006862.055946,26
1659687502.1963,1006862.0559513,19
1659687502.1963,1006862.0559553,46
1659687502.1963,1006862.0559591,58
1659687502.1963,1006862.055963,48
1659687502.1963,1006862.0559687,48
1659687502.1963,1006862.0559726,53
1659687502.1963,1006862.055978,21
1659687502.1963,1006862.0559819,19
1659687502.1963,1006862.0559856,217
1659687502.1963,1006862.0559892,639
1659687502.1963,1006862.0559929,1041
1659687502.1963,1006862.0559982,1079
1659687502.1963,1006862.0560018,535
1659687502.1963,1006862.056007,-208
1659687502.1963,1006862.0560108,-351
1659687502.1963,1006862.0560145,-7
1659687502.1963,1006862.0560182,87
1659687502.1963,1006862.0560217,-21
1659687502.1963,1006862.056027,-9
1659687502.1963,1006862.0560307,24
1659687502.1963,1006862.0560361,-2
1659687502.1963,1006862.6403286,2
1659687502.1963,1006862.6403449,36
1659687502.1963,1006862.6403643,38
1659687502.1963,1006862.6403718,29
1659687502.21824,1006862.6404337,41
1659687502.21824,1006862.6404427,53
1659687502.21824,1006862.6404486,58
1659687502.21824,1006862.6404562,67
1659687502.21824,1006862.6404611,70
1659687502.21824,1006862.6404673,60
1659687502.21824,1006862.6404727,60
1659687502.21824,1006862.6404771,70
1659687502.21824,1006862.6404837,92
1659687502.21824,1006862.6404873,116
1659687502.21824,1006862.6404915,125
1659687502.21824,1006862.640503,130
1659687502.21824,1006862.6405158,138
1659687502.21824,1006862.6405252,138
1659687502.21824,1006862.6405297,159
1659687502.21824,1006862.6405336,184
1659687502.21824,1006862.6405385,164
1659687502.21824,1006862.6405443,154
1659687502.21824,1006862.640548,186
1659687502.21824,1006862.6405515,181
1659687502.21824,1006862.6405566,142
1659687502.21824,1006862.64056,135
1659687502.21824,1006862.6405634,128
1659687502.21824,1006862.6405668,72
1659687502.71777,1006862.6405712,14
1659687502.71777,1006862.6405755,0
1659687502.71777,1006862.6406171,-4
1659687502.71777,1006862.6406245,-33
1659687502.71777,1006862.6406295,-60
1659687502.71777,1006862.6406341,-65
1659687502.71777,1006862.640641,-60
1659687502.71777,1006862.6406478,-53
1659687502.71777,1006862.6406546,-33
1659687502.71777,1006862.6406614,-16
1659687502.71777,1006862.6406676,-12
1659687502.71777,1006862.640672,-12
1659687502.71777,1006862.6406772,-16
1659687502.71777,1006862.6406816,-21
1659687502.71777,1006862.6406861,-4
1659687502.71777,1006862.6406914,12
1659687502.71777,1006862.6406959,7
1659687502.71777,1006862.6407001,12
1659687502.71777,1006862.6407062,21
1659687502.71777,1006862.6407117,21
1659687502.71777,1006862.6407157,33
1659687502.71777,1006862.6407215,38
1659687502.71777,1006862.6407263,24
1659687502.71777,1006862.6407299,38
1659687502.71777,1006862.6407329,55
1659687502.71777,1006862.6407357,48
1659687502.71777,1006862.6407386,53
1659687502.71777,1006862.640743,50
1659687502.71777,1006862.6407501,38
1659687502.71777,1006862.6407569,67
1659687502.71777,1006862.6407644,89
1659687502.71777,1006862.6407688,82
1659687502.71777,1006862.6407763,79
1659687502.71777,1006862.6407822,82
1659687502.71777,1006862.6407886,92
1659687502.71777,1006862.6407959,94
1659687502.71777,1006862.6408009,82
1659687502.71777,1006862.6408077,89
1659687502.71777,1006862.6408138,104
1659687502.71777,1006862.6408273,108
1659687502.71777,1006862.6408413,106
1659687502.71777,1006862.6408543,108
1659687502.71777,1006862.6408679,99
1659687502.71777,1006862.6408811,84
1659687502.71777,1006862.6408945,82
1659687502.71777,1006863.1773047,79
1659687502.71777,1006863.1773215,70
1659687502.71777,1006863.1773266,75
1659687502.71777,1006863.1773324,77
1659687502.71777,1006863.1773363,72
1659687502.73074,1006863.1773398,82
1659687502.73074,1006863.1773443,89
1659687502.73074,1006863.1773499,62
1659687502.73074,1006863.1773545,41
1659687502.73074,1006863.1773639,70
1659687502.73074,1006863.1773727,111
1659687502.73074,1006863.1773823,106
1659687502.73074,1006863.177389,67
1659687502.73074,1006863.1773975,41
1659687502.73074,1006863.1774041,16
1659687502.73074,1006863.1774124,7
1659687502.73074,1006863.1774189,36
1659687502.73074,1006863.1774272,46
1659687502.73074,1006863.1774325,33
1659687502.73074,1006863.1774403,21
1659687502.73074,1006863.177447,-4
1659687502.73074,1006863.1774555,-9
1659687502.73074,1006863.1774636,12
1659687502.73074,1006863.1774698,7
1659687502.73074,1006863.1774784,41
1659687502.73074,1006863.1774851,319
1659687502.73074,1006863.177492,796
1659687502.73074,1006863.1774955,1070
1659687502.73074,1006863.1774991,825
1659687503.27206,1006863.1775028,116
1659687503.27206,1006863.1775083,-445
1659687503.27206,1006863.1775147,-314
1659687503.27206,1006863.1775212,16
1659687503.27206,1006863.177527,4
1659687503.27206,1006863.1775338,-48
1659687503.27206,1006863.1775402,33
1659687503.27206,1006863.1775457,43
1659687503.27206,1006863.1775492,9
1659687503.27206,1006863.1775526,41
1659687503.27206,1006863.1775569,60
1659687503.27206,1006863.1775651,48
1659687503.27206,1006863.1775715,65
1659687503.27206,1006863.1775799,89
1659687503.27206,1006863.1775848,99
1659687503.27206,1006863.1775903,111
1659687503.27206,1006863.1775939,113
1659687503.27206,1006863.1775989,99
1659687503.27206,1006863.1776029,104
1659687503.27206,1006863.1776079,128
1659687503.27206,1006863.1776114,154
1659687503.27206,1006863.1776164,164
1659687503.27206,1006863.1776201,154
1659687503.27206,1006863.1776252,169
1659687503.27206,1006863.177629,210
1659687503.27206,1006863.1776369,234
1659687503.27206,1006863.1776454,232
1659687503.27206,1006863.1776541,259
1659687503.27206,1006863.1776603,307
1659687503.27206,1006863.1776688,341
1659687503.27206,1006863.1776775,360
1659687503.27206,1006863.1776864,324
1659687503.27206,1006863.1776939,261
1659687503.27206,1006863.1776975,246
1659687503.27206,1006863.1777027,239
1659687503.27206,1006863.1777063,198
1659687503.27206,1006863.1777111,142
1659687503.27206,1006863.1777151,99
1659687503.27206,1006863.1777219,53
1659687503.27206,1006863.1777287,12
1659687503.27206,1006863.1777369,2
1659687503.27206,1006863.1777409,2
1659687503.27206,1006863.1777491,-12
1659687503.27206,1006863.177755,-14
1659687503.27206,1006863.7124714,-7
1659687503.27206,1006863.7124919,7
1659687503.27206,1006863.7125084,33
1659687503.27206,1006863.7125214,41
1659687503.27206,1006863.7125308,14
1659687503.27206,1006863.7125376,19
1659687503.32768,1006863.7125462,41
1659687503.32768,1006863.7125517,26
1659687503.32768,1006863.7125577,16
1659687503.32768,1006863.7125607,29
1659687503.32768,1006863.7125636,21
1659687503.32768,1006863.7125666,2
1659687503.32768,1006863.7125694,12
1659687503.32768,1006863.7125723,38
1659687503.32768,1006863.7125751,33
1659687503.32768,1006863.7125781,9
1659687503.32768,1006863.7125809,-2
1659687503.32768,1006863.7125967,-7
1659687503.32768,1006863.7125995,9
1659687503.32768,1006863.7126023,31
1659687503.32768,1006863.71262,7
1659687503.32768,1006863.7126228,-9
1659687503.32768,1006863.7126257,19
1659687503.32768,1006863.7126288,41
1659687503.32768,1006863.7126406,26
1659687503.32768,1006863.7126508,14
1659687503.32768,1006863.7126582,26
1659687503.32768,1006863.7126702,41
1659687503.32768,1006863.7126805,46
1659687503.32768,1006863.7126874,55
1659687503.839,1006863.7126993,70
1659687503.839,1006863.7127079,70
1659687503.839,1006863.7127155,62
1659687503.839,1006863.7127208,67
1659687503.839,1006863.7127263,70
1659687503.839,1006863.7127337,67
1659687503.839,1006863.7127429,70
1659687503.839,1006863.712752,55
1659687503.839,1006863.7127569,62
1659687503.839,1006863.712763,92
1659687503.839,1006863.7127666,65
1659687503.839,1006863.7127716,50
1659687503.839,1006863.712775,82
1659687503.839,1006863.7127785,67
1659687503.839,1006863.7127835,70
1659687503.839,1006863.7127884,140
1659687503.839,1006863.7127921,157
1659687503.839,1006863.7127966,108
1659687503.839,1006863.7128017,104
1659687503.839,1006863.7128053,116
1659687503.839,1006863.7128089,96
1659687503.839,1006863.712814,82
1659687503.839,1006863.7128174,82
1659687503.839,1006863.7128211,82
1659687503.839,1006863.712826,77
1659687503.839,1006863.7128309,75
1659687503.839,1006863.7128344,67
1659687503.839,1006863.7128381,46
1659687503.839,1006863.7128441,24
1659687503.839,1006863.7128476,96
1659687503.839,1006863.7128507,387
1659687503.839,1006863.7128537,813
1659687503.839,1006863.7128567,1053
1659687503.839,1006863.7128596,801
1659687503.839,1006863.712863,92
1659687503.839,1006863.7128753,-384
1659687503.839,1006863.712882,-205
1659687503.839,1006863.7128843,55
1659687503.839,1006863.7128872,26
1659687503.839,1006863.7128893,-12
1659687503.839,1006863.7128915,41
1659687503.839,1006863.7128943,58
1659687503.839,1006863.7129038,33
1659687503.839,1006864.2981872,43
1659687503.839,1006864.2982084,67
1659687503.839,1006864.2982224,79
1659687503.839,1006864.2982283,82
1659687503.839,1006864.2982369,84
1659687503.839,1006864.2982435,89
1659687503.839,1006864.2982504,94
1659687503.86494,1006864.2982542,87
1659687503.86494,1006864.2982577,82
1659687503.86494,1006864.2982612,99
1659687503.86494,1006864.2982648,113
1659687503.86494,1006864.2982695,133
1659687503.86494,1006864.2982764,147
1659687503.86494,1006864.2982822,130
1659687503.86494,1006864.2982884,113
1659687503.86494,1006864.2982945,135
1659687503.86494,1006864.2983014,169
1659687503.86494,1006864.2983096,181
1659687503.86494,1006864.298318,184
1659687503.86494,1006864.2983216,208
1659687503.86494,1006864.2984359,227
1659687503.86494,1006864.29845,220
1659687503.86494,1006864.2984606,217
1659687503.86494,1006864.2984661,217
1659687503.86494,1006864.2984732,196
1659687503.86494,1006864.2984778,198
1659687503.86494,1006864.2984858,198
1659687503.86494,1006864.2984916,150
1659687503.86494,1006864.2984982,92
1659687503.86494,1006864.2985031,55
1659687503.86494,1006864.2985077,14
1659687504.38091,1006864.2985171,-4
1659687504.38091,1006864.2985256,21
1659687504.38091,1006864.2985329,33
1659687504.38091,1006864.2985429,9
1659687504.38091,1006864.2985499,7
1659687504.38091,1006864.2985536,36
1659687504.38091,1006864.2985582,19
1659687504.38091,1006864.298569,-16
1659687504.38091,1006864.2985786,2
1659687504.38091,1006864.2985854,43
1659687504.38091,1006864.2985895,62
1659687504.38091,1006864.2985931,55
1659687504.38091,1006864.2986055,31
1659687504.38091,1006864.2986132,16
1659687504.38091,1006864.2986228,48
1659687504.38091,1006864.2986285,94
1659687504.38091,1006864.2986367,87
1659687504.38091,1006864.2986413,60
1659687504.38091,1006864.2986496,65
1659687504.38091,1006864.2986596,77
1659687504.38091,1006864.2986656,82
1659687504.38091,1006864.2986678,82
1659687504.38091,1006864.2986734,75
1659687504.38091,1006864.2986858,87
1659687504.38091,1006864.2986984,99
1659687504.38091,1006864.2987246,84
1659687504.38091,1006864.2987522,75
1659687504.38091,1006864.2987723,108
1659687504.38091,1006864.298799,125
1659687504.38091,1006864.2988275,96
1659687504.38091,1006864.2988408,87
1659687504.38091,1006864.29885,99
1659687504.38091,1006864.2988526,82
1659687504.38091,1006864.2988548,50
1659687504.38091,1006864.2988569,62
1659687504.38091,1006864.298859,99
1659687504.38091,1006864.2988611,79
1659687504.38091,1006864.2988631,50
1659687504.38091,1006864.2988651,65
1659687504.38091,1006864.2988671,67
1659687504.38091,1006864.298869,55
1659687504.38091,1006864.2988742,53
1659687504.38091,1006864.8339403,46
1659687504.38091,1006864.8339619,38
1659687504.38091,1006864.8339655,53
1659687504.38091,1006864.8339683,67
1659687504.38091,1006864.833971,65
1659687504.38091,1006864.8339736,89
1659687504.38091,1006864.8339763,113
1659687504.38091,1006864.8339789,89
1659687504.40019,1006864.8339815,79
1659687504.40019,1006864.8339842,94
1659687504.40019,1006864.8339884,55
1659687504.40019,1006864.8339927,24
1659687504.40019,1006864.8339976,41
1659687504.40019,1006864.8340013,38
1659687504.40019,1006864.8340048,24
1659687504.40019,1006864.8340081,36
1659687504.40019,1006864.8340112,36
1659687504.40019,1006864.8340143,7
1659687504.40019,1006864.8340176,-14
1659687504.40019,1006864.834066,70
1659687504.40019,1006864.8340884,375
1659687504.40019,1006864.8340949,808
1659687504.40019,1006864.8340992,1016
1659687504.40019,1006864.8341034,694
1659687504.40019,1006864.8341072,-21
1659687504.40019,1006864.834111,-416
1659687504.40019,1006864.8341147,-186
1659687504.40019,1006864.8341184,41
1659687504.40019,1006864.8341221,-7
1659687504.40019,1006864.834126,4
1659687504.40019,1006864.8341299,92
1659687504.40019,1006864.8341336,67
1659687504.96036,1006864.8341374,16
1659687504.96036,1006864.8341411,60
1659687504.96036,1006864.8341448,96
1659687504.96036,1006864.8341484,65
1659687504.96036,1006864.8341518,75
1659687504.96036,1006864.8341556,111
1659687504.96036,1006864.8341593,94
1659687504.96036,1006864.834163,92
1659687504.96036,1006864.8341667,152
1659687504.96036,1006864.8341706,174
1659687504.96036,1006864.8341749,121
1659687504.96036,1006864.8341789,108
1659687504.96036,1006864.8341826,152
1659687504.96036,1006864.8341863,181
1659687504.96036,1006864.8341902,205
1659687504.96036,1006864.834194,227
1659687504.96036,1006864.8341976,232
1659687504.96036,1006864.8342014,242
1659687504.96036,1006864.8342053,259
1659687504.96036,1006864.8342089,266
1659687504.96036,1006864.8342125,297
1659687504.96036,1006864.834216,312
1659687504.96036,1006864.8342198,290
1659687504.96036,1006864.8342234,297
1659687504.96036,1006864.8342269,288
1659687504.96036,1006864.8342305,232
1659687504.96036,1006864.8342343,208
1659687504.96036,1006864.834238,188
1659687504.96036,1006864.8342419,145
1659687504.96036,1006864.8342452,111
1659687504.96036,1006864.8342486,65
1659687504.96036,1006864.8342519,12
1659687504.96036,1006864.8342564,0
1659687504.96036,1006864.8342596,21
1659687504.96036,1006864.8342643,33
1659687504.96036,1006864.8342673,21
1659687504.96036,1006864.8342711,26
1659687504.96036,1006864.8342748,38
1659687504.96036,1006864.834278,7
1659687504.96036,1006864.834282,-16
1659687504.96036,1006864.8342861,24
1659687504.96036,1006865.4190866,50
1659687504.96036,1006865.4191056,38
1659687504.96036,1006865.4191145,50
1659687504.96036,1006865.4191205,58
1659687504.96036,1006865.4191247,46
1659687504.96036,1006865.4191307,60
1659687504.96036,1006865.4191349,70
1659687504.96036,1006865.4191407,43
1659687504.96036,1006865.4191448,21
1659687504.98002,1006865.419149,38
1659687504.98002,1006865.4191547,65
1659687504.98002,1006865.4191587,58
1659687504.98002,1006865.4191628,36
1659687504.98002,1006865.4191671,36
1659687504.98002,1006865.419173,33
1659687504.98002,1006865.419177,16
1659687504.98002,1006865.4191828,24
1659687504.98002,1006865.4191869,50
1659687504.98002,1006865.4191914,50
1659687504.98002,1006865.419195,36
1659687504.98002,1006865.4191986,41
1659687504.98002,1006865.4192039,36
1659687504.98002,1006865.4192075,26
1659687504.98002,1006865.4192126,46
1659687504.98002,1006865.419216,62
1659687504.98002,1006865.4192194,62
1659687504.98002,1006865.4192228,72
1659687504.98002,1006865.4192266,53
1659687504.98002,1006865.4192317,24
1659687504.98002,1006865.4192355,31
1659687504.98002,1006865.4192407,31
1659687504.98002,1006865.4192445,14
1659687504.98002,1006865.4192497,21
1659687505.5493,1006865.4192542,62
1659687505.5493,1006865.4192577,106
1659687505.5493,1006865.4192614,128
1659687505.5493,1006865.4192658,125
1659687505.5493,1006865.4192694,111
1659687505.5493,1006865.419273,104
1659687505.5493,1006865.4192766,113
1659687505.5493,1006865.4192801,106
1659687505.5493,1006865.4192838,99
1659687505.5493,1006865.4192873,123
1659687505.5493,1006865.4192907,140
1659687505.5493,1006865.4192945,125
1659687505.5493,1006865.4192983,106
1659687505.5493,1006865.4193045,111
1659687505.5493,1006865.4193081,111
1659687505.5493,1006865.4193134,87
1659687505.5493,1006865.4193171,225
1659687505.5493,1006865.4193209,648
1659687505.5493,1006865.4193245,1058
1659687505.5493,1006865.4193298,1053
1659687505.5493,1006865.4193377,549
1659687505.5493,1006865.4193417,-147
1659687505.5493,1006865.4193452,-368
1659687505.5493,1006865.4193488,-14
1659687505.5493,1006865.4193522,193
1659687505.5493,1006865.4193556,84
1659687505.5493,1006865.4193589,84
1659687505.5493,1006865.4193667,176
1659687505.5493,1006865.4193705,176
1659687505.5493,1006865.4193738,162
1659687505.5493,1006865.4193773,186
1659687505.5493,1006865.4193809,186
1659687505.5493,1006865.4193842,171
1659687505.5493,1006865.4193878,196
1659687505.5493,1006865.419392,230
1659687505.5493,1006865.4193958,234
1659687505.5493,1006865.4193999,230
1659687505.5493,1006865.4194063,230
1659687505.5493,1006865.4194098,251
1659687505.5493,1006865.4194131,300
1659687505.5493,1006866.004035,307
1659687505.5493,1006866.0040538,283
1659687505.5493,1006866.0040633,305
1659687505.5493,1006866.0040705,341
1659687505.5493,1006866.0040762,358
1659687505.5493,1006866.0042053,382
1659687505.5493,1006866.0042171,399
1659687505.5493,1006866.0042285,416
1659687505.5493,1006866.0042383,428
1659687505.5493,1006866.0042445,423
1659687505.56027,1006866.0042504,409
1659687505.56027,1006866.0042544,404
1659687505.56027,1006866.0042577,411
1659687505.56027,1006866.0042632,411
1659687505.56027,1006866.0042689,372
1659687505.56027,1006866.0042742,309
1659687505.56027,1006866.0042819,242
1659687505.56027,1006866.0043238,174
1659687505.56027,1006866.0043383,130
1659687505.56027,1006866.0043475,87
1659687505.56027,1006866.0043557,41
1659687505.56027,1006866.0043608,36
1659687505.56027,1006866.0043654,48
1659687505.56027,1006866.0043701,33
1659687505.56027,1006866.0043749,24
1659687505.56027,1006866.0043793,38
1659687505.56027,1006866.0043839,41
1659687505.56027,1006866.0043884,50
1659687505.56027,1006866.0043929,84
1659687505.56027,1006866.0043992,84
1659687505.56027,1006866.0044052,65
1659687505.56027,1006866.0044101,77
1659687505.56027,1006866.0044199,89
1659687505.56027,1006866.0044287,77
1659687506.08505,1006866.0044361,72
1659687506.08505,1006866.0044402,62
1659687506.08505,1006866.0044466,26
1659687506.08505,1006866.0044535,26
1659687506.08505,1006866.0044602,58
1659687506.08505,1006866.0044644,67
1659687506.08505,1006866.0044687,72
1659687506.08505,1006866.0044739,60
1659687506.08505,1006866.0044783,26
1659687506.08505,1006866.0044851,19
1659687506.08505,1006866.0044915,33
1659687506.08505,1006866.0044957,50
1659687506.08505,1006866.0045023,67
1659687506.08505,1006866.0045052,53
1659687506.08505,1006866.0045081,26
1659687506.08505,1006866.0045112,12
1659687506.08505,1006866.0045141,4
1659687506.08505,1006866.004517,31
1659687506.08505,1006866.0045198,43
1659687506.08505,1006866.0045226,12
1659687506.08505,1006866.0045255,-2
1659687506.08505,1006866.0045284,-2
1659687506.08505,1006866.0045311,-2
1659687506.08505,1006866.0045339,50
1659687506.08505,1006866.0045367,96
1659687506.08505,1006866.0045396,58
1659687506.08505,1006866.0045427,0
1659687506.08505,1006866.0045455,7
1659687506.08505,1006866.0045483,29
1659687506.08505,1006866.0045511,26
1659687506.08505,1006866.0045539,29
1659687506.08505,1006866.0045567,43
1659687506.08505,1006866.0045596,38
1659687506.08505,1006866.0045625,24
1659687506.08505,1006866.0045653,38
1659687506.08505,1006866.0045682,50
1659687506.08505,1006866.004571,9
1659687506.08505,1006866.0045738,12
1659687506.08505,1006866.0045768,237
1659687506.08505,1006866.5399413,690
1659687506.08505,1006866.5399589,1065
1659687506.08505,1006866.5399669,1007
1659687506.08505,1006866.5399751,365
1659687506.08505,1006866.5399815,-326
1659687506.08505,1006866.5399901,-322
1659687506.08505,1006866.5399966,29
1659687506.08505,1006866.540005,53
1659687506.08505,1006866.5400112,-29
1659687506.08505,1006866.540019,26
1659687506.08505,1006866.5400252,48
1659687506.09608,1006866.5400351,29
1659687506.09608,1006866.5400418,46
1659687506.09608,1006866.54005,29
1659687506.09608,1006866.5400843,-9
1659687506.09608,1006866.5400971,4
1659687506.09608,1006866.5401034,41
1659687506.09608,1006866.540135,43
1659687506.09608,1006866.5401468,36
1659687506.09608,1006866.5401586,41
1659687506.09608,1006866.5401718,41
1659687506.09608,1006866.5401836,19
1659687506.09608,1006866.5401897,12
1659687506.09608,1006866.5401963,50
1659687506.09608,1006866.5402015,84
1659687506.09608,1006866.5402051,84
1659687506.09608,1006866.5402104,108
1659687506.09608,1006866.5402197,142
1659687506.09608,1006866.5402306,150
1659687506.09608,1006866.5402402,169
1659687506.09608,1006866.5402475,205
1659687506.09608,1006866.5402556,220
1659687506.09608,1006866.5402644,203
1659687506.09608,1006866.5402691,184
1659687506.09608,1006866.5402758,169
1659687506.66446,1006866.5402806,147
1659687506.66446,1006866.5402873,142
1659687506.66446,1006866.5402942,133
1659687506.66446,1006866.5402986,79
1659687506.66446,1006866.5403045,29
1659687506.66446,1006866.5403121,-12
1659687506.66446,1006866.5403196,-55
1659687506.66446,1006866.540326,-62
1659687506.66446,1006866.5403338,-58
1659687506.66446,1006866.5403409,-62
1659687506.66446,1006866.5403539,-41
1659687506.66446,1006866.540367,-14
1659687506.66446,1006866.5403802,-24
1659687506.66446,1006866.5403901,-53
1659687506.66446,1006866.5403949,-50
1659687506.66446,1006866.5403994,-46
1659687506.66446,1006866.5404039,-65
1659687506.66446,1006866.5404082,-46
1659687506.66446,1006866.5404131,7
1659687506.66446,1006866.5404177,24
1659687506.66446,1006866.5404244,12
1659687506.66446,1006866.5404339,2
1659687506.66446,1006866.5404466,4
1659687506.66446,1006866.5404594,7
1659687506.66446,1006866.5404704,9
1659687506.66446,1006866.5404827,12
1659687506.66446,1006866.5404915,16
1659687506.66446,1006866.5404953,26
1659687506.66446,1006866.5405019,19
1659687506.66446,1006866.5405056,12
1659687506.66446,1006866.5405091,31
1659687506.66446,1006866.5405144,43
1659687506.66446,1006866.5405175,26
1659687506.66446,1006866.5405207,31
1659687506.66446,1006866.5405237,38
1659687506.66446,1006866.540527,38
1659687506.66446,1006866.5405302,55
1659687506.66446,1006866.5405335,53
1659687506.66446,1006867.1253617,16
1659687506.66446,1006867.1253778,2
1659687506.66446,1006867.1253832,9
1659687506.66446,1006867.1253875,7
1659687506.66446,1006867.1253918,24
1659687506.66446,1006867.1253955,55
1659687506.66446,1006867.1253993,92
1659687506.66446,1006867.1254031,116
1659687506.66446,1006867.1254069,79
1659687506.66446,1006867.125412,24
1659687506.66446,1006867.1254157,4
1659687506.66446,1006867.1254472,-2
1659687506.67543,1006867.1254702,21
1659687506.67543,1006867.1254786,58
1659687506.67543,1006867.1254856,38
1659687506.67543,1006867.125492,26
1659687506.67543,1006867.1254978,41
1659687506.67543,1006867.1255045,16
1659687506.67543,1006867.1255107,0
1659687506.67543,1006867.1255167,-4
1659687506.67543,1006867.1255224,-12
1659687506.67543,1006867.1255277,140
1659687506.67543,1006867.1255309,571
1659687506.67543,1006867.1255344,1014
1659687506.67543,1006867.1255373,997
1659687506.67543,1006867.1255404,380
1659687506.67543,1006867.1255662,-317
1659687506.67543,1006867.125579,-404
1659687506.67543,1006867.1255859,-96
1659687506.67543,1006867.1255935,-9
1659687506.67543,1006867.1256004,-67
1659687506.67543,1006867.1256048,-26
1659687506.67543,1006867.125609,-4
1659687506.67543,1006867.1256133,-33
1659687506.67543,1006867.1256172,-21
1659687506.67543,1006867.1256215,-2
1659687507.20331,1006867.1256268,7
1659687507.20331,1006867.1256322,29
1659687507.20331,1006867.1256367,33
1659687507.20331,1006867.1256422,31
1659687507.20331,1006867.1256473,58
1659687507.20331,1006867.1256517,70
1659687507.20331,1006867.1256557,53
1659687507.20331,1006867.1256598,55
1659687507.20331,1006867.1256636,50
1659687507.20331,1006867.1256676,31
1659687507.20331,1006867.1256718,72
1659687507.20331,1006867.1256757,118
1659687507.20331,1006867.1256799,108
1659687507.20331,1006867.1256842,128
1659687507.20331,1006867.1256884,159
1659687507.20331,1006867.1256924,157
1659687507.20331,1006867.1256964,164
1659687507.20331,1006867.1257006,191
1659687507.20331,1006867.1257047,222
1659687507.20331,1006867.1257087,220
1659687507.20331,1006867.1257172,193
1659687507.20331,1006867.1257242,181
1659687507.20331,1006867.1257287,167
1659687507.20331,1006867.1257328,138
1659687507.20331,1006867.1257391,92
1659687507.20331,1006867.1257432,43
1659687507.20331,1006867.125747,24
1659687507.20331,1006867.1257509,-4
1659687507.20331,1006867.1257546,-38
1659687507.20331,1006867.1257581,-46
1659687507.20331,1006867.1257613,-55
1659687507.20331,1006867.1257644,-92
1659687507.20331,1006867.1257675,-106
1659687507.20331,1006867.1257706,-65
1659687507.20331,1006867.1257737,-29
1659687507.20331,1006867.1257768,-38
1659687507.20331,1006867.1257802,-38
1659687507.20331,1006867.6621191,-12
1659687507.20331,1006867.6621357,-19
1659687507.20331,1006867.6621399,-46
1659687507.20331,1006867.6621459,-46
1659687507.20331,1006867.6621499,-26
1659687507.20331,1006867.662153,-12
1659687507.20331,1006867.6621558,-14
1659687507.20331,1006867.6621587,-26
1659687507.20331,1006867.6621619,-24
1659687507.20331,1006867.6621652,-7
1659687507.20331,1006867.6621679,-7
1659687507.20331,1006867.6621706,-9
1659687507.20331,1006867.6621734,-2
1659687507.21359,1006867.6621761,-12
1659687507.21359,1006867.6621788,-26
1659687507.21359,1006867.6621815,-21
1659687507.21359,1006867.6621843,-19
1659687507.21359,1006867.662187,-9
1659687507.21359,1006867.66219,19
1659687507.21359,1006867.6621927,12
1659687507.21359,1006867.6621954,-21
1659687507.21359,1006867.6621982,-14
1659687507.21359,1006867.662201,0
1659687507.21359,1006867.6622038,-21
1659687507.21359,1006867.6622065,-31
1659687507.21359,1006867.6622093,-7
1659687507.21359,1006867.662212,19
1659687507.21359,1006867.6622147,43
1659687507.21359,1006867.662225,77
1659687507.21359,1006867.6622285,99
1659687507.21359,1006867.6622314,84
1659687507.21359,1006867.6622343,53
1659687507.21359,1006867.6622372,43
1659687507.21359,1006867.6622401,65
1659687507.21359,1006867.662243,89
1659687507.21359,1006867.6622458,72
1659687507.21359,1006867.6622487,46
1659687507.74067,1006867.6622515,55
1659687507.74067,1006867.6622544,77
1659687507.74067,1006867.6622571,87
1659687507.74067,1006867.6622599,82
1659687507.74067,1006867.6622626,60
1659687507.74067,1006867.6622654,41
1659687507.74067,1006867.6622681,147
1659687507.74067,1006867.6622709,510
1659687507.74067,1006867.6622743,970
1659687507.74067,1006867.6622854,1133
1659687507.74067,1006867.6622904,731
1659687507.74067,1006867.6622936,-26
1659687507.74067,1006867.6622966,-399
1659687507.74067,1006867.6622997,-123
1659687507.74067,1006867.6623027,118
1659687507.74067,1006867.6623058,26
1659687507.74067,1006867.662309,-4
1659687507.74067,1006867.6623121,89
1659687507.74067,1006867.662315,94
1659687507.74067,1006867.662318,70
1659687507.74067,1006867.6623211,113
1659687507.74067,1006867.6623243,150
1659687507.74067,1006867.6623286,164
1659687507.74067,1006867.6623319,196
1659687507.74067,1006867.6623355,186
1659687507.74067,1006867.6623413,150
1659687507.74067,1006867.6623469,171
1659687507.74067,1006867.6623527,215
1659687507.74067,1006867.6623562,227
1659687507.74067,1006867.6623597,232
1659687507.74067,1006867.6623654,251
1659687507.74067,1006867.6623706,305
1659687507.74067,1006867.6623742,353
1659687507.74067,1006867.6623777,324
1659687507.74067,1006867.6623811,302
1659687507.74067,1006867.6623847,384
1659687507.74067,1006868.197571,452
1659687507.74067,1006868.1975831,460
1659687507.74067,1006868.1975873,506
1659687507.74067,1006868.1975956,503
1659687507.74067,1006868.1976044,418
1659687507.74067,1006868.197618,372
1659687507.74067,1006868.1976331,375
1659687507.74067,1006868.1976443,341
1659687507.74067,1006868.1976584,261
1659687507.74067,1006868.1976759,227
1659687507.74067,1006868.1976905,193
1659687507.74067,1006868.1977035,72
1659687507.74067,1006868.1977121,-14
1659687507.74067,1006868.1977146,-21
1659687507.75066,1006868.1977168,-53
1659687507.75066,1006868.1977188,-125
1659687507.75066,1006868.1977209,-159
1659687507.75066,1006868.1977229,-130
1659687507.75066,1006868.197725,-123
1659687507.75066,1006868.1977269,-171
1659687507.75066,1006868.1977298,-159
1659687507.75066,1006868.1977319,-87
1659687507.75066,1006868.197734,-99
1659687507.75066,1006868.197736,-159
1659687507.75066,1006868.197738,-169
1659687507.75066,1006868.19774,-147
1659687507.75066,1006868.197742,-121
1659687507.75066,1006868.1977439,-101
1659687507.75066,1006868.197746,-94
1659687507.75066,1006868.197748,-121
1659687507.75066,1006868.1977506,-150
1659687507.75066,1006868.1977526,-104
1659687507.75066,1006868.1977547,-101
1659687507.75066,1006868.1977567,-171
1659687507.75066,1006868.1977588,-138
1659687507.75066,1006868.1977608,-77
1659687507.75066,1006868.1977628,-113
1659687507.75066,1006868.1977648,-116
1659687508.32505,1006868.1977668,-62
1659687508.32505,1006868.1977688,-72
1659687508.32505,1006868.1977707,-123
1659687508.32505,1006868.1977726,-128
1659687508.32505,1006868.1977745,-106
1659687508.32505,1006868.1977764,-75
1659687508.32505,1006868.1977782,-50
1659687508.32505,1006868.1977802,-53
1659687508.32505,1006868.1977821,-87
1659687508.32505,1006868.197784,-123
1659687508.32505,1006868.1977859,-113
1659687508.32505,1006868.1977877,-118
1659687508.32505,1006868.1977896,-128
1659687508.32505,1006868.1977916,-43
1659687508.32505,1006868.1977935,-9
1659687508.32505,1006868.1977954,-123
1659687508.32505,1006868.1977973,-138
1659687508.32505,1006868.1977992,-70
1659687508.32505,1006868.1978013,-108
1659687508.32505,1006868.1978039,-60
1659687508.32505,1006868.1978068,261
1659687508.32505,1006868.197815,673
1659687508.32505,1006868.1978172,893
1659687508.32505,1006868.19782,568
1659687508.32505,1006868.1978229,-213
1659687508.32505,1006868.1978256,-556
1659687508.32505,1006868.1978278,-198
1659687508.32505,1006868.1978298,36
1659687508.32505,1006868.1978321,-50
1659687508.32505,1006868.1978341,-111
1659687508.32505,1006868.1978363,-94
1659687508.32505,1006868.1978383,14
1659687508.32505,1006868.1978404,46
1659687508.32505,1006868.1978423,-87
1659687508.32505,1006868.1978444,-96
1659687508.32505,1006868.7827315,79
1659687508.32505,1006868.782751,87
1659687508.32505,1006868.7827664,-36
1659687508.32505,1006868.7827825,24
1659687508.32505,1006868.7827961,116
1659687508.32505,1006868.7828101,21
1659687508.32505,1006868.7828236,-62
1659687508.32505,1006868.7828327,-26
1659687508.32505,1006868.7828366,9
1659687508.32505,1006868.7828386,33
1659687508.32505,1006868.782842,48
1659687508.32505,1006868.7828441,41
1659687508.32505,1006868.7828462,53
1659687508.32505,1006868.7828525,84
1659687508.32505,1006868.7828641,94
1659687508.33502,1006868.7828675,104
1659687508.33502,1006868.7828696,135
1659687508.33502,1006868.7828717,135
1659687508.33502,1006868.7828739,108
1659687508.33502,1006868.7828759,108
1659687508.33502,1006868.7828792,108
1659687508.33502,1006868.7828918,60
1659687508.33502,1006868.7828976,4
1659687508.33502,1006868.7828999,-2
1659687508.33502,1006868.7829019,-31
1659687508.33502,1006868.782904,-125
1659687508.33502,1006868.7829068,-198
1659687508.33502,1006868.7829167,-213
1659687508.33502,1006868.7829253,-220
1659687508.33502,1006868.7829278,-234
1659687508.33502,1006868.78293,-220
1659687508.33502,1006868.782932,-196
1659687508.33502,1006868.7829342,-215
1659687508.33502,1006868.7829413,-208
1659687508.33502,1006868.7829523,-159
1659687508.33502,1006868.7829557,-169
1659687508.33502,1006868.7829586,-167
1659687508.33502,1006868.7829622,-135
1659687508.33502,1006868.7829726,-164
1659687508.95735,1006868.7829801,-191
1659687508.95735,1006868.7829825,-135
1659687508.95735,1006868.7829844,-104
1659687508.95735,1006868.7829863,-147
1659687508.95735,1006868.7829882,-159
1659687508.95735,1006868.7829906,-138
1659687508.95735,1006868.7829995,-167
1659687508.95735,1006868.7830094,-217
1659687508.95735,1006868.783021,-200
1659687508.95735,1006868.7830278,-157
1659687508.95735,1006868.7830355,-164
1659687508.95735,1006868.7830406,-198
1659687508.95735,1006868.7830514,-208
1659687508.95735,1006868.7830597,-171
1659687508.95735,1006868.7830639,-135
1659687508.95735,1006868.7830707,-138
1659687508.95735,1006868.7830744,-123
1659687508.95735,1006868.7830796,-104
1659687508.95735,1006868.7830828,-135
1659687508.95735,1006868.7830862,-157
1659687508.95735,1006868.7830909,-138
1659687508.95735,1006868.783098,-133
1659687508.95735,1006868.7831047,-125
1659687508.95735,1006868.7831091,-89
1659687508.95735,1006868.7831123,-82
1659687508.95735,1006868.7831167,-70
1659687508.95735,1006868.7831216,-19
1659687508.95735,1006868.7831247,-7
1659687508.95735,1006868.7831281,-31
1659687508.95735,1006868.7831334,-24
1659687508.95735,1006868.7831366,-4
1659687508.95735,1006868.7831417,-19
1659687508.95735,1006868.7831477,-46
1659687508.95735,1006868.7831515,-19
1659687508.95735,1006869.4164841,65
1659687508.95735,1006869.4164971,89
1659687508.95735,1006869.4165001,26
1659687508.95735,1006869.4165037,36
1659687508.95735,1006869.4165121,338
1659687508.95735,1006869.4165222,847
1659687508.95735,1006869.4165291,1125
1659687508.95735,1006869.4165315,888
1659687508.95735,1006869.4165336,246
1659687508.95735,1006869.4165357,-254
1659687508.95735,1006869.4165378,-171
1659687508.95735,1006869.4165399,118
1659687508.95735,1006869.416542,157
1659687508.95735,1006869.416544,142
1659687508.95735,1006869.416546,193
1659687508.95735,1006869.4165481,200
1659687508.96733,1006869.4165502,234
1659687508.96733,1006869.4165523,266
1659687508.96733,1006869.4165543,234
1659687508.96733,1006869.4165565,271
1659687508.96733,1006869.4165616,326
1659687508.96733,1006869.4165712,317
1659687508.96733,1006869.4165775,331
1659687508.96733,1006869.4165819,368
1659687508.96733,1006869.4165883,370
1659687508.96733,1006869.4165936,384
1659687508.96733,1006869.4166001,406
1659687508.96733,1006869.4166308,406
1659687508.96733,1006869.4166459,418
1659687508.96733,1006869.41666,455
1659687508.96733,1006869.4166686,455
1659687508.96733,1006869.41668,447
1659687508.96733,1006869.416686,472
1659687508.96733,1006869.4166953,484
1659687508.96733,1006869.4167042,493
1659687508.96733,1006869.4167087,520
1659687508.96733,1006869.4167123,532
1659687508.96733,1006869.4167156,527
1659687508.96733,1006869.4167208,496
1659687508.96733,1006869.4167278,535
1659687509.49518,1006869.4167337,622
1659687509.49518,1006869.4167395,525
1659687509.49518,1006869.4167445,338
1659687509.49518,1006869.4167474,290
1659687509.49518,1006869.4167511,256
1659687509.49518,1006869.4167543,193
1659687509.49518,1006869.4167578,193
1659687509.49518,1006869.4167608,147
1659687509.49518,1006869.4167661,38
1659687509.49518,1006869.4167711,-2
1659687509.49518,1006869.416778,19
1659687509.49518,1006869.4167828,21
1659687509.49518,1006869.4167907,24
1659687509.49518,1006869.4167975,53
1659687509.49518,1006869.4168035,16
1659687509.49518,1006869.4168122,-14
1659687509.49518,1006869.4168194,16
1659687509.49518,1006869.4168274,-14
1659687509.49518,1006869.4168319,53
1659687509.49518,1006869.416835,200
1659687509.49518,1006869.416838,147
1659687509.49518,1006869.4168408,50
1659687509.49518,1006869.4168446,62
1659687509.49518,1006869.4168493,60
1659687509.49518,1006869.4168579,29
1659687509.49518,1006869.4168725,50
1659687509.49518,1006869.4168854,92
1659687509.49518,1006869.4168925,87
1659687509.49518,1006869.4168979,36
1659687509.49518,1006869.4169073,-31
1659687509.49518,1006869.4169152,-4
1659687509.49518,1006869.4169214,128
1659687509.49518,1006869.4169298,96
1659687509.49518,1006869.9527784,-60
1659687509.49518,1006869.952809,-4
1659687509.49518,1006869.9528293,106
1659687509.49518,1006869.9528371,43
1659687509.49518,1006869.9528404,-9
1659687509.49518,1006869.9528436,24
1659687509.49518,1006869.9528532,41

1659687509.49518,1006869.9528905,33
1659687509.49518,1006869.9528976,21
1659687509.49518,1006869.952902,9
1659687509.49518,1006869.9529059,9
1659687509.49518,1006869.9529094,31
1659687509.49518,1006869.9529132,29
1659687509.49518,1006869.9529169,-65
1659687509.49518,1006869.9529202,-106
1659687509.49518,1006869.9529241,-12
1659687509.49518,1006869.952938,46
1659687509.50715,1006869.9529449,50
1659687509.50715,1006869.9529486,36
1659687509.50715,1006869.9529517,4
1659687509.50715,1006869.9529551,157
1659687509.50715,1006869.9529585,607
1659687509.50715,1006869.9529619,1065
1659687509.50715,1006869.9529656,1152
1659687509.50715,1006869.9529691,704
1659687509.50715,1006869.9529726,-145
1659687509.50715,1006869.9529788,-602
1659687509.50715,1006869.9529824,-263
1659687509.50715,1006869.9529864,55
1659687509.50715,1006869.9529904,-21
1659687509.50715,1006869.9529964,-2
1659687509.50715,1006869.9530003,142
1659687509.50715,1006869.9530039,133
1659687509.50715,1006869.9530075,60
1659687509.50715,1006869.9530112,70
1659687509.50715,1006869.9530143,106
1659687509.50715,1006869.9530209,133
1659687509.50715,1006869.9530268,130
1659687509.50715,1006869.9530303,121
1659687509.50715,1006869.9530336,145
1659687509.50715,1006869.9530394,152
1659687509.98415,1006869.9530455,138
1659687509.98415,1006869.9530493,147
1659687509.98415,1006869.9530526,169
1659687509.98415,1006869.9530563,164
1659687509.98415,1006869.9530599,179
1659687509.98415,1006869.9530641,242
1659687509.98415,1006869.953068,273
1659687509.98415,1006869.9530708,268
1659687509.98415,1006869.9530753,283
1659687509.98415,1006869.9530813,317
1659687509.98415,1006869.9530876,358
1659687509.98415,1006869.9530944,370
1659687509.98415,1006869.9531005,343
1659687509.98415,1006869.9531067,363
1659687509.98415,1006869.9531131,382
1659687509.98415,1006869.9531189,307
1659687509.98415,1006869.9531221,261
1659687509.98415,1006869.953125,273
1659687509.98415,1006869.9531278,230
1659687509.98415,1006869.9531842,133
1659687509.98415,1006869.9531986,65
1659687509.98415,1006869.9532142,43
1659687509.98415,1006869.953223,9
1659687509.98415,1006869.953232,-14
1659687509.98415,1006869.953239,14
1659687509.98415,1006869.9532445,26
1659687509.98415,1006869.9532535,-12
1659687509.98415,1006869.9532605,-41
1659687509.98415,1006869.9532655,-21
1659687509.98415,1006869.9532745,-12
1659687509.98415,1006869.9532814,-16
1659687509.98415,1006869.9532877,9
1659687509.98415,1006870.4407578,33
1659687509.98415,1006870.4407753,29
1659687509.98415,1006870.4407825,31
1659687509.98415,1006870.4407888,36
1659687509.98415,1006870.4407936,19
1659687509.98415,1006870.440798,9
1659687509.98415,1006870.4408059,38
1659687509.98415,1006870.4408131,87
1659687509.98415,1006870.4408223,79
1659687509.98415,1006870.4408296,36
1659687509.98415,1006870.4408383,50
1659687509.98415,1006870.4408445,72
1659687509.98415,1006870.4408487,48
1659687509.98415,1006870.4408547,48
1659687509.98415,1006870.4408595,84
1659687509.98415,1006870.4408631,67
1659687509.98415,1006870.4408667,16
1659687509.98415,1006870.4408719,0
1659687509.99612,1006870.4408764,14
1659687509.99612,1006870.4408811,21
1659687509.99612,1006870.4408872,26
1659687509.99612,1006870.4408942,36
1659687509.99612,1006870.4409029,12
1659687509.99612,1006870.44091,-38
1659687509.99612,1006870.4409187,-62
1659687509.99612,1006870.4409238,-82
1659687509.99612,1006870.4409302,-82
1659687509.99612,1006870.4409351,-4
1659687509.99612,1006870.4409391,48
1659687509.99612,1006870.4409428,7
1659687509.99612,1006870.4409465,-21
1659687509.99612,1006870.4409518,12
1659687509.99612,1006870.4409553,43
1659687509.99612,1006870.440959,43
1659687509.99612,1006870.440964,41
1659687509.99612,1006870.4409708,46
1659687509.99612,1006870.4409795,33
1659687509.99612,1006870.4409838,4
1659687509.99612,1006870.440989,2
1659687509.99612,1006870.440992,55
1659687509.99612,1006870.4409951,101
1659687509.99612,1006870.4409981,75
1659687510.57292,1006870.4410011,79
1659687510.57292,1006870.4410041,302
1659687510.57292,1006870.4410296,752
1659687510.57292,1006870.4410477,1150
1659687510.57292,1006870.44106,1133
1659687510.57292,1006870.441069,542
1659687510.57292,1006870.4410775,-234
1659687510.57292,1006870.4410839,-387
1659687510.57292,1006870.4410872,0
1659687510.57292,1006870.4410925,121
1659687510.57292,1006870.4410954,24
1659687510.57292,1006870.4410984,72
1659687510.57292,1006870.4411012,108
1659687510.57292,1006870.441104,82
1659687510.57292,1006870.4411069,101
1659687510.57292,1006870.4411097,118
1659687510.57292,1006870.4411126,113
1659687510.57292,1006870.4411154,118
1659687510.57292,1006870.4411183,121
1659687510.57292,1006870.4411233,121
1659687510.57292,1006870.4411266,140
1659687510.57292,1006870.4411295,171
1659687510.57292,1006870.441153,188
1659687510.57292,1006870.4411614,171
1659687510.57292,1006870.4411675,157
1659687510.57292,1006870.4411735,167
1659687510.57292,1006870.4411782,169
1659687510.57292,1006870.4411837,169
1659687510.57292,1006870.4411893,203
1659687510.57292,1006870.4411943,256
1659687510.57292,1006870.4411987,266
1659687510.57292,1006871.0253665,268
1659687510.57292,1006871.0253893,295
1659687510.57292,1006871.0254044,307
1659687510.57292,1006871.0254139,312
1659687510.57292,1006871.0254169,334
1659687510.57292,1006871.0254191,351
1659687510.57292,1006871.0254213,336
1659687510.57292,1006871.0254235,302
1659687510.57292,1006871.0254256,268
1659687510.57292,1006871.0254278,225
1659687510.57292,1006871.0254298,169
1659687510.57292,1006871.0254319,121
1659687510.57292,1006871.025434,60
1659687510.57292,1006871.0254361,-16
1659687510.57292,1006871.0254382,-41
1659687510.57292,1006871.0254402,-14
1659687510.57292,1006871.0254422,-16
1659687510.57292,1006871.0254446,-41
1659687510.57292,1006871.0254514,-43
1659687510.58332,1006871.0254603,-38
1659687510.58332,1006871.0254648,-46
1659687510.58332,1006871.0254729,-36
1659687510.58332,1006871.0254834,-21
1659687510.58332,1006871.0254968,-38
1659687510.58332,1006871.0255059,-43
1659687510.58332,1006871.0255109,-9
1659687510.58332,1006871.0255132,7
1659687510.58332,1006871.0255205,-2
1659687510.58332,1006871.025533,-4
1659687510.58332,1006871.0255678,-9
1659687510.58332,1006871.0255782,-26
1659687510.58332,1006871.0255821,-31
1659687510.58332,1006871.0255866,-21
1659687510.58332,1006871.0255916,-26
1659687510.58332,1006871.0255948,-43
1659687510.58332,1006871.0255977,-38
1659687510.58332,1006871.0256006,-21
1659687510.58332,1006871.0256033,-24
1659687510.58332,1006871.0256062,-46
1659687510.58332,1006871.0256291,-46
1659687510.58332,1006871.0256359,-33
1659687510.58332,1006871.0256423,-53
1659687510.58332,1006871.0256478,-82
1659687511.10512,1006871.0256513,-96
1659687511.10512,1006871.0256543,-113
1659687511.10512,1006871.0256574,-116
1659687511.10512,1006871.0256603,-116
1659687511.10512,1006871.0256632,-138
1659687511.10512,1006871.0256664,-123
1659687511.10512,1006871.0256696,-70
1659687511.10512,1006871.0256737,-48
1659687511.10512,1006871.025677,-58
1659687511.10512,1006871.0256819,-60
1659687511.10512,1006871.0256882,-50
1659687511.10512,1006871.0256938,-50
1659687511.10512,1006871.0256972,-67
1659687511.10512,1006871.0257007,-77
1659687511.10512,1006871.0257038,-60
1659687511.10512,1006871.0257071,-29
1659687511.10512,1006871.025711,-14
1659687511.10512,1006871.0257159,-36
1659687511.10512,1006871.0257205,-53
1659687511.10512,1006871.0257241,-48
1659687511.10512,1006871.0257275,-79
1659687511.10512,1006871.0257307,-96
1659687511.10512,1006871.0257348,96
1659687511.10512,1006871.0257392,571
1659687511.10512,1006871.0257422,1033
1659687511.10512,1006871.0257451,1033
1659687511.10512,1006871.0257479,440
1659687511.10512,1006871.0257514,-263
1659687511.10512,1006871.0257581,-401
1659687511.10512,1006871.0257627,-116
1659687511.10512,1006871.5611436,-53
1659687511.10512,1006871.5611696,-140
1659687511.10512,1006871.5612211,-82
1659687511.10512,1006871.5612352,-29
1659687511.10512,1006871.5612535,-36
1659687511.10512,1006871.5612618,-9
1659687511.10512,1006871.5612697,4
1659687511.10512,1006871.5612775,-24
1659687511.10512,1006871.5612839,-12
1659687511.10512,1006871.5612905,24
1659687511.10512,1006871.5612963,21
1659687511.10512,1006871.5613,16
1659687511.10512,1006871.5613036,29
1659687511.10512,1006871.5613074,29
1659687511.10512,1006871.5613108,14
1659687511.10512,1006871.5613142,26
1659687511.10512,1006871.5613176,70
1659687511.10512,1006871.5613211,96
1659687511.10512,1006871.5613246,106
1659687511.10512,1006871.5613292,123
1659687511.11709,1006871.5613346,152
1659687511.11709,1006871.5613377,193
1659687511.11709,1006871.5613409,208
1659687511.11709,1006871.5613442,169
1659687511.11709,1006871.5613507,171
1659687511.11709,1006871.5613563,222
1659687511.11709,1006871.56136,239
1659687511.11709,1006871.5613659,246
1659687511.11709,1006871.5613694,222
1659687511.11709,1006871.561373,176
1659687511.11709,1006871.5613765,152
1659687511.11709,1006871.5613817,111
1659687511.11709,1006871.5613853,60
1659687511.11709,1006871.5613896,19
1659687511.11709,1006871.561393,-16
1659687511.11709,1006871.5613963,-46
1659687511.11709,1006871.5613995,-72
1659687511.11709,1006871.5614028,-108
1659687511.11709,1006871.561406,-150
1659687511.11709,1006871.5614113,-174
1659687511.11709,1006871.5614162,-125
1659687511.11709,1006871.5614196,-72
1659687511.11709,1006871.5614229,-104
1659687511.11709,1006871.5614262,-113
1659687511.68946,1006871.5614295,-72
1659687511.68946,1006871.5614337,-77
1659687511.68946,1006871.5614419,-87
1659687511.68946,1006871.5614517,-60
1659687511.68946,1006871.5614606,-75
1659687511.68946,1006871.5614702,-111
1659687511.68946,1006871.5614783,-82
1659687511.68946,1006871.561492,-38
1659687511.68946,1006871.5615048,-50
1659687511.68946,1006871.5615179,-60
1659687511.68946,1006871.5615311,-46
1659687511.68946,1006871.5615442,-60
1659687511.68946,1006871.5615527,-96
1659687511.68946,1006871.5615551,-89
1659687511.68946,1006871.5615573,-33
1659687511.68946,1006871.5615594,-31
1659687511.68946,1006871.5615616,-60
1659687511.68946,1006871.5615636,-43
1659687511.68946,1006871.5615656,-38
1659687511.68946,1006871.5615687,-67
1659687511.68946,1006871.5615816,-65
1659687511.68946,1006871.5615873,-38
1659687511.68946,1006871.5615899,-14
1659687511.68946,1006871.5615922,19
1659687511.68946,1006871.5615944,29
1659687511.68946,1006871.5616038,26
1659687511.68946,1006871.5616129,55
1659687511.68946,1006871.5616154,67
1659687511.68946,1006871.5616175,55
1659687511.68946,1006872.1460766,75
1659687511.68946,1006872.1460893,96
1659687511.68946,1006872.1460928,92
1659687511.68946,1006872.1461049,108
1659687511.68946,1006872.1461179,171
1659687511.68946,1006872.1461229,186
1659687511.68946,1006872.1461261,128
1659687511.68946,1006872.1461284,138
1659687511.68946,1006872.1461305,188
1659687511.68946,1006872.1461326,181
1659687511.68946,1006872.1461346,200
1659687511.68946,1006872.1461368,232
1659687511.68946,1006872.1461389,208
1659687511.68946,1006872.146141,181
