Time,TimeLsl,Value
1659694395.52874,1013754.5405615,226
1659694395.52874,1013754.5405762,214
1659694395.52874,1013754.5405817,212
1659694395.52874,1013754.5405871,216
1659694395.52874,1013754.5405909,221
1659694395.52874,1013754.540596,219
1659694395.52874,1013754.540601,200
1659694395.52874,1013754.5406069,152
1659694395.52874,1013754.5406123,88
1659694395.52874,1013754.5406161,38
1659694395.52874,1013754.5406202,11
1659694395.52874,1013754.5406259,0
1659694395.52874,1013754.5406299,-9
1659694395.52874,1013754.5406352,-16
1659694395.52874,1013754.540639,-26
1659694395.52874,1013754.5406442,-26
1659694395.52874,1013754.5406482,-11
1659694395.52874,1013754.5406535,0
1659694395.52874,1013754.5406583,4
1659694395.52874,1013754.5406636,11
1659694395.52874,1013754.5406676,19
1659694395.52874,1013754.5406717,23
1659694395.52874,1013754.5406755,26
1659694395.52874,1013754.5406801,23
1659694395.52874,1013754.5406839,16
1659694395.52874,1013754.5406896,16
1659694395.52874,1013754.5406933,23
1659694395.52874,1013754.540698,33
1659694395.52874,1013754.540703,57
1659694395.52874,1013754.5407065,78
1659694395.52874,1013754.5407101,83
1659694395.52874,1013754.5407137,73
1659694395.52874,1013754.5407183,59
1659694395.52874,1013754.5407232,45
1659694395.52874,1013754.5407288,40
1659694395.52874,1013754.5407341,47
1659694395.52874,1013754.5407389,47
1659694395.52874,1013754.5407446,42
1659694395.52874,1013754.5407481,50
1659694395.52874,1013754.5407516,57
1659694395.52874,1013754.5407566,45
1659694395.52874,1013754.5407601,-7
1659694395.52874,1013754.5407637,-83
1659694395.52874,1013754.5407686,9
1659694395.52874,1013754.5407733,548
1659694395.52874,1013754.5407784,1263
1659694395.52874,1013754.5407826,1206
1659694395.52874,1013754.5407876,224
1659694395.52874,1013754.5407911,-398
1659694395.52874,1013754.5407947,-135
1659694395.63396,1013754.5407996,102
1659694395.63396,1013754.5408037,16
1659694395.63396,1013754.5408072,26
1659694395.63396,1013754.5408117,95
1659694395.63396,1013754.5408147,69
1659694395.63396,1013754.5408225,66
1659694395.63396,1013754.5408286,102
1659694395.63396,1013754.5408647,104
1659694395.63396,1013754.5408701,97
1659694395.63396,1013754.5408735,116
1659694395.63396,1013754.5408763,133
1659694395.63396,1013754.540879,133
1659694395.63396,1013754.5408817,143
1659694395.63396,1013754.5408843,152
1659694395.63396,1013754.540887,152
1659694395.63396,1013754.5408897,154
1659694395.63396,1013754.5408923,164
1659694395.63396,1013754.5408948,169
1659694395.63396,1013754.5408973,171
1659694395.63396,1013754.5409,178
1659694395.63396,1013754.5409026,181
1659694395.63396,1013754.5409052,176
1659694395.63396,1013754.5409079,171
1659694395.63396,1013755.1253277,171
1659694395.63396,1013755.125347,171
1659694395.63396,1013755.1253549,164
1659694395.63396,1013755.125362,152
1659694395.63396,1013755.1253674,140
1659694395.63396,1013755.1253718,109
1659694395.63396,1013755.1253771,64
1659694395.63396,1013755.1253819,35
1659694395.63396,1013755.1253884,16
1659694395.63396,1013755.1253927,-2
1659694395.63396,1013755.1253997,-19
1659694395.63396,1013755.1254066,-35
1659694395.63396,1013755.1254097,-45
1659694395.63396,1013755.1254127,-35
1659694395.63396,1013755.1254155,-21
1659694395.63396,1013755.1254183,-14
1659694395.63396,1013755.1254212,-4
1659694395.63396,1013755.1254241,0
1659694395.63396,1013755.1254271,-4
1659694395.63396,1013755.1254299,-2
1659694395.63396,1013755.1254327,4
1659694395.63396,1013755.1254354,4
1659694395.63396,1013755.1254382,-2
1659694395.63396,1013755.1254409,-26
1659694395.63396,1013755.1254438,-45
1659694395.63396,1013755.1254465,-33
1659694395.63396,1013755.1254493,-2
1659694395.66887,1013755.1254521,16
1659694395.66887,1013755.125455,19
1659694395.66887,1013755.1254578,21
1659694395.66887,1013755.1254607,14
1659694395.66887,1013755.1254635,2
1659694395.66887,1013755.1254663,0
1659694395.66887,1013755.1254691,2
1659694395.66887,1013755.1254721,4
1659694395.66887,1013755.1254749,7
1659694395.66887,1013755.1254777,7
1659694395.66887,1013755.1254805,7
1659694395.66887,1013755.1254834,7
1659694395.66887,1013755.1254863,-35
1659694395.66887,1013755.125489,-114
1659694395.66887,1013755.1254918,-35
1659694395.66887,1013755.1254947,472
1659694395.66887,1013755.1254976,1201
1659694395.66887,1013755.1255004,1242
1659694395.66887,1013755.1255032,321
1659694395.66887,1013755.1255063,-379
1659694395.66887,1013755.1255091,-188
1659694395.66887,1013755.1255119,69
1659694395.66887,1013755.1255147,-16
1659694395.66887,1013755.1255176,-26
1659694395.66887,1013755.1255205,52
1659694395.66887,1013755.1255233,38
1659694395.66887,1013755.125526,23
1659694395.66887,1013755.1255288,47
1659694395.66887,1013755.1255317,52
1659694395.66887,1013755.1255345,54
1659694395.66887,1013755.1255374,64
1659694395.66887,1013755.1255402,76
1659694395.66887,1013755.125543,88
1659694395.66887,1013755.125546,95
1659694395.66887,1013755.1255488,100
1659694395.66887,1013755.1255517,109
1659694395.66887,1013755.1255545,121
1659694395.66887,1013755.1255574,128
1659694395.66887,1013755.1255602,135
1659694395.66887,1013755.125563,140
1659694395.66887,1013755.125566,140
1659694395.66887,1013755.1255688,131
1659694395.66887,1013755.1255717,123
1659694395.66887,1013755.1255746,123
1659694395.66887,1013755.1255775,126
1659694395.66887,1013755.1255803,128
1659694395.66887,1013755.6606245,138
1659694395.66887,1013755.6606468,145
1659694395.7367,1013755.6606581,126
1659694395.7367,1013755.6606673,90
1659694395.7367,1013755.6606743,57
1659694395.7367,1013755.6606791,33
1659694395.7367,1013755.6606836,11
1659694395.7367,1013755.6606872,-14
1659694395.7367,1013755.6606906,-42
1659694395.7367,1013755.6606947,-52
1659694395.7367,1013755.6606984,-45
1659694395.7367,1013755.6607022,-40
1659694395.7367,1013755.6607062,-35
1659694395.7367,1013755.66071,-28
1659694395.7367,1013755.6607138,-23
1659694395.7367,1013755.660718,-26
1659694395.7367,1013755.6607218,-23
1659694395.7367,1013755.6607253,-14
1659694395.7367,1013755.6607292,-11
1659694395.7367,1013755.6607329,-14
1659694395.7367,1013755.6607372,-21
1659694395.7367,1013755.6607409,-30
1659694395.7367,1013755.6607494,-35
1659694395.7367,1013755.6607563,-28
1659694395.7367,1013755.6607593,-9
1659694395.7367,1013755.6607639,14
1659694395.7367,1013755.6607668,28
1659694395.7367,1013755.6607696,16
1659694395.7367,1013755.6607724,7
1659694395.7367,1013755.6607753,0
1659694395.7367,1013755.6607781,-9
1659694395.7367,1013755.660781,-9
1659694395.7367,1013755.6607842,-7
1659694395.7367,1013755.6607891,-11
1659694395.7367,1013755.6607923,-7
1659694395.7367,1013755.6607996,0
1659694395.7367,1013755.6608074,-2
1659694395.7367,1013755.6608155,-9
1659694395.7367,1013755.6608283,-64
1659694395.7367,1013755.6608404,-135
1659694395.7367,1013755.6608534,19
1659694395.7367,1013755.6608692,610
1659694395.7367,1013755.6608837,1218
1659694395.7367,1013755.6608953,977
1659694395.7367,1013755.6609089,35
1659694395.7367,1013755.6609214,-383
1659694395.7367,1013755.6609342,-97
1659694395.7367,1013755.6609496,38
1659694395.7367,1013755.6609636,-50
1659694395.7367,1013755.6609765,-9
1659694395.7367,1013755.6609896,45
1659694395.7367,1013755.6610025,16
1659694395.74867,1013755.6610166,16
1659694395.74867,1013755.6610285,42
1659694395.74867,1013755.6610401,47
1659694395.74867,1013755.6610495,54
1659694395.74867,1013755.661066,69
1659694395.74867,1013755.6610766,81
1659694395.74867,1013755.6610849,88
1659694395.74867,1013755.6610926,92
1659694395.74867,1013755.6611015,100
1659694395.74867,1013755.6611109,102
1659694395.74867,1013755.6611254,100
1659694395.74867,1013755.661138,107
1659694395.74867,1013755.6611515,116
1659694395.74867,1013755.6611655,116
1659694395.74867,1013755.6611758,116
1659694395.74867,1013755.6611833,123
1659694395.74867,1013755.66119,126
1659694395.74867,1013755.6612009,123
1659694395.74867,1013755.6612122,128
1659694395.74867,1013755.6612246,133
1659694395.74867,1013755.6612365,140
1659694395.74867,1013756.1967405,145
1659694395.74867,1013756.1967648,135
1659694395.74867,1013756.1967745,109
1659694396.33423,1013756.1967807,76
1659694396.33423,1013756.1967895,42
1659694396.33423,1013756.1968134,11
1659694396.33423,1013756.1968203,0
1659694396.33423,1013756.1968238,0
1659694396.33423,1013756.1968268,0
1659694396.33423,1013756.1968301,0
1659694396.33423,1013756.1968331,-7
1659694396.33423,1013756.1968376,-23
1659694396.33423,1013756.1968425,-30
1659694396.33423,1013756.1968468,-19
1659694396.33423,1013756.1968531,-9
1659694396.33423,1013756.1968591,-9
1659694396.33423,1013756.1968638,-9
1659694396.33423,1013756.196868,-23
1659694396.33423,1013756.1968734,-40
1659694396.33423,1013756.1968786,-38
1659694396.33423,1013756.1968852,-30
1659694396.33423,1013756.1968895,-35
1659694396.33423,1013756.1968926,-38
1659694396.33423,1013756.1968957,-33
1659694396.33423,1013756.1968986,-16
1659694396.33423,1013756.1969015,9
1659694396.33423,1013756.1969069,26
1659694396.33423,1013756.1969118,28
1659694396.33423,1013756.1969153,23
1659694396.33423,1013756.19692,14
1659694396.33423,1013756.1969245,0
1659694396.33423,1013756.1969295,-2
1659694396.33423,1013756.1969333,4
1659694396.33423,1013756.1969361,7
1659694396.33423,1013756.1969392,7
1659694396.33423,1013756.1969423,11
1659694396.33423,1013756.1969501,16
1659694396.33423,1013756.1969568,-7
1659694396.33423,1013756.1969609,-78
1659694396.33423,1013756.1969669,-123
1659694396.33423,1013756.1969709,92
1659694396.33423,1013756.1969763,705
1659694396.33423,1013756.196981,1213
1659694396.33423,1013756.1969871,820
1659694396.33423,1013756.1969928,-112
1659694396.33423,1013756.1969982,-376
1659694396.33423,1013756.1970014,-40
1659694396.33423,1013756.1970075,52
1659694396.33423,1013756.1970112,-33
1659694396.33423,1013756.1970202,16
1659694396.33423,1013756.1970284,54
1659694396.33423,1013756.1970352,26
1659694396.33423,1013756.197042,40
1659694396.35318,1013756.1970508,64
1659694396.35318,1013756.1970576,52
1659694396.35318,1013756.1970636,47
1659694396.35318,1013756.1970669,66
1659694396.35318,1013756.1970732,78
1659694396.35318,1013756.1970819,83
1659694396.35318,1013756.1971044,95
1659694396.35318,1013756.1971138,109
1659694396.35318,1013756.1971203,116
1659694396.35318,1013756.1971277,123
1659694396.35318,1013756.1971346,131
1659694396.35318,1013756.1971412,135
1659694396.35318,1013756.1971444,138
1659694396.35318,1013756.1971507,143
1659694396.35318,1013756.1971562,152
1659694396.35318,1013756.1971621,154
1659694396.35318,1013756.1971682,143
1659694396.35318,1013756.1971714,135
1659694396.35318,1013756.1971787,147
1659694396.35318,1013756.1971861,164
1659694396.35318,1013756.7818025,169
1659694396.35318,1013756.7818272,152
1659694396.35318,1013756.7818375,114
1659694396.35318,1013756.7818452,76
1659694396.86017,1013756.781852,50
1659694396.86017,1013756.7818584,35
1659694396.86017,1013756.7818646,26
1659694396.86017,1013756.781871,9
1659694396.86017,1013756.7818778,-11
1659694396.86017,1013756.7818843,-19
1659694396.86017,1013756.7818911,-14
1659694396.86017,1013756.7818978,-9
1659694396.86017,1013756.7819008,-2
1659694396.86017,1013756.7819046,0
1659694396.86017,1013756.7819075,-14
1659694396.86017,1013756.7819106,-28
1659694396.86017,1013756.781914,-19
1659694396.86017,1013756.7819195,-7
1659694396.86017,1013756.7819244,-9
1659694396.86017,1013756.7819282,-9
1659694396.86017,1013756.7819313,-9
1659694396.86017,1013756.7819343,-19
1659694396.86017,1013756.7819378,-21
1659694396.86017,1013756.7819407,-19
1659694396.86017,1013756.7819458,-11
1659694396.86017,1013756.7819502,14
1659694396.86017,1013756.7819548,42
1659694396.86017,1013756.781961,40
1659694396.86017,1013756.7819671,30
1659694396.86017,1013756.7819728,30
1659694396.86017,1013756.7819795,26
1659694396.86017,1013756.7819889,14
1659694396.86017,1013756.781995,11
1659694396.86017,1013756.782,9
1659694396.86017,1013756.7820081,9
1659694396.86017,1013756.7820157,19
1659694396.86017,1013756.7820233,26
1659694396.86017,1013756.7820307,23
1659694396.86017,1013756.7820353,0
1659694396.86017,1013756.782042,-66
1659694396.86017,1013756.7820456,-64
1659694396.86017,1013756.7820526,271
1659694396.86017,1013756.7820575,946
1659694396.86017,1013756.7820636,1227
1659694396.86017,1013756.7820709,522
1659694396.86017,1013756.7820779,-331
1659694396.86017,1013756.7820843,-326
1659694396.86017,1013756.7820902,9
1659694396.86017,1013756.7820993,11
1659694396.86017,1013756.7821053,-23
1659694396.86017,1013756.7821134,54
1659694396.86017,1013756.7821202,57
1659694396.86017,1013756.7821267,33
1659694396.86017,1013756.782133,59
1659694396.87313,1013756.7821424,78
1659694396.87313,1013756.782149,81
1659694396.87313,1013756.7821544,95
1659694396.87313,1013756.7821598,104
1659694396.87313,1013756.7821633,109
1659694396.87313,1013756.7821683,119
1659694396.87313,1013756.7821718,126
1659694396.87313,1013756.7821779,128
1659694396.87313,1013756.7821844,140
1659694396.87313,1013756.7821899,154
1659694396.87313,1013756.7821952,159
1659694396.87313,1013756.7822038,162
1659694396.87313,1013756.7822108,164
1659694396.87313,1013756.7822178,169
1659694396.87313,1013756.7822234,169
1659694396.87313,1013756.7822268,169
1659694396.87313,1013756.7822334,174
1659694396.87313,1013756.7822411,176
1659694396.87313,1013756.7822481,178
1659694396.87313,1013757.3192195,190
1659694396.87313,1013757.3192369,193
1659694396.87313,1013757.3192446,162
1659694396.87313,1013757.3192489,114
1659694396.87313,1013757.3192545,81
1659694397.45067,1013757.3192618,59
1659694397.45067,1013757.3192666,35
1659694397.45067,1013757.3192715,14
1659694397.45067,1013757.3192778,7
1659694397.45067,1013757.3192818,7
1659694397.45067,1013757.3192852,-2
1659694397.45067,1013757.3192912,-19
1659694397.45067,1013757.3192969,-19
1659694397.45067,1013757.3193023,-4
1659694397.45067,1013757.3193066,2
1659694397.45067,1013757.3193118,4
1659694397.45067,1013757.3193172,11
1659694397.45067,1013757.3193225,0
1659694397.45067,1013757.3193277,-16
1659694397.45067,1013757.3193315,-19
1659694397.45067,1013757.3193346,-21
1659694397.45067,1013757.3193376,-28
1659694397.45067,1013757.3193405,-33
1659694397.45067,1013757.3193438,-35
1659694397.45067,1013757.3193467,-38
1659694397.45067,1013757.3193496,-26
1659694397.45067,1013757.3193526,0
1659694397.45067,1013757.3193553,26
1659694397.45067,1013757.3193581,35
1659694397.45067,1013757.3193612,30
1659694397.45067,1013757.3193644,21
1659694397.45067,1013757.3193675,7
1659694397.45067,1013757.3193709,2
1659694397.45067,1013757.319374,11
1659694397.45067,1013757.3193787,11
1659694397.45067,1013757.3193829,7
1659694397.45067,1013757.3193865,16
1659694397.45067,1013757.31939,23
1659694397.45067,1013757.3193936,11
1659694397.45067,1013757.3193971,-40
1659694397.45067,1013757.3194006,-116
1659694397.45067,1013757.3194039,-35
1659694397.45067,1013757.3194075,453
1659694397.45067,1013757.3194112,1154
1659694397.45067,1013757.3194142,1177
1659694397.45067,1013757.3194175,257
1659694397.45067,1013757.3194208,-422
1659694397.45067,1013757.3194243,-214
1659694397.45067,1013757.3194285,45
1659694397.45067,1013757.3194322,-26
1659694397.45067,1013757.3194382,-33
1659694397.45067,1013757.3194426,38
1659694397.45067,1013757.319447,19
1659694397.45067,1013757.3194508,9
1659694397.45067,1013757.3194551,42
1659694397.46164,1013757.3194587,47
1659694397.46164,1013757.319463,45
1659694397.46164,1013757.319467,64
1659694397.46164,1013757.319471,83
1659694397.46164,1013757.3194771,88
1659694397.46164,1013757.3194812,100
1659694397.46164,1013757.3194855,109
1659694397.46164,1013757.3194895,114
1659694397.46164,1013757.3194934,123
1659694397.46164,1013757.3194979,140
1659694397.46164,1013757.3195014,147
1659694397.46164,1013757.3195057,150
1659694397.46164,1013757.3195104,152
1659694397.46164,1013757.3195141,150
1659694397.46164,1013757.3195184,150
1659694397.46164,1013757.3195228,154
1659694397.46164,1013757.3195265,154
1659694397.46164,1013757.3195308,154
1659694397.46164,1013757.9031522,162
1659694397.46164,1013757.9031717,159
1659694397.46164,1013757.9031794,140
1659694397.46164,1013757.9031852,114
1659694397.46164,1013757.9031894,88
1659694397.46164,1013757.9031941,59
1659694397.99459,1013757.9032,28
1659694397.99459,1013757.9032033,-9
1659694397.99459,1013757.9032064,-40
1659694397.99459,1013757.9032094,-47
1659694397.99459,1013757.9032124,-42
1659694397.99459,1013757.9032156,-42
1659694397.99459,1013757.9032188,-35
1659694397.99459,1013757.9032222,-28
1659694397.99459,1013757.9032251,-38
1659694397.99459,1013757.9032294,-47
1659694397.99459,1013757.9032417,-33
1659694397.99459,1013757.903245,-26
1659694397.99459,1013757.9032484,-23
1659694397.99459,1013757.9032516,-16
1659694397.99459,1013757.9032551,-14
1659694397.99459,1013757.9032584,-21
1659694397.99459,1013757.9032619,-23
1659694397.99459,1013757.9032654,-26
1659694397.99459,1013757.9032687,-28
1659694397.99459,1013757.9032733,-23
1659694397.99459,1013757.9032788,-14
1659694397.99459,1013757.9032823,14
1659694397.99459,1013757.9032857,40
1659694397.99459,1013757.9032891,42
1659694397.99459,1013757.9032931,40
1659694397.99459,1013757.9032963,40
1659694397.99459,1013757.9032995,19
1659694397.99459,1013757.9033027,-9
1659694397.99459,1013757.9033074,-4
1659694397.99459,1013757.9033148,7
1659694397.99459,1013757.9033339,4
1659694397.99459,1013757.9033517,7
1659694397.99459,1013757.903366,16
1659694397.99459,1013757.903374,11
1659694397.99459,1013757.9033894,-23
1659694397.99459,1013757.9034043,-88
1659694397.99459,1013757.9034178,-35
1659694397.99459,1013757.9034285,391
1659694397.99459,1013757.9034375,1089
1659694397.99459,1013757.9034435,1237
1659694397.99459,1013757.9034524,419
1659694397.99459,1013757.9034596,-340
1659694397.99459,1013757.9034696,-238
1659694397.99459,1013757.9034783,45
1659694397.99459,1013757.9034843,-4
1659694397.99459,1013757.9034935,-28
1659694397.99459,1013757.9035009,42
1659694397.99459,1013757.9035058,33
1659694397.99459,1013757.9035126,19
1659694397.99459,1013757.9035187,52
1659694398.01453,1013757.9035258,64
1659694398.01453,1013757.9035347,64
1659694398.01453,1013757.9035417,81
1659694398.01453,1013757.9035475,92
1659694398.01453,1013757.903556,95
1659694398.01453,1013757.9035641,104
1659694398.01453,1013757.9035707,119
1659694398.01453,1013757.9035764,128
1659694398.01453,1013757.9035845,140
1659694398.01453,1013757.903592,147
1659694398.01453,1013757.9036009,150
1659694398.01453,1013757.9036054,154
1659694398.01453,1013757.9036117,157
1659694398.01453,1013757.9036148,162
1659694398.01453,1013757.9036176,164
1659694398.01453,1013757.9036397,162
1659694398.01453,1013757.9036536,154
1659694398.01453,1013758.4386865,150
1659694398.01453,1013758.4387077,147
1659694398.01453,1013758.4387164,152
1659694398.01453,1013758.4387256,143
1659694398.01453,1013758.4387319,112
1659694398.01453,1013758.4387355,73
1659694398.01453,1013758.4387395,35
1659694398.53274,1013758.4387464,9
1659694398.53274,1013758.4387531,-4
1659694398.53274,1013758.4387602,-14
1659694398.53274,1013758.4387656,-21
1659694398.53274,1013758.4387696,-35
1659694398.53274,1013758.4387725,-42
1659694398.53274,1013758.4387756,-28
1659694398.53274,1013758.4387798,-11
1659694398.53274,1013758.4387844,-9
1659694398.53274,1013758.4387902,-4
1659694398.53274,1013758.4387938,-14
1659694398.53274,1013758.4387969,-23
1659694398.53274,1013758.4388001,-14
1659694398.53274,1013758.4388035,-7
1659694398.53274,1013758.438808,-9
1659694398.53274,1013758.4388127,-4
1659694398.53274,1013758.4388167,-7
1659694398.53274,1013758.4388234,-26
1659694398.53274,1013758.4388295,-40
1659694398.53274,1013758.4388343,-42
1659694398.53274,1013758.4388399,-30
1659694398.53274,1013758.4388472,-7
1659694398.53274,1013758.4388597,23
1659694398.53274,1013758.4388683,30
1659694398.53274,1013758.4388736,28
1659694398.53274,1013758.4388802,30
1659694398.53274,1013758.4388852,21
1659694398.53274,1013758.438891,-2
1659694398.53274,1013758.4388983,-4
1659694398.53274,1013758.4389025,0
1659694398.53274,1013758.4389079,0
1659694398.53274,1013758.4389117,7
1659694398.53274,1013758.4389155,16
1659694398.53274,1013758.4389192,21
1659694398.53274,1013758.4389229,4
1659694398.53274,1013758.4389267,-57
1659694398.53274,1013758.4389322,-85
1659694398.53274,1013758.4389368,174
1659694398.53274,1013758.4389423,817
1659694398.53274,1013758.4389464,1261
1659694398.53274,1013758.4389533,765
1659694398.53274,1013758.4389596,-154
1659694398.53274,1013758.4389668,-345
1659694398.53274,1013758.4389739,-7
1659694398.53274,1013758.438981,54
1659694398.53274,1013758.4389885,-21
1659694398.53274,1013758.4389945,42
1659694398.53274,1013758.4390041,69
1659694398.53274,1013758.4390148,35
1659694398.53274,1013758.4390234,57
1659694398.55193,1013758.4390295,85
1659694398.55193,1013758.439037,85
1659694398.55193,1013758.439042,95
1659694398.55193,1013758.4390553,112
1659694398.55193,1013758.4390642,114
1659694398.55193,1013758.4390679,119
1659694398.55193,1013758.4390698,135
1659694398.55193,1013758.4390727,147
1659694398.55193,1013758.4390748,147
1659694398.55193,1013758.4390774,150
1659694398.55193,1013758.4390873,157
1659694398.55193,1013758.4391004,164
1659694398.55193,1013758.4391133,166
1659694398.55193,1013758.4391263,169
1659694398.55193,1013758.4391392,166
1659694398.55193,1013758.4391523,159
1659694398.55193,1013758.9761305,157
1659694398.55193,1013758.9761487,152
1659694398.55193,1013758.9761626,152
1659694398.55193,1013758.976174,164
1659694398.55193,1013758.9761816,159
1659694398.55193,1013758.9761894,128
1659694398.55193,1013758.9761954,95
1659694398.55193,1013758.9762066,57
1659694399.10522,1013758.9762184,9
1659694399.10522,1013758.9762258,-19
1659694399.10522,1013758.9762356,-28
1659694399.10522,1013758.976244,-33
1659694399.10522,1013758.9762543,-30
1659694399.10522,1013758.9762629,-28
1659694399.10522,1013758.9762701,-38
1659694399.10522,1013758.9762794,-42
1659694399.10522,1013758.9762857,-28
1659694399.10522,1013758.9762879,-33
1659694399.10522,1013758.9762902,-35
1659694399.10522,1013758.9762923,-19
1659694399.10522,1013758.9762944,-14
1659694399.10522,1013758.9762963,-16
1659694399.10522,1013758.9762984,-4
1659694399.10522,1013758.9763005,2
1659694399.10522,1013758.9763025,-7
1659694399.10522,1013758.9763045,-19
1659694399.10522,1013758.9763066,-21
1659694399.10522,1013758.9763087,-23
1659694399.10522,1013758.9763107,-14
1659694399.10522,1013758.9763128,11
1659694399.10522,1013758.9763148,40
1659694399.10522,1013758.9763168,52
1659694399.10522,1013758.9763188,57
1659694399.10522,1013758.9763208,54
1659694399.10522,1013758.9763228,35
1659694399.10522,1013758.9763248,19
1659694399.10522,1013758.9763321,28
1659694399.10522,1013758.9763436,42
1659694399.10522,1013758.9763463,40
1659694399.10522,1013758.9763484,35
1659694399.10522,1013758.9763563,38
1659694399.10522,1013758.9763669,42
1659694399.10522,1013758.9763704,21
1659694399.10522,1013758.9763745,-38
1659694399.10522,1013758.9763771,-52
1659694399.10522,1013758.9763844,221
1659694399.10522,1013758.9763947,863
1659694399.10522,1013758.9764033,1251
1659694399.10522,1013758.9764106,655
1659694399.10522,1013758.9764216,-269
1659694399.10522,1013758.9764295,-367
1659694399.10522,1013758.9764376,4
1659694399.10522,1013758.9764484,50
1659694399.10522,1013758.9764526,-9
1659694399.10522,1013758.9764548,71
1659694399.10522,1013758.9764569,97
1659694399.10522,1013758.9764599,59
1659694399.10522,1013758.976473,76
1659694399.11818,1013758.9764792,97
1659694399.11818,1013758.9764814,88
1659694399.11818,1013758.9764835,92
1659694399.11818,1013758.9764856,116
1659694399.11818,1013758.9764876,131
1659694399.11818,1013758.9764898,135
1659694399.11818,1013758.9764918,145
1659694399.11818,1013758.9764938,152
1659694399.11818,1013758.9764968,159
1659694399.11818,1013758.9765079,169
1659694399.11818,1013758.9765147,178
1659694399.11818,1013758.9765171,178
1659694399.11818,1013758.9765192,176
1659694399.11818,1013758.9765212,174
1659694399.11818,1013758.9765232,171
1659694399.11818,1013759.5603218,169
1659694399.11818,1013759.5603391,159
1659694399.11818,1013759.5603433,152
1659694399.11818,1013759.5603501,157
1659694399.11818,1013759.5603551,145
1659694399.11818,1013759.5603584,121
1659694399.11818,1013759.5603616,95
1659694399.11818,1013759.5603648,64
1659694399.11818,1013759.5603682,23
1659694399.6925,1013759.5603727,-14
1659694399.6925,1013759.560376,-54
1659694399.6925,1013759.5603795,-85
1659694399.6925,1013759.5603828,-92
1659694399.6925,1013759.560386,-81
1659694399.6925,1013759.5603893,-69
1659694399.6925,1013759.5603925,-64
1659694399.6925,1013759.5603957,-66
1659694399.6925,1013759.5603988,-71
1659694399.6925,1013759.5604022,-64
1659694399.6925,1013759.5604068,-47
1659694399.6925,1013759.560412,-38
1659694399.6925,1013759.5604154,-35
1659694399.6925,1013759.5604201,-26
1659694399.6925,1013759.5604235,-19
1659694399.6925,1013759.5604285,-21
1659694399.6925,1013759.5604326,-23
1659694399.6925,1013759.5604376,-23
1659694399.6925,1013759.5604411,-28
1659694399.6925,1013759.5604458,-26
1659694399.6925,1013759.560449,-9
1659694399.6925,1013759.5604524,14
1659694399.6925,1013759.5604572,35
1659694399.6925,1013759.5604609,45
1659694399.6925,1013759.5604642,42
1659694399.6925,1013759.5604695,40
1659694399.6925,1013759.5604729,33
1659694399.6925,1013759.5604776,19
1659694399.6925,1013759.5604809,19
1659694399.6925,1013759.5604844,28
1659694399.6925,1013759.5604891,30
1659694399.6925,1013759.5604924,33
1659694399.6925,1013759.5604957,38
1659694399.6925,1013759.5605004,38
1659694399.6925,1013759.5605038,2
1659694399.6925,1013759.5605084,-69
1659694399.6925,1013759.5605117,-35
1659694399.6925,1013759.5605152,379
1659694399.6925,1013759.5605198,1101
1659694399.6925,1013759.5605232,1292
1659694399.6925,1013759.5605266,455
1659694399.6925,1013759.5605313,-362
1659694399.6925,1013759.5605345,-257
1659694399.6925,1013759.5605379,57
1659694399.6925,1013759.5605427,9
1659694399.6925,1013759.560546,-21
1659694399.6925,1013759.5605493,59
1659694399.6925,1013759.5605538,54
1659694399.6925,1013759.560559,33
1659694399.6925,1013759.5605637,61
1659694399.70543,1013759.560567,76
1659694399.70543,1013759.5605705,76
1659694399.70543,1013759.5605752,90
1659694399.70543,1013759.5605785,104
1659694399.70543,1013759.5605818,107
1659694399.70543,1013759.5605865,116
1659694399.70543,1013759.5605898,131
1659694399.70543,1013759.5605932,140
1659694399.70543,1013759.5605965,150
1659694399.70543,1013759.5605998,159
1659694399.70543,1013759.5606031,159
1659694399.70543,1013759.5606065,157
1659694399.70543,1013759.5606116,159
1659694399.70543,1013759.5606148,162
1659694399.70543,1013760.1449772,157
1659694399.70543,1013760.1449907,145
1659694399.70543,1013760.144994,128
1659694399.70543,1013760.1449972,114
1659694399.70543,1013760.1449994,119
1659694399.70543,1013760.1450018,128
1659694399.70543,1013760.1450051,109
1659694399.70543,1013760.1450117,64
1659694399.70543,1013760.1450192,9
1659694399.70543,1013760.1450231,-23
1659694400.28214,1013760.1450252,-38
1659694400.28214,1013760.1450278,-47
1659694400.28214,1013760.1450297,-54
1659694400.28214,1013760.1450316,-59
1659694400.28214,1013760.1450336,-71
1659694400.28214,1013760.1450354,-71
1659694400.28214,1013760.1450374,-52
1659694400.28214,1013760.1450394,-38
1659694400.28214,1013760.1450472,-28
1659694400.28214,1013760.145057,-21
1659694400.28214,1013760.1450658,-21
1659694400.28214,1013760.1450699,-16
1659694400.28214,1013760.1450758,-4
1659694400.28214,1013760.1450822,2
1659694400.28214,1013760.1450891,7
1659694400.28214,1013760.1451013,7
1659694400.28214,1013760.1451113,4
1659694400.28214,1013760.1451176,-4
1659694400.28214,1013760.1451214,-7
1659694400.28214,1013760.1451252,2
1659694400.28214,1013760.1451289,19
1659694400.28214,1013760.1451326,45
1659694400.28214,1013760.1451451,66
1659694400.28214,1013760.1451554,64
1659694400.28214,1013760.1451626,61
1659694400.28214,1013760.1451685,61
1659694400.28214,1013760.145173,45
1659694400.28214,1013760.1451766,38
1659694400.28214,1013760.145182,42
1659694400.28214,1013760.1451855,33
1659694400.28214,1013760.1451891,30
1659694400.28214,1013760.1451925,42
1659694400.28214,1013760.145196,45
1659694400.28214,1013760.1451995,40
1659694400.28214,1013760.145203,0
1659694400.28214,1013760.1452066,-71
1659694400.28214,1013760.1452103,19
1659694400.28214,1013760.1452154,534
1659694400.28214,1013760.1452199,1218
1659694400.28214,1013760.145225,1192
1659694400.28214,1013760.1452285,281
1659694400.28214,1013760.1452322,-350
1659694400.28214,1013760.1452371,-145
1659694400.28214,1013760.1452413,85
1659694400.28214,1013760.1452464,7
1659694400.28214,1013760.1452499,7
1659694400.28214,1013760.1452534,78
1659694400.28214,1013760.1452569,61
1659694400.28214,1013760.1452604,45
1659694400.28214,1013760.1452639,73
1659694400.29511,1013760.1452677,88
1659694400.29511,1013760.1452712,90
1659694400.29511,1013760.1452748,104
1659694400.29511,1013760.1452798,112
1659694400.29511,1013760.1452833,116
1659694400.29511,1013760.1452868,126
1659694400.29511,1013760.1452902,135
1659694400.29511,1013760.1452937,138
1659694400.29511,1013760.1452973,133
1659694400.29511,1013760.1453007,131
1659694400.29511,1013760.1453043,133
1659694400.29511,1013760.1453078,133
1659694400.29511,1013760.1453112,131
1659694400.29511,1013760.7304273,133
1659694400.29511,1013760.7304496,131
1659694400.29511,1013760.7304597,119
1659694400.29511,1013760.7304625,114
1659694400.29511,1013760.7304647,119
1659694400.29511,1013760.7304669,119
1659694400.29511,1013760.730469,121
1659694400.29511,1013760.7304711,109
1659694400.29511,1013760.7304731,81
1659694400.29511,1013760.7304753,47
1659694400.29511,1013760.7304773,14
1659694400.81114,1013760.7304795,-26
1659694400.81114,1013760.7304815,-42
1659694400.81114,1013760.7304835,-40
1659694400.81114,1013760.7304854,-40
1659694400.81114,1013760.7304873,-33
1659694400.81114,1013760.7304894,-23
1659694400.81114,1013760.7304948,-30
1659694400.81114,1013760.7305043,-40
1659694400.81114,1013760.7305094,-26
1659694400.81114,1013760.7305212,-11
1659694400.81114,1013760.7305299,-7
1659694400.81114,1013760.7305325,2
1659694400.81114,1013760.7305353,7
1659694400.81114,1013760.7305437,7
1659694400.81114,1013760.7305517,9
1659694400.81114,1013760.7305558,14
1659694400.81114,1013760.7305614,9
1659694400.81114,1013760.7305653,7
1659694400.81114,1013760.7305704,9
1659694400.81114,1013760.730574,4
1659694400.81114,1013760.7305789,4
1659694400.81114,1013760.7305833,30
1659694400.81114,1013760.7305916,61
1659694400.81114,1013760.7305985,73
1659694400.81114,1013760.7306008,66
1659694400.81114,1013760.7306032,61
1659694400.81114,1013760.7306127,54
1659694400.81114,1013760.7306212,40
1659694400.81114,1013760.7306236,38
1659694400.81114,1013760.7306257,40
1659694400.81114,1013760.7306277,45
1659694400.81114,1013760.7306297,50
1659694400.81114,1013760.7306317,50
1659694400.81114,1013760.7306337,50
1659694400.81114,1013760.7306356,28
1659694400.81114,1013760.7306385,-30
1659694400.81114,1013760.7306487,-47
1659694400.81114,1013760.7306564,233
1659694400.81114,1013760.7306589,875
1659694400.81114,1013760.7306611,1261
1659694400.81114,1013760.7306631,715
1659694400.81114,1013760.7306683,-162
1659694400.81114,1013760.7306793,-288
1659694400.81114,1013760.7306845,33
1659694400.81114,1013760.7306865,61
1659694400.81114,1013760.7306886,-11
1659694400.81114,1013760.7306906,54
1659694400.81114,1013760.730697,78
1659694400.81114,1013760.7307077,50
1659694400.81114,1013760.7307124,64
1659694400.8271,1013760.7307144,71
1659694400.8271,1013760.7307165,59
1659694400.8271,1013760.7307189,66
1659694400.8271,1013760.7307285,81
1659694400.8271,1013760.7307369,88
1659694400.8271,1013760.7307394,102
1659694400.8271,1013760.7307415,116
1659694400.8271,1013760.7307435,121
1659694400.8271,1013760.7307493,128
1659694400.8271,1013760.7307599,138
1659694400.8271,1013760.730765,138
1659694400.8271,1013760.7307671,140
1659694400.8271,1013761.2664932,145
1659694400.8271,1013761.2665125,145
1659694400.8271,1013761.266518,135
1659694400.8271,1013761.2665246,133
1659694400.8271,1013761.2665293,131
1659694400.8271,1013761.2665362,126
1659694400.8271,1013761.2665407,131
1659694400.8271,1013761.2665447,128
1659694400.8271,1013761.2665486,102
1659694400.8271,1013761.2665529,81
1659694400.8271,1013761.2665572,57
1659694400.8271,1013761.2665635,23
1659694401.34942,1013761.2665675,2
1659694401.34942,1013761.2665727,-21
1659694401.34942,1013761.2665771,-57
1659694401.34942,1013761.2665804,-66
1659694401.34942,1013761.2665839,-50
1659694401.34942,1013761.2665873,-40
1659694401.34942,1013761.2665907,-30
1659694401.34942,1013761.2665941,-19
1659694401.34942,1013761.2665976,-11
1659694401.34942,1013761.266601,-7
1659694401.34942,1013761.2666044,-4
1659694401.34942,1013761.2666084,4
1659694401.34942,1013761.266614,14
1659694401.34942,1013761.2666201,16
1659694401.34942,1013761.266627,14
1659694401.34942,1013761.2666333,14
1659694401.34942,1013761.2666377,19
1659694401.34942,1013761.2666427,21
1659694401.34942,1013761.2666457,19
1659694401.34942,1013761.2666487,19
1659694401.34942,1013761.266652,16
1659694401.34942,1013761.2666551,19
1659694401.34942,1013761.266659,40
1659694401.34942,1013761.2666652,73
1659694401.34942,1013761.2666682,83
1659694401.34942,1013761.2666713,81
1659694401.34942,1013761.2666743,85
1659694401.34942,1013761.2666774,78
1659694401.34942,1013761.2666804,59
1659694401.34942,1013761.2666835,59
1659694401.34942,1013761.2666869,59
1659694401.34942,1013761.2666901,59
1659694401.34942,1013761.2666952,69
1659694401.34942,1013761.2666982,76
1659694401.34942,1013761.2667014,71
1659694401.34942,1013761.2667045,57
1659694401.34942,1013761.2667074,7
1659694401.34942,1013761.2667106,-35
1659694401.34942,1013761.2667138,171
1659694401.34942,1013761.2667171,779
1659694401.34942,1013761.2667201,1297
1659694401.34942,1013761.2667235,887
1659694401.34942,1013761.2667268,-97
1659694401.34942,1013761.2667311,-391
1659694401.34942,1013761.2667346,-33
1659694401.34942,1013761.2667382,81
1659694401.34942,1013761.2667423,0
1659694401.34942,1013761.2667481,54
1659694401.34942,1013761.2667521,95
1659694401.34942,1013761.2667559,66
1659694401.37037,1013761.2667602,81
1659694401.37037,1013761.2667654,107
1659694401.37037,1013761.2667684,107
1659694401.37037,1013761.2667715,116
1659694401.37037,1013761.266777,133
1659694401.37037,1013761.2667801,140
1659694401.37037,1013761.2667832,145
1659694401.37037,1013761.2667862,159
1659694401.37037,1013761.2667894,171
1659694401.37037,1013761.2667945,178
1659694401.37037,1013761.2667976,178
1659694401.37037,1013761.8024995,181
1659694401.37037,1013761.8025158,185
1659694401.37037,1013761.8025213,193
1659694401.37037,1013761.8025318,188
1659694401.37037,1013761.8025356,178
1659694401.37037,1013761.8025397,174
1659694401.37037,1013761.8025436,169
1659694401.37037,1013761.8025483,166
1659694401.37037,1013761.8025521,178
1659694401.37037,1013761.8025622,183
1659694401.37037,1013761.8025667,169
1659694401.37037,1013761.8025721,126
1659694401.37037,1013761.8025774,73
1659694401.87909,1013761.8025846,38
1659694401.87909,1013761.8025891,14
1659694401.87909,1013761.802594,-4
1659694401.87909,1013761.8025984,-26
1659694401.87909,1013761.8026037,-47
1659694401.87909,1013761.8026078,-59
1659694401.87909,1013761.8026132,-42
1659694401.87909,1013761.8026183,-26
1659694401.87909,1013761.8026231,-16
1659694401.87909,1013761.8026276,-2
1659694401.87909,1013761.8026319,7
1659694401.87909,1013761.8026362,9
1659694401.87909,1013761.8026404,21
1659694401.87909,1013761.8026447,35
1659694401.87909,1013761.802649,40
1659694401.87909,1013761.8026593,47
1659694401.87909,1013761.8026671,47
1659694401.87909,1013761.8026728,35
1659694401.87909,1013761.8026787,33
1659694401.87909,1013761.8026855,40
1659694401.87909,1013761.8026928,35
1659694401.87909,1013761.8026973,33
1659694401.87909,1013761.8027014,52
1659694401.87909,1013761.802706,71
1659694401.87909,1013761.8027103,85
1659694401.87909,1013761.8027147,95
1659694401.87909,1013761.8027192,92
1659694401.87909,1013761.8027236,83
1659694401.87909,1013761.8027286,71
1659694401.87909,1013761.8027356,59
1659694401.87909,1013761.8027425,54
1659694401.87909,1013761.8027487,52
1659694401.87909,1013761.8027521,42
1659694401.87909,1013761.8027553,35
1659694401.87909,1013761.8027588,40
1659694401.87909,1013761.8027627,33
1659694401.87909,1013761.8027703,-14
1659694401.87909,1013761.8027793,-69

1659694401.87909,1013761.8027862,61
1659694401.87909,1013761.8027944,588
1659694401.87909,1013761.8028011,1182
1659694401.87909,1013761.8028079,965
1659694401.87909,1013761.8028149,-28
1659694401.87909,1013761.8028239,-488
1659694401.87909,1013761.8028321,-135
1659694401.87909,1013761.8028391,71
1659694401.87909,1013761.8028472,-9
1659694401.87909,1013761.8028526,35
1659694401.87909,1013761.8028574,102
1659694401.87909,1013761.8028648,69
1659694401.89405,1013761.8028718,71
1659694401.89405,1013761.8028792,109
1659694401.89405,1013761.802887,112
1659694401.89405,1013761.8028943,112
1659694401.89405,1013761.802903,128
1659694401.89405,1013761.8029099,135
1659694401.89405,1013761.8029175,140
1659694401.89405,1013761.8029255,157
1659694401.89405,1013761.8029303,169
1659694401.89405,1013761.802943,171
1659694401.89405,1013762.3392975,174
1659694401.89405,1013762.3393189,178
1659694401.89405,1013762.3393295,183
1659694401.89405,1013762.3393342,185
1659694401.89405,1013762.3393427,176
1659694401.89405,1013762.3393489,164
1659694401.89405,1013762.339355,162
1659694401.89405,1013762.3393693,145
1659694401.89405,1013762.3393772,119
1659694401.89405,1013762.3393819,123
1659694401.89405,1013762.3393876,138
1659694401.89405,1013762.3393915,123
1659694401.89405,1013762.339397,97
1659694401.89405,1013762.3394856,59
1659694402.4653,1013762.339495,4
1659694402.4653,1013762.3395,-33
1659694402.4653,1013762.339505,-45
1659694402.4653,1013762.3395095,-59
1659694402.4653,1013762.3395138,-66
1659694402.4653,1013762.3395196,-59
1659694402.4653,1013762.3395239,-54
1659694402.4653,1013762.3395303,-50
1659694402.4653,1013762.339535,-38
1659694402.4653,1013762.3395408,-26
1659694402.4653,1013762.3395456,-14
1659694402.4653,1013762.339551,0
1659694402.4653,1013762.3395557,4
1659694402.4653,1013762.3395612,9
1659694402.4653,1013762.3395656,16
1659694402.4653,1013762.3395709,23
1659694402.4653,1013762.3395748,26
1659694402.4653,1013762.339581,26
1659694402.4653,1013762.3395851,28
1659694402.4653,1013762.3395907,23
1659694402.4653,1013762.3395948,19
1659694402.4653,1013762.3396011,23
1659694402.4653,1013762.3396051,38
1659694402.4653,1013762.3396108,54
1659694402.4653,1013762.3396147,50
1659694402.4653,1013762.33962,40
1659694402.4653,1013762.3396236,33
1659694402.4653,1013762.3396291,19
1659694402.4653,1013762.3396328,11
1659694402.4653,1013762.3396382,16
1659694402.4653,1013762.3396426,19
1659694402.4653,1013762.339648,21
1659694402.4653,1013762.3396525,23
1659694402.4653,1013762.3396576,26
1659694402.4653,1013762.3396616,26
1659694402.4653,1013762.3396653,-4
1659694402.4653,1013762.3396694,-69
1659694402.4653,1013762.339675,-38
1659694402.4653,1013762.3396833,343
1659694402.4653,1013762.3396945,1011
1659694402.4653,1013762.3397049,1170
1659694402.4653,1013762.3397147,352
1659694402.4653,1013762.3397223,-412
1659694402.4653,1013762.33973,-269
1659694402.4653,1013762.3397324,52
1659694402.4653,1013762.3397345,4
1659694402.4653,1013762.3397418,-11
1659694402.4653,1013762.3397525,81
1659694402.4653,1013762.3397554,71
1659694402.4653,1013762.3397575,50
1659694402.48824,1013762.3397596,83
1659694402.48824,1013762.3397617,92
1659694402.48824,1013762.3397637,88
1659694402.48824,1013762.3397658,104
1659694402.48824,1013762.3397686,114
1659694402.48824,1013762.3397707,114
1659694402.48824,1013762.3397728,126
1659694402.48824,1013762.3397748,135
1659694402.48824,1013762.3397769,140
1659694402.48824,1013762.9245447,150
1659694402.48824,1013762.9245641,164
1659694402.48824,1013762.924572,169
1659694402.48824,1013762.9245747,166
1659694402.48824,1013762.9245768,157
1659694402.48824,1013762.9245788,133
1659694402.48824,1013762.9245808,131
1659694402.48824,1013762.9245828,140
1659694402.48824,1013762.9245848,135
1659694402.48824,1013762.9245919,123
1659694402.48824,1013762.9246085,119
1659694402.48824,1013762.9246443,97
1659694402.48824,1013762.9246557,71
1659694402.48824,1013762.9246658,45
1659694402.48824,1013762.9246737,14
1659694403.1122,1013762.9246837,-14
1659694403.1122,1013762.9246903,-40
1659694403.1122,1013762.9246966,-59
1659694403.1122,1013762.9247031,-64
1659694403.1122,1013762.9247082,-59
1659694403.1122,1013762.9247155,-52
1659694403.1122,1013762.9247225,-42
1659694403.1122,1013762.9247278,-30
1659694403.1122,1013762.9247351,-23
1659694403.1122,1013762.9247405,-14
1659694403.1122,1013762.9247461,0
1659694403.1122,1013762.9247508,4
1659694403.1122,1013762.9247544,0
1659694403.1122,1013762.9247584,0
1659694403.1122,1013762.9247643,11
1659694403.1122,1013762.9247679,11
1659694403.1122,1013762.9247731,0
1659694403.1122,1013762.9247782,-7
1659694403.1122,1013762.9247835,-7
1659694403.1122,1013762.9247872,-9
1659694403.1122,1013762.9247922,-4
1659694403.1122,1013762.9247955,19
1659694403.1122,1013762.9248002,40
1659694403.1122,1013762.9248147,47
1659694403.1122,1013762.9248343,52
1659694403.1122,1013762.9248451,54
1659694403.1122,1013762.924857,45
1659694403.1122,1013762.9248649,28
1659694403.1122,1013762.9248715,23
1659694403.1122,1013762.9248765,30
1659694403.1122,1013762.9248824,33
1659694403.1122,1013762.9248852,33
1659694403.1122,1013762.9248882,38
1659694403.1122,1013762.9248912,42
1659694403.1122,1013762.9248941,30
1659694403.1122,1013762.924897,-19
1659694403.1122,1013762.9248998,-59
1659694403.1122,1013762.9249027,123
1659694403.1122,1013762.924907,701
1659694403.1122,1013762.9249091,1249
1659694403.1122,1013762.9249112,915
1659694403.1122,1013762.9249132,-59
1659694403.1122,1013762.9249152,-405
1659694403.1122,1013762.9249173,-64
1659694403.1122,1013762.9249194,59
1659694403.1122,1013762.9249216,-30
1659694403.1122,1013762.924927,26
1659694403.1122,1013762.924938,78
1659694403.1122,1013762.924943,45
1659694403.1122,1013762.9249451,50
1659694403.12716,1013762.9249471,83
1659694403.12716,1013762.9249492,90
1659694403.12716,1013762.9249512,92
1659694403.12716,1013762.9249574,104
1659694403.12716,1013762.9249708,114
1659694403.12716,1013762.9249803,123
1659694403.12716,1013762.9249849,133
1659694403.12716,1013762.924989,147
1659694403.12716,1013763.5588867,159
1659694403.12716,1013763.5589062,164
1659694403.12716,1013763.5589221,164
1659694403.12716,1013763.5589357,171
1659694403.12716,1013763.5589458,183
1659694403.12716,1013763.5589543,188
1659694403.12716,1013763.5589609,183
1659694403.12716,1013763.558973,169
1659694403.12716,1013763.5589832,150
1659694403.12716,1013763.5589885,140
1659694403.12716,1013763.5589996,145
1659694403.12716,1013763.5590077,150
1659694403.12716,1013763.5590132,140
1659694403.12716,1013763.5590234,102
1659694403.12716,1013763.5590317,42
1659694403.12716,1013763.5590384,2
1659694403.59724,1013763.5590464,-14
1659694403.59724,1013763.5590567,-30
1659694403.59724,1013763.5590637,-52
1659694403.59724,1013763.559074,-57
1659694403.59724,1013763.5590797,-52
1659694403.59724,1013763.5590841,-54
1659694403.59724,1013763.5590881,-45
1659694403.59724,1013763.5591017,-30
1659694403.59724,1013763.5591102,-30
1659694403.59724,1013763.5591231,-30
1659694403.59724,1013763.5591289,-21
1659694403.59724,1013763.559132,-16
1659694403.59724,1013763.5591341,-7
1659694403.59724,1013763.5591362,4
1659694403.59724,1013763.5591382,11
1659694403.59724,1013763.5591402,14
1659694403.59724,1013763.5591422,16
1659694403.59724,1013763.5591442,11
1659694403.59724,1013763.5591468,9
1659694403.59724,1013763.5591489,11
1659694403.59724,1013763.5591509,16
1659694403.59724,1013763.5591529,28
1659694403.59724,1013763.559155,52
1659694403.59724,1013763.5591571,66
1659694403.59724,1013763.5591592,69
1659694403.59724,1013763.5591612,73
1659694403.59724,1013763.5591632,76
1659694403.59724,1013763.5591652,64
1659694403.59724,1013763.559168,52
1659694403.59724,1013763.55917,47
1659694403.59724,1013763.5591721,45
1659694403.59724,1013763.559174,45
1659694403.59724,1013763.5591761,52
1659694403.59724,1013763.5591781,54
1659694403.59724,1013763.5591801,47
1659694403.59724,1013763.5591821,28
1659694403.59724,1013763.5591841,-23
1659694403.59724,1013763.5591862,-52
1659694403.59724,1013763.5591882,166
1659694403.59724,1013763.5591902,772
1659694403.59724,1013763.5591922,1268
1659694403.59724,1013763.5591942,844
1659694403.59724,1013763.5591963,-112
1659694403.59724,1013763.5591983,-371
1659694403.59724,1013763.5592004,-28
1659694403.59724,1013763.5592024,61
1659694403.59724,1013763.5592044,-21
1659694403.59724,1013763.5592065,40
1659694403.59724,1013763.5592085,81
1659694403.59724,1013763.5592105,50
1659694403.62018,1013763.5592125,64
1659694403.62018,1013763.5592145,92
1659694403.62018,1013763.5592165,95
1659694403.62018,1013763.5592185,102
1659694403.62018,1013763.5592205,114
1659694403.62018,1013763.5592225,121
1659694403.62018,1013763.5592246,128
1659694403.62018,1013764.0452755,145
1659694403.62018,1013764.0452955,154
1659694403.62018,1013764.0453039,157
1659694403.62018,1013764.0453127,159
1659694403.62018,1013764.0453245,166
1659694403.62018,1013764.0453295,178
1659694403.62018,1013764.0453367,185
1659694403.62018,1013764.0453434,188
1659694403.62018,1013764.0453471,183
1659694403.62018,1013764.0453504,174
1659694403.62018,1013764.0453562,157
1659694403.62018,1013764.0454285,145
1659694403.62018,1013764.0454373,145
1659694403.62018,1013764.0454438,147
1659694403.62018,1013764.0454477,131
1659694403.62018,1013764.0454533,104
1659694403.62018,1013764.0454568,64
1659694404.22293,1013764.045462,11
1659694404.22293,1013764.0454657,-23
1659694404.22293,1013764.0454693,-33
1659694404.22293,1013764.0454729,-42
1659694404.22293,1013764.0454764,-45
1659694404.22293,1013764.0454801,-45
1659694404.22293,1013764.0454855,-52
1659694404.22293,1013764.0454898,-52
1659694404.22293,1013764.0454931,-40
1659694404.22293,1013764.045497,-26
1659694404.22293,1013764.0455251,-16
1659694404.22293,1013764.0455349,-4
1659694404.22293,1013764.0455396,-2
1659694404.22293,1013764.0455432,-7
1659694404.22293,1013764.0455475,0
1659694404.22293,1013764.0455514,11
1659694404.22293,1013764.0455551,16
1659694404.22293,1013764.0455586,19
1659694404.22293,1013764.0455619,28
1659694404.22293,1013764.0455653,30
1659694404.22293,1013764.0455687,28
1659694404.22293,1013764.0455722,19
1659694404.22293,1013764.0455756,19
1659694404.22293,1013764.045579,23
1659694404.22293,1013764.0455825,21
1659694404.22293,1013764.0455867,35
1659694404.22293,1013764.04559,61
1659694404.22293,1013764.0455931,71
1659694404.22293,1013764.0455962,69
1659694404.22293,1013764.0456004,73
1659694404.22293,1013764.0456036,71
1659694404.22293,1013764.0456069,52
1659694404.22293,1013764.045611,45
1659694404.22293,1013764.0456145,50
1659694404.22293,1013764.0456212,50
1659694404.22293,1013764.045625,57
1659694404.22293,1013764.0456301,71
1659694404.22293,1013764.0456337,69
1659694404.22293,1013764.0456388,54
1659694404.22293,1013764.0456426,16
1659694404.22293,1013764.0456478,-23
1659694404.22293,1013764.0456514,95
1659694404.22293,1013764.0456563,579
1659694404.22293,1013764.0456598,1185
1659694404.22293,1013764.0456652,1084
1659694404.22293,1013764.045669,150
1659694404.22293,1013764.0456742,-426
1659694404.22293,1013764.0456781,-171
1659694404.22293,1013764.0456836,64
1659694404.22293,1013764.0456877,7
1659694404.24686,1013764.0456968,35
1659694404.24686,1013764.0457022,102
1659694404.24686,1013764.0457062,83
1659694404.24686,1013764.0457116,78
1659694404.24686,1013764.0457173,107
1659694404.24686,1013764.045721,112
1659694404.24686,1013764.6789356,107
1659694404.24686,1013764.6789487,112
1659694404.24686,1013764.6789512,119
1659694404.24686,1013764.6789533,126
1659694404.24686,1013764.6789553,135
1659694404.24686,1013764.6789573,145
1659694404.24686,1013764.6789594,150
1659694404.24686,1013764.6789613,143
1659694404.24686,1013764.6789633,128
1659694404.24686,1013764.6789654,121
1659694404.24686,1013764.6789674,123
1659694404.24686,1013764.6789698,128
1659694404.24686,1013764.6789723,135
1659694404.24686,1013764.6789744,133
1659694404.24686,1013764.6789764,116
1659694404.24686,1013764.6789783,112
1659694404.24686,1013764.6789803,126
1659694404.24686,1013764.6789823,131
1659694404.76548,1013764.6789851,121
1659694404.76548,1013764.6789928,95
1659694404.76548,1013764.679002,50
1659694404.76548,1013764.6790051,9
1659694404.76548,1013764.6790072,-19
1659694404.76548,1013764.6790091,-38
1659694404.76548,1013764.6790184,-52
1659694404.76548,1013764.6790274,-61
1659694404.76548,1013764.6790348,-64
1659694404.76548,1013764.6790421,-64
1659694404.76548,1013764.6790475,-54
1659694404.76548,1013764.6790531,-42
1659694404.76548,1013764.6790607,-33
1659694404.76548,1013764.6790704,-28
1659694404.76548,1013764.679081,-23
1659694404.76548,1013764.679091,-16
1659694404.76548,1013764.6791002,-2
1659694404.76548,1013764.6791106,16
1659694404.76548,1013764.6791205,28
1659694404.76548,1013764.6791296,30
1659694404.76548,1013764.6791347,35
1659694404.76548,1013764.6791387,40
1659694404.76548,1013764.6791407,42
1659694404.76548,1013764.6791427,45
1659694404.76548,1013764.6791447,45
1659694404.76548,1013764.6791468,35
1659694404.76548,1013764.6791488,30
1659694404.76548,1013764.6791509,28
1659694404.76548,1013764.6791528,35
1659694404.76548,1013764.6791549,59
1659694404.76548,1013764.6791569,85
1659694404.76548,1013764.6791589,92
1659694404.76548,1013764.6791609,90
1659694404.76548,1013764.6791632,92
1659694404.76548,1013764.6791652,78
1659694404.76548,1013764.6791672,61
1659694404.76548,1013764.6791693,66
1659694404.76548,1013764.6791713,71
1659694404.76548,1013764.6791733,66
1659694404.76548,1013764.6791754,69
1659694404.76548,1013764.6791774,71
1659694404.76548,1013764.6791794,73
1659694404.76548,1013764.6791814,64
1659694404.76548,1013764.6791834,26
1659694404.76548,1013764.6791856,-19
1659694404.76548,1013764.6791876,109
1659694404.76548,1013764.6791897,624
1659694404.76548,1013764.6791917,1270
1659694404.76548,1013764.6791938,1175
1659694404.76548,1013764.6791958,205
1659694404.78171,1013764.6791978,-400
1659694404.78171,1013764.6791999,-150
1659694404.78171,1013764.6792019,76
1659694404.78171,1013764.6792039,0
1659694404.78171,1013764.679206,19
1659694404.78171,1013765.2157637,76
1659694404.78171,1013765.2157886,42
1659694404.78171,1013765.215804,33
1659694404.78171,1013765.2158175,64
1659694404.78171,1013765.215827,66
1659694404.78171,1013765.2158361,64
1659694404.78171,1013765.2158434,73
1659694404.78171,1013765.2158491,81
1659694404.78171,1013765.2158551,92
1659694404.78171,1013765.2158582,104
1659694404.78171,1013765.215861,100
1659694404.78171,1013765.2158639,85
1659694404.78171,1013765.2158668,88
1659694404.78171,1013765.2158696,97
1659694404.78171,1013765.2158725,104
1659694404.78171,1013765.2158754,116
1659694404.78171,1013765.2158782,126
1659694404.78171,1013765.2158811,116
1659694404.78171,1013765.215884,104
1659694405.35036,1013765.2158883,116
1659694405.35036,1013765.2158956,128
1659694405.35036,1013765.2159024,133
1659694405.35036,1013765.2159097,135
1659694405.35036,1013765.215919,114
1659694405.35036,1013765.2159292,76
1659694405.35036,1013765.215937,42
1659694405.35036,1013765.2159414,11
1659694405.35036,1013765.2159541,-21
1659694405.35036,1013765.2159672,-42
1659694405.35036,1013765.215977,-54
1659694405.35036,1013765.2159817,-66
1659694405.35036,1013765.215992,-69
1659694405.35036,1013765.2159979,-61
1659694405.35036,1013765.2160011,-52
1659694405.35036,1013765.2160032,-42
1659694405.35036,1013765.2160052,-30
1659694405.35036,1013765.2160071,-21
1659694405.35036,1013765.2160091,-11
1659694405.35036,1013765.2160119,0
1659694405.35036,1013765.2160244,14
1659694405.35036,1013765.2160347,23
1659694405.35036,1013765.2160433,28
1659694405.35036,1013765.2160505,33
1659694405.35036,1013765.2160582,35
1659694405.35036,1013765.2160646,40
1659694405.35036,1013765.2160682,42
1659694405.35036,1013765.2160717,50
1659694405.35036,1013765.2160752,52
1659694405.35036,1013765.2160796,40
1659694405.35036,1013765.2160848,38
1659694405.35036,1013765.2160882,45
1659694405.35036,1013765.2160917,42
1659694405.35036,1013765.2160952,38
1659694405.35036,1013765.2160984,38
1659694405.35036,1013765.2161019,28
1659694405.35036,1013765.2161066,23
1659694405.35036,1013765.2161126,47
1659694405.35036,1013765.2161185,81
1659694405.35036,1013765.2161241,92
1659694405.35036,1013765.2161307,92
1659694405.35036,1013765.2161362,92
1659694405.35036,1013765.2161429,85
1659694405.35036,1013765.2161489,71
1659694405.35036,1013765.2161542,61
1659694405.35036,1013765.2161615,64
1659694405.35036,1013765.216169,66
1659694405.35036,1013765.2161735,59
1659694405.35036,1013765.2161791,45
1659694405.35036,1013765.2161856,42
1659694405.3723,1013765.2161897,50
1659694405.3723,1013765.2161941,33
1659694405.3723,1013765.2161976,-26
1659694405.3723,1013765.2162008,-40
1659694405.3723,1013765.8005828,233
1659694405.3723,1013765.8006001,889
1659694405.3723,1013765.8006048,1337
1659694405.3723,1013765.8006089,827
1659694405.3723,1013765.8006129,-119
1659694405.3723,1013765.8006163,-331
1659694405.3723,1013765.8006198,-21
1659694405.3723,1013765.8006237,14
1659694405.3723,1013765.8006277,-73
1659694405.3723,1013765.8006336,-9
1659694405.3723,1013765.8006376,26
1659694405.3723,1013765.8006416,-11
1659694405.3723,1013765.8006455,-7
1659694405.3723,1013765.8006493,21
1659694405.3723,1013765.8006531,14
1659694405.3723,1013765.8006571,7
1659694405.3723,1013765.8006626,23
1659694405.3723,1013765.8006678,35
1659694405.3723,1013765.8006752,40
1659694405.3723,1013765.8006789,45
1659694405.84751,1013765.8006829,42
1659694405.84751,1013765.8006868,40
1659694405.84751,1013765.8006907,57
1659694405.84751,1013765.8006947,73
1659694405.84751,1013765.8006985,81
1659694405.84751,1013765.8007024,97
1659694405.84751,1013765.8007065,109
1659694405.84751,1013765.8007104,116
1659694405.84751,1013765.8007142,126
1659694405.84751,1013765.8007181,133
1659694405.84751,1013765.800722,140
1659694405.84751,1013765.8007258,150
1659694405.84751,1013765.8007297,152
1659694405.84751,1013765.8007346,143
1659694405.84751,1013765.8007385,116
1659694405.84751,1013765.8007425,78
1659694405.84751,1013765.8007464,40
1659694405.84751,1013765.8007502,14
1659694405.84751,1013765.8007541,-4
1659694405.84751,1013765.8007581,-19
1659694405.84751,1013765.8007621,-23
1659694405.84751,1013765.800766,-23
1659694405.84751,1013765.8007695,-19
1659694405.84751,1013765.8007727,-11
1659694405.84751,1013765.8007761,0
1659694405.84751,1013765.80078,9
1659694405.84751,1013765.8007833,7
1659694405.84751,1013765.8007863,7
1659694405.84751,1013765.8007896,19
1659694405.84751,1013765.8007928,33
1659694405.84751,1013765.8007961,40
1659694405.84751,1013765.8007993,47
1659694405.84751,1013765.8008027,52
1659694405.84751,1013765.8008061,50
1659694405.84751,1013765.8008093,54
1659694405.84751,1013765.8008161,59
1659694405.84751,1013765.8008194,64
1659694405.84751,1013765.8008242,66
1659694405.84751,1013765.8008274,61
1659694405.84751,1013765.8008315,50
1659694405.84751,1013765.8008367,38
1659694405.84751,1013765.8008402,40
1659694405.84751,1013765.8008453,50
1659694405.84751,1013765.800849,50
1659694405.84751,1013765.8008526,45
1659694405.84751,1013765.8008573,42
1659694405.84751,1013765.8008604,45
1659694405.84751,1013765.8008636,45
1659694405.84751,1013765.8008687,45
1659694405.84751,1013765.800874,50
1659694405.87183,1013765.8008773,59
1659694405.87183,1013765.8008808,78
1659694405.87183,1013765.8008859,102
1659694405.87183,1013766.2881482,116
1659694405.87183,1013766.2881695,119
1659694405.87183,1013766.2881778,116
1659694405.87183,1013766.2881853,104
1659694405.87183,1013766.2881945,90
1659694405.87183,1013766.288197,81
1659694405.87183,1013766.2882041,73
1659694405.87183,1013766.2882132,69
1659694405.87183,1013766.2882177,69
1659694405.87183,1013766.2882236,69
1659694405.87183,1013766.2882273,54
1659694405.87183,1013766.2882312,30
1659694405.87183,1013766.288235,-2
1659694405.87183,1013766.2882404,-52
1659694405.87183,1013766.2882452,-23
1659694405.87183,1013766.2882488,317
1659694405.87183,1013766.2882523,927
1659694405.87183,1013766.2882557,1106
1659694405.87183,1013766.2882592,410
1659694405.87183,1013766.2882645,-309
1659694405.87183,1013766.2882699,-259
1659694406.41235,1013766.2882833,0
1659694406.41235,1013766.2882878,-38
1659694406.41235,1013766.2882936,-81
1659694406.41235,1013766.288301,-26
1659694406.41235,1013766.2883057,-19
1659694406.41235,1013766.2883098,-26
1659694406.41235,1013766.2883134,-4
1659694406.41235,1013766.2883191,7
1659694406.41235,1013766.2883227,7
1659694406.41235,1013766.2883276,16
1659694406.41235,1013766.2883376,30
1659694406.41235,1013766.2883474,45
1659694406.41235,1013766.2883536,54
1659694406.41235,1013766.2883573,64
1659694406.41235,1013766.2883609,76
1659694406.41235,1013766.288366,85
1659694406.41235,1013766.2883696,88
1659694406.41235,1013766.2883781,97
1659694406.41235,1013766.2883849,114
1659694406.41235,1013766.2883885,123
1659694406.41235,1013766.2883905,135
1659694406.41235,1013766.2883926,147
1659694406.41235,1013766.2883947,154
1659694406.41235,1013766.2883967,164
1659694406.41235,1013766.2883988,174
1659694406.41235,1013766.2884008,178
1659694406.41235,1013766.2884029,183
1659694406.41235,1013766.2884049,178
1659694406.41235,1013766.288407,152
1659694406.41235,1013766.2884102,112
1659694406.41235,1013766.2884212,76
1659694406.41235,1013766.2884273,38
1659694406.41235,1013766.2884311,2
1659694406.41235,1013766.2884347,-9
1659694406.41235,1013766.2884397,-9
1659694406.41235,1013766.2884432,-9
1659694406.41235,1013766.288451,-7
1659694406.41235,1013766.2884568,-2
1659694406.41235,1013766.2884597,4
1659694406.41235,1013766.2884618,14
1659694406.41235,1013766.2884639,26
1659694406.41235,1013766.2884659,30
1659694406.41235,1013766.2884679,38
1659694406.41235,1013766.28847,47
1659694406.41235,1013766.288472,54
1659694406.41235,1013766.288474,61
1659694406.41235,1013766.2884759,66
1659694406.41235,1013766.2884779,69
1659694406.41235,1013766.28848,66
1659694406.41235,1013766.2884864,59
1659694406.4313,1013766.2884953,64
1659694406.4313,1013766.2884994,71
1659694406.4313,1013766.8731349,66
1659694406.4313,1013766.8731497,61
1659694406.4313,1013766.8731525,61
1659694406.4313,1013766.8731548,61
1659694406.4313,1013766.873157,64
1659694406.4313,1013766.8731589,71
1659694406.4313,1013766.8731609,69
1659694406.4313,1013766.8731628,52
1659694406.4313,1013766.8731647,28
1659694406.4313,1013766.8731666,26
1659694406.4313,1013766.8731685,30
1659694406.4313,1013766.8731704,26
1659694406.4313,1013766.8731723,19
1659694406.4313,1013766.8731741,7
1659694406.4313,1013766.8731762,0
1659694406.4313,1013766.8731782,16
1659694406.4313,1013766.873183,40
1659694406.4313,1013766.8731941,47
1659694406.4313,1013766.8732015,47
1659694406.4313,1013766.8732111,42
1659694406.4313,1013766.8732186,26
1659694406.4313,1013766.8732294,9
1659694406.97075,1013766.8732348,9
1659694406.97075,1013766.873237,14
1659694406.97075,1013766.873239,19
1659694406.97075,1013766.8732409,26
1659694406.97075,1013766.8732428,26
1659694406.97075,1013766.8732447,19
1659694406.97075,1013766.8732466,9
1659694406.97075,1013766.8732486,-28
1659694406.97075,1013766.8732506,-64
1659694406.97075,1013766.8732526,109
1659694406.97075,1013766.8732545,655
1659694406.97075,1013766.8732563,1173
1659694406.97075,1013766.8732582,865
1659694406.97075,1013766.87326,-64
1659694406.97075,1013766.8732619,-422
1659694406.97075,1013766.8732638,-104
1659694406.97075,1013766.8732656,45
1659694406.97075,1013766.8732675,-28
1659694406.97075,1013766.8732694,16
1659694406.97075,1013766.8732714,69
1659694406.97075,1013766.8732734,47
1659694406.97075,1013766.8732753,57
1659694406.97075,1013766.8732784,81
1659694406.97075,1013766.8732884,69
1659694406.97075,1013766.873298,61
1659694406.97075,1013766.8733073,83
1659694406.97075,1013766.8733162,102
1659694406.97075,1013766.8733275,112
1659694406.97075,1013766.8733307,119
1659694406.97075,1013766.8733329,128
1659694406.97075,1013766.8733349,138
1659694406.97075,1013766.873337,152
1659694406.97075,1013766.873339,166
1659694406.97075,1013766.8733419,176
1659694406.97075,1013766.8733519,188
1659694406.97075,1013766.8733601,200
1659694406.97075,1013766.8733706,205
1659694406.97075,1013766.8733818,214
1659694406.97075,1013766.8733872,221
1659694406.97075,1013766.8733903,219
1659694406.97075,1013766.8733923,221
1659694406.97075,1013766.873395,231
1659694406.97075,1013766.8733972,226
1659694406.97075,1013766.8733992,200
1659694406.97075,1013766.8734013,169
1659694406.97075,1013766.8734034,135
1659694406.97075,1013766.8734054,95
1659694406.97075,1013766.8734074,61
1659694406.97075,1013766.8734094,42
1659694406.97075,1013766.8734114,28
1659694406.99375,1013766.8734135,23
1659694406.99375,1013767.4091748,26
1659694406.99375,1013767.4091977,30
1659694406.99375,1013767.4092073,33
1659694406.99375,1013767.4092143,38
1659694406.99375,1013767.4092237,45
1659694406.99375,1013767.4092264,57
1659694406.99375,1013767.4092285,66
1659694406.99375,1013767.4092305,73
1659694406.99375,1013767.4092325,81
1659694406.99375,1013767.4092346,81
1659694406.99375,1013767.4092366,66
1659694406.99375,1013767.4092387,50
1659694406.99375,1013767.4092408,54
1659694406.99375,1013767.4092428,61
1659694406.99375,1013767.4092447,50
1659694406.99375,1013767.4092468,42
1659694406.99375,1013767.40925,33
1659694406.99375,1013767.4092631,11
1659694406.99375,1013767.4092723,-4
1659694406.99375,1013767.4092771,-4
1659694406.99375,1013767.4092832,-9
1659694406.99375,1013767.4092863,-11
1659694406.99375,1013767.4092986,-9
1659694407.6025,1013767.4093057,-14
1659694407.6025,1013767.4093082,-19
1659694407.6025,1013767.4093101,-19
1659694407.6025,1013767.409312,-21
1659694407.6025,1013767.409314,-14
1659694407.6025,1013767.4093205,14
1659694407.6025,1013767.4093298,45
1659694407.6025,1013767.4093328,59
1659694407.6025,1013767.4093348,57
1659694407.6025,1013767.4093366,59
1659694407.6025,1013767.4093385,52
1659694407.6025,1013767.4093404,38
1659694407.6025,1013767.4093422,38
1659694407.6025,1013767.4093443,40
1659694407.6025,1013767.4093463,26
1659694407.6025,1013767.4093484,16
1659694407.6025,1013767.4093504,21
1659694407.6025,1013767.4093524,30
1659694407.6025,1013767.409358,33
1659694407.6025,1013767.409369,0
1659694407.6025,1013767.4093743,-52
1659694407.6025,1013767.4093764,23
1659694407.6025,1013767.409379,455
1659694407.6025,1013767.409381,1101
1659694407.6025,1013767.409383,1163
1659694407.6025,1013767.4093851,305
1659694407.6025,1013767.4093928,-400
1659694407.6025,1013767.4094029,-233
1659694407.6025,1013767.4094072,42
1659694407.6025,1013767.4094093,-19
1659694407.6025,1013767.4094114,-23
1659694407.6025,1013767.4094135,61
1659694407.6025,1013767.4094158,47
1659694407.6025,1013767.4094253,28
1659694407.6025,1013767.4094338,61
1659694407.6025,1013767.4094363,76
1659694407.6025,1013767.4094384,76
1659694407.6025,1013767.4094404,90
1659694407.6025,1013767.409443,102
1659694407.6025,1013767.4094529,104
1659694407.6025,1013767.4094607,114
1659694407.6025,1013767.4094632,128
1659694407.6025,1013767.4094653,140
1659694407.6025,1013767.4094673,150
1659694407.6025,1013767.4094697,162
1659694407.6025,1013767.4094795,176
1659694407.6025,1013767.4094878,183
1659694407.6025,1013767.4094903,193
1659694407.6025,1013767.4094923,209
1659694407.6025,1013767.4094943,219
1659694407.62544,1013768.0437465,221
1659694407.62544,1013768.0437663,219
1659694407.62544,1013768.0437709,221
1659694407.62544,1013768.0437745,231
1659694407.62544,1013768.0437779,231
1659694407.62544,1013768.043781,214
1659694407.62544,1013768.0437839,174
1659694407.62544,1013768.0437886,116
1659694407.62544,1013768.0437925,61
1659694407.62544,1013768.043796,33
1659694407.62544,1013768.0437995,16
1659694407.62544,1013768.043805,-2
1659694407.62544,1013768.0438166,-11
1659694407.62544,1013768.043823,-23
1659694407.62544,1013768.0438294,-50
1659694407.62544,1013768.0438424,-50
1659694407.62544,1013768.0438506,-26
1659694407.62544,1013768.0438542,-14
1659694407.62544,1013768.04386,-14
1659694407.62544,1013768.0438707,-9
1659694407.62544,1013768.0438806,-9
1659694407.62544,1013768.0438845,-9
1659694407.62544,1013768.0438907,-2
1659694407.62544,1013768.0439022,4
1659694408.12417,1013768.0439113,4
1659694408.12417,1013768.0439175,4
1659694408.12417,1013768.0439244,7
1659694408.12417,1013768.0439285,9
1659694408.12417,1013768.0439321,9
1659694408.12417,1013768.0439355,11
1659694408.12417,1013768.0439389,7
1659694408.12417,1013768.0439438,-9
1659694408.12417,1013768.0439488,-16
1659694408.12417,1013768.0439544,-9
1659694408.12417,1013768.0439638,-4
1659694408.12417,1013768.043973,-7
1659694408.12417,1013768.0439838,-11
1659694408.12417,1013768.0439929,-11
1659694408.12417,1013768.0440028,-7
1659694408.12417,1013768.0440154,14
1659694408.12417,1013768.0440235,45
1659694408.12417,1013768.0440291,66
1659694408.12417,1013768.0440345,64
1659694408.12417,1013768.0440402,57
1659694408.12417,1013768.0440508,50
1659694408.12417,1013768.0440554,35
1659694408.12417,1013768.0440614,26
1659694408.12417,1013768.0440746,33
1659694408.12417,1013768.044087,38
1659694408.12417,1013768.044095,40
1659694408.12417,1013768.0441014,47
1659694408.12417,1013768.0441053,52
1659694408.12417,1013768.0441105,47
1659694408.12417,1013768.0441149,23
1659694408.12417,1013768.044122,-19
1659694408.12417,1013768.0441261,16
1659694408.12417,1013768.0441316,371
1659694408.12417,1013768.0441354,1022
1659694408.12417,1013768.0441392,1251
1659694408.12417,1013768.0441446,536
1659694408.12417,1013768.0441516,-271
1659694408.12417,1013768.044161,-252
1659694408.12417,1013768.0441719,50
1659694408.12417,1013768.044178,33
1659694408.12417,1013768.0441842,-7
1659694408.12417,1013768.0441904,64
1659694408.12417,1013768.0441949,69
1659694408.12417,1013768.0442006,47
1659694408.12417,1013768.0442037,76
1659694408.12417,1013768.0442091,92
1659694408.12417,1013768.0442142,88
1659694408.12417,1013768.0442213,100
1659694408.12417,1013768.044228,112
1659694408.12417,1013768.579021,116
1659694408.14212,1013768.5790398,121
1659694408.14212,1013768.5790478,128
1659694408.14212,1013768.5790519,138
1659694408.14212,1013768.5790573,145
1659694408.14212,1013768.5790612,154
1659694408.14212,1013768.579065,164
1659694408.14212,1013768.5790703,178
1659694408.14212,1013768.5790753,190
1659694408.14212,1013768.5790789,197
1659694408.14212,1013768.5790827,195
1659694408.14212,1013768.5790864,183
1659694408.14212,1013768.57909,181
1659694408.14212,1013768.5790937,193
1659694408.14212,1013768.5790993,200
1659694408.14212,1013768.5791043,202
1659694408.14212,1013768.5791094,190
1659694408.14212,1013768.5791169,145
1659694408.14212,1013768.5791224,92
1659694408.14212,1013768.5791261,59
1659694408.14212,1013768.5791298,33
1659694408.14212,1013768.5791357,7
1659694408.14212,1013768.5791408,-7
1659694408.14212,1013768.5791455,-14
1659694408.14212,1013768.5791519,-33
1659694408.6663,1013768.5791555,-40
1659694408.6663,1013768.5791591,-33
1659694408.6663,1013768.5791626,-28
1659694408.6663,1013768.5791663,-23
1659694408.6663,1013768.5791698,-21
1659694408.6663,1013768.5791735,-26
1659694408.6663,1013768.5791784,-16
1659694408.6663,1013768.5791837,0
1659694408.6663,1013768.5791887,2
1659694408.6663,1013768.5791935,-2
1659694408.6663,1013768.5791971,-2
1659694408.6663,1013768.5792023,0
1659694408.6663,1013768.5792074,4
1659694408.6663,1013768.5792119,9
1659694408.6663,1013768.5792172,14
1659694408.6663,1013768.5792261,19
1659694408.6663,1013768.5792299,16
1659694408.6663,1013768.5792351,14
1659694408.6663,1013768.5792387,16
1659694408.6663,1013768.5792424,19
1659694408.6663,1013768.5792475,23
1659694408.6663,1013768.5792518,26
1659694408.6663,1013768.5792657,21
1659694408.6663,1013768.5792718,19
1659694408.6663,1013768.5792756,19
1659694408.6663,1013768.5792793,35
1659694408.6663,1013768.5792828,64
1659694408.6663,1013768.5792863,92
1659694408.6663,1013768.5792898,100
1659694408.6663,1013768.5792934,100
1659694408.6663,1013768.579297,95
1659694408.6663,1013768.5793006,81
1659694408.6663,1013768.5793057,71
1659694408.6663,1013768.5793093,73
1659694408.6663,1013768.579313,76
1659694408.6663,1013768.5793192,73
1659694408.6663,1013768.5793226,76
1659694408.6663,1013768.5793315,78
1659694408.6663,1013768.5793444,83
1659694408.6663,1013768.5793538,76
1659694408.6663,1013768.579362,35
1659694408.6663,1013768.5793692,-4
1659694408.6663,1013768.5793772,143
1659694408.6663,1013768.5793814,650
1659694408.6663,1013768.5793942,1170
1659694408.6663,1013768.5794053,944
1659694408.6663,1013768.5794177,73
1659694408.6663,1013768.5794266,-331
1659694408.6663,1013769.1158511,-64
1659694408.6663,1013769.1158671,85
1659694408.68425,1013769.1158725,11
1659694408.68425,1013769.1158777,45
1659694408.68425,1013769.1158833,100
1659694408.68425,1013769.1158872,71
1659694408.68425,1013769.1158904,69
1659694408.68425,1013769.1158934,95
1659694408.68425,1013769.1158962,95
1659694408.68425,1013769.115899,100
1659694408.68425,1013769.1159018,116
1659694408.68425,1013769.1159047,123
1659694408.68425,1013769.1159074,128
1659694408.68425,1013769.1159104,128
1659694408.68425,1013769.1159132,119
1659694408.68425,1013769.1159161,123
1659694408.68425,1013769.1159189,140
1659694408.68425,1013769.1159223,140
1659694408.68425,1013769.1159353,135
1659694408.68425,1013769.1159502,145
1659694408.68425,1013769.1159618,140
1659694408.68425,1013769.1159731,133
1659694408.68425,1013769.1159858,145
1659694408.68425,1013769.1159985,162
1659694408.68425,1013769.1160125,164
1659694408.68425,1013769.1160256,162
1659694409.29784,1013769.1160377,159
1659694409.29784,1013769.1160455,162
1659694409.29784,1013769.1160525,157
1659694409.29784,1013769.1160597,121
1659694409.29784,1013769.116065,78
1659694409.29784,1013769.1160724,50
1659694409.29784,1013769.1160821,21
1659694409.29784,1013769.1160875,-7
1659694409.29784,1013769.116094,-21
1659694409.29784,1013769.1160982,-26
1659694409.29784,1013769.1161017,-30
1659694409.29784,1013769.1161083,-26
1659694409.29784,1013769.1161131,-19
1659694409.29784,1013769.1161187,-11
1659694409.29784,1013769.1161229,-2
1659694409.29784,1013769.116129,4
1659694409.29784,1013769.1161328,9
1659694409.29784,1013769.1161371,19
1659694409.29784,1013769.1161435,30
1659694409.29784,1013769.1161478,30
1659694409.29784,1013769.1161534,28
1659694409.29784,1013769.1161574,30
1659694409.29784,1013769.1161628,40
1659694409.29784,1013769.1161663,42
1659694409.29784,1013769.11617,40
1659694409.29784,1013769.1161753,40
1659694409.29784,1013769.1161801,45
1659694409.29784,1013769.1161855,42
1659694409.29784,1013769.1161901,42
1659694409.29784,1013769.1161952,45
1659694409.29784,1013769.1162,38
1659694409.29784,1013769.1162051,30
1659694409.29784,1013769.1162104,26
1659694409.29784,1013769.1162146,35
1659694409.29784,1013769.1162191,69
1659694409.29784,1013769.116222,100
1659694409.29784,1013769.1162248,107
1659694409.29784,1013769.1162275,107
1659694409.29784,1013769.1162303,102
1659694409.29784,1013769.1162331,76
1659694409.29784,1013769.1162358,69
1659694409.29784,1013769.1162385,83
1659694409.29784,1013769.1162412,83
1659694409.29784,1013769.116244,81
1659694409.29784,1013769.1162467,83
1659694409.29784,1013769.1162493,81
1659694409.29784,1013769.1162521,81
1659694409.29784,1013769.7490043,73
1659694409.29784,1013769.7490228,30
1659694409.29784,1013769.7490332,42
1659694409.32233,1013769.7490406,329
1659694409.32233,1013769.7490511,903
1659694409.32233,1013769.7490553,1182
1659694409.32233,1013769.7490595,562
1659694409.32233,1013769.7490627,-295
1659694409.32233,1013769.7490659,-355
1659694409.32233,1013769.7490711,0
1659694409.32233,1013769.7490789,40
1659694409.32233,1013769.7490831,-16
1659694409.32233,1013769.74909,54
1659694409.32233,1013769.7490957,83
1659694409.32233,1013769.7491051,59
1659694409.32233,1013769.7491104,73
1659694409.32233,1013769.7491161,81
1659694409.32233,1013769.7491235,54
1659694409.32233,1013769.7491306,59
1659694409.32233,1013769.7491353,83
1659694409.32233,1013769.749141,92
1659694409.32233,1013769.749147,100
1659694409.32233,1013769.7491547,114
1659694409.32233,1013769.7491604,123
1659694409.32233,1013769.7491981,131
1659694409.32233,1013769.7492071,147
1659694409.32233,1013769.7492134,162
1659694409.78904,1013769.7492206,171
1659694409.78904,1013769.7492253,181

1659694409.78904,1013769.7492309,188
1659694409.78904,1013769.7492364,190
1659694409.78904,1013769.74924,197
1659694409.78904,1013769.7492431,207
1659694409.78904,1013769.7492465,214
1659694409.78904,1013769.7492504,219
1659694409.78904,1013769.7492555,219
1659694409.78904,1013769.7492605,212
1659694409.78904,1013769.7492679,193
1659694409.78904,1013769.7492734,159
1659694409.78904,1013769.7492821,119
1659694409.78904,1013769.7492883,81
1659694409.78904,1013769.7492913,57
1659694409.78904,1013769.7492939,40
1659694409.78904,1013769.7493022,28
1659694409.78904,1013769.7493119,19
1659694409.78904,1013769.7493178,21
1659694409.78904,1013769.7493231,26
1659694409.78904,1013769.7493347,30
1659694409.78904,1013769.7493456,33
1659694409.78904,1013769.7493533,35
1659694409.78904,1013769.7493635,40
1659694409.78904,1013769.7493745,40
1659694409.78904,1013769.7493824,42
1659694409.78904,1013769.7493923,47
1659694409.78904,1013769.7494029,52
1659694409.78904,1013769.7494096,57
1659694409.78904,1013769.7494161,57
1659694409.78904,1013769.7494282,52
1659694409.78904,1013769.7494424,52
1659694409.78904,1013769.7494541,52
1659694409.78904,1013769.7494631,50
1659694409.78904,1013769.7494716,47
1659694409.78904,1013769.7494829,40
1659694409.78904,1013769.7494956,33
1659694409.78904,1013769.7495094,30
1659694409.78904,1013769.7495224,35
1659694409.78904,1013769.7495355,54
1659694409.78904,1013769.7495482,81
1659694409.78904,1013769.7495611,97
1659694409.78904,1013769.7495739,97
1659694409.78904,1013769.7495868,95
1659694409.78904,1013769.7495998,90
1659694409.78904,1013769.7496127,78
1659694409.78904,1013770.2365064,71
1659694409.78904,1013770.2365246,71
1659694409.78904,1013770.2365281,61
1659694409.78904,1013770.2365304,50
1659694409.81404,1013770.2365326,50
1659694409.81404,1013770.2365348,59
1659694409.81404,1013770.236537,54
1659694409.81404,1013770.236539,19
1659694409.81404,1013770.2365411,-30
1659694409.81404,1013770.2365432,61
1659694409.81404,1013770.2365453,517
1659694409.81404,1013770.2365473,1158
1659694409.81404,1013770.2365493,1173
1659694409.81404,1013770.2365513,283
1659694409.81404,1013770.2365534,-407
1659694409.81404,1013770.2365554,-233
1659694409.81404,1013770.2365575,38
1659694409.81404,1013770.2365595,-19
1659694409.81404,1013770.2365616,-23
1659694409.81404,1013770.2365636,47
1659694409.81404,1013770.2365656,28
1659694409.81404,1013770.2365678,16
1659694409.81404,1013770.2365734,54
1659694409.81404,1013770.2365848,64
1659694409.81404,1013770.2365906,61
1659694409.81404,1013770.2365931,76
1659694409.81404,1013770.2365952,71
1659694409.81404,1013770.2365974,59
1659694410.37233,1013770.2365994,76
1659694410.37233,1013770.2366013,97
1659694410.37233,1013770.2366089,104
1659694410.37233,1013770.236618,119
1659694410.37233,1013770.2366213,131
1659694410.37233,1013770.2366234,135
1659694410.37233,1013770.2366262,145
1659694410.37233,1013770.2366346,159
1659694410.37233,1013770.2366441,171
1659694410.37233,1013770.2366528,176
1659694410.37233,1013770.2366554,178
1659694410.37233,1013770.2366574,178
1659694410.37233,1013770.2366595,176
1659694410.37233,1013770.236662,178
1659694410.37233,1013770.2366639,188
1659694410.37233,1013770.236666,183
1659694410.37233,1013770.2366681,154
1659694410.37233,1013770.2366701,114
1659694410.37233,1013770.2366722,78
1659694410.37233,1013770.2366742,57
1659694410.37233,1013770.2366762,45
1659694410.37233,1013770.2366782,38
1659694410.37233,1013770.2366803,33
1659694410.37233,1013770.2366823,28
1659694410.37233,1013770.2366843,33
1659694410.37233,1013770.2366863,47
1659694410.37233,1013770.2366883,59
1659694410.37233,1013770.2366903,69
1659694410.37233,1013770.2366924,76
1659694410.37233,1013770.2366945,78
1659694410.37233,1013770.2366965,78
1659694410.37233,1013770.236699,83
1659694410.37233,1013770.236701,83
1659694410.37233,1013770.2367031,81
1659694410.37233,1013770.2367052,83
1659694410.37233,1013770.2367072,85
1659694410.37233,1013770.2367092,73
1659694410.37233,1013770.2367113,61
1659694410.37233,1013770.2367134,57
1659694410.37233,1013770.2367156,47
1659694410.37233,1013770.2367177,30
1659694410.37233,1013770.2367197,11
1659694410.37233,1013770.2367218,11
1659694410.37233,1013770.2367239,30
1659694410.37233,1013770.2367259,47
1659694410.37233,1013770.821865,57
1659694410.37233,1013770.8218859,61
1659694410.37233,1013770.8218963,61
1659694410.37233,1013770.8219064,52
1659694410.37233,1013770.8219136,30
1659694410.39029,1013770.8219159,21
1659694410.39029,1013770.821918,30
1659694410.39029,1013770.8219201,35
1659694410.39029,1013770.8219222,35
1659694410.39029,1013770.8219252,33
1659694410.39029,1013770.8219382,23
1659694410.39029,1013770.8219422,4
1659694410.39029,1013770.8219456,-23
1659694410.39029,1013770.8219488,-66
1659694410.39029,1013770.821952,19
1659694410.39029,1013770.8219577,450
1659694410.39029,1013770.8219621,1061
1659694410.39029,1013770.8219671,1070
1659694410.39029,1013770.8219702,240
1659694410.39029,1013770.8219735,-395
1659694410.39029,1013770.8219786,-226
1659694410.39029,1013770.821984,19
1659694410.39029,1013770.8219877,-40
1659694410.39029,1013770.8219907,-47
1659694410.39029,1013770.8219935,26
1659694410.39029,1013770.8219962,11
1659694410.39029,1013770.8219991,-4
1659694410.39029,1013770.8220019,33
1659694410.39029,1013770.8220047,50
1659694410.90638,1013770.8220082,47
1659694410.90638,1013770.8220149,57
1659694410.90638,1013770.8220216,66
1659694410.90638,1013770.8220287,71
1659694410.90638,1013770.8220343,83
1659694410.90638,1013770.8220382,97
1659694410.90638,1013770.8220423,109
1659694410.90638,1013770.8220465,116
1659694410.90638,1013770.8220499,126
1659694410.90638,1013770.8220536,138
1659694410.90638,1013770.822057,150
1659694410.90638,1013770.8220606,157
1659694410.90638,1013770.8220641,166
1659694410.90638,1013770.8220678,174
1659694410.90638,1013770.822072,174
1659694410.90638,1013770.822076,176
1659694410.90638,1013770.82208,183
1659694410.90638,1013770.8220838,193
1659694410.90638,1013770.8220876,197
1659694410.90638,1013770.8220913,190
1659694410.90638,1013770.8220952,162
1659694410.90638,1013770.822099,126
1659694410.90638,1013770.8221029,97
1659694410.90638,1013770.8221068,78
1659694410.90638,1013770.8221108,61
1659694410.90638,1013770.8221147,50
1659694410.90638,1013770.8221191,45
1659694410.90638,1013770.8221226,45
1659694410.90638,1013770.8221268,52
1659694410.90638,1013770.8221308,64
1659694410.90638,1013770.8221369,73
1659694410.90638,1013770.822141,81
1659694410.90638,1013770.8221464,78
1659694410.90638,1013770.8221503,64
1659694410.90638,1013770.8221546,61
1659694410.90638,1013770.8221603,73
1659694410.90638,1013770.8221641,78
1659694410.90638,1013770.8221699,83
1659694410.90638,1013770.8221739,81
1659694410.90638,1013770.822178,73
1659694410.90638,1013770.8221836,71
1659694410.90638,1013770.8221874,76
1659694410.90638,1013770.8221913,73
1659694410.90638,1013770.8221949,69
1659694410.90638,1013771.3590982,66
1659694410.90638,1013771.3591115,76
1659694410.90638,1013771.359114,104
1659694410.90638,1013771.3591164,119
1659694410.90638,1013771.3591186,109
1659694410.90638,1013771.3591207,100
1659694410.92433,1013771.3591228,83
1659694410.92433,1013771.3591249,40
1659694410.92433,1013771.3591269,14
1659694410.92433,1013771.3591289,16
1659694410.92433,1013771.3591309,21
1659694410.92433,1013771.3591329,21
1659694410.92433,1013771.3591348,23
1659694410.92433,1013771.3591369,16
1659694410.92433,1013771.3591388,7
1659694410.92433,1013771.359141,-21
1659694410.92433,1013771.3591431,-71
1659694410.92433,1013771.359145,-7
1659694410.92433,1013771.3591472,393
1659694410.92433,1013771.3591492,1008
1659694410.92433,1013771.3591512,1087
1659694410.92433,1013771.3591531,293
1659694410.92433,1013771.3591552,-402
1659694410.92433,1013771.3591572,-276
1659694410.92433,1013771.3591593,0
1659694410.92433,1013771.3591613,-45
1659694410.92433,1013771.3591639,-69
1659694410.92433,1013771.3591991,4
1659694410.92433,1013771.359203,4
1659694410.92433,1013771.359205,-9
1659694411.4457,1013771.359207,23
1659694411.4457,1013771.3592089,35
1659694411.4457,1013771.3592108,30
1659694411.4457,1013771.3592131,47
1659694411.4457,1013771.3592197,64
1659694411.4457,1013771.3592275,69
1659694411.4457,1013771.3592367,81
1659694411.4457,1013771.3592422,95
1659694411.4457,1013771.3592443,102
1659694411.4457,1013771.3592474,112
1659694411.4457,1013771.3592495,128
1659694411.4457,1013771.3592515,140
1659694411.4457,1013771.3592545,150
1659694411.4457,1013771.3592668,157
1659694411.4457,1013771.3592776,164
1659694411.4457,1013771.3592818,166
1659694411.4457,1013771.3592838,174
1659694411.4457,1013771.359286,183
1659694411.4457,1013771.3592882,185
1659694411.4457,1013771.3592903,190
1659694411.4457,1013771.3592923,207
1659694411.4457,1013771.3592944,205
1659694411.4457,1013771.3592964,166
1659694411.4457,1013771.3592984,121
1659694411.4457,1013771.3593005,81
1659694411.4457,1013771.3593025,40
1659694411.4457,1013771.3593045,19
1659694411.4457,1013771.3593066,7
1659694411.4457,1013771.3593086,-2
1659694411.4457,1013771.3593106,2
1659694411.4457,1013771.3593127,16
1659694411.4457,1013771.3593147,33
1659694411.4457,1013771.3593168,45
1659694411.4457,1013771.3593187,52
1659694411.4457,1013771.3593208,57
1659694411.4457,1013771.3593228,66
1659694411.4457,1013771.3593248,71
1659694411.4457,1013771.3593268,71
1659694411.4457,1013771.3593289,73
1659694411.4457,1013771.3593309,78
1659694411.4457,1013771.3593329,85
1659694411.4457,1013771.359335,88
1659694411.4457,1013771.3593371,83
1659694411.4457,1013771.8946588,83
1659694411.4457,1013771.8946821,83
1659694411.4457,1013771.8946915,85
1659694411.4457,1013771.8946962,97
1659694411.4457,1013771.8947011,116
1659694411.4457,1013771.8947054,123
1659694411.4457,1013771.8947092,121
1659694411.46166,1013771.8947139,121
1659694411.46166,1013771.8947191,109
1659694411.46166,1013771.8947223,90
1659694411.46166,1013771.8947264,69
1659694411.46166,1013771.8947295,47
1659694411.46166,1013771.8947325,38
1659694411.46166,1013771.8947383,42
1659694411.46166,1013771.8947462,42
1659694411.46166,1013771.8947507,33
1659694411.46166,1013771.8947557,14
1659694411.46166,1013771.8947624,-38
1659694411.46166,1013771.8947715,-95
1659694411.46166,1013771.8947785,9
1659694411.46166,1013771.8947852,457
1659694411.46166,1013771.8947913,1008
1659694411.46166,1013771.8947986,870
1659694411.46166,1013771.8948041,-40
1659694411.46166,1013771.894815,-543
1659694411.46166,1013771.8948217,-238
1659694411.46166,1013771.8948305,-9
1659694411.46166,1013771.8948381,-71
1659694411.46166,1013771.8948446,-30
1659694411.46166,1013771.8948493,45
1659694411.46166,1013771.894855,19
1659694412.02424,1013771.894859,19
1659694412.02424,1013771.8948631,57
1659694412.02424,1013771.8948672,45
1659694412.02424,1013771.8948715,42
1659694412.02424,1013771.8948759,73
1659694412.02424,1013771.8948799,83
1659694412.02424,1013771.8948848,78
1659694412.02424,1013771.8948888,100
1659694412.02424,1013771.8948918,121
1659694412.02424,1013771.8948953,128
1659694412.02424,1013771.8948986,138
1659694412.02424,1013771.8949033,150
1659694412.02424,1013771.8949082,159
1659694412.02424,1013771.8949129,164
1659694412.02424,1013771.8949181,162
1659694412.02424,1013771.8949217,171
1659694412.02424,1013771.8949253,178
1659694412.02424,1013771.894929,166
1659694412.02424,1013771.8949327,159
1659694412.02424,1013771.8949362,174
1659694412.02424,1013771.8949399,185
1659694412.02424,1013771.8949458,183
1659694412.02424,1013771.8949509,166
1659694412.02424,1013771.8949553,131
1659694412.02424,1013771.8949602,88
1659694412.02424,1013771.8949641,64
1659694412.02424,1013771.8949677,47
1659694412.02424,1013771.8949721,23
1659694412.02424,1013771.8949778,9
1659694412.02424,1013771.8949836,11
1659694412.02424,1013771.8949882,19
1659694412.02424,1013771.8949914,28
1659694412.02424,1013771.8949957,40
1659694412.02424,1013771.8950014,50
1659694412.02424,1013771.895009,59
1659694412.02424,1013771.8950179,64
1659694412.02424,1013771.8950251,71
1659694412.02424,1013771.8950293,83
1659694412.02424,1013771.8950344,90
1659694412.02424,1013771.8950399,100
1659694412.02424,1013771.8950471,107
1659694412.02424,1013771.8950516,100
1659694412.02424,1013772.4798141,97
1659694412.02424,1013772.4798345,97
1659694412.02424,1013772.4798438,85
1659694412.02424,1013772.4798488,92
1659694412.02424,1013772.4798564,116
1659694412.02424,1013772.4798617,121
1659694412.02424,1013772.4798675,112
1659694412.02424,1013772.4798722,100
1659694412.0392,1013772.4798778,78
1659694412.0392,1013772.4798818,61
1659694412.0392,1013772.4798856,61
1659694412.0392,1013772.4798921,54
1659694412.0392,1013772.4798962,50
1659694412.0392,1013772.4799001,50
1659694412.0392,1013772.4799041,40
1659694412.0392,1013772.4799081,35
1659694412.0392,1013772.4799121,40
1659694412.0392,1013772.479918,16
1659694412.0392,1013772.4799221,-30
1659694412.0392,1013772.4799275,26
1659694412.0392,1013772.4799316,376
1659694412.0392,1013772.479937,944
1659694412.0392,1013772.4799408,1039
1659694412.0392,1013772.4799445,224
1659694412.0392,1013772.4799502,-498
1659694412.0392,1013772.4799548,-309
1659694412.0392,1013772.4799603,7
1659694412.0392,1013772.4799639,-30
1659694412.0392,1013772.4799693,-9
1659694412.0392,1013772.4799728,85
1659694412.0392,1013772.4799763,64
1659694412.0392,1013772.4799818,45
1659694412.61004,1013772.4799863,73
1659694412.61004,1013772.4799901,76
1659694412.61004,1013772.4799939,73
1659694412.61004,1013772.4799976,83
1659694412.61004,1013772.4800013,81
1659694412.61004,1013772.4800049,85
1659694412.61004,1013772.4800087,107
1659694412.61004,1013772.4800122,109
1659694412.61004,1013772.4800156,97
1659694412.61004,1013772.4800191,90
1659694412.61004,1013772.4800227,112
1659694412.61004,1013772.4800261,152
1659694412.61004,1013772.4800297,157
1659694412.61004,1013772.4800335,138
1659694412.61004,1013772.480037,157
1659694412.61004,1013772.4800405,178
1659694412.61004,1013772.4800441,171
1659694412.61004,1013772.4800477,176
1659694412.61004,1013772.4800514,188
1659694412.61004,1013772.4800552,183
1659694412.61004,1013772.4800611,169
1659694412.61004,1013772.4800649,143
1659694412.61004,1013772.4800699,112
1659694412.61004,1013772.4800744,83
1659694412.61004,1013772.4800806,47
1659694412.61004,1013772.4800845,16
1659694412.61004,1013772.48009,2
1659694412.61004,1013772.4800959,-7
1659694412.61004,1013772.4801,-9
1659694412.61004,1013772.4801039,7
1659694412.61004,1013772.4801095,14
1659694412.61004,1013772.4801133,7
1659694412.61004,1013772.4801188,21
1659694412.61004,1013772.4801223,42
1659694412.61004,1013772.4801269,42
1659694412.61004,1013772.4801309,57
1659694412.61004,1013772.480136,78
1659694412.61004,1013772.4801407,69
1659694412.61004,1013772.4801465,69
1659694412.61004,1013772.4801504,81
1659694412.61004,1013772.480154,76
1659694412.61004,1013773.0644735,97
1659694412.61004,1013773.0644944,116
1659694412.61004,1013773.0645085,90
1659694412.61004,1013773.064522,100
1659694412.61004,1013773.0645352,140
1659694412.61004,1013773.0645486,135
1659694412.61004,1013773.0645614,121
1659694412.61004,1013773.0645747,109
1659694412.61004,1013773.0645878,100
1659694412.62597,1013773.0646011,100
1659694412.62597,1013773.0646139,85
1659694412.62597,1013773.0646269,71
1659694412.62597,1013773.0646393,66
1659694412.62597,1013773.0646498,45
1659694412.62597,1013773.0646574,52
1659694412.62597,1013773.0646659,97
1659694412.62597,1013773.0646751,83
1659694412.62597,1013773.0646776,7
1659694412.62597,1013773.0646799,16
1659694412.62597,1013773.0646827,274
1659694412.62597,1013773.0646874,820
1659694412.62597,1013773.0646935,1075
1659694412.62597,1013773.064698,371
1659694412.62597,1013773.0647048,-472
1659694412.62597,1013773.0647101,-388
1659694412.62597,1013773.0647172,-35
1659694412.62597,1013773.064722,-76
1659694412.62597,1013773.0647307,-45
1659694412.62597,1013773.0647418,123
1659694412.62597,1013773.0647468,112
1659694412.62597,1013773.0647493,50
1659694412.62597,1013773.0647514,88
1659694412.62597,1013773.0647535,116
1659694413.15056,1013773.0647578,114
1659694413.15056,1013773.0647624,112
1659694413.15056,1013773.0647671,97
1659694413.15056,1013773.0647715,92
1659694413.15056,1013773.0647762,121
1659694413.15056,1013773.0647832,140
1659694413.15056,1013773.0647934,126
1659694413.15056,1013773.0647996,131
1659694413.15056,1013773.0648046,164
1659694413.15056,1013773.0648094,174
1659694413.15056,1013773.064819,169
1659694413.15056,1013773.0648296,166
1659694413.15056,1013773.0648394,174
1659694413.15056,1013773.0648446,226
1659694413.15056,1013773.0648487,238
1659694413.15056,1013773.0648508,176
1659694413.15056,1013773.064853,150
1659694413.15056,1013773.0648549,183
1659694413.15056,1013773.0648573,202
1659694413.15056,1013773.0648617,169
1659694413.15056,1013773.0648683,107
1659694413.15056,1013773.0648728,64
1659694413.15056,1013773.0648791,42
1659694413.15056,1013773.0648826,21
1659694413.15056,1013773.0648855,-7
1659694413.15056,1013773.0648885,-7
1659694413.15056,1013773.0648915,2
1659694413.15056,1013773.0648944,-4
1659694413.15056,1013773.0648973,-4
1659694413.15056,1013773.0649001,-2
1659694413.15056,1013773.064903,2
1659694413.15056,1013773.0649059,26
1659694413.15056,1013773.0649088,33
1659694413.15056,1013773.0649117,40
1659694413.15056,1013773.0649154,66
1659694413.15056,1013773.0649174,66
1659694413.15056,1013773.0649194,73
1659694413.15056,1013773.0649217,83
1659694413.15056,1013773.0649238,47
1659694413.15056,1013773.0649258,50
1659694413.15056,1013773.6006667,109
1659694413.15056,1013773.6007266,126
1659694413.15056,1013773.6007344,100
1659694413.15056,1013773.6007428,97
1659694413.15056,1013773.6007497,114
1659694413.15056,1013773.6007557,126
1659694413.15056,1013773.6007617,116
1659694413.15056,1013773.6007666,73
1659694413.15056,1013773.6007733,38
1659694413.15056,1013773.6007778,45
1659694413.16752,1013773.6007815,59
1659694413.16752,1013773.6007848,59
1659694413.16752,1013773.600788,52
1659694413.16752,1013773.6007912,38
1659694413.16752,1013773.6007946,35
1659694413.16752,1013773.600798,33
1659694413.16752,1013773.6008024,-4
1659694413.16752,1013773.6008094,-59
1659694413.16752,1013773.6008143,109
1659694413.16752,1013773.6008189,643
1659694413.16752,1013773.6008242,1101
1659694413.16752,1013773.6008308,715
1659694413.16752,1013773.6008402,-252
1659694413.16752,1013773.6008459,-555
1659694413.16752,1013773.6008514,-188
1659694413.16752,1013773.6008545,-50
1659694413.16752,1013773.6008597,-64
1659694413.16752,1013773.6008629,47
1659694413.16752,1013773.6008711,61
1659694413.16752,1013773.6008824,-7
1659694413.16752,1013773.6008912,35
1659694413.16752,1013773.6008982,97
1659694413.16752,1013773.6009042,83
1659694413.16752,1013773.6009145,83
1659694413.68447,1013773.6009213,114
1659694413.68447,1013773.6009236,145
1659694413.68447,1013773.6009259,166
1659694413.68447,1013773.6009278,164
1659694413.68447,1013773.6009314,154
1659694413.68447,1013773.6009405,157
1659694413.68447,1013773.6009472,162
1659694413.68447,1013773.6009517,181
1659694413.68447,1013773.6009666,205
1659694413.68447,1013773.6009815,181
1659694413.68447,1013773.6009909,154
1659694413.68447,1013773.601001,176
1659694413.68447,1013773.6010095,188
1659694413.68447,1013773.6010203,159
1659694413.68447,1013773.6010314,150
1659694413.68447,1013773.601041,169
1659694413.68447,1013773.6010482,162
1659694413.68447,1013773.6010591,123
1659694413.68447,1013773.6010696,83
1659694413.68447,1013773.6010765,47
1659694413.68447,1013773.6010884,11
1659694413.68447,1013773.6011014,-21
1659694413.68447,1013773.6011153,-35
1659694413.68447,1013773.6011242,-45
1659694413.68447,1013773.6011298,-57
1659694413.68447,1013773.6011342,-52
1659694413.68447,1013773.6011396,-50
1659694413.68447,1013773.6011499,-54
1659694413.68447,1013773.6011629,-38
1659694413.68447,1013773.6012044,-11
1659694413.68447,1013773.6012167,-9
1659694413.68447,1013773.6012245,-7
1659694413.68447,1013773.6012333,19
1659694413.68447,1013773.6012422,45
1659694413.68447,1013773.6012466,54
1659694413.68447,1013773.6012518,57
1659694413.68447,1013773.6012572,57
1659694413.68447,1013773.6012711,59
1659694413.68447,1013773.6012829,66
1659694413.68447,1013774.1368197,69
1659694413.68447,1013774.136842,64
1659694413.68447,1013774.1368633,66
1659694413.68447,1013774.1368699,61
1659694413.68447,1013774.1368756,54
1659694413.68447,1013774.1368817,69
1659694413.68447,1013774.13689,92
1659694413.68447,1013774.136898,102
1659694413.68447,1013774.136907,95
1659694413.68447,1013774.1369128,69
1659694413.68447,1013774.1369192,33
1659694413.70043,1013774.1369236,14
1659694413.70043,1013774.1369318,30
1659694413.70043,1013774.1369403,30
1659694413.70043,1013774.1369503,21
1659694413.70043,1013774.1369537,35
1659694413.70043,1013774.1369615,35
1659694413.70043,1013774.1369712,2
1659694413.70043,1013774.1369803,-35
1659694413.70043,1013774.1369899,-81
1659694413.70043,1013774.1370021,-45
1659694413.70043,1013774.13701,331
1659694413.70043,1013774.1370125,1020
1659694413.70043,1013774.1370145,1239
1659694413.70043,1013774.1370165,424
1659694413.70043,1013774.1370185,-443
1659694413.70043,1013774.1370205,-388
1659694413.70043,1013774.1370225,-66
1659694413.70043,1013774.1370244,-69
1659694413.70043,1013774.1370264,-59
1659694413.70043,1013774.1370284,42
1659694413.70043,1013774.1370317,50
1659694413.70043,1013774.1370429,33
1659694413.70043,1013774.1370494,52
1659694413.70043,1013774.1370545,69
1659694414.31189,1013774.1370584,73
1659694414.31189,1013774.1370621,78
1659694414.31189,1013774.1370659,90
1659694414.31189,1013774.1370693,112
1659694414.31189,1013774.1370729,131
1659694414.31189,1013774.1370764,133
1659694414.31189,1013774.1370798,128
1659694414.31189,1013774.1370835,138
1659694414.31189,1013774.1370873,154
1659694414.31189,1013774.1370913,162
1659694414.31189,1013774.1370953,162
1659694414.31189,1013774.1370993,174
1659694414.31189,1013774.1371034,188
1659694414.31189,1013774.1371074,193
1659694414.31189,1013774.1371114,190
1659694414.31189,1013774.1371157,178
1659694414.31189,1013774.1371198,162
1659694414.31189,1013774.1371261,154
1659694414.31189,1013774.1371311,150
1659694414.31189,1013774.1371371,123
1659694414.31189,1013774.1371411,73
1659694414.31189,1013774.137145,40
1659694414.31189,1013774.1371492,23
1659694414.31189,1013774.1371548,-2
1659694414.31189,1013774.1371583,-23
1659694414.31189,1013774.1371673,-28
1659694414.31189,1013774.1371742,-30
1659694414.31189,1013774.1371827,-40
1659694414.31189,1013774.1371886,-38
1659694414.31189,1013774.1371941,-21
1659694414.31189,1013774.1371974,-4
1659694414.31189,1013774.1372004,4
1659694414.31189,1013774.1372033,9
1659694414.31189,1013774.1372062,14
1659694414.31189,1013774.1372091,21
1659694414.31189,1013774.1372119,28
1659694414.31189,1013774.1372146,40
1659694414.31189,1013774.1372173,59
1659694414.31189,1013774.7704119,61
1659694414.31189,1013774.7704324,54
1659694414.31189,1013774.7704446,61
1659694414.31189,1013774.7704524,69
1659694414.31189,1013774.7704565,64
1659694414.31189,1013774.7704612,64
1659694414.31189,1013774.7704671,52
1659694414.31189,1013774.770473,26
1659694414.31189,1013774.7704865,9
1659694414.31189,1013774.7704983,16
1659694414.31189,1013774.7705057,28
1659694414.31189,1013774.770511,28
1659694414.32444,1013774.7705152,26
1659694414.32444,1013774.7705183,28
1659694414.32444,1013774.7705216,26
1659694414.32444,1013774.7705266,26
1659694414.32444,1013774.7705397,33
1659694414.32444,1013774.770553,23
1659694414.32444,1013774.7705644,11
1659694414.32444,1013774.7705791,9
1659694414.32444,1013774.7705909,9
1659694414.32444,1013774.770604,16
1659694414.32444,1013774.7706134,30
1659694414.32444,1013774.7706224,33
1659694414.32444,1013774.7706298,28
1659694414.32444,1013774.7706384,16
1659694414.32444,1013774.7706485,-35
1659694414.32444,1013774.7706583,-88
1659694414.32444,1013774.7706652,121
1659694414.32444,1013774.7706754,813
1659694414.32444,1013774.7706837,1516
1659694414.32444,1013774.7706881,1244
1659694414.32444,1013774.7706938,143
1659694414.32444,1013774.7706997,-407
1659694414.32444,1013774.7707071,-143
1659694414.32444,1013774.7707137,14
1659694414.84739,1013774.7707179,-61
1659694414.84739,1013774.770723,-14
1659694414.84739,1013774.7707276,42
1659694414.84739,1013774.7707326,19
1659694414.84739,1013774.7707379,30
1659694414.84739,1013774.7707437,64
1659694414.84739,1013774.770749,64
1659694414.84739,1013774.7707554,66
1659694414.84739,1013774.7707611,83
1659694414.84739,1013774.7707677,88
1659694414.84739,1013774.7707733,88
1659694414.84739,1013774.7707833,100
1659694414.84739,1013774.7707945,114
1659694414.84739,1013774.7708051,121
1659694414.84739,1013774.7708093,131
1659694414.84739,1013774.7708113,138
1659694414.84739,1013774.7708137,147
1659694414.84739,1013774.7708159,162
1659694414.84739,1013774.7708179,174
1659694414.84739,1013774.77082,188
1659694414.84739,1013774.770822,200
1659694414.84739,1013774.770824,212
1659694414.84739,1013774.7708261,224
1659694414.84739,1013774.7708281,212
1659694414.84739,1013774.7708302,200
1659694414.84739,1013774.7708322,195
1659694414.84739,1013774.7708343,162
1659694414.84739,1013774.7708363,109
1659694414.84739,1013774.7708383,66
1659694414.84739,1013774.7708403,33
1659694414.84739,1013774.7708423,4
1659694414.84739,1013774.7708444,-11
1659694414.84739,1013774.7708464,-14
1659694414.84739,1013774.7708485,-9
1659694414.84739,1013774.7708506,-7
1659694414.84739,1013774.7708526,-7
1659694414.84739,1013774.7708584,-4
1659694414.84739,1013775.3074356,7
1659694414.84739,1013775.3074604,21
1659694414.84739,1013775.3074694,28
1659694414.84739,1013775.3074764,33
1659694414.84739,1013775.3074809,33
1659694414.84739,1013775.3074894,26
1659694414.84739,1013775.307498,40
1659694414.84739,1013775.3075061,59
1659694414.84739,1013775.3075124,61
1659694414.84739,1013775.30752,54
1659694414.84739,1013775.3075263,42
1659694414.84739,1013775.3075339,33
1659694414.84739,1013775.3075402,40
1659694414.85935,1013775.3075487,45
1659694414.85935,1013775.3075557,45
1659694414.85935,1013775.3075641,42
1659694414.85935,1013775.3075687,30
1659694414.85935,1013775.3075785,9
1659694414.85935,1013775.3075818,4
1659694414.85935,1013775.307584,19
1659694414.85935,1013775.3075861,30
1659694414.85935,1013775.3075881,33
1659694414.85935,1013775.3075901,35
1659694414.85935,1013775.3075922,26
1659694414.85935,1013775.3075941,19
1659694414.85935,1013775.3075961,26
1659694414.85935,1013775.3075981,28
1659694414.85935,1013775.3076001,23
1659694414.85935,1013775.307602,26
1659694414.85935,1013775.307604,40
1659694414.85935,1013775.307606,61
1659694414.85935,1013775.307608,85
1659694414.85935,1013775.30761,95
1659694414.85935,1013775.307612,92
1659694414.85935,1013775.3076139,90
1659694414.85935,1013775.3076159,83
1659694414.85935,1013775.3076179,64
1659694415.38893,1013775.3076198,64
1659694415.38893,1013775.3076218,78
1659694415.38893,1013775.3076238,76
1659694415.38893,1013775.3076257,73
1659694415.38893,1013775.3076275,81
1659694415.38893,1013775.3076293,78
1659694415.38893,1013775.307632,66
1659694415.38893,1013775.3076409,45
1659694415.38893,1013775.3076513,9
1659694415.38893,1013775.3076587,128
1659694415.38893,1013775.307661,660
1659694415.38893,1013775.3076633,1335
1659694415.38893,1013775.3076653,1244
1659694415.38893,1013775.3076673,259
1659694415.38893,1013775.3076694,-376
1659694415.38893,1013775.3076715,-162
1659694415.38893,1013775.3076736,45
1659694415.38893,1013775.3076756,-30
1659694415.38893,1013775.3076775,-16
1659694415.38893,1013775.3076797,42
1659694415.38893,1013775.3076873,23
1659694415.38893,1013775.3076998,28
1659694415.38893,1013775.3077064,57
1659694415.38893,1013775.3077089,50
1659694415.38893,1013775.3077109,50
1659694415.38893,1013775.307713,69
1659694415.38893,1013775.3077149,76
1659694415.38893,1013775.307717,85
1659694415.38893,1013775.307719,100
1659694415.38893,1013775.307721,102
1659694415.38893,1013775.307723,104
1659694415.38893,1013775.307725,128
1659694415.38893,1013775.307727,143
1659694415.38893,1013775.307729,138
1659694415.38893,1013775.3077316,143
1659694415.38893,1013775.30774,164
1659694415.38893,1013775.8431546,181
1659694415.38893,1013775.8431736,190
1659694415.38893,1013775.8431822,195
1659694415.38893,1013775.8431901,209
1659694415.38893,1013775.8431941,226
1659694415.38893,1013775.8431991,228
1659694415.38893,1013775.8432026,214
1659694415.38893,1013775.8432239,181
1659694415.38893,1013775.8432306,138
1659694415.38893,1013775.8432344,95
1659694415.38893,1013775.8432399,52
1659694415.38893,1013775.8432433,19
1659694415.38893,1013775.8432469,-4
1659694415.38893,1013775.8432504,-30
1659694415.4009,1013775.8432538,-57
1659694415.4009,1013775.8432572,-59
1659694415.4009,1013775.8432606,-50
1659694415.4009,1013775.8432642,-40
1659694415.4009,1013775.8432677,-38
1659694415.4009,1013775.8432711,-35
1659694415.4009,1013775.8432746,-14
1659694415.4009,1013775.843278,7
1659694415.4009,1013775.8432874,11
1659694415.4009,1013775.8432937,16
1659694415.4009,1013775.8433029,28
1659694415.4009,1013775.8433085,35
1659694415.4009,1013775.8433135,45
1659694415.4009,1013775.8433188,50
1659694415.4009,1013775.8433434,50
1659694415.4009,1013775.8433566,66
1659694415.4009,1013775.8433659,71
1659694415.4009,1013775.8433713,61
1659694415.4009,1013775.8433764,61
1659694415.4009,1013775.8433851,66
1659694415.4009,1013775.8433972,76
1659694415.4009,1013775.8434026,81
1659694415.4009,1013775.8434091,76
1659694415.4009,1013775.8434166,76
1659694415.93565,1013775.8434252,88
1659694415.93565,1013775.84343,92
1659694415.93565,1013775.843433,85
1659694415.93565,1013775.8434361,90
1659694415.93565,1013775.8434393,100
1659694415.93565,1013775.8434425,100
1659694415.93565,1013775.8434458,100
1659694415.93565,1013775.843449,97
1659694415.93565,1013775.8434522,85
1659694415.93565,1013775.8434555,71
1659694415.93565,1013775.8434587,78
1659694415.93565,1013775.8434616,95
1659694415.93565,1013775.8434646,116
1659694415.93565,1013775.8434681,126
1659694415.93565,1013775.8434716,102
1659694415.93565,1013775.843475,73
1659694415.93565,1013775.8434786,100
1659694415.93565,1013775.8434819,116
1659694415.93565,1013775.8434855,85
1659694415.93565,1013775.8434891,71
1659694415.93565,1013775.843493,83
1659694415.93565,1013775.8434965,85
1659694415.93565,1013775.8434996,78
1659694415.93565,1013775.8435026,64
1659694415.93565,1013775.8435054,52
1659694415.93565,1013775.8435083,19
1659694415.93565,1013775.8435114,-47
1659694415.93565,1013775.8435145,-61
1659694415.93565,1013775.8435175,154
1659694415.93565,1013775.8435206,703
1659694415.93565,1013775.8435237,1194
1659694415.93565,1013775.8435271,903
1659694415.93565,1013775.8435332,21
1659694415.93565,1013775.8435368,-343
1659694415.93565,1013775.8435426,-85
1659694415.93565,1013776.3816696,23
1659694415.93565,1013776.3816921,-45
1659694415.93565,1013776.3817001,9
1659694415.93565,1013776.3817051,59
1659694415.93565,1013776.3817103,28
1659694415.93565,1013776.3817171,30
1659694415.93565,1013776.3817238,66
1659694415.93565,1013776.3817295,76
1659694415.93565,1013776.381734,76
1659694415.93565,1013776.3817378,78
1659694415.93565,1013776.3817415,73
1659694415.93565,1013776.381747,69
1659694415.93565,1013776.3817553,85
1659694415.93565,1013776.3817608,102
1659694415.93565,1013776.3817646,109
1659694415.94862,1013776.3817683,121
1659694415.94862,1013776.3817721,119
1659694415.94862,1013776.3818152,116
1659694415.94862,1013776.3818275,135
1659694415.94862,1013776.3818327,159
1659694415.94862,1013776.3818379,188
1659694415.94862,1013776.3818452,209
1659694415.94862,1013776.3818519,205
1659694415.94862,1013776.3818602,205
1659694415.94862,1013776.3818683,221
1659694415.94862,1013776.3818739,226
1659694415.94862,1013776.3818845,216
1659694415.94862,1013776.3818881,195
1659694415.94862,1013776.3818969,154
1659694415.94862,1013776.3819035,116
1659694415.94862,1013776.3819116,97
1659694415.94862,1013776.3819243,85
1659694415.94862,1013776.381937,54
1659694415.94862,1013776.3819481,16
1659694415.94862,1013776.3819569,19
1659694415.94862,1013776.3819619,35
1659694415.94862,1013776.3819684,35
1659694415.94862,1013776.3819736,21
1659694415.94862,1013776.3819791,9
1659694416.51287,1013776.3819828,30
1659694416.51287,1013776.3819863,52
1659694416.51287,1013776.3819899,30
1659694416.51287,1013776.3819934,30
1659694416.51287,1013776.3819981,73
1659694416.51287,1013776.3820019,88
1659694416.51287,1013776.3820052,85
1659694416.51287,1013776.3820087,95
1659694416.51287,1013776.3820363,71
1659694416.51287,1013776.3820522,52
1659694416.51287,1013776.3820655,71
1659694416.51287,1013776.3820788,78
1659694416.51287,1013776.3820918,66
1659694416.51287,1013776.382105,76
1659694416.51287,1013776.3821183,83
1659694416.51287,1013776.3821339,59
1659694416.51287,1013776.3821459,33
1659694416.51287,1013776.3821513,11
1659694416.51287,1013776.3821565,14
1659694416.51287,1013776.382162,23
1659694416.51287,1013776.3821682,16
1659694416.51287,1013776.3821716,7
1659694416.51287,1013776.3821749,9
1659694416.51287,1013776.3821781,23
1659694416.51287,1013776.3821814,28
1659694416.51287,1013776.3821848,16
1659694416.51287,1013776.382188,23
1659694416.51287,1013776.3821914,35
1659694416.51287,1013776.3821949,23
1659694416.51287,1013776.3821983,33
1659694416.51287,1013776.3822014,71
1659694416.51287,1013776.3822047,69
1659694416.51287,1013776.3822083,45
1659694416.51287,1013776.3822117,47
1659694416.51287,1013776.9668431,69
1659694416.51287,1013776.9668582,73
1659694416.51287,1013776.966861,42
1659694416.51287,1013776.9668633,28
1659694416.51287,1013776.9668654,40
1659694416.51287,1013776.9668674,26
1659694416.51287,1013776.9668694,21
1659694416.51287,1013776.9668715,40
1659694416.51287,1013776.9668735,21
1659694416.51287,1013776.9668756,-14
1659694416.51287,1013776.9668778,-35
1659694416.51287,1013776.966882,-28
1659694416.51287,1013776.9668902,190
1659694416.51287,1013776.9668962,758
1659694416.51287,1013776.9669027,1182
1659694416.51287,1013776.9669074,746
1659694416.52483,1013776.9669119,-116
1659694416.52483,1013776.9669145,-326
1659694416.52483,1013776.9669167,-50
1659694416.52483,1013776.9669187,-4
1659694416.52483,1013776.9669208,-78
1659694416.52483,1013776.9669228,-26
1659694416.52483,1013776.9669248,9
1659694416.52483,1013776.9669268,-14
1659694416.52483,1013776.9669297,-2
1659694416.52483,1013776.9669385,21
1659694416.52483,1013776.9669471,16
1659694416.52483,1013776.966954,19
1659694416.52483,1013776.9669647,50
1659694416.52483,1013776.9669694,73
1659694416.52483,1013776.9669742,81
1659694416.52483,1013776.9669779,85
1659694416.52483,1013776.9669839,97
1659694416.52483,1013776.9669901,100
1659694416.52483,1013776.9669982,95
1659694416.52483,1013776.9670049,102
1659694416.52483,1013776.9670104,119
1659694416.52483,1013776.9670177,145
1659694416.52483,1013776.9670237,193
1659694416.52483,1013776.967033,221
1659694417.14691,1013776.9670418,216
1659694417.14691,1013776.9670467,226
1659694417.14691,1013776.9670497,238
1659694417.14691,1013776.9670527,226
1659694417.14691,1013776.9670556,224
1659694417.14691,1013776.9670586,226
1659694417.14691,1013776.9670621,205
1659694417.14691,1013776.9670652,152
1659694417.14691,1013776.9670685,92
1659694417.14691,1013776.9670716,47
1659694417.14691,1013776.9670752,16
1659694417.14691,1013776.9670805,-2
1659694417.14691,1013776.9670869,-14
1659694417.14691,1013776.9670921,-50
1659694417.14691,1013776.9670973,-73
1659694417.14691,1013776.967104,-40
1659694417.14691,1013776.9671109,-19
1659694417.14691,1013776.967118,-40
1659694417.14691,1013776.9671234,-40
1659694417.14691,1013776.9671335,-23
1659694417.14691,1013776.9671464,-23
1659694417.14691,1013776.9671623,-23
1659694417.14691,1013776.9672222,-11
1659694417.14691,1013776.9672346,-11
1659694417.14691,1013776.9672441,-26
1659694417.14691,1013776.9672528,-9
1659694417.14691,1013776.9672606,14
1659694417.14691,1013776.9672673,2
1659694417.14691,1013776.9672756,-7
1659694417.14691,1013776.9672837,14
1659694417.14691,1013776.967288,33
1659694417.14691,1013776.9673015,23
1659694417.14691,1013776.9673136,26
1659694417.14691,1013777.5980267,42
1659694417.14691,1013777.5980447,33
1659694417.14691,1013777.59805,14
1659694417.14691,1013777.5980563,9
1659694417.14691,1013777.5980626,30
1659694417.14691,1013777.5980668,47
1659694417.14691,1013777.5980715,42

1659694417.14691,1013777.598077,38
1659694417.14691,1013777.5980805,33
1659694417.14691,1013777.5980838,21
1659694417.14691,1013777.5980909,9
1659694417.14691,1013777.5980948,11
1659694417.14691,1013777.598098,23
1659694417.14691,1013777.5981049,42
1659694417.14691,1013777.5981102,73
1659694417.14691,1013777.5981168,85
1659694417.14691,1013777.5981236,76
1659694417.16586,1013777.5981306,69
1659694417.16586,1013777.5981378,71
1659694417.16586,1013777.598143,59
1659694417.16586,1013777.5981464,40
1659694417.16586,1013777.5981502,38
1659694417.16586,1013777.5981537,33
1659694417.16586,1013777.5981577,7
1659694417.16586,1013777.5981614,11
1659694417.16586,1013777.5981649,30
1659694417.16586,1013777.5981694,21
1659694417.16586,1013777.598173,4
1659694417.16586,1013777.5981768,-16
1659694417.16586,1013777.5981805,-38
1659694417.16586,1013777.5981843,83
1659694417.16586,1013777.59819,538
1659694417.16586,1013777.5981938,1106
1659694417.16586,1013777.5981973,1018
1659694417.16586,1013777.598201,169
1659694417.16586,1013777.5982047,-352
1659694417.16586,1013777.5982082,-140
1659694417.16586,1013777.5982118,28
1659694417.16586,1013777.5982154,-38
1659694417.16586,1013777.5982185,4
1659694417.16586,1013777.5982219,66
1659694417.67848,1013777.5982254,16
1659694417.67848,1013777.5982291,4
1659694417.67848,1013777.5982327,54
1659694417.67848,1013777.5982364,64
1659694417.67848,1013777.5982401,59
1659694417.67848,1013777.5982437,85
1659694417.67848,1013777.5982475,90
1659694417.67848,1013777.5982511,73
1659694417.67848,1013777.5982548,83
1659694417.67848,1013777.5982587,97
1659694417.67848,1013777.5982624,100
1659694417.67848,1013777.598266,112
1659694417.67848,1013777.5982695,126
1659694417.67848,1013777.5982733,128
1659694417.67848,1013777.5982769,131
1659694417.67848,1013777.5982806,140
1659694417.67848,1013777.5982844,143
1659694417.67848,1013777.5982881,159
1659694417.67848,1013777.5982918,185
1659694417.67848,1013777.5982975,188
1659694417.67848,1013777.5983013,174
1659694417.67848,1013777.5983049,171
1659694417.67848,1013777.5983102,176
1659694417.67848,1013777.5983145,166
1659694417.67848,1013777.5983198,140
1659694417.67848,1013777.5983235,97
1659694417.67848,1013777.5983288,42
1659694417.67848,1013777.5983339,-2
1659694417.67848,1013777.5983379,-16
1659694417.67848,1013777.5983433,-21
1659694417.67848,1013777.5983507,-28
1659694417.67848,1013777.5983566,-33
1659694417.67848,1013778.1368702,-30
1659694417.67848,1013778.1368899,-33
1659694417.67848,1013778.1369032,-26
1659694417.67848,1013778.1369238,-14
1659694417.67848,1013778.1369369,-2
1659694417.67848,1013778.1369501,9
1659694417.67848,1013778.1369636,19
1659694417.67848,1013778.1369765,21
1659694417.67848,1013778.1369895,26
1659694417.67848,1013778.1370025,33
1659694417.67848,1013778.1370158,38
1659694417.67848,1013778.1370291,35
1659694417.67848,1013778.137042,30
1659694417.67848,1013778.1370559,26
1659694417.67848,1013778.137069,28
1659694417.67848,1013778.1370819,23
1659694417.67848,1013778.1370914,19
1659694417.67848,1013778.137094,40
1659694417.69145,1013778.1370962,52
1659694417.69145,1013778.1370982,23
1659694417.69145,1013778.1371002,0
1659694417.69145,1013778.1371022,9
1659694417.69145,1013778.1371042,28
1659694417.69145,1013778.1371062,26
1659694417.69145,1013778.1371091,19
1659694417.69145,1013778.1371111,11
1659694417.69145,1013778.1371137,-4
1659694417.69145,1013778.1371159,-9
1659694417.69145,1013778.1371179,-4
1659694417.69145,1013778.1371199,-9
1659694417.69145,1013778.1371219,4
1659694417.69145,1013778.137124,23
1659694417.69145,1013778.137126,23
1659694417.69145,1013778.1371279,38
1659694417.69145,1013778.1371301,57
1659694417.69145,1013778.137132,45
1659694417.69145,1013778.1371341,35
1659694417.69145,1013778.1371367,40
1659694417.69145,1013778.1371387,28
1659694417.69145,1013778.1371408,21
1659694417.69145,1013778.1371428,40
1659694417.69145,1013778.137145,40
1659694418.16686,1013778.1371471,14
1659694418.16686,1013778.1371492,7
1659694418.16686,1013778.1371511,23
1659694418.16686,1013778.137153,23
1659694418.16686,1013778.1371549,-4
1659694418.16686,1013778.1371568,-45
1659694418.16686,1013778.1371588,-28
1659694418.16686,1013778.137163,236
1659694418.16686,1013778.1371677,817
1659694418.16686,1013778.1371723,1170
1659694418.16686,1013778.137177,639
1659694418.16686,1013778.1371816,-214
1659694418.16686,1013778.1371854,-343
1659694418.16686,1013778.1371875,-38
1659694418.16686,1013778.1371893,-7
1659694418.16686,1013778.1371912,-64
1659694418.16686,1013778.1371931,2
1659694418.16686,1013778.137195,26
1659694418.16686,1013778.1371969,0
1659694418.16686,1013778.1371987,19
1659694418.16686,1013778.1372006,35
1659694418.16686,1013778.1372026,28
1659694418.16686,1013778.1372044,30
1659694418.16686,1013778.1372063,35
1659694418.16686,1013778.1372081,35
1659694418.16686,1013778.13721,45
1659694418.16686,1013778.1372118,57
1659694418.16686,1013778.1372136,64
1659694418.16686,1013778.1372156,95
1659694418.16686,1013778.1372174,114
1659694418.16686,1013778.1372193,102
1659694418.16686,1013778.6221549,109
1659694418.16686,1013778.6221692,133
1659694418.16686,1013778.6221757,140
1659694418.16686,1013778.6221803,147
1659694418.16686,1013778.622183,164
1659694418.16686,1013778.6221865,171
1659694418.16686,1013778.6221891,174
1659694418.16686,1013778.6221918,185
1659694418.16686,1013778.6221944,195
1659694418.16686,1013778.622197,195
1659694418.16686,1013778.6221997,174
1659694418.16686,1013778.6222021,133
1659694418.16686,1013778.6222048,88
1659694418.16686,1013778.622207,54
1659694418.16686,1013778.622209,26
1659694418.16686,1013778.6222111,4
1659694418.16686,1013778.6222135,-11
1659694418.16686,1013778.6222161,-33
1659694418.16686,1013778.6222193,-28
1659694418.17883,1013778.6222328,-9
1659694418.17883,1013778.6222432,-4
1659694418.17883,1013778.6222559,-2
1659694418.17883,1013778.6222681,-2
1659694418.17883,1013778.6222738,-11
1659694418.17883,1013778.622276,-7
1659694418.17883,1013778.6222781,2
1659694418.17883,1013778.6222801,-7
1659694418.17883,1013778.6222873,-4
1659694418.17883,1013778.6222981,7
1659694418.17883,1013778.6223016,-4
1659694418.17883,1013778.6223057,-16
1659694418.17883,1013778.6223078,0
1659694418.17883,1013778.6223107,4
1659694418.17883,1013778.6223127,-2
1659694418.17883,1013778.6223148,0
1659694418.17883,1013778.6223169,2
1659694418.17883,1013778.622319,-7
1659694418.17883,1013778.622321,-2
1659694418.17883,1013778.622323,9
1659694418.17883,1013778.622325,14
1659694418.17883,1013778.6223271,21
1659694418.17883,1013778.6223291,28
1659694418.17883,1013778.6223311,23
1659694418.85541,1013778.6223332,19
1659694418.85541,1013778.6223352,26
1659694418.85541,1013778.6223371,28
1659694418.85541,1013778.6223389,26
1659694418.85541,1013778.6223408,26
1659694418.85541,1013778.6223427,33
1659694418.85541,1013778.6223447,64
1659694418.85541,1013778.6223467,97
1659694418.85541,1013778.6223486,107
1659694418.85541,1013778.6223505,100
1659694418.85541,1013778.6223524,92
1659694418.85541,1013778.6223544,90
1659694418.85541,1013778.6223562,81
1659694418.85541,1013778.6223581,71
1659694418.85541,1013778.62236,73
1659694418.85541,1013778.6223621,81
1659694418.85541,1013778.6223647,83
1659694418.85541,1013778.6223736,81
1659694418.85541,1013778.6223797,76
1659694418.85541,1013778.6223842,69
1659694418.85541,1013778.6223884,52
1659694418.85541,1013778.6223924,23
1659694418.85541,1013778.6223988,54
1659694418.85541,1013778.6224043,340
1659694418.85541,1013778.6224087,896
1659694418.85541,1013778.6224148,1113
1659694418.85541,1013778.6224199,488
1659694418.85541,1013778.6224263,-243
1659694418.85541,1013778.6224306,-243
1659694418.85541,1013778.6224348,26
1659694418.85541,1013779.3048095,23
1659694418.85541,1013779.3048296,2
1659694418.85541,1013779.3048456,66
1659694418.85541,1013779.3048536,66
1659694418.85541,1013779.3048589,52
1659694418.85541,1013779.3048676,83
1659694418.85541,1013779.304877,78
1659694418.85541,1013779.3048899,45
1659694418.85541,1013779.3049029,47
1659694418.85541,1013779.304916,66
1659694418.85541,1013779.3049291,61
1659694418.85541,1013779.3049422,59
1659694418.85541,1013779.3049551,64
1659694418.85541,1013779.3049678,59
1659694418.85541,1013779.3049808,57
1659694418.85541,1013779.3049939,73
1659694418.85541,1013779.3050069,88
1659694418.85541,1013779.30502,92
1659694418.85541,1013779.3050327,95
1659694418.85541,1013779.3050456,100
1659694418.86937,1013779.3050603,112
1659694418.86937,1013779.305073,128
1659694418.86937,1013779.3050853,138
1659694418.86937,1013779.3050913,140
1659694418.86937,1013779.3050937,143
1659694418.86937,1013779.3050957,138
1659694418.86937,1013779.3050977,126
1659694418.86937,1013779.3050997,112
1659694418.86937,1013779.3051017,85
1659694418.86937,1013779.3051071,42
1659694418.86937,1013779.3051171,11
1659694418.86937,1013779.3051253,-7
1659694418.86937,1013779.3051292,-26
1659694418.86937,1013779.3051425,-40
1659694418.86937,1013779.3051553,-45
1659694418.86937,1013779.3051668,-38
1659694418.86937,1013779.3051751,-28
1659694418.86937,1013779.3051799,-26
1659694418.86937,1013779.3051834,-19
1659694418.86937,1013779.3051956,2
1659694418.86937,1013779.3052093,11
1659694418.86937,1013779.3052234,14
1659694418.86937,1013779.3052362,26
1659694418.86937,1013779.3052484,42
1659694419.34255,1013779.3052539,50
1659694419.34255,1013779.3052609,45
1659694419.34255,1013779.305268,50
1659694419.34255,1013779.3052746,54
1659694419.34255,1013779.3052817,54
1659694419.34255,1013779.3052886,59
1659694419.34255,1013779.3052928,61
1659694419.34255,1013779.3053022,57
1659694419.34255,1013779.3053136,57
1659694419.34255,1013779.3053237,64
1659694419.34255,1013779.3053355,59
1659694419.34255,1013779.3053424,59
1659694419.34255,1013779.3053519,66
1659694419.34255,1013779.3053581,69
1659694419.34255,1013779.3053644,66
1659694419.34255,1013779.30538,64
1659694419.34255,1013779.3053924,61
1659694419.34255,1013779.3054055,64
1659694419.34255,1013779.3054196,59
1659694419.34255,1013779.3054326,54
1659694419.34255,1013779.3054445,59
1659694419.34255,1013779.3054559,78
1659694419.34255,1013779.3054673,104
1659694419.34255,1013779.3054816,123
1659694419.34255,1013779.3054944,128
1659694419.34255,1013779.3055044,123
1659694419.34255,1013779.3055115,112
1659694419.34255,1013779.3056045,95
1659694419.34255,1013779.3056288,90
1659694419.34255,1013779.7923912,90
1659694419.34255,1013779.7924121,90
1659694419.34255,1013779.7924228,97
1659694419.34255,1013779.7924321,95
1659694419.34255,1013779.792439,81
1659694419.34255,1013779.7924477,81
1659694419.34255,1013779.7924534,69
1659694419.34255,1013779.7924566,26
1659694419.34255,1013779.7924586,42
1659694419.34255,1013779.7924607,317
1659694419.34255,1013779.7924627,867
1659694419.34255,1013779.7924647,1146
1659694419.34255,1013779.7924668,579
1659694419.34255,1013779.7924688,-219
1659694419.34255,1013779.7924724,-290
1659694419.34255,1013779.7924854,4
1659694419.34255,1013779.7924915,19
1659694419.34255,1013779.7924937,-30
1659694419.34255,1013779.7924957,42
1659694419.34255,1013779.7924977,81
1659694419.34255,1013779.7924997,73
1659694419.3615,1013779.7925026,76
1659694419.3615,1013779.7925152,59
1659694419.3615,1013779.7925217,40
1659694419.3615,1013779.7925239,54
1659694419.3615,1013779.792526,73
1659694419.3615,1013779.792528,76
1659694419.3615,1013779.7925307,76
1659694419.3615,1013779.7925406,66
1659694419.3615,1013779.7925495,52
1659694419.3615,1013779.7925519,57
