Time,TimeLsl,Value
1659692875.75361,1012234.6624279,85
1659692875.75361,1012234.6624464,95
1659692875.75361,1012234.6624522,112
1659692875.75361,1012234.6624561,126
1659692875.75361,1012234.6624603,138
1659692875.75361,1012234.6624639,147
1659692875.75361,1012234.6624681,147
1659692875.75361,1012234.6624713,138
1659692875.75361,1012234.6624743,147
1659692875.75361,1012234.6624774,166
1659692875.75361,1012234.6624807,169
1659692875.75361,1012234.6624845,174
1659692875.75361,1012234.6624911,181
1659692875.75361,1012234.6624977,178
1659692875.75361,1012234.662502,174
1659692875.75361,1012234.662505,178
1659692875.75361,1012234.6625079,164
1659692875.75361,1012234.6625107,128
1659692875.75361,1012234.6625136,85
1659692875.75361,1012234.6625176,54
1659692875.75361,1012234.6625217,28
1659692875.75361,1012234.6625256,4
1659692875.75361,1012234.6625285,-4
1659692875.75361,1012234.6625313,-4
1659692875.75361,1012234.6625372,-7
1659692875.75361,1012234.6625427,0
1659692875.75361,1012234.6625473,16
1659692875.75361,1012234.6625602,23
1659692875.75361,1012234.6625672,30
1659692875.75361,1012234.6625736,40
1659692875.75361,1012234.6625806,52
1659692875.75361,1012234.6625875,54
1659692875.75361,1012234.6625966,45
1659692875.75361,1012234.6626038,35
1659692875.75361,1012234.6626085,45
1659692875.75361,1012234.6626146,45
1659692875.75361,1012234.6626183,30
1659692875.75361,1012234.6626263,28
1659692875.75361,1012234.6626401,33
1659692875.75361,1012234.6626453,23
1659692875.75361,1012234.6626494,16
1659692875.75361,1012234.662656,21
1659692875.75361,1012234.6626632,21
1659692875.75361,1012234.6626704,9
1659692875.75361,1012234.6626736,-2
1659692875.75361,1012234.6626785,-9
1659692875.75361,1012234.6626848,-16
1659692875.75361,1012234.6626898,-16
1659692875.75361,1012234.6626956,4
1659692875.75361,1012234.6627049,33
1659692875.88177,1012234.6627126,42
1659692875.88177,1012234.6627175,40
1659692875.88177,1012234.6627263,33
1659692875.88177,1012234.6627338,16
1659692875.88177,1012234.6627418,2
1659692875.88177,1012234.6627492,4
1659692875.88177,1012234.6627558,7
1659692875.88177,1012234.6627666,2
1659692875.88177,1012234.6627755,2
1659692875.88177,1012234.6627844,14
1659692875.88177,1012234.6627921,19
1659692875.88177,1012234.6627981,11
1659692875.88177,1012234.662805,-19
1659692875.88177,1012234.662812,-52
1659692875.88177,1012234.6628238,90
1659692875.88177,1012234.6628311,622
1659692875.88177,1012234.6628362,1270
1659692875.88177,1012234.662841,1180
1659692875.88177,1012234.6628454,262
1659692875.88177,1012234.6628507,-331
1659692875.88177,1012234.6628551,-154
1659692875.88177,1012234.6628599,28
1659692875.88177,1012234.6628666,-33
1659692875.88177,1012235.1508327,-16
1659692875.88177,1012235.150852,42
1659692875.88177,1012235.1508629,26
1659692875.88177,1012235.1508728,19
1659692875.88177,1012235.1508776,42
1659692875.88177,1012235.1508818,52
1659692875.88177,1012235.1508862,59
1659692875.88177,1012235.1508904,78
1659692875.88177,1012235.1508948,88
1659692875.88177,1012235.1509005,85
1659692875.88177,1012235.1509046,73
1659692875.88177,1012235.1509085,69
1659692875.88177,1012235.1509132,81
1659692875.88177,1012235.1509174,100
1659692875.88177,1012235.1509218,109
1659692875.88177,1012235.1509263,112
1659692875.88177,1012235.150931,114
1659692875.88177,1012235.1509354,138
1659692875.88177,1012235.1509403,154
1659692875.88177,1012235.150945,164
1659692875.88177,1012235.1509499,197
1659692875.88177,1012235.1509549,207
1659692875.88177,1012235.1509597,147
1659692875.88177,1012235.1509649,97
1659692875.88177,1012235.1509698,116
1659692875.88177,1012235.1509744,126
1659692875.88177,1012235.1509774,88
1659692875.93016,1012235.1509806,40
1659692875.93016,1012235.1509845,0
1659692875.93016,1012235.1509875,-30
1659692875.93016,1012235.1509927,-38
1659692875.93016,1012235.1509982,-35
1659692875.93016,1012235.1510036,-35
1659692875.93016,1012235.1510095,-23
1659692875.93016,1012235.1510132,-14
1659692875.93016,1012235.1510165,-11
1659692875.93016,1012235.1510206,-2
1659692875.93016,1012235.1510248,14
1659692875.93016,1012235.1510309,23
1659692875.93016,1012235.1510343,28
1659692875.93016,1012235.151063,35
1659692875.93016,1012235.1510732,42
1659692875.93016,1012235.1510804,47
1659692875.93016,1012235.1510856,45
1659692875.93016,1012235.1510929,42
1659692875.93016,1012235.1510996,50
1659692875.93016,1012235.1511027,47
1659692875.93016,1012235.1511074,40
1659692875.93016,1012235.1511126,50
1659692875.93016,1012235.1511172,52
1659692875.93016,1012235.1511222,35
1659692875.93016,1012235.151137,33
1659692875.93016,1012235.1511469,35
1659692875.93016,1012235.151161,21
1659692875.93016,1012235.151173,2
1659692875.93016,1012235.1511825,-11
1659692875.93016,1012235.1511963,-7
1659692875.93016,1012235.1512099,35
1659692875.93016,1012235.1512191,71
1659692875.93016,1012235.1512315,76
1659692875.93016,1012235.1512421,76
1659692875.93016,1012235.1512481,78
1659692875.93016,1012235.1512542,66
1659692875.93016,1012235.1512576,59
1659692875.93016,1012235.1512643,52
1659692875.93016,1012235.1512695,52
1659692875.93016,1012235.1512724,57
1659692875.93016,1012235.1512776,64
1659692875.93016,1012235.1512838,71
1659692875.93016,1012235.1512901,69
1659692875.93016,1012235.1513234,54
1659692875.93016,1012235.1513297,30
1659692875.93016,1012235.1513352,-4
1659692875.93016,1012235.7849299,28
1659692875.93016,1012235.7849468,352
1659692875.93016,1012235.7849593,941
1659692875.93016,1012235.7849662,1151
1659692875.95159,1012235.7849722,519
1659692875.95159,1012235.7849786,-209
1659692875.95159,1012235.7849834,-236
1659692875.95159,1012235.7849888,4
1659692875.95159,1012235.7849966,-2
1659692875.95159,1012235.7850064,-35
1659692875.95159,1012235.7850122,28
1659692875.95159,1012235.7850161,38
1659692875.95159,1012235.7850192,14
1659692875.95159,1012235.7850222,16
1659692875.95159,1012235.785025,23
1659692875.95159,1012235.7850279,30
1659692875.95159,1012235.7850307,47
1659692875.95159,1012235.7850347,61
1659692875.95159,1012235.7850403,64
1659692875.95159,1012235.7850434,69
1659692875.95159,1012235.7850495,69
1659692875.95159,1012235.7850569,69
1659692875.95159,1012235.7850622,81
1659692875.95159,1012235.7850681,95
1659692875.95159,1012235.7850748,102
1659692875.95159,1012235.785084,114
1659692875.95159,1012235.785093,128
1659692875.95159,1012235.7850988,138
1659692875.95159,1012235.7851051,147
1659692875.95159,1012235.78511,154
1659692875.95159,1012235.7851139,159
1659692875.95159,1012235.7851175,166
1659692875.95159,1012235.7851204,174
1659692875.95159,1012235.7851232,178
1659692875.95159,1012235.7851266,169
1659692875.95159,1012235.7851316,135
1659692875.95159,1012235.7851353,95
1659692875.95159,1012235.7851383,66
1659692875.95159,1012235.7851416,40
1659692875.95159,1012235.7851447,19
1659692875.95159,1012235.7851477,21
1659692875.95159,1012235.7851507,28
1659692875.95159,1012235.7851844,16
1659692875.95159,1012235.7851901,14
1659692875.95159,1012235.7851934,26
1659692875.95159,1012235.7851969,35
1659692875.95159,1012235.7852003,42
1659692875.95159,1012235.7852048,54
1659692875.95159,1012235.7852089,66
1659692875.95159,1012235.7852124,73
1659692875.95159,1012235.7852159,76
1659692875.95159,1012235.7852194,76
1659692875.95159,1012235.7852236,81
1659692875.95159,1012235.785227,88
1659692875.96256,1012235.7852305,88
1659692875.96256,1012235.7852337,78
1659692875.96256,1012235.785238,73
1659692875.96256,1012235.7852413,73
1659692875.96256,1012235.7852446,66
1659692875.96256,1012235.7852481,61
1659692875.96256,1012235.7852516,59
1659692875.96256,1012235.7852559,50
1659692875.96256,1012235.7852595,38
1659692875.96256,1012235.7852665,28
1659692875.96256,1012235.7852718,26
1659692875.96256,1012235.7852785,35
1659692875.96256,1012235.7852831,61
1659692875.96256,1012235.7852896,78
1659692875.96256,1012235.7852934,78
1659692875.96256,1012235.7852977,76
1659692875.96256,1012235.7853014,66
1659692875.96256,1012235.7853056,47
1659692875.96256,1012235.7853097,42
1659692875.96256,1012236.3693027,47
1659692875.96256,1012236.3693247,42
1659692875.96256,1012236.3693348,38
1659692876.448,1012236.3693414,40
1659692876.448,1012236.3693493,47
1659692876.448,1012236.3693559,50
1659692876.448,1012236.3693629,38
1659692876.448,1012236.3693679,-4
1659692876.448,1012236.3693717,21
1659692876.448,1012236.3693774,329
1659692876.448,1012236.3693842,903
1659692876.448,1012236.3693912,1123
1659692876.448,1012236.3693948,479
1659692876.448,1012236.3693998,-300
1659692876.448,1012236.3694041,-331
1659692876.448,1012236.3694071,-30
1659692876.448,1012236.36941,-7
1659692876.448,1012236.3694128,-42
1659692876.448,1012236.369416,28
1659692876.448,1012236.3694188,50
1659692876.448,1012236.3694216,28
1659692876.448,1012236.3694245,50
1659692876.448,1012236.3694284,57
1659692876.448,1012236.3694347,40
1659692876.448,1012236.3694375,54
1659692876.448,1012236.3694403,69
1659692876.448,1012236.3694431,64
1659692876.448,1012236.3694459,73
1659692876.448,1012236.3694487,92
1659692876.448,1012236.3694515,100
1659692876.448,1012236.3694542,114
1659692876.448,1012236.3694571,133
1659692876.448,1012236.3694599,143
1659692876.448,1012236.3694627,154
1659692876.448,1012236.369466,166
1659692876.448,1012236.3694688,176
1659692876.448,1012236.3694718,185
1659692876.448,1012236.3694746,197
1659692876.448,1012236.3694774,202
1659692876.448,1012236.3694804,209
1659692876.448,1012236.3694833,216
1659692876.448,1012236.3694861,214
1659692876.448,1012236.3694888,197
1659692876.448,1012236.3694917,164
1659692876.448,1012236.3694946,121
1659692876.448,1012236.3694974,83
1659692876.448,1012236.3695002,64
1659692876.448,1012236.3695029,45
1659692876.448,1012236.3695057,33
1659692876.448,1012236.3695086,28
1659692876.448,1012236.3695114,23
1659692876.448,1012236.3695143,30
1659692876.448,1012236.3695174,45
1659692876.45997,1012236.3695231,54
1659692876.45997,1012236.3695259,57
1659692876.45997,1012236.3695288,61
1659692876.45997,1012236.3695315,73
1659692876.45997,1012236.3695343,78
1659692876.45997,1012236.369537,73
1659692876.45997,1012236.3695398,71
1659692876.45997,1012236.3695426,78
1659692876.45997,1012236.3695454,81
1659692876.45997,1012236.3695482,76
1659692876.45997,1012236.3695511,78
1659692876.45997,1012236.3695539,81
1659692876.45997,1012236.3695568,76
1659692876.45997,1012236.3695596,71
1659692876.45997,1012236.3695624,61
1659692876.45997,1012236.3695651,50
1659692876.45997,1012236.3695679,42
1659692876.45997,1012236.3695706,38
1659692876.45997,1012236.3695734,35
1659692876.45997,1012236.3695765,45
1659692876.45997,1012236.9079497,71
1659692876.45997,1012236.90797,83
1659692876.45997,1012236.9079768,76
1659692876.45997,1012236.9079848,71
1659692876.98265,1012236.9079925,66
1659692876.98265,1012236.9079989,57
1659692876.98265,1012236.9080055,45
1659692876.98265,1012236.9080119,28
1659692876.98265,1012236.9080186,19
1659692876.98265,1012236.9080228,28
1659692876.98265,1012236.9080278,35
1659692876.98265,1012236.9080339,38
1659692876.98265,1012236.9080395,26
1659692876.98265,1012236.9080454,-33
1659692876.98265,1012236.9080522,-83
1659692876.98265,1012236.9080553,90
1659692876.98265,1012236.9080584,624
1659692876.98265,1012236.9080611,1177
1659692876.98265,1012236.908064,960
1659692876.98265,1012236.9080668,11
1659692876.98265,1012236.9080697,-469
1659692876.98265,1012236.9080725,-183
1659692876.98265,1012236.9080755,9
1659692876.98265,1012236.9080783,-59
1659692876.98265,1012236.9080811,-28
1659692876.98265,1012236.9080839,21
1659692876.98265,1012236.9080868,-19
1659692876.98265,1012236.9080896,-16
1659692876.98265,1012236.9080924,26
1659692876.98265,1012236.9080952,30
1659692876.98265,1012236.9080979,30
1659692876.98265,1012236.9081007,45
1659692876.98265,1012236.9081034,57
1659692876.98265,1012236.9081061,69
1659692876.98265,1012236.9081089,81
1659692876.98265,1012236.9081116,95
1659692876.98265,1012236.9081144,109
1659692876.98265,1012236.9081172,121
1659692876.98265,1012236.90812,135
1659692876.98265,1012236.9081228,145
1659692876.98265,1012236.9081255,154
1659692876.98265,1012236.9081283,171
1659692876.98265,1012236.9081311,181
1659692876.98265,1012236.9081339,183
1659692876.98265,1012236.9081366,188
1659692876.98265,1012236.9081394,195
1659692876.98265,1012236.9081423,200
1659692876.98265,1012236.908145,202
1659692876.98265,1012236.9081478,190
1659692876.98265,1012236.9081506,150
1659692876.98265,1012236.9081533,102
1659692876.98265,1012236.9081561,69
1659692876.98265,1012236.9081588,45
1659692876.98265,1012236.9081615,23
1659692876.99362,1012236.9081644,7
1659692876.99362,1012236.9081672,2
1659692876.99362,1012236.90817,4
1659692876.99362,1012236.9081729,7
1659692876.99362,1012236.9081757,14
1659692876.99362,1012236.9081785,30
1659692876.99362,1012236.9081813,45
1659692876.99362,1012236.9081842,45
1659692876.99362,1012236.9081869,50
1659692876.99362,1012236.9081897,59
1659692876.99362,1012236.9081926,66
1659692876.99362,1012236.9081953,73
1659692876.99362,1012236.9081981,76
1659692876.99362,1012236.9082008,76
1659692876.99362,1012236.9082036,81
1659692876.99362,1012236.9082064,83
1659692876.99362,1012236.9082091,78
1659692876.99362,1012236.9082118,73
1659692876.99362,1012236.9082146,64
1659692876.99362,1012237.4429587,45
1659692876.99362,1012237.4429762,38
1659692876.99362,1012237.4429834,35
1659692876.99362,1012237.4429899,28
1659692876.99362,1012237.4429945,38
1659692877.57388,1012237.442999,66
1659692877.57388,1012237.4430036,78
1659692877.57388,1012237.4430084,66
1659692877.57388,1012237.4430131,54
1659692877.57388,1012237.4430177,42
1659692877.57388,1012237.4430225,14
1659692877.57388,1012237.4430273,4
1659692877.57388,1012237.4430321,9
1659692877.57388,1012237.4430369,7
1659692877.57388,1012237.4430416,9
1659692877.57388,1012237.443046,9
1659692877.57388,1012237.4430505,-9
1659692877.57388,1012237.4430551,-23
1659692877.57388,1012237.4430597,-47
1659692877.57388,1012237.4430642,-95
1659692877.57388,1012237.4430687,2
1659692877.57388,1012237.4430732,495
1659692877.57388,1012237.4430778,1177
1659692877.57388,1012237.443082,1194
1659692877.57388,1012237.4430868,295
1659692877.57388,1012237.4430902,-388
1659692877.57388,1012237.4430948,-238
1659692877.57388,1012237.4430978,-4
1659692877.57388,1012237.4431008,-73
1659692877.57388,1012237.4431049,-90
1659692877.57388,1012237.4431097,-28
1659692877.57388,1012237.4431181,-35
1659692877.57388,1012237.4431276,-38
1659692877.57388,1012237.4431341,-2
1659692877.57388,1012237.4431397,9
1659692877.57388,1012237.4431489,7
1659692877.57388,1012237.44316,19
1659692877.57388,1012237.4431682,35
1659692877.57388,1012237.4431745,50
1659692877.57388,1012237.4431823,59
1659692877.57388,1012237.4431905,64
1659692877.57388,1012237.4431987,71
1659692877.57388,1012237.4432051,81
1659692877.57388,1012237.4432083,97
1659692877.57388,1012237.4432132,112
1659692877.57388,1012237.4432162,128
1659692877.57388,1012237.4432191,140
1659692877.57388,1012237.443222,145
1659692877.57388,1012237.4432251,150
1659692877.57388,1012237.4432315,157
1659692877.57388,1012237.4432357,166
1659692877.57388,1012237.4432435,174
1659692877.57388,1012237.443252,178
1659692877.57388,1012237.4432578,174
1659692877.57388,1012237.4432644,147
1659692877.58784,1012237.4432674,102
1659692877.58784,1012237.4432704,66
1659692877.58784,1012237.4432731,45
1659692877.58784,1012237.443281,30
1659692877.58784,1012237.4432871,19
1659692877.58784,1012237.4432933,11
1659692877.58784,1012237.4433007,9
1659692877.58784,1012237.4433158,14
1659692877.58784,1012237.4433386,21
1659692877.58784,1012237.4433457,21
1659692877.58784,1012237.4433709,16
1659692877.58784,1012237.4433832,23
1659692877.58784,1012237.4434027,35
1659692877.58784,1012237.4434094,42
1659692877.58784,1012237.4434134,50
1659692877.58784,1012237.4434164,57
1659692877.58784,1012237.4434197,59
1659692877.58784,1012237.4434231,50
1659692877.58784,1012238.0275821,45
1659692877.58784,1012238.027747,54
1659692877.58784,1012238.0277592,59
1659692877.58784,1012238.0277642,54
1659692877.58784,1012238.0277671,54
1659692877.58784,1012238.0277702,52
1659692878.11303,1012238.0277732,33
1659692878.11303,1012238.0277762,14
1659692878.11303,1012238.0277799,16
1659692878.11303,1012238.0277841,40
1659692878.11303,1012238.0277872,64
1659692878.11303,1012238.0277907,76
1659692878.11303,1012238.0277938,73
1659692878.11303,1012238.0277973,64
1659692878.11303,1012238.0278008,59
1659692878.11303,1012238.0278039,45
1659692878.11303,1012238.027807,26
1659692878.11303,1012238.02781,21
1659692878.11303,1012238.0278133,14
1659692878.11303,1012238.0278168,-11
1659692878.11303,1012238.0278201,-28
1659692878.11303,1012238.0278234,-16
1659692878.11303,1012238.0278268,-4
1659692878.11303,1012238.0278311,-26
1659692878.11303,1012238.0278351,-78
1659692878.11303,1012238.0278393,-85
1659692878.11303,1012238.0278441,185
1659692878.11303,1012238.0278505,825
1659692878.11303,1012238.0278552,1261
1659692878.11303,1012238.0278598,779
1659692878.11303,1012238.0278639,-126
1659692878.11303,1012238.0278677,-355
1659692878.11303,1012238.0279953,-76
1659692878.11303,1012238.0280009,-19
1659692878.11303,1012238.0280046,-83
1659692878.11303,1012238.0280078,-30
1659692878.11303,1012238.0280115,0
1659692878.11303,1012238.0280155,-19
1659692878.11303,1012238.0280191,-4
1659692878.11303,1012238.0280238,19
1659692878.11303,1012238.0280275,23
1659692878.11303,1012238.0280994,33
1659692878.11303,1012238.028109,50
1659692878.11303,1012238.0281151,61
1659692878.11303,1012238.0281212,71
1659692878.11303,1012238.0281275,81
1659692878.11303,1012238.0281336,88
1659692878.11303,1012238.0281422,100
1659692878.11303,1012238.0281497,116
1659692878.11303,1012238.0281608,133
1659692878.11303,1012238.0281693,143
1659692878.11303,1012238.0281758,154
1659692878.11303,1012238.0281838,164
1659692878.11303,1012238.0281918,171
1659692878.11303,1012238.0281966,181
1659692878.11303,1012238.0282019,185
1659692878.126,1012238.0282067,188
1659692878.126,1012238.0282117,193
1659692878.126,1012238.0282215,183
1659692878.126,1012238.0282282,164
1659692878.126,1012238.028232,138
1659692878.126,1012238.0283116,97
1659692878.126,1012238.0283198,66
1659692878.126,1012238.0283249,42
1659692878.126,1012238.0283285,16
1659692878.126,1012238.0283319,2
1659692878.126,1012238.0283356,4
1659692878.126,1012238.0283863,11
1659692878.126,1012238.0283904,19
1659692878.126,1012238.0283936,26
1659692878.126,1012238.0283966,30
1659692878.126,1012238.0283994,38
1659692878.126,1012238.0284022,42
1659692878.126,1012238.5636015,54
1659692878.126,1012238.5636267,69
1659692878.126,1012238.5636397,71
1659692878.126,1012238.5636475,69
1659692878.126,1012238.5636534,66
1659692878.126,1012238.5636577,69
1659692878.126,1012238.5636627,76
1659692878.64895,1012238.5636672,83
1659692878.64895,1012238.5636707,85
1659692878.64895,1012238.5636741,73
1659692878.64895,1012238.5636783,47
1659692878.64895,1012238.5636824,40
1659692878.64895,1012238.5636859,45
1659692878.64895,1012238.5636897,47
1659692878.64895,1012238.5636926,42
1659692878.64895,1012238.5636955,42
1659692878.64895,1012238.5636997,47
1659692878.64895,1012238.5637045,61
1659692878.64895,1012238.5637092,76
1659692878.64895,1012238.5637135,78
1659692878.64895,1012238.5637166,71
1659692878.64895,1012238.5637196,57
1659692878.64895,1012238.5637225,35
1659692878.64895,1012238.5637254,23
1659692878.64895,1012238.5637282,23
1659692878.64895,1012238.563731,23
1659692878.64895,1012238.5637337,19
1659692878.64895,1012238.5637365,14
1659692878.64895,1012238.5637394,7
1659692878.64895,1012238.5637423,-11
1659692878.64895,1012238.5637451,-57
1659692878.64895,1012238.5637479,-73
1659692878.64895,1012238.5637507,138
1659692878.64895,1012238.5637536,732
1659692878.64895,1012238.5637564,1258
1659692878.64895,1012238.5637592,913
1659692878.64895,1012238.5637621,-33
1659692878.64895,1012238.5637649,-391
1659692878.64895,1012238.5637677,-102
1659692878.64895,1012238.5637707,16
1659692878.64895,1012238.5637736,-59
1659692878.64895,1012238.5637765,-16
1659692878.64895,1012238.5637794,26
1659692878.64895,1012238.5637823,0
1659692878.64895,1012238.5637851,14
1659692878.64895,1012238.5637879,47
1659692878.64895,1012238.5637909,45
1659692878.64895,1012238.5637937,50
1659692878.64895,1012238.5637965,73
1659692878.64895,1012238.5637994,78
1659692878.64895,1012238.5638022,71
1659692878.64895,1012238.5638049,76
1659692878.64895,1012238.5638077,90
1659692878.64895,1012238.5638105,102
1659692878.64895,1012238.5638134,114
1659692878.64895,1012238.5638162,123
1659692878.64895,1012238.563819,133
1659692878.66293,1012238.5638219,145
1659692878.66293,1012238.5638247,152
1659692878.66293,1012238.5638276,162
1659692878.66293,1012238.5638304,178
1659692878.66293,1012238.5638332,185
1659692878.66293,1012238.5638361,185
1659692878.66293,1012238.5638389,197
1659692878.66293,1012238.5638417,205
1659692878.66293,1012238.5638445,190
1659692878.66293,1012238.5638474,157
1659692878.66293,1012238.5638502,114
1659692878.66293,1012238.563853,78
1659692878.66293,1012238.5638557,54
1659692878.66293,1012238.5638587,30
1659692878.66293,1012238.5638615,21
1659692878.66293,1012238.5638643,19
1659692878.66293,1012239.0990862,11
1659692878.66293,1012239.0991025,11
1659692878.66293,1012239.0991076,28
1659692878.66293,1012239.0991165,38
1659692878.66293,1012239.0991216,45
1659692878.66293,1012239.0991292,52
1659692878.66293,1012239.0991344,47
1659692878.66293,1012239.0991402,38
1659692879.23372,1012239.0991452,42
1659692879.23372,1012239.0991497,52
1659692879.23372,1012239.0991536,57
1659692879.23372,1012239.0991581,64
1659692879.23372,1012239.0991621,69
1659692879.23372,1012239.0991695,64
1659692879.23372,1012239.0991791,59
1659692879.23372,1012239.0991893,59
1659692879.23372,1012239.0992013,64
1659692879.23372,1012239.0992114,61
1659692879.23372,1012239.0992183,52
1659692879.23372,1012239.0992256,30
1659692879.23372,1012239.0992341,14
1659692879.23372,1012239.0992418,19
1659692879.23372,1012239.0992513,33
1659692879.23372,1012239.0992569,57
1659692879.23372,1012239.0992644,81
1659692879.23372,1012239.0992679,90
1659692879.23372,1012239.0992735,88
1659692879.23372,1012239.0992859,85
1659692879.23372,1012239.0992985,76
1659692879.23372,1012239.0993091,57
1659692879.23372,1012239.0993187,47
1659692879.23372,1012239.0993237,50
1659692879.23372,1012239.0993285,50
1659692879.23372,1012239.099335,42
1659692879.23372,1012239.0993409,40
1659692879.23372,1012239.0993467,47
1659692879.23372,1012239.0993519,21
1659692879.23372,1012239.0993554,-47
1659692879.23372,1012239.0993588,-47
1659692879.23372,1012239.0993624,267
1659692879.23372,1012239.0993675,922
1659692879.23372,1012239.0993711,1275
1659692879.23372,1012239.0993743,646
1659692879.23372,1012239.0993774,-283
1659692879.23372,1012239.0993809,-402
1659692879.23372,1012239.0993847,-66
1659692879.23372,1012239.0993901,-33
1659692879.23372,1012239.0993938,-85
1659692879.23372,1012239.0993976,-4
1659692879.23372,1012239.0994031,19
1659692879.23372,1012239.0994066,-11
1659692879.23372,1012239.0994103,9
1659692879.23372,1012239.0994139,30
1659692879.23372,1012239.0994177,33
1659692879.23372,1012239.0994235,47
1659692879.23372,1012239.0994297,66
1659692879.23372,1012239.099433,73
1659692879.23372,1012239.0994363,81
1659692879.24768,1012239.0994396,88
1659692879.24768,1012239.099443,104
1659692879.24768,1012239.0994465,123
1659692879.24768,1012239.0994501,135
1659692879.24768,1012239.0994555,140
1659692879.24768,1012239.0994596,154
1659692879.24768,1012239.0994636,166
1659692879.24768,1012239.0994687,176
1659692879.24768,1012239.0994726,185
1659692879.24768,1012239.0994756,193
1659692879.24768,1012239.0994789,200
1659692879.24768,1012239.0994843,197
1659692879.24768,1012239.0994877,197
1659692879.24768,1012239.0994912,202
1659692879.24768,1012239.0994946,188
1659692879.24768,1012239.6858654,145
1659692879.24768,1012239.6858862,102
1659692879.24768,1012239.6859002,69
1659692879.24768,1012239.6859115,45
1659692879.24768,1012239.6859206,21
1659692879.24768,1012239.6859297,4
1659692879.24768,1012239.6859352,2
1659692879.24768,1012239.6859466,2
1659692879.24768,1012239.6859592,2
1659692879.77135,1012239.6859663,2
1659692879.77135,1012239.6859693,-4
1659692879.77135,1012239.685979,0
1659692879.77135,1012239.6859863,19
1659692879.77135,1012239.6859889,23
1659692879.77135,1012239.6859968,28
1659692879.77135,1012239.6860063,35
1659692879.77135,1012239.6860118,26
1659692879.77135,1012239.6860169,16
1659692879.77135,1012239.6860221,23
1659692879.77135,1012239.6860268,33
1659692879.77135,1012239.6860389,35
1659692879.77135,1012239.6860492,38
1659692879.77135,1012239.6860584,35
1659692879.77135,1012239.6860645,35
1659692879.77135,1012239.6860686,38
1659692879.77135,1012239.6860717,38
1659692879.77135,1012239.6860738,35
1659692879.77135,1012239.6860759,40
1659692879.77135,1012239.6860779,38
1659692879.77135,1012239.6860799,28
1659692879.77135,1012239.6860819,30
1659692879.77135,1012239.686084,47
1659692879.77135,1012239.686086,71
1659692879.77135,1012239.686088,95
1659692879.77135,1012239.6860901,109
1659692879.77135,1012239.6860928,102
1659692879.77135,1012239.6860948,76
1659692879.77135,1012239.6860969,45
1659692879.77135,1012239.6860989,28
1659692879.77135,1012239.686101,38
1659692879.77135,1012239.6861032,40
1659692879.77135,1012239.6861052,28
1659692879.77135,1012239.6861072,23
1659692879.77135,1012239.6861093,33
1659692879.77135,1012239.6861127,26
1659692879.77135,1012239.6861219,-9
1659692879.77135,1012239.6861323,-54
1659692879.77135,1012239.6861414,-26
1659692879.77135,1012239.6861475,307
1659692879.77135,1012239.6861514,977
1659692879.77135,1012239.6861534,1299
1659692879.77135,1012239.6861554,639
1659692879.77135,1012239.6861575,-240
1659692879.77135,1012239.6861596,-319
1659692879.77135,1012239.6861617,-21
1659692879.77135,1012239.6861671,-11
1659692879.77135,1012239.6861769,-61
1659692879.77135,1012239.6861809,7
1659692879.77135,1012239.6861831,21
1659692879.78331,1012239.6861851,0
1659692879.78331,1012239.6861871,26
1659692879.78331,1012239.686189,40
1659692879.78331,1012239.6861945,35
1659692879.78331,1012239.6862039,50
1659692879.78331,1012239.6862079,69
1659692879.78331,1012239.68621,78
1659692879.78331,1012239.6862121,90
1659692879.78331,1012239.6862142,92
1659692879.78331,1012239.6862162,97
1659692879.78331,1012239.6862254,109
1659692879.78331,1012239.6862345,119
1659692879.78331,1012239.6862369,126
1659692879.78331,1012239.6862391,143
1659692879.78331,1012240.2222416,152
1659692879.78331,1012240.2222627,154
1659692879.78331,1012240.2222772,166
1659692879.78331,1012240.2223209,178
1659692879.78331,1012240.2223341,181
1659692879.78331,1012240.2223448,188
1659692879.78331,1012240.222354,190
1659692879.78331,1012240.222359,181
1659692879.78331,1012240.2223663,166
1659692879.78331,1012240.2223753,140
1659692880.3556,1012240.2223822,100
1659692880.3556,1012240.222388,64
1659692880.3556,1012240.2223952,35
1659692880.3556,1012240.222402,2
1659692880.3556,1012240.2224084,-19
1659692880.3556,1012240.2224126,-14
1659692880.3556,1012240.2224178,-2
1659692880.3556,1012240.2224227,2
1659692880.3556,1012240.2224258,0
1659692880.3556,1012240.2224288,-2
1659692880.3556,1012240.2224316,4
1659692880.3556,1012240.2224345,21
1659692880.3556,1012240.2224373,28
1659692880.3556,1012240.2224401,30
1659692880.3556,1012240.222443,35
1659692880.3556,1012240.2224458,30
1659692880.3556,1012240.2224485,19
1659692880.3556,1012240.2224514,19
1659692880.3556,1012240.2224542,19
1659692880.3556,1012240.2224571,7
1659692880.3556,1012240.2224599,-7
1659692880.3556,1012240.2224627,-4
1659692880.3556,1012240.2224657,2
1659692880.3556,1012240.2224686,7
1659692880.3556,1012240.2224714,9
1659692880.3556,1012240.2224742,11
1659692880.3556,1012240.222477,11
1659692880.3556,1012240.22248,14
1659692880.3556,1012240.2224829,11
1659692880.3556,1012240.2224858,9
1659692880.3556,1012240.2224886,11
1659692880.3556,1012240.2224915,19
1659692880.3556,1012240.2224944,33
1659692880.3556,1012240.2224971,57
1659692880.3556,1012240.2224999,73
1659692880.3556,1012240.2225027,71
1659692880.3556,1012240.2225055,73
1659692880.3556,1012240.2225083,78
1659692880.3556,1012240.2225112,52
1659692880.3556,1012240.222514,30
1659692880.3556,1012240.2225168,35
1659692880.3556,1012240.2225198,30
1659692880.3556,1012240.2225225,19
1659692880.3556,1012240.2225254,26
1659692880.3556,1012240.2225283,33
1659692880.3556,1012240.2225311,28
1659692880.3556,1012240.222534,11
1659692880.3556,1012240.2225368,-33
1659692880.3556,1012240.2225397,-35
1659692880.3556,1012240.2225426,238
1659692880.36657,1012240.2225457,846
1659692880.36657,1012240.2225485,1213
1659692880.36657,1012240.2225514,712
1659692880.36657,1012240.2225557,-126
1659692880.36657,1012240.2225608,-309
1659692880.36657,1012240.2225695,-42
1659692880.36657,1012240.2225758,7
1659692880.36657,1012240.222578,-50
1659692880.36657,1012240.2225802,0
1659692880.36657,1012240.2225822,26
1659692880.36657,1012240.2225879,4
1659692880.36657,1012240.2226011,21
1659692880.36657,1012240.2226073,45
1659692880.36657,1012240.8071575,45
1659692880.36657,1012240.8071773,54
1659692880.36657,1012240.807187,69
1659692880.36657,1012240.8071934,73
1659692880.36657,1012240.8071977,85
1659692880.36657,1012240.8072039,100
1659692880.36657,1012240.8072085,104
1659692880.36657,1012240.8072148,114
1659692880.36657,1012240.8072199,131
1659692880.36657,1012240.8072243,133
1659692880.36657,1012240.8072305,135
1659692880.88792,1012240.8072349,147
1659692880.88792,1012240.8072395,154
1659692880.88792,1012240.8072437,159
1659692880.88792,1012240.8072479,171
1659692880.88792,1012240.807252,178
1659692880.88792,1012240.807256,164
1659692880.88792,1012240.8072597,157
1659692880.88792,1012240.8072636,159
1659692880.88792,1012240.8072674,143
1659692880.88792,1012240.8072712,109
1659692880.88792,1012240.8072751,71
1659692880.88792,1012240.807279,11
1659692880.88792,1012240.8072829,-40
1659692880.88792,1012240.8072886,-47
1659692880.88792,1012240.8072946,-47
1659692880.88792,1012240.8072982,-54
1659692880.88792,1012240.8073072,-45
1659692880.88792,1012240.8073156,-35
1659692880.88792,1012240.8073236,-35
1659692880.88792,1012240.8073288,-26
1659692880.88792,1012240.8073346,-11
1659692880.88792,1012240.8073426,2
1659692880.88792,1012240.8073475,9
1659692880.88792,1012240.8073544,16
1659692880.88792,1012240.807361,21
1659692880.88792,1012240.8073657,28
1659692880.88792,1012240.8073705,35
1659692880.88792,1012240.8073777,42
1659692880.88792,1012240.8073844,47
1659692880.88792,1012240.8073891,50
1659692880.88792,1012240.8073958,52
1659692880.88792,1012240.8074007,50
1659692880.88792,1012240.8074078,54
1659692880.88792,1012240.8074128,57
1659692880.88792,1012240.8074176,59
1659692880.88792,1012240.8074245,61
1659692880.88792,1012240.8074292,61
1659692880.88792,1012240.8074363,54
1659692880.88792,1012240.8074411,47
1659692880.88792,1012240.8074475,42
1659692880.88792,1012240.8074523,38
1659692880.88792,1012240.807457,35
1659692880.88792,1012240.8074633,28
1659692880.88792,1012240.8074682,14
1659692880.88792,1012240.8074745,19
1659692880.88792,1012240.8074847,45
1659692880.88792,1012240.8074907,64
1659692880.88792,1012240.8074946,73
1659692880.88792,1012240.8074986,69
1659692880.88792,1012240.8075026,57
1659692880.8979,1012240.8075079,40
1659692880.8979,1012240.8075125,33
1659692880.8979,1012240.8075177,35
1659692880.8979,1012240.8075216,38
1659692880.8979,1012240.807525,35
1659692880.8979,1012240.8075285,33
1659692880.8979,1012240.8075343,33
1659692880.8979,1012240.8075385,35
1659692880.8979,1012240.8075432,28
1659692880.8979,1012240.8075467,-7
1659692880.8979,1012240.8075502,-21
1659692880.8979,1012240.8075537,176
1659692880.8979,1012241.341296,720
1659692880.8979,1012241.3413081,1163
1659692880.8979,1012241.3413122,803
1659692880.8979,1012241.3413147,-26
1659692880.8979,1012241.341317,-298
1659692880.8979,1012241.3413193,-47
1659692880.8979,1012241.3413214,23
1659692880.8979,1012241.3413237,-47
1659692880.8979,1012241.3413259,-2
1659692880.8979,1012241.341328,38
1659692880.8979,1012241.3413301,7
1659692880.8979,1012241.3413324,7
1659692881.42371,1012241.3413378,28
1659692881.42371,1012241.3413403,9
1659692881.42371,1012241.341346,-4
1659692881.42371,1012241.3413558,9
1659692881.42371,1012241.3413602,26
1659692881.42371,1012241.3413623,38
1659692881.42371,1012241.3413642,50
1659692881.42371,1012241.3413661,61
1659692881.42371,1012241.3413679,76
1659692881.42371,1012241.3413698,95
1659692881.42371,1012241.3413717,104
1659692881.42371,1012241.3413736,119
1659692881.42371,1012241.3413754,135
1659692881.42371,1012241.3413774,143
1659692881.42371,1012241.3413793,135
1659692881.42371,1012241.3413813,145
1659692881.42371,1012241.3413833,159
1659692881.42371,1012241.3413853,166
1659692881.42371,1012241.3413874,176
1659692881.42371,1012241.3413895,185
1659692881.42371,1012241.3413915,171
1659692881.42371,1012241.3413935,140
1659692881.42371,1012241.3413994,107
1659692881.42371,1012241.3414104,76
1659692881.42371,1012241.3414157,47
1659692881.42371,1012241.3414178,26
1659692881.42371,1012241.3414199,11
1659692881.42371,1012241.3414219,4
1659692881.42371,1012241.3414239,4
1659692881.42371,1012241.3414259,4
1659692881.42371,1012241.341428,4
1659692881.42371,1012241.3414376,11
1659692881.42371,1012241.3414463,19
1659692881.42371,1012241.3414488,26
1659692881.42371,1012241.3414509,40
1659692881.42371,1012241.341453,50
1659692881.42371,1012241.3414555,47
1659692881.42371,1012241.3414654,54
1659692881.42371,1012241.3414735,66
1659692881.42371,1012241.341476,66
1659692881.42371,1012241.3414781,69
1659692881.42371,1012241.3414801,71
1659692881.42371,1012241.341482,69
1659692881.42371,1012241.341489,64
1659692881.42371,1012241.3414999,61
1659692881.42371,1012241.3415046,59
1659692881.42371,1012241.3415066,54
1659692881.42371,1012241.3415097,52
1659692881.42371,1012241.3415118,45
1659692881.42371,1012241.3415139,42
1659692881.43468,1012241.341516,42
1659692881.43468,1012241.341518,35
1659692881.43468,1012241.3415202,23
1659692881.43468,1012241.3415223,21
1659692881.43468,1012241.3415243,21
1659692881.43468,1012241.3415264,23
1659692881.43468,1012241.3415285,38
1659692881.43468,1012241.3415306,61
1659692881.43468,1012241.3415326,83
1659692881.43468,1012241.3415353,90
1659692881.43468,1012241.3415453,85
1659692881.43468,1012241.8779751,76
1659692881.43468,1012241.877997,57
1659692881.43468,1012241.8780041,47
1659692881.43468,1012241.878009,50
1659692881.43468,1012241.8780153,45
1659692881.43468,1012241.8780198,40
1659692881.43468,1012241.878026,40
1659692881.43468,1012241.8780305,40
1659692881.43468,1012241.8780362,35
1659692881.43468,1012241.8780414,2
1659692881.43468,1012241.8780476,-59
1659692881.43468,1012241.8780515,-26
1659692881.43468,1012241.8780576,307
1659692882.05965,1012241.8780618,913
1659692882.05965,1012241.8780659,1161
1659692882.05965,1012241.8780708,507
1659692882.05965,1012241.8780747,-314
1659692882.05965,1012241.878079,-360
1659692882.05965,1012241.8780827,-47
1659692882.05965,1012241.8780873,-16
1659692882.05965,1012241.8780917,-52
1659692882.05965,1012241.8780959,11
1659692882.05965,1012241.878102,21
1659692882.05965,1012241.8781066,2
1659692882.05965,1012241.8781129,30
1659692882.05965,1012241.8781167,52
1659692882.05965,1012241.8781218,52
1659692882.05965,1012241.8781263,69
1659692882.05965,1012241.8781314,83
1659692882.05965,1012241.8781353,83
1659692882.05965,1012241.8781407,95
1659692882.05965,1012241.8781483,116
1659692882.05965,1012241.8781558,128
1659692882.05965,1012241.8781626,131
1659692882.05965,1012241.8781679,138
1659692882.05965,1012241.8781714,154
1659692882.05965,1012241.8781747,169
1659692882.05965,1012241.8781795,183
1659692882.05965,1012241.8781827,197
1659692882.05965,1012241.8781868,207
1659692882.05965,1012241.8781947,212
1659692882.05965,1012241.8782035,219
1659692882.05965,1012241.8782138,228
1659692882.05965,1012241.8782234,233
1659692882.05965,1012241.8782259,231
1659692882.05965,1012241.8782281,207
1659692882.05965,1012241.8782347,169
1659692882.05965,1012241.8782453,128
1659692882.05965,1012241.8782527,88
1659692882.05965,1012241.878261,57
1659692882.05965,1012241.8782656,38

1659692882.05965,1012241.878271,28
1659692882.05965,1012241.8782742,19
1659692882.05965,1012241.8782796,19
1659692882.05965,1012241.878285,26
1659692882.05965,1012241.8782884,26
1659692882.05965,1012241.8782928,33
1659692882.05965,1012241.8782967,42
1659692882.05965,1012241.878302,47
1659692882.05965,1012241.8783071,57
1659692882.05965,1012241.8783151,66
1659692882.05965,1012241.8783265,64
1659692882.05965,1012241.8783341,64
1659692882.07162,1012241.8783381,71
1659692882.07162,1012241.8783433,66
1659692882.07162,1012241.8783479,57
1659692882.07162,1012241.8783523,52
1659692882.07162,1012241.8783577,45
1659692882.07162,1012241.878362,38
1659692882.07162,1012241.8783662,35
1659692882.07162,1012241.878372,33
1659692882.07162,1012241.8783766,16
1659692882.07162,1012241.87838,2
1659692882.07162,1012242.5116517,2
1659692882.07162,1012242.5116697,7
1659692882.07162,1012242.5116817,4
1659692882.07162,1012242.5116898,0
1659692882.07162,1012242.5116929,-4
1659692882.07162,1012242.5116959,-11
1659692882.07162,1012242.5116983,-23
1659692882.07162,1012242.5117003,-21
1659692882.07162,1012242.5117023,7
1659692882.07162,1012242.5117043,35
1659692882.07162,1012242.5117064,42
1659692882.07162,1012242.5117084,40
1659692882.07162,1012242.5117103,33
1659692882.07162,1012242.5117124,4
1659692882.59241,1012242.5117165,-11
1659692882.59241,1012242.5117262,-4
1659692882.59241,1012242.5117348,0
1659692882.59241,1012242.5117401,4
1659692882.59241,1012242.5117447,9
1659692882.59241,1012242.5117493,11
1659692882.59241,1012242.5117564,11
1659692882.59241,1012242.5117712,-9
1659692882.59241,1012242.511778,-54
1659692882.59241,1012242.5117832,9
1659692882.59241,1012242.5117896,402
1659692882.59241,1012242.5117958,1053
1659692882.59241,1012242.5118006,1227
1659692882.59241,1012242.5118069,469
1659692882.59241,1012242.5118118,-307
1659692882.59241,1012242.5118179,-264
1659692882.59241,1012242.5118256,9
1659692882.59241,1012242.5118351,-11
1659692882.59241,1012242.5118484,-40
1659692882.59241,1012242.5118542,23
1659692882.59241,1012242.5118565,30
1659692882.59241,1012242.5118586,23
1659692882.59241,1012242.5118606,50
1659692882.59241,1012242.5118627,61
1659692882.59241,1012242.5118648,59
1659692882.59241,1012242.5118669,69
1659692882.59241,1012242.5118759,88
1659692882.59241,1012242.5118842,102
1659692882.59241,1012242.5118866,109
1659692882.59241,1012242.5118955,123
1659692882.59241,1012242.5119039,133
1659692882.59241,1012242.5119071,140
1659692882.59241,1012242.5119177,154
1659692882.59241,1012242.511924,176
1659692882.59241,1012242.5119323,190
1659692882.59241,1012242.5119415,202
1659692882.59241,1012242.5119492,212
1659692882.59241,1012242.5119599,216
1659692882.59241,1012242.5119631,224
1659692882.59241,1012242.5119691,231
1659692882.59241,1012242.5119801,236
1659692882.59241,1012242.5119834,245
1659692882.59241,1012242.5119856,236
1659692882.59241,1012242.5119877,193
1659692882.59241,1012242.5119898,143
1659692882.59241,1012242.5119919,109
1659692882.59241,1012242.5119939,73
1659692882.59241,1012242.5119958,47
1659692882.59241,1012242.5119984,33
1659692882.59241,1012242.5120081,21
1659692882.60438,1012242.5120131,2
1659692882.60438,1012242.5120152,-7
1659692882.60438,1012242.5120176,2
1659692882.60438,1012242.512027,9
1659692882.60438,1012242.5120325,9
1659692882.60438,1012242.5120347,9
1659692882.60438,1012242.5120392,19
1659692882.60438,1012242.5120483,21
1659692882.60438,1012242.5120522,21
1659692882.60438,1012243.0506426,28
1659692882.60438,1012243.0506719,30
1659692882.60438,1012243.0506795,19
1659692882.60438,1012243.0506842,16
1659692882.60438,1012243.0507203,28
1659692882.60438,1012243.0507301,30
1659692882.60438,1012243.0507363,28
1659692882.60438,1012243.0507403,30
1659692882.60438,1012243.0507443,26
1659692882.60438,1012243.0507482,9
1659692882.60438,1012243.0507521,-7
1659692882.60438,1012243.050756,-4
1659692882.60438,1012243.0507598,4
1659692882.60438,1012243.0507638,0
1659692882.60438,1012243.0507678,-7
1659692883.13303,1012243.0507715,-11
1659692883.13303,1012243.0507754,-19
1659692883.13303,1012243.0507792,-14
1659692883.13303,1012243.050783,4
1659692883.13303,1012243.0507866,33
1659692883.13303,1012243.0507902,54
1659692883.13303,1012243.0507939,61
1659692883.13303,1012243.0507976,45
1659692883.13303,1012243.0508013,30
1659692883.13303,1012243.0508051,23
1659692883.13303,1012243.050809,14
1659692883.13303,1012243.0508127,11
1659692883.13303,1012243.0508163,21
1659692883.13303,1012243.0508198,19
1659692883.13303,1012243.0508234,21
1659692883.13303,1012243.0508269,30
1659692883.13303,1012243.0508305,33
1659692883.13303,1012243.050834,19
1659692883.13303,1012243.0508389,-23
1659692883.13303,1012243.0508452,-30
1659692883.13303,1012243.0508541,212
1659692883.13303,1012243.0508612,820
1659692883.13303,1012243.05087,1285
1659692883.13303,1012243.0508782,860
1659692883.13303,1012243.0508842,-35
1659692883.13303,1012243.0508909,-302
1659692883.13303,1012243.050894,-38
1659692883.13303,1012243.0508969,35
1659692883.13303,1012243.0509001,-26
1659692883.13303,1012243.0509071,19
1659692883.13303,1012243.0509174,50
1659692883.13303,1012243.0509297,30
1659692883.13303,1012243.0509397,40
1659692883.13303,1012243.050947,57
1659692883.13303,1012243.0509511,59
1659692883.13303,1012243.0509642,71
1659692883.13303,1012243.0509763,88
1659692883.13303,1012243.0509894,95
1659692883.13303,1012243.0509983,100
1659692883.13303,1012243.0510051,112
1659692883.13303,1012243.0510083,126
1659692883.13303,1012243.0510206,135
1659692883.13303,1012243.0510287,135
1659692883.13303,1012243.0510359,135
1659692883.13303,1012243.0510483,147
1659692883.13303,1012243.0510561,157
1659692883.13303,1012243.0510618,166
1659692883.13303,1012243.051071,181
1659692883.13303,1012243.0510797,190
1659692883.13303,1012243.051088,197
1659692883.144,1012243.0510955,209
1659692883.144,1012243.0511054,214
1659692883.144,1012243.0511132,207
1659692883.144,1012243.0511197,190
1659692883.144,1012243.0511261,159
1659692883.144,1012243.0511299,123
1659692883.144,1012243.051136,88
1659692883.144,1012243.0511408,61
1659692883.144,1012243.5850299,38
1659692883.144,1012243.5850549,16
1659692883.144,1012243.5850639,11
1659692883.144,1012243.5850717,16
1659692883.144,1012243.585079,16
1659692883.144,1012243.5850844,16
1659692883.144,1012243.5850897,19
1659692883.144,1012243.5850936,11
1659692883.144,1012243.5850974,11
1659692883.144,1012243.5851046,19
1659692883.144,1012243.58511,21
1659692883.144,1012243.5851141,19
1659692883.144,1012243.5851187,9
1659692883.144,1012243.585127,-7
1659692883.144,1012243.585135,-11
1659692883.144,1012243.585145,0
1659692883.71039,1012243.5851551,4
1659692883.71039,1012243.5851621,7
1659692883.71039,1012243.5851676,7
1659692883.71039,1012243.5851728,-2
1659692883.71039,1012243.5851777,-4
1659692883.71039,1012243.5851825,4
1659692883.71039,1012243.5851874,9
1659692883.71039,1012243.5851924,9
1659692883.71039,1012243.5851978,7
1659692883.71039,1012243.5852053,-9
1659692883.71039,1012243.5852101,-21
1659692883.71039,1012243.5852169,-16
1659692883.71039,1012243.5852224,-14
1659692883.71039,1012243.5852289,-14
1659692883.71039,1012243.585236,-7
1659692883.71039,1012243.5852427,4
1659692883.71039,1012243.5852478,26
1659692883.71039,1012243.5852546,57
1659692883.71039,1012243.5852593,66
1659692883.71039,1012243.5852661,66
1659692883.71039,1012243.5852711,66
1659692883.71039,1012243.5852775,54
1659692883.71039,1012243.5852823,40
1659692883.71039,1012243.5852889,38
1659692883.71039,1012243.5852993,40
1659692883.71039,1012243.5853069,42
1659692883.71039,1012243.5853092,50
1659692883.71039,1012243.585312,52
1659692883.71039,1012243.5853223,50
1659692883.71039,1012243.5853301,38
1659692883.71039,1012243.5853349,4
1659692883.71039,1012243.5853469,4
1659692883.71039,1012243.5853585,236
1659692883.71039,1012243.5853671,789
1659692883.71039,1012243.5853775,1173
1659692883.71039,1012243.5853884,736
1659692883.71039,1012243.5853939,-69
1659692883.71039,1012243.5853963,-262
1659692883.71039,1012243.5853985,-9
1659692883.71039,1012243.5854056,38
1659692883.71039,1012243.585416,-14
1659692883.71039,1012243.5854224,35
1659692883.71039,1012243.5854318,57
1659692883.71039,1012243.5854397,38
1659692883.71039,1012243.5854496,54
1659692883.71039,1012243.58546,76
1659692883.71039,1012243.5854671,76
1659692883.71039,1012243.5854791,83
1659692883.71039,1012243.5854896,95
1659692883.71039,1012243.5854988,104
1659692883.72136,1012243.5855089,114
1659692883.72136,1012243.5855191,123
1659692883.72136,1012243.5855282,133
1659692883.72136,1012243.5855383,147
1659692883.72136,1012243.5855481,157
1659692883.72136,1012243.5855575,157
1659692883.72136,1012243.5855676,166
1659692883.72136,1012244.1698707,176
1659692883.72136,1012244.1698899,185
1659692883.72136,1012244.1698977,200
1659692883.72136,1012244.1699044,212
1659692883.72136,1012244.1699083,214
1659692883.72136,1012244.169912,216
1659692883.72136,1012244.169916,221
1659692883.72136,1012244.1699218,228
1659692883.72136,1012244.1699265,219
1659692883.72136,1012244.1699336,176
1659692883.72136,1012244.1699393,114
1659692883.72136,1012244.1699438,73
1659692883.72136,1012244.1699491,47
1659692883.72136,1012244.1699527,23
1659692883.72136,1012244.1699563,9
1659692883.72136,1012244.1699602,-7
1659692883.72136,1012244.1699638,-30
1659692884.25604,1012244.1699696,-38
1659692884.25604,1012244.1699733,-28
1659692884.25604,1012244.1699772,-23
1659692884.25604,1012244.169981,-21
1659692884.25604,1012244.1699847,-19
1659692884.25604,1012244.1699884,-21
1659692884.25604,1012244.169992,-21
1659692884.25604,1012244.1699954,-14
1659692884.25604,1012244.1699989,-9
1659692884.25604,1012244.1700023,-4
1659692884.25604,1012244.1700063,0
1659692884.25604,1012244.1700101,0
1659692884.25604,1012244.1700138,-7
1659692884.25604,1012244.1700177,-9
1659692884.25604,1012244.1700215,-7
1659692884.25604,1012244.1700253,-7
1659692884.25604,1012244.1700289,-2
1659692884.25604,1012244.1700324,0
1659692884.25604,1012244.1700358,-4
1659692884.25604,1012244.1700394,-2
1659692884.25604,1012244.170043,4
1659692884.25604,1012244.1700482,7
1659692884.25604,1012244.1700516,9
1659692884.25604,1012244.1700551,9
1659692884.25604,1012244.1700586,2
1659692884.25604,1012244.1700621,2
1659692884.25604,1012244.1700676,2
1659692884.25604,1012244.1700737,0
1659692884.25604,1012244.1700796,26
1659692884.25604,1012244.1700844,57
1659692884.25604,1012244.1700885,57
1659692884.25604,1012244.1700926,47
1659692884.25604,1012244.1700976,52
1659692884.25604,1012244.1701022,50
1659692884.25604,1012244.1701057,38
1659692884.25604,1012244.1701089,38
1659692884.25604,1012244.1701122,42
1659692884.25604,1012244.1701156,42
1659692884.25604,1012244.170121,42
1659692884.25604,1012244.1701244,50
1659692884.25604,1012244.1701276,57
1659692884.25604,1012244.1701312,40
1659692884.25604,1012244.1701346,-2
1659692884.25604,1012244.1701382,16
1659692884.25604,1012244.1701417,305
1659692884.25604,1012244.1701449,889
1659692884.25604,1012244.1701483,1173
1659692884.25604,1012244.1701518,598
1659692884.25604,1012244.1701552,-190
1659692884.25604,1012244.1701586,-269
1659692884.26702,1012244.170162,4
1659692884.26702,1012244.1701655,26
1659692884.26702,1012244.170169,-11
1659692884.26702,1012244.1701725,54
1659692884.26702,1012244.1701758,69
1659692884.26702,1012244.1701793,42
1659692884.26702,1012244.7071563,57
1659692884.26702,1012244.7071753,78
1659692884.26702,1012244.7071916,81
1659692884.26702,1012244.7072055,90
1659692884.26702,1012244.7072177,104
1659692884.26702,1012244.7072237,112
1659692884.26702,1012244.7072283,116
1659692884.26702,1012244.7072326,123
1659692884.26702,1012244.707238,138
1659692884.26702,1012244.7072451,150
1659692884.26702,1012244.7072507,159
1659692884.26702,1012244.7072545,169
1659692884.26702,1012244.7072583,171
1659692884.26702,1012244.7072615,162
1659692884.26702,1012244.7072659,166
1659692884.26702,1012244.7072729,190
1659692884.26702,1012244.7072776,200
1659692884.26702,1012244.7072812,202
1659692884.78285,1012244.7072852,209
1659692884.78285,1012244.7072887,209
1659692884.78285,1012244.7072921,200
1659692884.78285,1012244.7072972,178
1659692884.78285,1012244.7073011,143
1659692884.78285,1012244.7073043,100
1659692884.78285,1012244.7073087,61
1659692884.78285,1012244.7073124,21
1659692884.78285,1012244.7073156,-4
1659692884.78285,1012244.7073189,-11
1659692884.78285,1012244.7073225,-19
1659692884.78285,1012244.7073255,-26
1659692884.78285,1012244.7073303,-19
1659692884.78285,1012244.7073353,-14
1659692884.78285,1012244.7073397,-19
1659692884.78285,1012244.7073464,-19
1659692884.78285,1012244.707354,-9
1659692884.78285,1012244.7073573,-7
1659692884.78285,1012244.7073635,-16
1659692884.78285,1012244.7073666,-19
1659692884.78285,1012244.7073715,-11
1659692884.78285,1012244.7073769,-7
1659692884.78285,1012244.7073809,-7
1659692884.78285,1012244.7073845,-2
1659692884.78285,1012244.7073881,4
1659692884.78285,1012244.7073943,7
1659692884.78285,1012244.7073988,4
1659692884.78285,1012244.7074038,0
1659692884.78285,1012244.7074119,4
1659692884.78285,1012244.7074182,11
1659692884.78285,1012244.7074248,14
1659692884.78285,1012244.7074284,14
1659692884.78285,1012244.7074327,11
1659692884.78285,1012244.7074393,7
1659692884.78285,1012244.7074431,2
1659692884.78285,1012244.7074485,-4
1659692884.78285,1012244.7074528,4
1659692884.78285,1012244.7074595,40
1659692884.78285,1012244.7074644,69
1659692884.78285,1012244.7074715,71
1659692884.78285,1012244.70748,66
1659692884.78285,1012244.7074871,57
1659692884.78285,1012244.7074894,50
1659692884.78285,1012244.7074915,54
1659692884.78285,1012244.7074936,54
1659692884.78285,1012244.7074956,45
1659692884.78285,1012244.7075029,45
1659692884.78285,1012244.7075141,54
1659692884.78285,1012244.7075239,61
1659692884.78285,1012244.7075319,64
1659692884.79382,1012244.7075445,40
1659692884.79382,1012244.7075574,-11
1659692884.79382,1012244.7075703,42
1659692884.79382,1012244.7075831,424
1659692884.79382,1012244.7075962,1049
1659692884.79382,1012245.2419544,1199
1659692884.79382,1012245.2419756,433
1659692884.79382,1012245.2419864,-331
1659692884.79382,1012245.2419935,-269
1659692884.79382,1012245.2420024,23
1659692884.79382,1012245.242009,21
1659692884.79382,1012245.2420167,7
1659692884.79382,1012245.2420253,76
1659692884.79382,1012245.2420332,73
1659692884.79382,1012245.2420373,47
1659692884.79382,1012245.2420417,57
1659692884.79382,1012245.2420451,69
1659692884.79382,1012245.2420512,66
1659692884.79382,1012245.2420545,73
1659692884.79382,1012245.2420614,95
1659692884.79382,1012245.2420662,95
1659692884.79382,1012245.242073,78
1659692884.79382,1012245.2420764,85
1659692884.79382,1012245.2420823,109
1659692885.3654,1012245.2420892,123
1659692885.3654,1012245.2420963,133
1659692885.3654,1012245.2421031,150
1659692885.3654,1012245.2421101,150
1659692885.3654,1012245.2421142,150
1659692885.3654,1012245.2421204,171
1659692885.3654,1012245.2421268,185
1659692885.3654,1012245.2421337,193
1659692885.3654,1012245.2421403,205
1659692885.3654,1012245.2421465,205
1659692885.3654,1012245.2421527,195
1659692885.3654,1012245.2421588,185
1659692885.3654,1012245.242165,162
1659692885.3654,1012245.2421715,119
1659692885.3654,1012245.2421774,71
1659692885.3654,1012245.2421824,28
1659692885.3654,1012245.2421877,0
1659692885.3654,1012245.2421911,-14
1659692885.3654,1012245.242194,-14
1659692885.3654,1012245.2421968,-14
1659692885.3654,1012245.2421997,-19
1659692885.3654,1012245.2422025,-23
1659692885.3654,1012245.2422054,-26
1659692885.3654,1012245.2422082,-14
1659692885.3654,1012245.2422112,-4
1659692885.3654,1012245.242214,-9
1659692885.3654,1012245.2422168,-9
1659692885.3654,1012245.2422196,-2
1659692885.3654,1012245.2422224,0
1659692885.3654,1012245.2422251,-4
1659692885.3654,1012245.242228,2
1659692885.3654,1012245.2422307,9
1659692885.3654,1012245.2422337,11
1659692885.3654,1012245.2422364,11
1659692885.3654,1012245.2422393,16
1659692885.3654,1012245.2422446,14
1659692885.3654,1012245.2422539,11
1659692885.3654,1012245.24226,16
1659692885.3654,1012245.2422674,14
1659692885.3654,1012245.242271,0
1659692885.3654,1012245.2422781,-4
1659692885.3654,1012245.2422818,-2
1659692885.3654,1012245.2422869,9
1659692885.3654,1012245.2422926,35
1659692885.3654,1012245.2422958,61
1659692885.3654,1012245.2423019,66
1659692885.3654,1012245.2423063,69
1659692885.3654,1012245.2423132,66
1659692885.3654,1012245.2423204,50
1659692885.3654,1012245.2423264,40
1659692885.37836,1012245.2423339,47
1659692885.37836,1012245.2423372,47
1659692885.37836,1012245.2423432,42
1659692885.37836,1012245.2423461,50
1659692885.37836,1012245.8266804,57
1659692885.37836,1012245.8266993,52
1659692885.37836,1012245.826704,26
1659692885.37836,1012245.8267118,-30
1659692885.37836,1012245.8267159,-2
1659692885.37836,1012245.8267201,355
1659692885.37836,1012245.8267239,1020
1659692885.37836,1012245.8267281,1306
1659692885.37836,1012245.8267323,624
1659692885.37836,1012245.8267402,-257
1659692885.37836,1012245.8267484,-319
1659692885.37836,1012245.8267613,-11
1659692885.37836,1012245.8267744,-19
1659692885.37836,1012245.8267883,-83
1659692885.37836,1012245.8268026,-9
1659692885.37836,1012245.8268077,7
1659692885.37836,1012245.8268099,-14
1659692885.37836,1012245.826812,16
1659692885.37836,1012245.8268141,33
1659692885.37836,1012245.8268161,26
1659692885.96607,1012245.8268181,40
1659692885.96607,1012245.8268201,52
1659692885.96607,1012245.8268219,47
1659692885.96607,1012245.8268238,57
1659692885.96607,1012245.8268257,76
1659692885.96607,1012245.8268277,85
1659692885.96607,1012245.8268296,95
1659692885.96607,1012245.8268315,114
1659692885.96607,1012245.8268333,128
1659692885.96607,1012245.8268352,143
1659692885.96607,1012245.826837,164
1659692885.96607,1012245.826839,174
1659692885.96607,1012245.8268409,181
1659692885.96607,1012245.8268427,193
1659692885.96607,1012245.8268446,197
1659692885.96607,1012245.8268464,195
1659692885.96607,1012245.8268484,197
1659692885.96607,1012245.8268503,195
1659692885.96607,1012245.8268523,166
1659692885.96607,1012245.8268541,121
1659692885.96607,1012245.8268574,81
1659692885.96607,1012245.8268617,50
1659692885.96607,1012245.8268664,28
1659692885.96607,1012245.8268711,14
1659692885.96607,1012245.8268756,2
1659692885.96607,1012245.8268801,-2
1659692885.96607,1012245.8268852,2
1659692885.96607,1012245.8268914,9
1659692885.96607,1012245.8268952,19
1659692885.96607,1012245.8268983,30
1659692885.96607,1012245.8269012,38
1659692885.96607,1012245.8269041,40
1659692885.96607,1012245.826907,42
1659692885.96607,1012245.82691,50
1659692885.96607,1012245.8269128,57
1659692885.96607,1012245.8269158,64
1659692885.96607,1012245.8269187,61
1659692885.96607,1012245.8269216,52
1659692885.96607,1012245.8269245,52
1659692885.96607,1012245.8269275,50
1659692885.96607,1012245.8269303,45
1659692885.96607,1012245.8269332,42
1659692885.96607,1012245.826936,42
1659692885.96607,1012245.826939,33
1659692885.96607,1012245.8269418,23
1659692885.96607,1012245.8269447,19
1659692885.96607,1012245.8269476,23
1659692885.96607,1012245.8269505,33
1659692885.96607,1012245.8269534,52
1659692885.96607,1012245.8269608,71
1659692885.98004,1012245.8269628,71
1659692885.98004,1012245.826967,66
1659692885.98004,1012245.8269691,64
1659692885.98004,1012246.4132468,47
1659692885.98004,1012246.4132606,40
1659692885.98004,1012246.4132658,45
1659692885.98004,1012246.413268,40
1659692885.98004,1012246.4132701,42
1659692885.98004,1012246.4132722,52
1659692885.98004,1012246.4132742,52
1659692885.98004,1012246.4132763,47
1659692885.98004,1012246.4132782,14
1659692885.98004,1012246.4132802,-52
1659692885.98004,1012246.4132822,16
1659692885.98004,1012246.4132841,488
1659692885.98004,1012246.4132859,1173
1659692885.98004,1012246.4132898,1230
1659692885.98004,1012246.4132938,376
1659692885.98004,1012246.4132982,-348
1659692885.98004,1012246.4133027,-255
1659692885.98004,1012246.4133131,-21
1659692885.98004,1012246.4133203,-71
1659692885.98004,1012246.4133246,-81
1659692885.98004,1012246.4133287,-11
1659692886.49034,1012246.4133346,-23
1659692886.49034,1012246.4133379,-33
1659692886.49034,1012246.4133417,2
1659692886.49034,1012246.4133454,11
1659692886.49034,1012246.4133492,11
1659692886.49034,1012246.4133529,26
1659692886.49034,1012246.4133567,33
1659692886.49034,1012246.41336,35
1659692886.49034,1012246.4133635,54
1659692886.49034,1012246.4133669,71
1659692886.49034,1012246.41337,81
1659692886.49034,1012246.4133737,97
1659692886.49034,1012246.4133775,112
1659692886.49034,1012246.4133829,121
1659692886.49034,1012246.4133867,133
1659692886.49034,1012246.4133901,152
1659692886.49034,1012246.4133932,166
1659692886.49034,1012246.4133965,176
1659692886.49034,1012246.4133996,190
1659692886.49034,1012246.4134028,195
1659692886.49034,1012246.4134058,195
1659692886.49034,1012246.4134091,200
1659692886.49034,1012246.4134149,197
1659692886.49034,1012246.4134186,169
1659692886.49034,1012246.4134255,131
1659692886.49034,1012246.4134307,97
1659692886.49034,1012246.4134364,61
1659692886.49034,1012246.413443,35
1659692886.49034,1012246.4134486,26
1659692886.49034,1012246.4134522,23
1659692886.49034,1012246.4134557,23
1659692886.49034,1012246.413459,28
1659692886.49034,1012246.4134642,30
1659692886.49034,1012246.4134705,38
1659692886.49034,1012246.4134742,45
1659692886.49034,1012246.4134792,54
1659692886.49034,1012246.4134859,59
1659692886.49034,1012246.4134896,61
1659692886.49034,1012246.4134949,66
1659692886.49034,1012246.413498,69
1659692886.49034,1012246.4135011,71
1659692886.49034,1012246.4135044,73
1659692886.49034,1012246.4135075,73
1659692886.49034,1012246.4135107,76
1659692886.49034,1012246.4135136,76
1659692886.49034,1012246.413517,73
1659692886.49034,1012246.4135211,66
1659692886.49034,1012246.4135262,52
1659692886.49034,1012246.4135302,45
1659692886.49034,1012246.4135334,45
1659692886.50231,1012246.4135367,35
1659692886.50231,1012246.4135407,38
1659692886.50231,1012246.9502514,59
1659692886.50231,1012246.9502737,76
1659692886.50231,1012246.9502817,83
1659692886.50231,1012246.9503305,83
1659692886.50231,1012246.9503437,78
1659692886.50231,1012246.9503575,66
1659692886.50231,1012246.9503666,45
1659692886.50231,1012246.9503776,28
1659692886.50231,1012246.950387,21
1659692886.50231,1012246.9503937,21
1659692886.50231,1012246.9504003,30
1659692886.50231,1012246.9504094,33
1659692886.50231,1012246.9504205,16
1659692886.50231,1012246.9504285,-16
1659692886.50231,1012246.9504393,-64
1659692886.50231,1012246.9504477,-71
1659692886.50231,1012246.9504543,154
1659692886.50231,1012246.9504608,736
1659692886.50231,1012246.9504675,1180
1659692886.50231,1012246.9504716,765
1659692886.50231,1012246.9504773,-102
1659692886.50231,1012246.950481,-338
1659692887.08089,1012246.9504857,-66
1659692887.08089,1012246.9504912,-2
1659692887.08089,1012246.9504966,-71
1659692887.08089,1012246.9505024,-33
1659692887.08089,1012246.9505092,-9
1659692887.08089,1012246.9505159,-23
1659692887.08089,1012246.9505227,-2
1659692887.08089,1012246.9505264,21
1659692887.08089,1012246.9505317,23
1659692887.08089,1012246.9505364,28
1659692887.08089,1012246.9505413,42
1659692887.08089,1012246.9505481,54
1659692887.08089,1012246.9505554,69
1659692887.08089,1012246.9505624,85
1659692887.08089,1012246.9505707,97
1659692887.08089,1012246.9505786,107
1659692887.08089,1012246.9505839,116
1659692887.08089,1012246.9505936,128
1659692887.08089,1012246.9506015,143
1659692887.08089,1012246.9506072,157
1659692887.08089,1012246.9506111,169
1659692887.08089,1012246.9506143,178
1659692887.08089,1012246.9506172,183
1659692887.08089,1012246.9506201,193
1659692887.08089,1012246.9506229,205
1659692887.08089,1012246.9506257,214
1659692887.08089,1012246.9506309,214
1659692887.08089,1012246.9506368,193
1659692887.08089,1012246.9506431,152
1659692887.08089,1012246.9506494,114
1659692887.08089,1012246.9506552,85
1659692887.08089,1012246.950661,61
1659692887.08089,1012246.950667,42
1659692887.08089,1012246.9506739,33
1659692887.08089,1012246.9506807,28
1659692887.08089,1012246.9506869,28
1659692887.08089,1012246.9506951,33
1659692887.08089,1012246.9507024,42
1659692887.08089,1012246.9507093,50
1659692887.08089,1012246.9507158,54
1659692887.08089,1012246.9507227,64
1659692887.08089,1012246.9507287,71
1659692887.08089,1012246.9507346,73
1659692887.08089,1012246.9507412,78
1659692887.08089,1012246.950748,83
1659692887.08089,1012246.9507542,81
1659692887.08089,1012246.9507591,83
1659692887.08089,1012246.9507641,88
1659692887.08089,1012246.9507698,90
1659692887.08089,1012246.9507832,88
1659692887.09386,1012246.95079,78
1659692887.09386,1012247.5327218,61
1659692887.09386,1012247.5327371,59
1659692887.09386,1012247.5327563,61
1659692887.09386,1012247.5327631,50
1659692887.09386,1012247.5327665,35
1659692887.09386,1012247.5327716,38
1659692887.09386,1012247.5327768,54
1659692887.09386,1012247.5327811,73
1659692887.09386,1012247.5327846,78
1659692887.09386,1012247.5327879,54
1659692887.09386,1012247.5327912,28
1659692887.09386,1012247.5327946,19
1659692887.09386,1012247.5327979,9
1659692887.09386,1012247.5328014,-4
1659692887.09386,1012247.5328064,-4
1659692887.09386,1012247.5329809,-11
1659692887.09386,1012247.5329959,-23
1659692887.09386,1012247.5329996,-19
1659692887.09386,1012247.5330031,-9
1659692887.09386,1012247.5330077,-11
1659692887.09386,1012247.5330108,-35
1659692887.09386,1012247.533014,-85
1659692887.09386,1012247.5330198,-76
1659692887.66311,1012247.5330236,243
1659692887.66311,1012247.5330278,865
1659692887.66311,1012247.5330312,1123
1659692887.66311,1012247.5330355,498
1659692887.66311,1012247.5330408,-269
1659692887.66311,1012247.5330456,-302
1659692887.66311,1012247.5330498,-33
1659692887.66311,1012247.5330549,-38
1659692887.66311,1012247.5330613,-76
1659692887.66311,1012247.5330671,-9
1659692887.66311,1012247.5330709,0
1659692887.66311,1012247.5330747,-19
1659692887.66311,1012247.5330776,4
1659692887.66311,1012247.5330806,19
1659692887.66311,1012247.5330848,21
1659692887.66311,1012247.5330878,40
1659692887.66311,1012247.5330911,54
1659692887.66311,1012247.5330949,57
1659692887.66311,1012247.5331055,54
1659692887.66311,1012247.5331136,64
1659692887.66311,1012247.5331171,83
1659692887.66311,1012247.5331202,100
1659692887.66311,1012247.5331235,112
1659692887.66311,1012247.5331266,128
1659692887.66311,1012247.5331302,138
1659692887.66311,1012247.5331335,138
1659692887.66311,1012247.5331368,152
1659692887.66311,1012247.5331404,171
1659692887.66311,1012247.5331503,178
1659692887.66311,1012247.5331554,188
1659692887.66311,1012247.5331643,197
1659692887.66311,1012247.5331709,197
1659692887.66311,1012247.5331769,193
1659692887.66311,1012247.5331844,183
1659692887.66311,1012247.5331909,152
1659692887.66311,1012247.5331997,109
1659692887.66311,1012247.5332032,78
1659692887.66311,1012247.5332075,52
1659692887.66311,1012247.5332117,30
1659692887.66311,1012247.5332159,23
1659692887.66311,1012247.5332197,19
1659692887.66311,1012247.5332238,14
1659692887.66311,1012247.5332277,4
1659692887.66311,1012247.5332348,2
1659692887.66311,1012247.5332421,11
1659692887.66311,1012247.53325,21
1659692887.66311,1012247.5332546,33
1659692887.66311,1012247.5332592,50
1659692887.66311,1012247.5332639,57
1659692887.66311,1012247.5332674,47
1659692887.67409,1012248.1188439,42
1659692887.67409,1012248.1188685,54
1659692887.67409,1012248.1188785,64
1659692887.67409,1012248.1188843,66
1659692887.67409,1012248.1188877,69
1659692887.67409,1012248.1188908,61
1659692887.67409,1012248.1188947,40
1659692887.67409,1012248.1188986,28
1659692887.67409,1012248.1189023,35
1659692887.67409,1012248.118905,35
1659692887.67409,1012248.1189078,26
1659692887.67409,1012248.1189115,26
1659692887.67409,1012248.1189167,23
1659692887.67409,1012248.1189236,35
1659692887.67409,1012248.1189285,76
1659692887.67409,1012248.1189367,95
1659692887.67409,1012248.1189438,83
1659692887.67409,1012248.1189522,71
1659692887.67409,1012248.1189595,61
1659692887.67409,1012248.1189671,30
1659692887.67409,1012248.1189755,9
1659692887.67409,1012248.1189842,16
1659692887.67409,1012248.1189885,11
1659692887.67409,1012248.1189918,0
1659692888.1478,1012248.118996,2
1659692888.1478,1012248.1190029,0
1659692888.1478,1012248.1190099,-9
1659692888.1478,1012248.1190142,-33
1659692888.1478,1012248.1190195,-78
1659692888.1478,1012248.1190267,-26
1659692888.1478,1012248.1190317,357
1659692888.1478,1012248.1190378,991
1659692888.1478,1012248.1190434,1130
1659692888.1478,1012248.1190469,364
1659692888.1478,1012248.1190499,-374
1659692888.1478,1012248.1190527,-298
1659692888.1478,1012248.1190557,-16
1659692888.1478,1012248.1190608,-40
1659692888.1478,1012248.1190663,-54
1659692888.1478,1012248.1190715,19
1659692888.1478,1012248.1190782,14
1659692888.1478,1012248.1190814,0
1659692888.1478,1012248.1190842,33
1659692888.1478,1012248.1190872,47
1659692888.1478,1012248.1190901,47
1659692888.1478,1012248.1190929,59
1659692888.1478,1012248.1190957,76
1659692888.1478,1012248.1190984,81
1659692888.1478,1012248.1191013,92
1659692888.1478,1012248.1191041,109
1659692888.1478,1012248.1191069,123
1659692888.1478,1012248.1191099,131
1659692888.1478,1012248.1191127,140
1659692888.1478,1012248.1191155,157
1659692888.1478,1012248.1191183,174
1659692888.1478,1012248.1191211,183
1659692888.1478,1012248.1191238,195
1659692888.1478,1012248.1191266,207
1659692888.1478,1012248.1191294,202
1659692888.1478,1012248.1191323,195
1659692888.1478,1012248.1191352,212
1659692888.1478,1012248.119138,224
1659692888.1478,1012248.1191409,209
1659692888.1478,1012248.1191437,181
1659692888.1478,1012248.1191466,143
1659692888.1478,1012248.1191494,95
1659692888.1478,1012248.1191536,59
1659692888.1478,1012248.1191913,38
1659692888.1478,1012248.1192027,21
1659692888.1478,1012248.1192092,9
1659692888.1478,1012248.1192125,2
1659692888.1478,1012248.1192184,2
1659692888.1478,1012248.1192224,9
1659692888.1478,1012248.6057363,23
1659692888.15778,1012248.6057544,33
1659692888.15778,1012248.6057635,35
1659692888.15778,1012248.605769,42
1659692888.15778,1012248.6057784,52
1659692888.15778,1012248.6057846,59
1659692888.15778,1012248.6057911,69
1659692888.15778,1012248.6057954,78
1659692888.15778,1012248.6058,78
1659692888.15778,1012248.6058049,64
1659692888.15778,1012248.6058101,47
1659692888.15778,1012248.6058151,52
1659692888.15778,1012248.6058201,59
1659692888.15778,1012248.605825,54
1659692888.15778,1012248.6058299,50
1659692888.15778,1012248.6058347,33
1659692888.15778,1012248.6058396,7
1659692888.15778,1012248.605844,7
1659692888.15778,1012248.6058493,35
1659692888.15778,1012248.6058541,59
1659692888.15778,1012248.6058613,78
1659692888.15778,1012248.6058669,85
1659692888.15778,1012248.6058739,73
1659692888.15778,1012248.6058805,61
1659692888.15778,1012248.6058854,52
1659692888.7329,1012248.6058897,47
1659692888.7329,1012248.6058943,42
1659692888.7329,1012248.605899,38
1659692888.7329,1012248.6059037,33
1659692888.7329,1012248.6059085,33
1659692888.7329,1012248.6059133,38
1659692888.7329,1012248.6059182,30
1659692888.7329,1012248.605923,-11
1659692888.7329,1012248.6059273,-71
1659692888.7329,1012248.6059316,-2
1659692888.7329,1012248.605936,436
1659692888.7329,1012248.6059406,1099
1659692888.7329,1012248.6059454,1170
1659692888.7329,1012248.6059502,314
1659692888.7329,1012248.6059545,-398
1659692888.7329,1012248.6059605,-262
1659692888.7329,1012248.6059654,2
1659692888.7329,1012248.6059721,-45
1659692888.7329,1012248.6059779,-52
1659692888.7329,1012248.6059841,26
1659692888.7329,1012248.6059888,19
1659692888.7329,1012248.605995,0
1659692888.7329,1012248.6059996,26
1659692888.7329,1012248.6060042,38
1659692888.7329,1012248.6060107,40
1659692888.7329,1012248.6060155,50
1659692888.7329,1012248.6060218,50
1659692888.7329,1012248.6060261,52
1659692888.7329,1012248.6060322,69
1659692888.7329,1012248.606038,83
1659692888.7329,1012248.6060447,90
1659692888.7329,1012248.6060495,100
1659692888.7329,1012248.6060541,112
1659692888.7329,1012248.6060605,126
1659692888.7329,1012248.6060706,143
1659692888.7329,1012248.6060774,150
1659692888.7329,1012248.6060835,159
1659692888.7329,1012248.6060898,176
1659692888.7329,1012248.6060944,185
1659692888.7329,1012248.6061006,190
1659692888.7329,1012248.6061054,195
1659692888.7329,1012248.6061119,197
1659692888.7329,1012248.606117,185
1659692888.7329,1012248.6061236,162
1659692888.7329,1012248.6061284,121
1659692888.7329,1012248.6061346,78
1659692888.7329,1012248.6061391,50
1659692888.7329,1012248.6061455,30
1659692888.7329,1012249.1918733,14
1659692888.7329,1012249.1918917,7
1659692888.74353,1012249.1919014,9
1659692888.74353,1012249.1919186,11
1659692888.74353,1012249.1919274,14
1659692888.74353,1012249.19193,14
1659692888.74353,1012249.1919321,7
1659692888.74353,1012249.1919342,7
1659692888.74353,1012249.1919364,21
1659692888.74353,1012249.191942,30
1659692888.74353,1012249.1919533,38
1659692888.74353,1012249.1919588,45
1659692888.74353,1012249.1919624,42
1659692888.74353,1012249.1919645,19
1659692888.74353,1012249.1919665,9
1659692888.74353,1012249.1919722,16
1659692888.74353,1012249.1919833,21
1659692888.74353,1012249.1919867,21
1659692888.74353,1012249.1919889,19
1659692888.74353,1012249.1919909,7
1659692888.74353,1012249.1919976,4
1659692888.74353,1012249.1920087,14
1659692888.74353,1012249.1920119,33
1659692888.74353,1012249.192016,61
1659692888.74353,1012249.192018,78
1659692888.74353,1012249.1920295,76
1659692889.32161,1012249.1920375,73
1659692889.32161,1012249.1920399,73
1659692889.32161,1012249.1920419,61
1659692889.32161,1012249.1920471,52
1659692889.32161,1012249.1920569,54
1659692889.32161,1012249.1920619,54
1659692889.32161,1012249.1920728,50
1659692889.32161,1012249.1920788,52
1659692889.32161,1012249.1920837,50
1659692889.32161,1012249.1920888,45
1659692889.32161,1012249.1920935,14
1659692889.32161,1012249.192097,-45
1659692889.32161,1012249.1920992,30
1659692889.32161,1012249.1921013,505
1659692889.32161,1012249.1921044,1199
1659692889.32161,1012249.1921156,1254
1659692889.32161,1012249.1921225,369
1659692889.32161,1012249.1921249,-352
1659692889.32161,1012249.192127,-238
1659692889.32161,1012249.192129,-7
1659692889.32161,1012249.1921321,-73
1659692889.32161,1012249.192145,-88
1659692889.32161,1012249.1921506,-16
1659692889.32161,1012249.1921556,-23
1659692889.32161,1012249.1921708,-38
1659692889.32161,1012249.1921753,-7
1659692889.32161,1012249.1921774,2
1659692889.32161,1012249.1921793,4
1659692889.32161,1012249.1921845,26
1659692889.32161,1012249.1921946,40
1659692889.32161,1012249.1922001,40
1659692889.32161,1012249.1922023,54
1659692889.32161,1012249.1922045,71
1659692889.32161,1012249.1922065,83
1659692889.32161,1012249.1922086,92
1659692889.32161,1012249.1922107,109
1659692889.32161,1012249.1922132,123
1659692889.32161,1012249.1922237,128
1659692889.32161,1012249.1922368,140
1659692889.32161,1012249.1922454,162
1659692889.32161,1012249.1922505,169
1659692889.32161,1012249.1922559,169
1659692889.32161,1012249.1922594,178
1659692889.32161,1012249.1922627,181
1659692889.32161,1012249.1922676,181
1659692889.32161,1012249.1922709,181
1659692889.32161,1012249.1922747,154
1659692889.32161,1012249.7755705,116
1659692889.32161,1012249.7755887,81
1659692889.32161,1012249.7755936,50
1659692889.33458,1012249.7755977,26
1659692889.33458,1012249.7756015,9
1659692889.33458,1012249.7756059,0
1659692889.33458,1012249.7756096,0
1659692889.33458,1012249.7756131,4
1659692889.33458,1012249.7756166,7
1659692889.33458,1012249.7756202,-9
1659692889.33458,1012249.7756237,-14
1659692889.33458,1012249.7756273,7
1659692889.33458,1012249.7756308,21
1659692889.33458,1012249.7756343,21
1659692889.33458,1012249.7756377,30
1659692889.33458,1012249.7756412,28
1659692889.33458,1012249.7756447,11
1659692889.33458,1012249.7756482,16
1659692889.33458,1012249.7756517,35
1659692889.33458,1012249.7756552,40
1659692889.33458,1012249.7756586,38
1659692889.33458,1012249.775662,38
1659692889.33458,1012249.7756654,26
1659692889.33458,1012249.7756689,14
1659692889.33458,1012249.7756725,19
1659692889.33458,1012249.7756759,21
1659692889.33458,1012249.7756793,19
1659692889.9548,1012249.7756829,30
1659692889.9548,1012249.7756863,61

1659692889.9548,1012249.7756896,88
1659692889.9548,1012249.775693,90
1659692889.9548,1012249.7756963,88
1659692889.9548,1012249.7756998,88
1659692889.9548,1012249.7757031,76
1659692889.9548,1012249.7757065,57
1659692889.9548,1012249.7757098,50
1659692889.9548,1012249.7757131,40
1659692889.9548,1012249.7757164,28
1659692889.9548,1012249.7757199,26
1659692889.9548,1012249.7757238,30
1659692889.9548,1012249.7757271,28
1659692889.9548,1012249.7757305,9
1659692889.9548,1012249.7757338,-38
1659692889.9548,1012249.7757373,-50
1659692889.9548,1012249.7757406,190
1659692889.9548,1012249.7757439,796
1659692889.9548,1012249.7757472,1220
1659692889.9548,1012249.7757505,753
1659692889.9548,1012249.7757539,-119
1659692889.9548,1012249.7757573,-329
1659692889.9548,1012249.7757606,-50
1659692889.9548,1012249.7757639,0
1659692889.9548,1012249.7757673,-64
1659692889.9548,1012249.7757708,-9
1659692889.9548,1012249.7757741,14
1659692889.9548,1012249.7757773,-9
1659692889.9548,1012249.7757806,9
1659692889.9548,1012249.7757838,28
1659692889.9548,1012249.7757871,28
1659692889.9548,1012249.7757904,40
1659692889.9548,1012249.7757939,57
1659692889.9548,1012249.7757971,59
1659692889.9548,1012249.7758004,69
1659692889.9548,1012249.7758036,83
1659692889.9548,1012249.775807,97
1659692889.9548,1012249.7758101,109
1659692889.9548,1012249.7758135,119
1659692889.9548,1012249.775817,123
1659692889.9548,1012249.7758203,131
1659692889.9548,1012249.7758236,138
1659692889.9548,1012249.7758315,145
1659692889.9548,1012249.7758349,159
1659692889.9548,1012249.7758381,169
1659692889.9548,1012250.4097171,169
1659692889.9548,1012250.4097415,174
1659692889.9548,1012250.4097492,188
1659692889.9548,1012250.4097562,195
1659692889.96577,1012250.4097639,183
1659692889.96577,1012250.4097723,154
1659692889.96577,1012250.4097764,112
1659692889.96577,1012250.4097814,76
1659692889.96577,1012250.4097845,54
1659692889.96577,1012250.4097903,40
1659692889.96577,1012250.4098002,30
1659692889.96577,1012250.4098128,26
1659692889.96577,1012250.4098248,9
1659692889.96577,1012250.4098317,-9
1659692889.96577,1012250.4098373,2
1659692889.96577,1012250.4098512,23
1659692889.96577,1012250.4098637,26
1659692889.96577,1012250.4098716,35
1659692889.96577,1012250.4098787,35
1659692889.96577,1012250.4098899,14
1659692889.96577,1012250.4098981,14
1659692889.96577,1012250.4099069,33
1659692889.96577,1012250.409918,38
1659692889.96577,1012250.4099295,38
1659692889.96577,1012250.4099417,40
1659692889.96577,1012250.4099539,35
1659692889.96577,1012250.4099684,35
1659692889.96577,1012250.4099777,40
1659692890.43996,1012250.4099826,26
1659692890.43996,1012250.4099887,4
1659692890.43996,1012250.409999,0
1659692890.43996,1012250.4100066,0
1659692890.43996,1012250.4100115,-7
1659692890.43996,1012250.4100167,11
1659692890.43996,1012250.4100239,47
1659692890.43996,1012250.4100292,71
1659692890.43996,1012250.4100344,73
1659692890.43996,1012250.4100428,69
1659692890.43996,1012250.41005,64
1659692890.43996,1012250.4100563,54
1659692890.43996,1012250.4100675,47
1659692890.43996,1012250.4100783,47
1659692890.43996,1012250.4100887,47
1659692890.43996,1012250.4100994,42
1659692890.43996,1012250.4101087,40
1659692890.43996,1012250.4101174,45
1659692890.43996,1012250.4101283,50
1659692890.43996,1012250.410137,35
1659692890.43996,1012250.4101468,-16
1659692890.43996,1012250.4101566,-47
1659692890.43996,1012250.4101983,154
1659692890.43996,1012250.4102125,717
1659692890.43996,1012250.4102236,1180
1659692890.43996,1012250.4102303,805
1659692890.43996,1012250.4102374,-71
1659692890.43996,1012250.4102411,-360
1659692890.43996,1012250.4102449,-78
1659692890.43996,1012250.4102515,16
1659692890.43996,1012250.4102559,-54
1659692890.43996,1012250.4102619,-9
1659692890.43996,1012250.4102667,21
1659692890.43996,1012250.4102704,-9
1659692890.43996,1012250.4102733,7
1659692890.43996,1012250.4102763,33
1659692890.43996,1012250.4103102,28
1659692890.43996,1012250.4103162,40
1659692890.43996,1012250.4103194,61
1659692890.43996,1012250.4103227,64
1659692890.43996,1012250.4103258,71
1659692890.43996,1012250.4103289,83
1659692890.43996,1012250.410332,95
1659692890.43996,1012250.4103351,107
1659692890.43996,1012250.4103383,121
1659692890.43996,1012250.8981285,133
1659692890.43996,1012250.8981451,147
1659692890.43996,1012250.8981492,159
1659692890.43996,1012250.8981528,166
1659692890.43996,1012250.8981597,171
1659692890.44893,1012250.8981658,183
1659692890.44893,1012250.8981718,195
1659692890.44893,1012250.8981791,200
1659692890.44893,1012250.8981852,205
1659692890.44893,1012250.8981915,207
1659692890.44893,1012250.898196,195
1659692890.44893,1012250.8981995,169
1659692890.44893,1012250.898203,128
1659692890.44893,1012250.8982065,90
1659692890.44893,1012250.8982098,61
1659692890.44893,1012250.8982131,26
1659692890.44893,1012250.8982166,-11
1659692890.44893,1012250.89822,-14
1659692890.44893,1012250.8982234,-4
1659692890.44893,1012250.8982269,-9
1659692890.44893,1012250.8982302,-7
1659692890.44893,1012250.8982336,0
1659692890.44893,1012250.8982369,-4
1659692890.44893,1012250.8982404,-7
1659692890.44893,1012250.8982438,7
1659692890.44893,1012250.8982473,21
1659692890.44893,1012250.8982507,30
1659692890.44893,1012250.8982541,30
1659692890.44893,1012250.8982575,19
1659692890.9757,1012250.8982632,9
1659692890.9757,1012250.8982666,21
1659692890.9757,1012250.89827,28
1659692890.9757,1012250.8982736,30
1659692890.9757,1012250.8982788,33
1659692890.9757,1012250.898285,30
1659692890.9757,1012250.8982917,21
1659692890.9757,1012250.8982986,16
1659692890.9757,1012250.8983047,21
1659692890.9757,1012250.8983084,28
1659692890.9757,1012250.8983117,42
1659692890.9757,1012250.8983159,73
1659692890.9757,1012250.8983195,92
1659692890.9757,1012250.898323,92
1659692890.9757,1012250.8983266,95
1659692890.9757,1012250.89833,90
1659692890.9757,1012250.8983351,71
1659692890.9757,1012250.8983386,64
1659692890.9757,1012250.898342,66
1659692890.9757,1012250.8983456,66
1659692890.9757,1012250.898349,66
1659692890.9757,1012250.8983524,69
1659692890.9757,1012250.8983557,66
1659692890.9757,1012250.8983591,59
1659692890.9757,1012250.8983624,23
1659692890.9757,1012250.898366,-35
1659692890.9757,1012250.8983711,28
1659692890.9757,1012250.8983748,429
1659692890.9757,1012250.8983797,1058
1659692890.9757,1012250.8983831,1156
1659692890.9757,1012250.8983865,319
1659692890.9757,1012250.8983899,-424
1659692890.9757,1012250.8983953,-288
1659692890.9757,1012250.8984003,9
1659692890.9757,1012250.8984038,-23
1659692890.9757,1012250.898409,-30
1659692890.9757,1012250.8984125,50
1659692890.9757,1012250.898416,40
1659692890.9757,1012250.8984196,21
1659692890.9757,1012250.8984245,50
1659692890.9757,1012250.8984279,61
1659692890.9757,1012250.8984312,66
1659692890.9757,1012250.8984346,85
1659692890.9757,1012250.898438,92
1659692890.9757,1012251.4354697,95
1659692890.9757,1012251.4354926,109
1659692890.9757,1012251.4355003,123
1659692890.9757,1012251.435507,133
1659692890.9757,1012251.4355123,143
1659692890.9757,1012251.4355181,152
1659692890.98468,1012251.4355222,157
1659692890.98468,1012251.4355263,166
1659692890.98468,1012251.4355318,183
1659692890.98468,1012251.4355378,197
1659692890.98468,1012251.435542,202
1659692890.98468,1012251.4355459,197
1659692890.98468,1012251.4355496,190
1659692890.98468,1012251.4355534,176
1659692890.98468,1012251.4355572,169
1659692890.98468,1012251.4355636,162
1659692890.98468,1012251.4355678,131
1659692890.98468,1012251.4355737,85
1659692890.98468,1012251.4355776,33
1659692890.98468,1012251.4355815,-23
1659692890.98468,1012251.4355851,-50
1659692890.98468,1012251.4355889,-50
1659692890.98468,1012251.4355927,-59
1659692890.98468,1012251.4355963,-71
1659692890.98468,1012251.4356,-66
1659692890.98468,1012251.4356037,-57
1659692890.98468,1012251.4356074,-45
1659692890.98468,1012251.4356111,-30
1659692890.98468,1012251.4356166,-23
1659692890.98468,1012251.4356199,-21
1659692891.5175,1012251.4356231,-7
1659692891.5175,1012251.4356272,7
1659692891.5175,1012251.4356307,16
1659692891.5175,1012251.435634,23
1659692891.5175,1012251.4356377,30
1659692891.5175,1012251.4356412,35
1659692891.5175,1012251.4356447,40
1659692891.5175,1012251.4356484,38
1659692891.5175,1012251.4356519,35
1659692891.5175,1012251.4356553,40
1659692891.5175,1012251.4356588,45
1659692891.5175,1012251.4356622,30
1659692891.5175,1012251.4356658,30
1659692891.5175,1012251.4356693,50
1659692891.5175,1012251.4356727,66
1659692891.5175,1012251.4356761,73
1659692891.5175,1012251.4356794,83
1659692891.5175,1012251.4356828,83
1659692891.5175,1012251.4356863,71
1659692891.5175,1012251.4356897,64
1659692891.5175,1012251.4356931,59
1659692891.5175,1012251.4356965,61
1659692891.5175,1012251.4357001,66
1659692891.5175,1012251.4357039,69
1659692891.5175,1012251.4357091,66
1659692891.5175,1012251.4357146,71
1659692891.5175,1012251.435719,57
1659692891.5175,1012251.4357245,0
1659692891.5175,1012251.4357291,-28
1659692891.5175,1012251.4357346,188
1659692891.5175,1012251.4357393,772
1659692891.5175,1012251.4357444,1239
1659692891.5175,1012251.4357482,815
1659692891.5175,1012251.4357535,-138
1659692891.5175,1012251.4357573,-414
1659692891.5175,1012251.4357625,-81
1659692891.5175,1012251.4357662,19
1659692891.5175,1012251.4357715,-52
1659692891.5175,1012251.4357773,7
1659692891.5175,1012251.435787,50
1659692891.5175,1012251.4357923,19
1659692891.5175,1012251.4357944,19
1659692891.5175,1012251.4357965,42
1659692891.5175,1012251.9701932,45
1659692891.5175,1012251.9703342,57
1659692891.5175,1012251.9703455,69
1659692891.5175,1012251.9703503,66
1659692891.5175,1012251.9703546,69
1659692891.5175,1012251.9703808,83
1659692891.5175,1012251.9703891,92
1659692891.53147,1012251.9703935,95
1659692891.53147,1012251.9703972,95
1659692891.53147,1012251.9704007,104
1659692891.53147,1012251.9704041,112
1659692891.53147,1012251.9704101,116
1659692891.53147,1012251.9704153,128
1659692891.53147,1012251.9705054,145
1659692891.53147,1012251.9705118,164
1659692891.53147,1012251.9705154,147
1659692891.53147,1012251.9705192,119
1659692891.53147,1012251.9705229,133
1659692891.53147,1012251.9705266,154
1659692891.53147,1012251.9705298,126
1659692891.53147,1012251.970534,85
1659692891.53147,1012251.9705375,50
1659692891.53147,1012251.9705408,-11
1659692891.53147,1012251.9705445,-54
1659692891.53147,1012251.9705504,-42
1659692891.53147,1012251.9705541,-40
1659692891.53147,1012251.9705593,-57
1659692891.53147,1012251.9705633,-59
1659692891.53147,1012251.9705684,-57
1659692891.53147,1012251.9705717,-47
1659692891.53147,1012251.9705766,-23
1659692892.25128,1012251.9705798,-9
1659692892.25128,1012251.970583,-9
1659692892.25128,1012251.9705862,-11
1659692892.25128,1012251.9705895,-9
1659692892.25128,1012251.9705927,2
1659692892.25128,1012251.9705959,14
1659692892.25128,1012251.970599,21
1659692892.25128,1012251.9706024,30
1659692892.25128,1012251.9706056,28
1659692892.25128,1012251.9706088,19
1659692892.25128,1012251.9706119,19
1659692892.25128,1012251.9706149,21
1659692892.25128,1012251.9706179,21
1659692892.25128,1012251.9706209,33
1659692892.25128,1012251.9706238,52
1659692892.25128,1012251.9706267,61
1659692892.25128,1012251.9706299,61
1659692892.25128,1012251.9706333,69
1659692892.25128,1012251.9706369,81
1659692892.25128,1012251.9706406,76
1659692892.25128,1012251.9706441,61
1659692892.25128,1012251.9706474,61
1659692892.25128,1012251.9706509,76
1659692892.25128,1012251.9706544,78
1659692892.25128,1012251.9706583,59
1659692892.25128,1012251.9706619,50
1659692892.25128,1012251.970666,64
1659692892.25128,1012251.9706714,73
1659692892.25128,1012251.9706752,54
1659692892.25128,1012251.970679,4
1659692892.25128,1012251.9706826,30
1659692892.25128,1012251.9706894,381
1659692892.25128,1012251.9706932,1037
1659692892.25128,1012251.9706968,1213
1659692892.25128,1012251.9707022,453
1659692892.25128,1012251.9707059,-288
1659692892.25128,1012251.9707099,-205
1659692892.25128,1012251.9707143,69
1659692892.25128,1012251.9707189,26
1659692892.25128,1012251.970725,-9
1659692892.25128,1012251.9707312,69
1659692892.25128,1012251.9707366,71
1659692892.25128,1012252.7013669,28
1659692892.25128,1012252.7013819,35
1659692892.25128,1012252.7013853,59
1659692892.25128,1012252.7013906,61
1659692892.25128,1012252.7013929,64
1659692892.25128,1012252.7013969,73
1659692892.25128,1012252.7013993,66
1659692892.25128,1012252.7014015,69
1659692892.26524,1012252.7014037,90
1659692892.26524,1012252.7014059,102
1659692892.26524,1012252.7014081,104
1659692892.26524,1012252.7014103,114
1659692892.26524,1012252.7014125,109
1659692892.26524,1012252.7014148,109
1659692892.26524,1012252.701417,135
1659692892.26524,1012252.7014192,143
1659692892.26524,1012252.701422,143
1659692892.26524,1012252.7014242,150
1659692892.26524,1012252.7014267,150
1659692892.26524,1012252.7014329,147
1659692892.26524,1012252.7014465,154
1659692892.26524,1012252.7014566,152
1659692892.26524,1012252.7014618,123
1659692892.26524,1012252.7014687,83
1659692892.26524,1012252.701475,50
1659692892.26524,1012252.7014905,23
1659692892.26524,1012252.7014988,7
1659692892.26524,1012252.7015066,-9
1659692892.26524,1012252.7015173,-16
1659692892.26524,1012252.7015208,-11
1659692892.26524,1012252.7015249,-4
1659692892.26524,1012252.7015274,-2
1659692892.68753,1012252.70154,0
1659692892.68753,1012252.7015478,7
1659692892.68753,1012252.7015524,23
1659692892.68753,1012252.7015577,40
1659692892.68753,1012252.7015618,50
1659692892.68753,1012252.7015652,52
1659692892.68753,1012252.7015688,54
1659692892.68753,1012252.7015726,57
1659692892.68753,1012252.7015805,64
1659692892.68753,1012252.7015875,83
1659692892.68753,1012252.7015949,95
1659692892.68753,1012252.7015989,78
1659692892.68753,1012252.7016055,64
1659692892.68753,1012252.7016114,73
1659692892.68753,1012252.7016174,97
1659692892.68753,1012252.7016271,114
1659692892.68753,1012252.7016362,128
1659692892.68753,1012252.7016414,138
1659692892.68753,1012252.7016443,133
1659692892.68753,1012252.7016472,123
1659692892.68753,1012252.7016501,116
1659692892.68753,1012252.7016529,100
1659692892.68753,1012252.7016559,92
1659692892.68753,1012252.7016587,102
1659692892.68753,1012252.7016615,97
1659692892.68753,1012252.7016643,83
1659692892.68753,1012252.701667,83
1659692892.68753,1012252.7016698,90
1659692892.68753,1012252.7016726,88
1659692892.68753,1012252.7016755,40
1659692892.68753,1012252.7016783,-16
1659692892.68753,1012252.7016811,97
1659692892.68753,1012252.701684,600
1659692892.68753,1012252.7016868,1213
1659692892.68753,1012252.7016897,1087
1659692892.68753,1012252.7016925,209
1659692892.68753,1012252.7016956,-288
1659692892.68753,1012252.7016985,-88
1659692892.68753,1012252.7017013,57
1659692892.68753,1012252.7017041,-16
1659692892.68753,1012252.7017069,9
1659692892.68753,1012253.1395229,66
1659692892.68753,1012253.1395465,38
1659692892.68753,1012253.1395544,14
1659692892.68753,1012253.1395592,26
1659692892.68753,1012253.1395631,52
1659692892.68753,1012253.139569,69
1659692892.68753,1012253.1395753,64
1659692892.68753,1012253.1395817,52
1659692892.68753,1012253.1395883,40
1659692892.6975,1012253.1395917,47
1659692892.6975,1012253.1395947,71
1659692892.6975,1012253.1395977,95
1659692892.6975,1012253.1396006,102
1659692892.6975,1012253.1396053,112
1659692892.6975,1012253.1396102,121
1659692892.6975,1012253.1396171,114
1659692892.6975,1012253.1396221,112
1659692892.6975,1012253.1396311,131
1659692892.6975,1012253.13964,147
1659692892.6975,1012253.1396466,152
1659692892.6975,1012253.1396522,154
1659692892.6975,1012253.1396578,166
1659692892.6975,1012253.1396631,185
1659692892.6975,1012253.1396724,147
1659692892.6975,1012253.13968,57
1659692892.6975,1012253.1396896,38
1659692892.6975,1012253.1396959,61
1659692892.6975,1012253.1396983,7
1659692892.6975,1012253.1397056,-57
1659692892.6975,1012253.1397163,-47
1659692892.6975,1012253.1397249,-30
1659692892.6975,1012253.1397325,-38
1659692892.6975,1012253.1397408,-38
1659692893.22091,1012253.1397467,-50
1659692893.22091,1012253.1397535,-66
1659692893.22091,1012253.1397594,-50
1659692893.22091,1012253.139766,-21
1659692893.22091,1012253.1397746,-9
1659692893.22091,1012253.1397875,-11
1659692893.22091,1012253.1397986,0
1659692893.22091,1012253.1398111,11
1659692893.22091,1012253.1398216,11
1659692893.22091,1012253.1398271,9
1659692893.22091,1012253.1398362,11
1659692893.22091,1012253.1398417,19
1659692893.22091,1012253.1398506,33
1659692893.22091,1012253.1398557,33
1659692893.22091,1012253.1398646,30
1659692893.22091,1012253.1398694,42
1659692893.22091,1012253.139878,64
1659692893.22091,1012253.1398846,73
1659692893.22091,1012253.1398969,73
1659692893.22091,1012253.139907,78
1659692893.22091,1012253.1399133,73
1659692893.22091,1012253.1399256,57
1659692893.22091,1012253.139936,45
1659692893.22091,1012253.1399466,45
1659692893.22091,1012253.1399554,35
1659692893.22091,1012253.1399643,23
1659692893.22091,1012253.1399732,28
1659692893.22091,1012253.139984,33
1659692893.22091,1012253.1399906,23
1659692893.22091,1012253.1399987,16
1659692893.22091,1012253.140005,-4
1659692893.22091,1012253.1400137,-23
1659692893.22091,1012253.1400193,133
1659692893.22091,1012253.1400261,612
1659692893.22091,1012253.1400333,1037
1659692893.22091,1012253.1400405,727
1659692893.22091,1012253.1400482,-76
1659692893.22091,1012253.1400541,-357
1659692893.22091,1012253.1400626,-83
1659692893.22091,1012253.1400677,33
1659692893.22091,1012253.6765687,-21
1659692893.22091,1012253.6765898,30
1659692893.22091,1012253.6765991,78
1659692893.22091,1012253.6766077,54
1659692893.22091,1012253.6766163,52
1659692893.22091,1012253.6766231,76
1659692893.22091,1012253.6766313,73
1659692893.22091,1012253.6766354,57
1659692893.22091,1012253.676642,54
1659692893.22091,1012253.6766479,71
1659692893.22889,1012253.6766513,92
1659692893.22889,1012253.6766549,88
1659692893.22889,1012253.6766584,69
1659692893.22889,1012253.676662,66
1659692893.22889,1012253.6766655,83
1659692893.22889,1012253.6766689,97
1659692893.22889,1012253.6766729,114
1659692893.22889,1012253.6766766,131
1659692893.22889,1012253.6766805,131
1659692893.22889,1012253.6766845,126
1659692893.22889,1012253.6766907,143
1659692893.22889,1012253.676697,162
1659692893.22889,1012253.6767033,164
1659692893.22889,1012253.6767073,171
1659692893.22889,1012253.6767133,176
1659692893.22889,1012253.6767176,152
1659692893.22889,1012253.6767218,114
1659692893.22889,1012253.6767274,81
1659692893.22889,1012253.6767311,54
1659692893.22889,1012253.6767368,21
1659692893.22889,1012253.6767406,-14
1659692893.22889,1012253.6767462,-33
1659692893.22889,1012253.6767503,-40
1659692893.22889,1012253.6767543,-35
1659692893.75202,1012253.6767582,-21
1659692893.75202,1012253.6767622,-16
1659692893.75202,1012253.6767661,-19
1659692893.75202,1012253.67677,-14
1659692893.75202,1012253.6767739,-11
1659692893.75202,1012253.6767778,-7
1659692893.75202,1012253.6767818,-2
1659692893.75202,1012253.6767856,7
1659692893.75202,1012253.676789,19
1659692893.75202,1012253.6767927,23
1659692893.75202,1012253.6767963,28
1659692893.75202,1012253.6767998,38
1659692893.75202,1012253.6768034,40
1659692893.75202,1012253.676807,40
1659692893.75202,1012253.6768105,54
1659692893.75202,1012253.6768139,64
1659692893.75202,1012253.6768175,59
1659692893.75202,1012253.6768218,69
1659692893.75202,1012253.6768257,83
1659692893.75202,1012253.6768313,81
1659692893.75202,1012253.6768358,73
1659692893.75202,1012253.6768412,64
1659692893.75202,1012253.6768451,50
1659692893.75202,1012253.6768506,45
1659692893.75202,1012253.6768547,50
1659692893.75202,1012253.6768602,54
1659692893.75202,1012253.6768642,61
1659692893.75202,1012253.6768697,54
1659692893.75202,1012253.6768734,52
1659692893.75202,1012253.6768779,45
1659692893.75202,1012253.6768816,11
1659692893.75202,1012253.6768853,7
1659692893.75202,1012253.6768909,221
1659692893.75202,1012253.6768948,751
1659692893.75202,1012253.6768985,1168
1659692893.75202,1012253.6769019,782
1659692893.75202,1012253.6769056,-102
1659692893.75202,1012253.6769153,-388
1659692893.75202,1012253.6769189,-95
1659692893.75202,1012254.2122584,16
1659692893.75202,1012254.212273,-26
1659692893.75202,1012254.2122773,40
1659692893.75202,1012254.2122819,85
1659692893.75202,1012254.2122842,59
1659692893.75202,1012254.2122864,66
1659692893.75202,1012254.2122886,92
1659692893.75202,1012254.2122907,97
1659692893.75202,1012254.2122929,95
1659692893.75202,1012254.212295,85
1659692893.75202,1012254.2122971,78
1659692893.76399,1012254.2122992,85
1659692893.76399,1012254.2123013,90
1659692893.76399,1012254.2123034,97
1659692893.76399,1012254.2123056,112
1659692893.76399,1012254.2123087,107
1659692893.76399,1012254.212311,97
1659692893.76399,1012254.2123132,114
1659692893.76399,1012254.2123158,138
1659692893.76399,1012254.2123178,147
1659692893.76399,1012254.2123199,159
1659692893.76399,1012254.212322,169
1659692893.76399,1012254.212324,171
1659692893.76399,1012254.2123261,181
1659692893.76399,1012254.2123281,188
1659692893.76399,1012254.2123302,174
1659692893.76399,1012254.2123322,150
1659692893.76399,1012254.2123342,112
1659692893.76399,1012254.2123363,66
1659692893.76399,1012254.2123383,26
1659692893.76399,1012254.2123405,-16
1659692893.76399,1012254.2123427,-42
1659692893.76399,1012254.2123448,-35
1659692893.76399,1012254.212347,-26
1659692893.76399,1012254.2123492,-33
1659692894.33988,1012254.2123514,-40
1659692894.33988,1012254.2123534,-28
1659692894.33988,1012254.2123555,-9
1659692894.33988,1012254.2123577,-2
1659692894.33988,1012254.2123597,2
1659692894.33988,1012254.2123618,14
1659692894.33988,1012254.2123637,26
1659692894.33988,1012254.2123657,26
1659692894.33988,1012254.212368,19
1659692894.33988,1012254.2123714,21
1659692894.33988,1012254.2123804,35
1659692894.33988,1012254.2123874,40
1659692894.33988,1012254.2123915,33
1659692894.33988,1012254.2123974,35
1659692894.33988,1012254.2124035,47
1659692894.33988,1012254.2124122,66
1659692894.33988,1012254.2124202,85
1659692894.33988,1012254.2124226,95
1659692894.33988,1012254.2124248,102
1659692894.33988,1012254.2124268,100
1659692894.33988,1012254.2124289,90
1659692894.33988,1012254.2124309,88
1659692894.33988,1012254.2124329,81
1659692894.33988,1012254.212435,66
1659692894.33988,1012254.212437,66
1659692894.33988,1012254.2124392,66
1659692894.33988,1012254.2124412,57
1659692894.33988,1012254.2124433,52
1659692894.33988,1012254.2124453,52
1659692894.33988,1012254.2124474,47
1659692894.33988,1012254.2124494,16
1659692894.33988,1012254.2124515,-33
1659692894.33988,1012254.2124536,54
1659692894.33988,1012254.2124557,531
1659692894.33988,1012254.2124578,1177
1659692894.33988,1012254.2124598,1154
1659692894.33988,1012254.212462,307
1659692894.33988,1012254.2124641,-283
1659692894.33988,1012254.7972471,-145
1659692894.33988,1012254.7972682,28
1659692894.33988,1012254.7972772,-16
1659692894.33988,1012254.7972822,4
1659692894.33988,1012254.7972881,52
1659692894.33988,1012254.7972923,26
1659692894.33988,1012254.7972983,7
1659692894.33988,1012254.7973024,35
1659692894.33988,1012254.7973085,54
1659692894.33988,1012254.7973129,54
1659692894.33988,1012254.7973175,61
1659692894.33988,1012254.7973249,64
1659692894.34985,1012254.797329,45
1659692894.34985,1012254.7973348,50
1659692894.34985,1012254.7973387,76
1659692894.34985,1012254.7973425,83
1659692894.34985,1012254.7973467,81
1659692894.34985,1012254.7973522,88
1659692894.34985,1012254.7973568,95
1659692894.34985,1012254.7973624,107
1659692894.34985,1012254.7973663,119
1659692894.34985,1012254.7973701,126
1659692894.34985,1012254.7973738,128
1659692894.34985,1012254.7973792,143
1659692894.34985,1012254.7973831,159
1659692894.34985,1012254.7973875,162
1659692894.34985,1012254.7973903,159
1659692894.34985,1012254.7973931,145
1659692894.34985,1012254.797396,102
1659692894.34985,1012254.7973988,47
1659692894.34985,1012254.7974017,9
1659692894.34985,1012254.7974048,-9
1659692894.34985,1012254.7974077,-28
1659692894.34985,1012254.7974122,-50
1659692894.34985,1012254.7974149,-54
1659692894.34985,1012254.7974178,-52
1659692894.88502,1012254.7974206,-61
1659692894.88502,1012254.7974235,-64
1659692894.88502,1012254.7974261,-50
1659692894.88502,1012254.7974289,-38
1659692894.88502,1012254.7974315,-30
1659692894.88502,1012254.7974342,-23
1659692894.88502,1012254.7974368,-14
1659692894.88502,1012254.7974396,-4
1659692894.88502,1012254.7974422,2
1659692894.88502,1012254.7974449,14
1659692894.88502,1012254.7974482,23
1659692894.88502,1012254.797456,21
1659692894.88502,1012254.7974641,23
1659692894.88502,1012254.7974674,30
1659692894.88502,1012254.7974703,33
1659692894.88502,1012254.7974731,38
1659692894.88502,1012254.7974759,61
1659692894.88502,1012254.7974787,78
1659692894.88502,1012254.7974848,81
1659692894.88502,1012254.7974961,85
1659692894.88502,1012254.7974995,85
1659692894.88502,1012254.7975016,71
1659692894.88502,1012254.7975037,52
1659692894.88502,1012254.7975058,45
1659692894.88502,1012254.7975079,52
1659692894.88502,1012254.7975099,52
1659692894.88502,1012254.797515,50
1659692894.88502,1012254.7975262,54
1659692894.88502,1012254.7975298,57
1659692894.88502,1012254.7975337,54
1659692894.88502,1012254.7975356,33
1659692894.88502,1012254.7975376,-14
1659692894.88502,1012254.7975397,9
1659692894.88502,1012254.7975424,343
1659692894.88502,1012254.7975477,977
1659692894.88502,1012254.7975588,1247
1659692894.88502,1012254.7975812,634
1659692894.88502,1012255.3349221,-133
1659692894.88502,1012255.3349435,-193
1659692894.88502,1012255.3349592,35
1659692894.88502,1012255.3349738,14
1659692894.88502,1012255.3349882,-19
1659692894.88502,1012255.3350004,50
1659692894.88502,1012255.3350085,61
1659692894.88502,1012255.3350128,42
1659692894.88502,1012255.3350172,54
1659692894.88502,1012255.3350232,47
1659692894.88502,1012255.3350312,38
1659692894.88502,1012255.3350436,54
1659692894.88502,1012255.3350549,59
1659692894.89599,1012255.3350652,57
1659692894.89599,1012255.3350729,59
1659692894.89599,1012255.3350809,45
1659692894.89599,1012255.3350886,40
1659692894.89599,1012255.3350928,59
1659692894.89599,1012255.3351054,73
1659692894.89599,1012255.3351194,81
1659692894.89599,1012255.3351328,100
1659692894.89599,1012255.3351415,112
1659692894.89599,1012255.335144,112
1659692894.89599,1012255.3351461,123
1659692894.89599,1012255.3351481,133
1659692894.89599,1012255.3351501,143
1659692894.89599,1012255.3351521,162
1659692894.89599,1012255.3351542,154
1659692894.89599,1012255.3351565,116
1659692894.89599,1012255.3351801,85
1659692894.89599,1012255.3351899,59
1659692894.89599,1012255.3351985,19
1659692894.89599,1012255.3352057,-14
1659692894.89599,1012255.3352081,-38
1659692894.89599,1012255.3352102,-59
1659692894.89599,1012255.3352123,-69
1659692894.89599,1012255.3352144,-64
1659692895.46092,1012255.3352164,-57
1659692895.46092,1012255.3352185,-47
1659692895.46092,1012255.3352204,-40
1659692895.46092,1012255.3352223,-38
1659692895.46092,1012255.3352242,-23
1659692895.46092,1012255.3352263,-7
1659692895.46092,1012255.3352283,-2
1659692895.46092,1012255.3352302,-4
1659692895.46092,1012255.3352323,0
1659692895.46092,1012255.3352342,7
1659692895.46092,1012255.335236,9
1659692895.46092,1012255.3352416,11
1659692895.46092,1012255.3352505,14
1659692895.46092,1012255.3352612,23
1659692895.46092,1012255.3352734,33
1659692895.46092,1012255.3352851,28
1659692895.46092,1012255.3352924,28
1659692895.46092,1012255.3352949,52
1659692895.46092,1012255.335297,81
1659692895.46092,1012255.335299,92
1659692895.46092,1012255.3353009,88
1659692895.46092,1012255.3353029,78
1659692895.46092,1012255.335305,69
1659692895.46092,1012255.3353071,61
1659692895.46092,1012255.3353091,61
1659692895.46092,1012255.3353112,71
1659692895.46092,1012255.3353132,64
1659692895.46092,1012255.3353152,59
1659692895.46092,1012255.3353172,64
1659692895.46092,1012255.3353192,61
1659692895.46092,1012255.3353213,57
1659692895.46092,1012255.3353234,45
1659692895.46092,1012255.3353253,7
1659692895.46092,1012255.3353273,19
1659692895.46092,1012255.3353293,307
1659692895.46092,1012255.3353313,918
1659692895.46092,1012255.920609,1258
1659692895.46092,1012255.9206569,715
1659692895.46092,1012255.9206659,-126
1659692895.46092,1012255.9206711,-264
1659692895.46092,1012255.920676,0
1659692895.46092,1012255.9206801,19
1659692895.46092,1012255.9206849,-40
1659692895.46092,1012255.9206899,19
1659692895.46092,1012255.9206946,42
1659692895.46092,1012255.9207173,28
1659692895.46092,1012255.9207281,47
1659692895.46092,1012255.9207321,59
1659692895.46092,1012255.9207354,45
1659692895.46092,1012255.9207385,45
1659692895.47289,1012255.9207416,59
1659692895.47289,1012255.9207447,66
1659692895.47289,1012255.9207478,69
1659692895.47289,1012255.9207509,81
1659692895.47289,1012255.9207541,81
1659692895.47289,1012255.9207571,76
1659692895.47289,1012255.9207603,78
1659692895.47289,1012255.9207633,83
1659692895.47289,1012255.9207665,95
1659692895.47289,1012255.9207697,114
1659692895.47289,1012255.9207736,131
1659692895.47289,1012255.9207788,138
1659692895.47289,1012255.9207879,135
1659692895.47289,1012255.9207927,145
1659692895.47289,1012255.9207959,164
1659692895.47289,1012255.9208,178
1659692895.47289,1012255.9208044,169
1659692895.47289,1012255.9208075,133
1659692895.47289,1012255.920811,90
1659692895.47289,1012255.9208169,54
1659692895.47289,1012255.9208218,14
1659692895.47289,1012255.9208277,-14
1659692895.47289,1012255.9208396,-33
1659692895.47289,1012255.9208511,-57
1659692896.05112,1012255.9208606,-66
1659692896.05112,1012255.9208664,-50
1659692896.05112,1012255.9208749,-45
1659692896.05112,1012255.9208829,-47
1659692896.05112,1012255.9208879,-35
1659692896.05112,1012255.9208931,-21
1659692896.05112,1012255.9208987,-14
1659692896.05112,1012255.9209034,-7
1659692896.05112,1012255.9209097,0
1659692896.05112,1012255.9209172,11
1659692896.05112,1012255.9209249,26
1659692896.05112,1012255.9209357,30
1659692896.05112,1012255.9209461,33
1659692896.05112,1012255.9209533,38
1659692896.05112,1012255.920965,42
1659692896.05112,1012255.9209749,42
1659692896.05112,1012255.9209851,47
1659692896.05112,1012255.9209961,50
1659692896.05112,1012255.9210044,50
1659692896.05112,1012255.9210165,66
1659692896.05112,1012255.9210268,92
1659692896.05112,1012255.9210355,92
1659692896.05112,1012255.9210477,85
1659692896.05112,1012255.9210561,88
1659692896.05112,1012255.9210645,76
1659692896.05112,1012255.921075,57
1659692896.05112,1012255.921083,54
1659692896.05112,1012255.921093,61
1659692896.05112,1012255.9211034,66
1659692896.05112,1012255.9211121,73
1659692896.05112,1012255.921124,71
1659692896.05112,1012255.9211325,59
1659692896.05112,1012255.9211408,40
1659692896.05112,1012255.9211515,7
1659692896.05112,1012255.9211592,26
1659692896.05112,1012256.5037995,314
1659692896.05112,1012256.5038132,901
1659692896.05112,1012256.503816,1213
1659692896.05112,1012256.5038182,643
1659692896.05112,1012256.5038205,-205
1659692896.05112,1012256.5038225,-312
1659692896.05112,1012256.5038245,-4
1659692896.05112,1012256.5038286,33
1659692896.05112,1012256.5038307,-14
1659692896.05112,1012256.5038333,50
1659692896.05112,1012256.5038825,69
1659692896.05112,1012256.5038919,50
1659692896.05112,1012256.5038969,73
1659692896.05112,1012256.5039016,85
1659692896.05112,1012256.5039054,64
1659692896.0611,1012256.5039132,47
1659692896.0611,1012256.5039162,50
1659692896.0611,1012256.503919,66
1659692896.0611,1012256.5039219,83
1659692896.0611,1012256.5039248,83
1659692896.0611,1012256.5039303,83
1659692896.0611,1012256.5039348,85
1659692896.0611,1012256.5039383,78
1659692896.0611,1012256.5039458,88
1659692896.0611,1012256.5039505,104
1659692896.0611,1012256.503958,109
1659692896.0611,1012256.5039644,112
1659692896.0611,1012256.5039722,114
1659692896.0611,1012256.5039778,126
1659692896.0611,1012256.503986,143
1659692896.0611,1012256.50399,157
1659692896.0611,1012256.5039928,162
1659692896.0611,1012256.5039969,152
1659692896.0611,1012256.5040042,126
1659692896.0611,1012256.5040073,92
1659692896.0611,1012256.5040121,52
1659692896.0611,1012256.5040155,16
1659692896.0611,1012256.5040192,-9
1659692896.0611,1012256.5040243,-28
1659692896.63856,1012256.5040299,-35
1659692896.63856,1012256.5040365,-40
1659692896.63856,1012256.5040401,-40
1659692896.63856,1012256.5040436,-30
1659692896.63856,1012256.5040472,-26
1659692896.63856,1012256.5040505,-19
1659692896.63856,1012256.5040545,-9
1659692896.63856,1012256.504058,0
1659692896.63856,1012256.5040671,9
1659692896.63856,1012256.5040737,16
1659692896.63856,1012256.504079,28
1659692896.63856,1012256.5040891,40
1659692896.63856,1012256.5040978,45
1659692896.63856,1012256.5041092,54
1659692896.63856,1012256.5041248,61
1659692896.63856,1012256.5041394,57
1659692896.63856,1012256.5041515,59
1659692896.63856,1012256.5041657,66
1659692896.63856,1012256.5041703,64
1659692896.63856,1012256.5041745,66
1659692896.63856,1012256.5041788,81
1659692896.63856,1012256.5041863,95
1659692896.63856,1012256.5041946,107
1659692896.63856,1012256.5042061,107
1659692896.63856,1012256.5042197,104
1659692896.63856,1012256.5042346,109
1659692896.63856,1012256.5042438,97
1659692896.63856,1012256.5042465,73
1659692896.63856,1012256.5042485,76
1659692896.63856,1012256.5042506,81
1659692896.63856,1012256.5042526,69
1659692896.63856,1012256.5042545,71
1659692896.63856,1012256.5042565,92
1659692896.63856,1012256.5042586,95
1659692896.63856,1012257.0896948,76
1659692896.63856,1012257.0897174,45
1659692896.63856,1012257.089726,28
1659692896.63856,1012257.089736,162
1659692896.63856,1012257.089744,610
1659692896.63856,1012257.0897514,1123
1659692896.63856,1012257.0897585,968
1659692896.63856,1012257.0897607,126
1659692896.63856,1012257.0897634,-340
1659692896.63856,1012257.0897654,-114
1659692896.63856,1012257.0897675,57
1659692896.63856,1012257.0897695,-16
1659692896.63856,1012257.0897715,-11
1659692896.63856,1012257.0897735,45
1659692896.63856,1012257.0897756,38
1659692896.63856,1012257.0897775,42
1659692896.65153,1012257.0897812,78
1659692896.65153,1012257.0897942,73
1659692896.65153,1012257.0898003,47
1659692896.65153,1012257.0898025,42
1659692896.65153,1012257.0898057,52
1659692896.65153,1012257.0898077,57
1659692896.65153,1012257.0898097,69
1659692896.65153,1012257.0898117,85
1659692896.65153,1012257.0898185,90
1659692896.65153,1012257.0898296,90
1659692896.65153,1012257.0898326,100
1659692896.65153,1012257.0898347,116
1659692896.65153,1012257.0898367,123
1659692896.65153,1012257.0898388,133
1659692896.65153,1012257.0898408,152
1659692896.65153,1012257.0898443,157
1659692896.65153,1012257.0898555,159
1659692896.65153,1012257.0898621,176
1659692896.65153,1012257.0898643,183
1659692896.65153,1012257.0898663,181
1659692896.65153,1012257.0898683,181
1659692896.65153,1012257.0898714,159
1659692896.65153,1012257.0898819,114
1659692896.65153,1012257.0898894,81
1659692897.31718,1012257.0898923,54
1659692897.31718,1012257.0898944,21
1659692897.31718,1012257.0898963,2
1659692897.31718,1012257.0898983,-4
1659692897.31718,1012257.0899016,-11
1659692897.31718,1012257.0899129,-14
1659692897.31718,1012257.089918,0
1659692897.31718,1012257.0899202,19
1659692897.31718,1012257.0899226,21
1659692897.31718,1012257.0899302,26
1659692897.31718,1012257.0899421,42
1659692897.31718,1012257.0899534,47
1659692897.31718,1012257.089965,47
1659692897.31718,1012257.0899743,64
1659692897.31718,1012257.089987,69
1659692897.31718,1012257.0899955,61
1659692897.31718,1012257.0899979,66
1659692897.31718,1012257.0900013,73
1659692897.31718,1012257.0900135,78
1659692897.31718,1012257.0900224,88
1659692897.31718,1012257.0900268,83
1659692897.31718,1012257.0900299,81
1659692897.31718,1012257.0900388,81
1659692897.31718,1012257.090051,81
1659692897.31718,1012257.0900545,97
1659692897.31718,1012257.0900566,133
1659692897.31718,1012257.0900586,154
1659692897.31718,1012257.0900606,152
1659692897.31718,1012257.0900627,145
1659692897.31718,1012257.0900653,143
1659692897.31718,1012257.0900749,138
1659692897.31718,1012257.0900865,123
1659692897.31718,1012257.0900973,107
1659692897.31718,1012257.7710869,90
1659692897.31718,1012257.7711011,90
1659692897.31718,1012257.7711046,97
1659692897.31718,1012257.7711141,97
1659692897.31718,1012257.7711246,102
1659692897.31718,1012257.7711337,102
1659692897.31718,1012257.7711414,71

1659692897.31718,1012257.771148,21
1659692897.31718,1012257.7711587,83
1659692897.31718,1012257.7711697,491
1659692897.31718,1012257.7711777,1118
1659692897.31718,1012257.771184,1196
1659692897.31718,1012257.7711967,443
1659692897.31718,1012257.7712066,-188
1659692897.31718,1012257.7712172,-112
1659692897.31718,1012257.771228,57
1659692897.31718,1012257.771236,-4
1659692897.32815,1012257.7712486,-7
1659692897.32815,1012257.7712593,47
1659692897.32815,1012257.7712689,40
1659692897.32815,1012257.7712746,38
1659692897.32815,1012257.7712787,54
1659692897.32815,1012257.7712816,42
1659692897.32815,1012257.7712837,35
1659692897.32815,1012257.7712858,50
1659692897.32815,1012257.7712877,59
1659692897.32815,1012257.7712897,64
1659692897.32815,1012257.7712918,61
1659692897.32815,1012257.7712981,57
1659692897.32815,1012257.7713096,59
1659692897.32815,1012257.7713147,69
1659692897.32815,1012257.7713167,81
1659692897.32815,1012257.7713188,92
1659692897.32815,1012257.7713217,107
1659692897.32815,1012257.771332,114
1659692897.32815,1012257.77134,123
1659692897.32815,1012257.7713426,140
1659692897.32815,1012257.7713446,152
1659692897.32815,1012257.7713467,162
1659692897.32815,1012257.7713487,181
1659692897.32815,1012257.7713507,190
1659692897.70612,1012257.7713527,174
1659692897.70612,1012257.7713559,145
1659692897.70612,1012257.7713665,112
1659692897.70612,1012257.7713722,73
1659692897.70612,1012257.7713791,40
1659692897.70612,1012257.7713923,14
1659692897.70612,1012257.7714008,-4
1659692897.70612,1012257.7714039,-9
1659692897.70612,1012257.771406,-14
1659692897.70612,1012257.7714081,-21
1659692897.70612,1012257.7714101,-14
1659692897.70612,1012257.7714124,2
1659692897.70612,1012257.7714201,9
1659692897.70612,1012257.7714308,14
1659692897.70612,1012257.7714343,23
1659692897.70612,1012257.7714372,30
1659692897.70612,1012257.7714409,38
1659692897.70612,1012257.771454,40
1659692897.70612,1012257.7714657,45
1659692897.70612,1012257.7714806,50
1659692897.70612,1012257.7714875,54
1659692897.70612,1012257.7714904,57
1659692897.70612,1012257.7714925,61
1659692897.70612,1012257.7714945,57
1659692897.70612,1012257.7714971,40
1659692897.70612,1012257.771506,28
1659692897.70612,1012257.771515,33
1659692897.70612,1012257.7715176,38
1659692897.70612,1012257.7715196,45
1659692897.70612,1012257.7715216,69
1659692897.70612,1012257.7715265,90
1659692897.70612,1012257.7715439,92
1659692897.70612,1012258.1611159,81
1659692897.70612,1012258.1611379,78
1659692897.70612,1012258.161149,76
1659692897.70612,1012258.1611527,64
1659692897.70612,1012258.1611557,59
1659692897.70612,1012258.1611893,52
1659692897.70612,1012258.1611963,47
1659692897.70612,1012258.1611993,54
1659692897.70612,1012258.1612024,61
1659692897.70612,1012258.1612052,66
1659692897.70612,1012258.1612101,69
1659692897.70612,1012258.1612338,28
1659692897.70612,1012258.1612418,-47
1659692897.70612,1012258.1612461,-7
1659692897.70612,1012258.1612516,374
1659692897.70612,1012258.1612555,1006
1659692897.70612,1012258.161262,1170
1659692897.70612,1012258.1612657,436
1659692897.7141,1012258.1612712,-319
1659692897.7141,1012258.1612753,-290
1659692897.7141,1012258.161279,-19
1659692897.7141,1012258.161284,-21
1659692897.7141,1012258.1612876,-45
1659692897.7141,1012258.1612911,14
1659692897.7141,1012258.1612945,14
1659692897.7141,1012258.1612979,4
1659692897.7141,1012258.1613011,30
1659692897.7141,1012258.1613046,35
1659692897.7141,1012258.1613081,26
1659692897.7141,1012258.1613131,28
1659692897.7141,1012258.1613166,35
1659692897.7141,1012258.16132,40
1659692897.7141,1012258.1613234,47
1659692897.7141,1012258.1613282,59
1659692897.7141,1012258.1613334,71
1659692897.7141,1012258.1613371,78
1659692897.7141,1012258.1613421,90
1659692897.7141,1012258.1613455,107
1659692897.7141,1012258.1613488,119
1659692897.7141,1012258.1613521,138
1659692897.7141,1012258.1613555,162
1659692897.7141,1012258.1613591,178
1659692898.24581,1012258.161364,193
1659692898.24581,1012258.1613675,200
1659692898.24581,1012258.1613708,197
1659692898.24581,1012258.1613741,202
1659692898.24581,1012258.1613775,200
1659692898.24581,1012258.1613807,171
1659692898.24581,1012258.1613839,133
1659692898.24581,1012258.1613871,102
1659692898.24581,1012258.1613903,64
1659692898.24581,1012258.1613935,28
1659692898.24581,1012258.161397,4
1659692898.24581,1012258.1614005,-11
1659692898.24581,1012258.1614038,-11
1659692898.24581,1012258.1614072,-2
1659692898.24581,1012258.1614106,0
1659692898.24581,1012258.161414,-4
1659692898.24581,1012258.1614174,-7
1659692898.24581,1012258.1614208,0
1659692898.24581,1012258.1614243,11
1659692898.24581,1012258.1614278,16
1659692898.24581,1012258.1614313,28
1659692898.24581,1012258.1614348,38
1659692898.24581,1012258.1614398,28
1659692898.24581,1012258.1614432,26
1659692898.24581,1012258.1614466,40
1659692898.24581,1012258.1614501,50
1659692898.24581,1012258.1614535,45
1659692898.24581,1012258.1614567,45
1659692898.24581,1012258.16146,40
1659692898.24581,1012258.1614634,42
1659692898.24581,1012258.1614683,47
1659692898.24581,1012258.6992989,47
1659692898.24581,1012258.6993205,57
1659692898.24581,1012258.699331,81
1659692898.24581,1012258.6993398,100
1659692898.24581,1012258.6993476,100
1659692898.24581,1012258.69935,95
1659692898.24581,1012258.699352,92
1659692898.24581,1012258.6993541,83
1659692898.24581,1012258.6993566,64
1659692898.24581,1012258.6993586,38
1659692898.24581,1012258.6993607,26
1659692898.24581,1012258.6993627,40
1659692898.24581,1012258.6993647,47
1659692898.24581,1012258.6993667,40
1659692898.24581,1012258.6993688,38
1659692898.24581,1012258.6993707,16
1659692898.24581,1012258.6993728,-28
1659692898.24581,1012258.6993747,-52
1659692898.24581,1012258.6993769,100
1659692898.25678,1012258.6993788,610
1659692898.25678,1012258.6993816,1163
1659692898.25678,1012258.6993836,949
1659692898.25678,1012258.6993856,47
1659692898.25678,1012258.6993876,-393
1659692898.25678,1012258.6993897,-159
1659692898.25678,1012258.6993917,-14
1659692898.25678,1012258.6993936,-71
1659692898.25678,1012258.6993956,-33
1659692898.25678,1012258.6993976,7
1659692898.25678,1012258.6993995,-23
1659692898.25678,1012258.6994015,-21
1659692898.25678,1012258.6994035,9
1659692898.25678,1012258.6994061,9
1659692898.25678,1012258.6994082,0
1659692898.25678,1012258.6994101,14
1659692898.25678,1012258.6994122,38
1659692898.25678,1012258.6994142,42
1659692898.25678,1012258.6994161,42
1659692898.25678,1012258.6994181,61
1659692898.25678,1012258.6994203,81
1659692898.25678,1012258.6994247,85
1659692898.25678,1012258.6994293,90
1659692898.25678,1012258.6994337,107
1659692898.88376,1012258.69944,119
1659692898.88376,1012258.6994455,128
1659692898.88376,1012258.6994502,147
1659692898.88376,1012258.6994547,164
1659692898.88376,1012258.6994591,164
1659692898.88376,1012258.6994633,169
1659692898.88376,1012258.6994717,178
1659692898.88376,1012258.699483,169
1659692898.88376,1012258.6994934,147
1659692898.88376,1012258.6995153,123
1659692898.88376,1012258.6995249,81
1659692898.88376,1012258.6995354,23
1659692898.88376,1012258.699543,-19
1659692898.88376,1012258.6995542,-23
1659692898.88376,1012258.6995641,-16
1659692898.88376,1012258.6995725,-21
1659692898.88376,1012258.6995768,-26
1659692898.88376,1012258.6995826,-28
1659692898.88376,1012258.6995867,-28
1659692898.88376,1012258.6995925,-9
1659692898.88376,1012258.6995961,7
1659692898.88376,1012258.6996001,7
1659692898.88376,1012258.6996049,9
1659692898.88376,1012258.6996083,16
1659692898.88376,1012258.6996153,28
1659692898.88376,1012258.6996267,47
1659692898.88376,1012258.6996394,59
1659692898.88376,1012258.6996518,61
1659692898.88376,1012258.6996618,47
1659692898.88376,1012258.6996651,38
1659692898.88376,1012259.3332058,54
1659692898.88376,1012259.3332221,61
1659692898.88376,1012259.3332265,52
1659692898.88376,1012259.3332301,54
1659692898.88376,1012259.3332426,57
1659692898.88376,1012259.3332492,28
1659692898.88376,1012259.3332523,9
1659692898.88376,1012259.3332545,45
1659692898.88376,1012259.3332566,88
1659692898.88376,1012259.3332587,90
1659692898.88376,1012259.3332608,78
1659692898.88376,1012259.3332629,69
1659692898.88376,1012259.3332649,50
1659692898.88376,1012259.3332669,35
1659692898.88376,1012259.3332689,21
1659692898.88376,1012259.333271,11
1659692898.88376,1012259.3332752,21
1659692898.88376,1012259.3332842,30
1659692898.88376,1012259.3332887,4
1659692898.88376,1012259.3332923,-14
1659692898.89374,1012259.333298,-7
1659692898.89374,1012259.3333039,-26
1659692898.89374,1012259.3333132,-54
1659692898.89374,1012259.3333259,78
1659692898.89374,1012259.333331,567
1659692898.89374,1012259.3333332,1118
1659692898.89374,1012259.3333352,956
1659692898.89374,1012259.3333383,131
1659692898.89374,1012259.3333405,-302
1659692898.89374,1012259.3333426,-119
1659692898.89374,1012259.3333448,0
1659692898.89374,1012259.3333469,-61
1659692898.89374,1012259.3333535,-38
1659692898.89374,1012259.3333674,11
1659692898.89374,1012259.3333775,-2
1659692898.89374,1012259.3333827,-11
1659692898.89374,1012259.3333867,-23
1659692898.89374,1012259.333393,-33
1659692898.89374,1012259.3333979,9
1659692898.89374,1012259.3334029,21
1659692898.89374,1012259.3334114,-16
1659692898.89374,1012259.3334173,2
1659692898.89374,1012259.3334196,59
1659692898.89374,1012259.3334217,73
1659692899.41468,1012259.3334237,57
1659692899.41468,1012259.3334257,45
1659692899.41468,1012259.3334276,59
1659692899.41468,1012259.3334294,69
1659692899.41468,1012259.3334314,57
1659692899.41468,1012259.3334332,57
1659692899.41468,1012259.333435,97
1659692899.41468,1012259.3334369,119
1659692899.41468,1012259.3334388,92
1659692899.41468,1012259.3334406,90
1659692899.41468,1012259.3334425,138
1659692899.41468,1012259.3334443,178
1659692899.41468,1012259.3334463,164
1659692899.41468,1012259.3334483,100
1659692899.41468,1012259.3334502,57
1659692899.41468,1012259.333452,38
1659692899.41468,1012259.333454,7
1659692899.41468,1012259.3334559,-26
1659692899.41468,1012259.3334578,-61
1659692899.41468,1012259.3334596,-59
1659692899.41468,1012259.3334637,-11
1659692899.41468,1012259.3334685,16
1659692899.41468,1012259.3334739,-9
1659692899.41468,1012259.3334762,-26
1659692899.41468,1012259.3334833,2
1659692899.41468,1012259.3334946,19
1659692899.41468,1012259.3335039,0
1659692899.41468,1012259.3335099,-2
1659692899.41468,1012259.3335122,11
1659692899.41468,1012259.8675675,16
1659692899.41468,1012259.8675865,14
1659692899.41468,1012259.8675954,26
1659692899.41468,1012259.867603,50
1659692899.41468,1012259.8676071,47
1659692899.41468,1012259.8676132,33
1659692899.41468,1012259.8676178,57
1659692899.41468,1012259.8676235,54
1659692899.41468,1012259.8676276,16
1659692899.41468,1012259.8676323,-4
1659692899.41468,1012259.8676384,19
1659692899.41468,1012259.8676439,76
1659692899.41468,1012259.8676502,90
1659692899.41468,1012259.8676546,54
1659692899.41468,1012259.8676606,35
1659692899.41468,1012259.8676644,33
1659692899.41468,1012259.8676704,35
1659692899.41468,1012259.8676749,26
1659692899.41468,1012259.867681,0
1659692899.41468,1012259.867687,30
1659692899.41468,1012259.867693,85
1659692899.42265,1012259.8676976,66
1659692899.42265,1012259.8677036,4
1659692899.42265,1012259.8677077,2
1659692899.42265,1012259.8677135,26
1659692899.42265,1012259.867722,-11
1659692899.42265,1012259.867728,-45
1659692899.42265,1012259.8677314,154
1659692899.42265,1012259.8677357,734
1659692899.42265,1012259.867742,1204
1659692899.42265,1012259.8677464,805
1659692899.42265,1012259.8677517,-71
1659692899.42265,1012259.8677557,-331
1659692899.42265,1012259.8677606,-88
1659692899.42265,1012259.8677688,-45
1659692899.42265,1012259.8677721,-114
1659692899.42265,1012259.8677771,-52
1659692899.42265,1012259.8677862,-9
1659692899.42265,1012259.8677923,-45
1659692899.42265,1012259.8678002,-21
1659692899.42265,1012259.8678068,30
1659692899.42265,1012259.8678142,4
1659692899.42265,1012259.8678207,-14
1659692899.42265,1012259.8678288,23
