Time,TimeLsl,Value
1659945703.70853,1265065.1094334,19
1659945703.70853,1265065.1094518,14
1659945703.70853,1265065.1094609,9
1659945703.70853,1265065.1094699,7
1659945703.70853,1265065.1094763,9
1659945703.70853,1265065.1094837,16
1659945703.70853,1265065.1094896,24
1659945703.70853,1265065.1094954,31
1659945703.70853,1265065.1094998,33
1659945703.70853,1265065.1095056,19
1659945703.70853,1265065.1095104,4
1659945703.70853,1265065.1095169,16
1659945703.70853,1265065.1095209,29
1659945703.70853,1265065.1095275,21
1659945703.70853,1265065.1095334,19
1659945703.70853,1265065.1095413,16
1659945703.70853,1265065.1095479,0
1659945703.70853,1265065.1095618,0
1659945703.70853,1265065.1095721,16
1659945703.70853,1265065.1095799,24
1659945703.70853,1265065.109587,24
1659945703.70853,1265065.1095943,29
1659945703.70853,1265065.1096012,24
1659945703.70853,1265065.1096071,19
1659945703.70853,1265065.1096112,24
1659945703.70853,1265065.1096184,31
1659945703.70853,1265065.1096272,29
1659945703.70853,1265065.1096361,45
1659945703.70853,1265065.1096422,72
1659945703.70853,1265065.1096489,72
1659945703.70853,1265065.1096569,67
1659945703.70853,1265065.1096622,70
1659945703.70853,1265065.1096701,70
1659945703.70853,1265065.1096784,74
1659945703.70853,1265065.1096837,77
1659945703.70853,1265065.1096918,72
1659945703.70853,1265065.1096997,84
1659945703.70853,1265065.1097066,101
1659945703.70853,1265065.1097133,106
1659945703.70853,1265065.1097194,108
1659945703.70853,1265065.1097276,108
1659945703.70853,1265065.1097312,106
1659945703.70853,1265065.10974,101
1659945703.70853,1265065.1097465,89
1659945703.70853,1265065.1097499,74
1659945703.70853,1265065.1097656,67
1659945703.70853,1265065.109775,72
1659945703.70853,1265065.10978,72
1659945703.70853,1265065.1097857,65
1659945703.70853,1265065.1097895,53
1659945703.81691,1265065.109796,38
1659945703.81691,1265065.1098037,29
1659945703.81691,1265065.1098131,43
1659945703.81691,1265065.1098251,147
1659945703.81691,1265065.1098327,396
1659945703.81691,1265065.109839,717
1659945703.81691,1265065.1098428,891
1659945703.81691,1265065.1098483,684
1659945703.81691,1265065.1098531,215
1659945703.81691,1265065.1098586,-65
1659945703.81691,1265065.1098624,-36
1659945703.81691,1265065.1098662,14
1659945703.81691,1265065.1098698,-7
1659945703.81691,1265065.1098759,0
1659945703.81691,1265065.1098792,12
1659945703.81691,1265065.1098827,0
1659945703.81691,1265065.1098862,2
1659945703.81691,1265065.1098896,7
1659945703.81691,1265065.1098933,2
1659945703.81691,1265065.1098965,7
1659945703.81691,1265065.1098998,19
1659945703.81691,1265065.1099032,26
1659945703.81691,1265065.1099062,36
1659945703.81691,1265065.6461284,45
1659945703.81691,1265065.6461587,55
1659945703.81691,1265065.6461707,70
1659945703.81691,1265065.6461813,87
1659945703.81691,1265065.6461883,91
1659945703.81691,1265065.6461932,94
1659945703.81691,1265065.6461975,99
1659945703.81691,1265065.646203,96
1659945703.81691,1265065.6462085,96
1659945703.81691,1265065.6462151,96
1659945703.81691,1265065.6462261,91
1659945703.81691,1265065.6462333,79
1659945703.81691,1265065.6462393,41
1659945703.81691,1265065.6462461,-7
1659945703.81691,1265065.6462518,-21
1659945703.81691,1265065.6462586,-21
1659945703.81691,1265065.6462686,-29
1659945703.81691,1265065.646277,-33
1659945703.81691,1265065.6462854,-43
1659945703.81691,1265065.646294,-70
1659945703.81691,1265065.6463025,-77
1659945703.81691,1265065.646312,-58
1659945703.81691,1265065.6463207,-48
1659945703.81691,1265065.6463292,-36
1659945703.81691,1265065.6463383,-26
1659945703.81691,1265065.6463479,-24
1659945703.81691,1265065.6463561,-19
1659945703.85371,1265065.6463639,-7
1659945703.85371,1265065.6463717,-2
1659945703.85371,1265065.6463809,9
1659945703.85371,1265065.6463895,29
1659945703.85371,1265065.6463961,29
1659945703.85371,1265065.6464019,21
1659945703.85371,1265065.6464084,31
1659945703.85371,1265065.6464162,43
1659945703.85371,1265065.6464253,43
1659945703.85371,1265065.6464323,33
1659945703.85371,1265065.6464378,29
1659945703.85371,1265065.6464441,31
1659945703.85371,1265065.6464526,36
1659945703.85371,1265065.6464584,29
1659945703.85371,1265065.6464674,14
1659945703.85371,1265065.6464737,12
1659945703.85371,1265065.6464811,19
1659945703.85371,1265065.646487,16
1659945703.85371,1265065.6464948,16
1659945703.85371,1265065.6465008,24
1659945703.85371,1265065.6465094,31
1659945703.85371,1265065.6465153,36
1659945703.85371,1265065.6465237,33
1659945703.85371,1265065.6465317,31
1659945703.85371,1265065.6465381,50
1659945703.85371,1265065.6465466,77
1659945703.85371,1265065.6465538,79
1659945703.85371,1265065.6465623,70
1659945703.85371,1265065.6465683,74
1659945703.85371,1265065.646576,77
1659945703.85371,1265065.646584,60
1659945703.85371,1265065.6465919,53
1659945703.85371,1265065.6466003,60
1659945703.85371,1265065.6466056,65
1659945703.85371,1265065.6466119,60
1659945703.85371,1265065.6466195,60
1659945703.85371,1265065.6466256,70
1659945703.85371,1265065.646635,74
1659945703.85371,1265065.6466418,67
1659945703.85371,1265065.6466502,60
1659945703.85371,1265065.6466571,111
1659945703.85371,1265065.6466661,299
1659945703.85371,1265065.6466721,621
1659945703.85371,1265065.6466802,896
1659945703.85371,1265065.6466865,858
1659945703.85371,1265065.6466954,432
1659945703.85371,1265066.2305356,4
1659945703.85371,1265066.230553,-77
1659945703.90957,1265066.230558,7
1659945703.90957,1265066.2305622,14
1659945703.90957,1265066.2305662,2
1659945703.90957,1265066.23057,16
1659945703.90957,1265066.2305737,14
1659945703.90957,1265066.2305775,4
1659945703.90957,1265066.2305817,12
1659945703.90957,1265066.2305857,0
1659945703.90957,1265066.2305897,-26
1659945703.90957,1265066.2305958,-21
1659945703.90957,1265066.2306019,-4
1659945703.90957,1265066.2306058,0
1659945703.90957,1265066.2306116,12
1659945703.90957,1265066.2306172,12
1659945703.90957,1265066.2306211,-4
1659945703.90957,1265066.2306249,7
1659945703.90957,1265066.2306288,38
1659945703.90957,1265066.230635,53
1659945703.90957,1265066.2306405,62
1659945703.90957,1265066.2306444,62
1659945703.90957,1265066.2306499,58
1659945703.90957,1265066.2306545,55
1659945703.90957,1265066.23066,50
1659945703.90957,1265066.2306649,38
1659945703.90957,1265066.2306706,26
1659945703.90957,1265066.2306753,9
1659945703.90957,1265066.2306793,-21
1659945703.90957,1265066.2306855,-43
1659945703.90957,1265066.2306893,-43
1659945703.90957,1265066.230693,-43
1659945703.90957,1265066.2306982,-48
1659945703.90957,1265066.2307022,-55
1659945703.90957,1265066.2307062,-70
1659945703.90957,1265066.2307114,-77
1659945703.90957,1265066.2307162,-62
1659945703.90957,1265066.2307217,-48
1659945703.90957,1265066.2307266,-45
1659945703.90957,1265066.2307327,-38
1659945703.90957,1265066.2307367,-21
1659945703.90957,1265066.2307421,-12
1659945703.90957,1265066.2307459,-9
1659945703.90957,1265066.2307495,-2
1659945703.90957,1265066.2307554,9
1659945703.90957,1265066.2307605,24
1659945703.90957,1265066.2307641,33
1659945703.90957,1265066.2307679,36
1659945703.90957,1265066.2307731,31
1659945703.90957,1265066.2307788,36
1659945703.90957,1265066.2307827,50
1659945703.90957,1265066.2307863,60
1659945703.92153,1265066.23079,62
1659945703.92153,1265066.2307957,62
1659945703.92153,1265066.2307995,60
1659945703.92153,1265066.2308033,60
1659945703.92153,1265066.2308087,65
1659945703.92153,1265066.2308132,72
1659945703.92153,1265066.2308177,77
1659945703.92153,1265066.2308242,72
1659945703.92153,1265066.2308293,58
1659945703.92153,1265066.2308329,58
1659945703.92153,1265066.2308383,67
1659945703.92153,1265066.2308568,70
1659945703.92153,1265066.2308712,77
1659945703.92153,1265066.230877,94
1659945703.92153,1265066.2308812,103
1659945703.92153,1265066.230888,103
1659945703.92153,1265066.2308945,113
1659945703.92153,1265066.230898,116
1659945703.92153,1265066.2309014,108
1659945703.92153,1265066.2309077,99
1659945703.92153,1265066.2309113,87
1659945703.92153,1265066.8159645,82
1659945703.92153,1265066.8159849,84
1659945703.92153,1265066.8159931,94
1659945704.39491,1265066.8159973,101
1659945704.39491,1265066.8160016,99
1659945704.39491,1265066.8160055,89
1659945704.39491,1265066.8160091,60
1659945704.39491,1265066.8160128,48
1659945704.39491,1265066.8160167,149
1659945704.39491,1265066.8160206,410
1659945704.39491,1265066.8160243,756
1659945704.39491,1265066.8160281,952
1659945704.39491,1265066.8160319,737
1659945704.39491,1265066.8160357,227
1659945704.39491,1265066.8160395,-87
1659945704.39491,1265066.8160433,-60
1659945704.39491,1265066.8160471,0
1659945704.39491,1265066.8160508,-19
1659945704.39491,1265066.8160548,-31
1659945704.39491,1265066.8160587,-19
1659945704.39491,1265066.8160647,-9
1659945704.39491,1265066.8160687,-9
1659945704.39491,1265066.8160743,-12
1659945704.39491,1265066.8160784,-2
1659945704.39491,1265066.8160843,4
1659945704.39491,1265066.8160884,-2
1659945704.39491,1265066.816094,-7
1659945704.39491,1265066.816098,-4
1659945704.39491,1265066.8161038,4
1659945704.39491,1265066.8161075,21
1659945704.39491,1265066.8161114,31
1659945704.39491,1265066.8161173,43
1659945704.39491,1265066.8161212,60
1659945704.39491,1265066.8161266,74
1659945704.39491,1265066.8161304,84
1659945704.39491,1265066.8161362,79
1659945704.39491,1265066.8161402,74
1659945704.39491,1265066.8161457,74
1659945704.39491,1265066.8161497,70
1659945704.39491,1265066.8161552,55
1659945704.39491,1265066.8161592,43
1659945704.39491,1265066.8161649,31
1659945704.39491,1265066.8161686,14
1659945704.39491,1265066.8161744,2
1659945704.39491,1265066.8161781,-7
1659945704.39491,1265066.8161836,-12
1659945704.39491,1265066.8161875,-7
1659945704.39491,1265066.8161913,-4
1659945704.39491,1265066.8161967,-2
1659945704.39491,1265066.8162004,4
1659945704.39491,1265066.816206,4
1659945704.39491,1265066.8162097,0
1659945704.39491,1265066.8162159,9
1659945704.40987,1265066.8162206,21
1659945704.40987,1265066.8162269,29
1659945704.40987,1265066.8162309,33
1659945704.40987,1265066.8162364,43
1659945704.40987,1265066.8162403,50
1659945704.40987,1265066.8162496,53
1659945704.40987,1265066.816255,55
1659945704.40987,1265066.8162589,65
1659945704.40987,1265066.8162641,77
1659945704.40987,1265066.8162696,79
1659945704.40987,1265066.8162731,79
1659945704.40987,1265066.816277,79
1659945704.40987,1265066.8162825,77
1659945704.40987,1265066.8162863,77
1659945704.40987,1265066.8162919,84
1659945704.40987,1265066.8162956,89
1659945704.40987,1265066.8163009,89
1659945704.40987,1265066.8163045,87
1659945704.40987,1265066.8163099,87
1659945704.40987,1265066.8163149,94
1659945704.40987,1265067.3031448,101
1659945704.40987,1265067.303169,99
1659945704.40987,1265067.3031836,96
1659945704.40987,1265067.3031916,94
1659945704.97202,1265067.303201,91
1659945704.97202,1265067.3032082,89
1659945704.97202,1265067.3032153,106
1659945704.97202,1265067.3032224,137
1659945704.97202,1265067.3032299,149
1659945704.97202,1265067.3032349,128
1659945704.97202,1265067.3032394,111
1659945704.97202,1265067.3032476,113
1659945704.97202,1265067.3032525,111
1659945704.97202,1265067.3032563,101
1659945704.97202,1265067.3032631,91
1659945704.97202,1265067.3032664,77
1659945704.97202,1265067.3032733,55
1659945704.97202,1265067.3032796,58
1659945704.97202,1265067.3032876,67
1659945704.97202,1265067.3032945,53
1659945704.97202,1265067.3033012,36
1659945704.97202,1265067.3033043,26
1659945704.97202,1265067.3033072,65
1659945704.97202,1265067.3033102,258
1659945704.97202,1265067.3033132,611
1659945704.97202,1265067.3033161,896
1659945704.97202,1265067.3033189,807
1659945704.97202,1265067.3033218,352
1659945704.97202,1265067.3033248,-38
1659945704.97202,1265067.3033277,-94
1659945704.97202,1265067.3033306,-26
1659945704.97202,1265067.3033334,-26
1659945704.97202,1265067.3033363,-31
1659945704.97202,1265067.3033392,-16
1659945704.97202,1265067.3033421,-19
1659945704.97202,1265067.303345,-19
1659945704.97202,1265067.3033478,-4
1659945704.97202,1265067.3033508,-2
1659945704.97202,1265067.3033536,-4
1659945704.97202,1265067.3033567,0
1659945704.97202,1265067.3033596,7
1659945704.97202,1265067.3033625,14
1659945704.97202,1265067.3033656,21
1659945704.97202,1265067.3033686,36
1659945704.97202,1265067.3033714,43
1659945704.97202,1265067.3033744,60
1659945704.97202,1265067.3033773,74
1659945704.97202,1265067.3033802,77
1659945704.97202,1265067.3033831,79
1659945704.97202,1265067.303386,94
1659945704.97202,1265067.3033889,94
1659945704.97202,1265067.3033918,82
1659945704.97202,1265067.3033946,67
1659945704.97202,1265067.3033976,60
1659945704.982,1265067.3034005,55
1659945704.982,1265067.3034034,43
1659945704.982,1265067.3034063,29
1659945704.982,1265067.3034092,12
1659945704.982,1265067.3034121,0
1659945704.982,1265067.3034149,-2
1659945704.982,1265067.3034179,-2
1659945704.982,1265067.3034209,-2
1659945704.982,1265067.3034237,2
1659945704.982,1265067.3034266,2
1659945704.982,1265067.3034295,9
1659945704.982,1265067.3034324,24
1659945704.982,1265067.3034353,26
1659945704.982,1265067.3034381,24
1659945704.982,1265067.3034409,33
1659945704.982,1265067.3034437,43
1659945704.982,1265067.3034466,41
1659945704.982,1265067.3034494,45
1659945704.982,1265067.3034523,60
1659945704.982,1265067.888247,58
1659945704.982,1265067.8882747,50
1659945704.982,1265067.8882843,65
1659945704.982,1265067.888289,72
1659945704.982,1265067.8882925,70
1659945705.55712,1265067.8882961,67
1659945705.55712,1265067.8882994,48
1659945705.55712,1265067.8883028,29
1659945705.55712,1265067.888306,38
1659945705.55712,1265067.8883096,45
1659945705.55712,1265067.8883134,41
1659945705.55712,1265067.8883177,33
1659945705.55712,1265067.8883214,9
1659945705.55712,1265067.8883259,-16
1659945705.55712,1265067.88833,-9
1659945705.55712,1265067.8883352,4
1659945705.55712,1265067.8883406,4
1659945705.55712,1265067.8883461,12
1659945705.55712,1265067.8883502,19
1659945705.55712,1265067.8883562,12
1659945705.55712,1265067.8883631,7
1659945705.55712,1265067.8883696,24
1659945705.55712,1265067.8883765,62
1659945705.55712,1265067.8883817,87
1659945705.55712,1265067.8883856,84
1659945705.55712,1265067.8883903,74
1659945705.55712,1265067.8883992,67
1659945705.55712,1265067.8884057,58
1659945705.55712,1265067.8884133,48
1659945705.55712,1265067.8884211,55
1659945705.55712,1265067.8884251,67
1659945705.55712,1265067.8884298,65
1659945705.55712,1265067.8884343,55
1659945705.55712,1265067.88844,53
1659945705.55712,1265067.8884468,60
1659945705.55712,1265067.8884532,67
1659945705.55712,1265067.8884579,60
1659945705.55712,1265067.8884615,94
1659945705.55712,1265067.8884648,277
1659945705.55712,1265067.8884719,613
1659945705.55712,1265067.8884751,918
1659945705.55712,1265067.8884782,911
1659945705.55712,1265067.8884812,507
1659945705.55712,1265067.8884865,70
1659945705.55712,1265067.8885004,-50
1659945705.55712,1265067.88851,16
1659945705.55712,1265067.8885158,33
1659945705.55712,1265067.8885207,19
1659945705.55712,1265067.8885258,26
1659945705.55712,1265067.8885313,33
1659945705.55712,1265067.8885348,31
1659945705.55712,1265067.8885402,31
1659945705.55712,1265067.8885453,36
1659945705.55712,1265067.8885488,41
1659945705.55712,1265067.8885554,41
1659945705.56933,1265067.8885586,38
1659945705.56933,1265067.8885685,45
1659945705.56933,1265067.8885784,60
1659945705.56933,1265067.8885905,74
1659945705.56933,1265067.8885995,87
1659945705.56933,1265067.8886022,94
1659945705.56933,1265067.8886044,106
1659945705.56933,1265067.8886065,118
1659945705.56933,1265067.8886088,116
1659945705.56933,1265067.8886167,108
1659945705.56933,1265067.8886291,101
1659945705.56933,1265067.8886407,96
1659945705.56933,1265067.8886548,91
1659945705.56933,1265067.8886688,82
1659945705.56933,1265067.888684,62
1659945705.56933,1265067.8886948,41
1659945705.56933,1265067.8887035,31
1659945705.56933,1265067.8887103,21
1659945705.56933,1265068.4733554,14
1659945705.56933,1265068.4733757,9
1659945705.56933,1265068.473385,0
1659945705.56933,1265068.4733933,-7
1659945705.56933,1265068.4733998,-9
1659945705.56933,1265068.4734033,-9
1659945706.10183,1265068.4734086,-7
1659945706.10183,1265068.4734119,-2
1659945706.10183,1265068.4734156,-7
1659945706.10183,1265068.47342,-26
1659945706.10183,1265068.4734237,-26
1659945706.10183,1265068.4734267,-2
1659945706.10183,1265068.4734296,7
1659945706.10183,1265068.4734326,4
1659945706.10183,1265068.4734369,12
1659945706.10183,1265068.4734423,4
1659945706.10183,1265068.4734477,-19
1659945706.10183,1265068.4734509,-14
1659945706.10183,1265068.473455,9
1659945706.10183,1265068.4734624,16
1659945706.10183,1265068.473474,16
1659945706.10183,1265068.4734811,21
1659945706.10183,1265068.4734849,21
1659945706.10183,1265068.4734899,21
1659945706.10183,1265068.4734954,19
1659945706.10183,1265068.473499,19
1659945706.10183,1265068.4735044,21
1659945706.10183,1265068.473508,24
1659945706.10183,1265068.4735132,29
1659945706.10183,1265068.473519,36
1659945706.10183,1265068.4735225,43
1659945706.10183,1265068.4735282,48
1659945706.10183,1265068.473532,55
1659945706.10183,1265068.4735365,60
1659945706.10183,1265068.4735421,60
1659945706.10183,1265068.4735464,58
1659945706.10183,1265068.4735573,65
1659945706.10183,1265068.4735674,82
1659945706.10183,1265068.4735759,96
1659945706.10183,1265068.473583,111
1659945706.10183,1265068.4735901,116
1659945706.10183,1265068.473594,108
1659945706.10183,1265068.4735978,103
1659945706.10183,1265068.4736018,101
1659945706.10183,1265068.4736104,91
1659945706.10183,1265068.473619,89
1659945706.10183,1265068.4736259,94
1659945706.10183,1265068.4736348,99
1659945706.10183,1265068.4736408,101
1659945706.10183,1265068.4736474,106
1659945706.10183,1265068.473661,106
1659945706.10183,1265068.473669,99
1659945706.10183,1265068.4736738,94
1659945706.10183,1265068.4736801,147
1659945706.10183,1265068.4736853,355
1659945706.10183,1265068.4736963,708
1659945706.1138,1265068.4737058,998
1659945706.1138,1265068.4737126,932
1659945706.1138,1265068.4737184,476
1659945706.1138,1265068.4737256,33
1659945706.1138,1265068.4737337,-41
1659945706.1138,1265068.4737396,50
1659945706.1138,1265068.4737471,45
1659945706.1138,1265068.473753,24
1659945706.1138,1265068.4737602,45
1659945706.1138,1265068.4737661,50
1659945706.1138,1265068.4737737,43
1659945706.1138,1265068.4737796,48
1659945706.1138,1265068.4737872,48
1659945706.1138,1265068.4737931,41
1659945706.1138,1265068.4738005,29
1659945706.1138,1265068.4738065,24
1659945706.1138,1265068.4738141,33
1659945706.1138,1265069.0119591,41
1659945706.1138,1265069.011982,43
1659945706.1138,1265069.0119978,60
1659945706.1138,1265069.0120064,82
1659945706.1138,1265069.0120147,96
1659945706.1138,1265069.0120212,106
1659945706.1138,1265069.0120291,106
1659945706.63859,1265069.0120384,103
1659945706.63859,1265069.012043,106
1659945706.63859,1265069.0120471,103
1659945706.63859,1265069.0120514,94
1659945706.63859,1265069.0120576,89
1659945706.63859,1265069.0120637,55
1659945706.63859,1265069.0120683,4
1659945706.63859,1265069.0120722,-9
1659945706.63859,1265069.012077,-12
1659945706.63859,1265069.0120821,-26
1659945706.63859,1265069.0120877,-31
1659945706.63859,1265069.0120938,-36
1659945706.63859,1265069.0120999,-62
1659945706.63859,1265069.0121057,-70
1659945706.63859,1265069.0121098,-45
1659945706.63859,1265069.0121156,-31
1659945706.63859,1265069.0121201,-26
1659945706.63859,1265069.0121263,-16
1659945706.63859,1265069.0121295,-14
1659945706.63859,1265069.0121354,-7
1659945706.63859,1265069.0121394,7
1659945706.63859,1265069.0121449,14
1659945706.63859,1265069.0121497,26
1659945706.63859,1265069.0121531,36
1659945706.63859,1265069.0121565,36
1659945706.63859,1265069.0121603,36
1659945706.63859,1265069.0121656,48
1659945706.63859,1265069.0121693,58
1659945706.63859,1265069.012173,58
1659945706.63859,1265069.0121765,58
1659945706.63859,1265069.0121819,60
1659945706.63859,1265069.0121856,60
1659945706.63859,1265069.0121907,65
1659945706.63859,1265069.0122055,74
1659945706.63859,1265069.0122131,82
1659945706.63859,1265069.0122156,84
1659945706.63859,1265069.0122184,82
1659945706.63859,1265069.0122258,79
1659945706.63859,1265069.0122362,82
1659945706.63859,1265069.0122441,87
1659945706.63859,1265069.012255,82
1659945706.63859,1265069.0122632,79
1659945706.63859,1265069.0122666,74
1659945706.63859,1265069.012273,74
1659945706.63859,1265069.0122764,79
1659945706.63859,1265069.0122888,84
1659945706.63859,1265069.0122963,94
1659945706.63859,1265069.0123011,113
1659945706.63859,1265069.0123064,128
1659945706.63859,1265069.0123113,128
1659945706.6494,1265069.012317,118
1659945706.6494,1265069.0123227,113
1659945706.6494,1265069.0123265,113
1659945706.6494,1265069.0123323,106
1659945706.6494,1265069.0123361,96
1659945706.6494,1265069.0123411,87
1659945706.6494,1265069.0123447,74
1659945706.6494,1265069.0123501,70
1659945706.6494,1265069.0123537,79
1659945706.6494,1265069.0123595,84
1659945706.6494,1265069.0123637,77
1659945706.6494,1265069.012369,67
1659945706.6494,1265069.0123726,96
1659945706.6494,1265069.0123779,263
1659945706.6494,1265069.0123815,596
1659945706.6494,1265069.0123901,920
1659945706.6494,1265069.5456001,964
1659945706.6494,1265069.5456222,596
1659945706.6494,1265069.5456324,108
1659945706.6494,1265069.54564,-58
1659945706.6494,1265069.5456493,41
1659945706.6494,1265069.5456559,62
1659945706.6494,1265069.5456689,2
1659945706.6494,1265069.5456833,7
1659945707.21626,1265069.5456969,29
1659945707.21626,1265069.5457054,7
1659945707.21626,1265069.545713,2
1659945707.21626,1265069.5457195,14
1659945707.21626,1265069.5457294,14
1659945707.21626,1265069.5457374,14
1659945707.21626,1265069.5457447,29
1659945707.21626,1265069.5457496,21
1659945707.21626,1265069.5457623,7
1659945707.21626,1265069.5457708,19
1659945707.21626,1265069.5457753,41
1659945707.21626,1265069.5457808,48
1659945707.21626,1265069.5457849,60
1659945707.21626,1265069.5457907,70
1659945707.21626,1265069.5457945,55
1659945707.21626,1265069.5458001,50
1659945707.21626,1265069.5458046,60
1659945707.21626,1265069.5458104,62
1659945707.21626,1265069.5458145,55
1659945707.21626,1265069.5458203,53
1659945707.21626,1265069.5458242,38
1659945707.21626,1265069.54583,21
1659945707.21626,1265069.5458348,14
1659945707.21626,1265069.5458408,7
1659945707.21626,1265069.5458452,0
1659945707.21626,1265069.5458512,-4
1659945707.21626,1265069.5458573,-7
1659945707.21626,1265069.5458638,-7
1659945707.21626,1265069.5458685,-4
1659945707.21626,1265069.5458718,-2
1659945707.21626,1265069.5458849,-2
1659945707.21626,1265069.5458981,4
1659945707.21626,1265069.5459106,14
1659945707.21626,1265069.5459248,19
1659945707.21626,1265069.545937,19
1659945707.21626,1265069.5459482,26
1659945707.21626,1265069.5459621,43
1659945707.21626,1265069.5459744,55
1659945707.21626,1265069.5459826,62
1659945707.21626,1265069.5459888,60
1659945707.21626,1265069.5459923,58
1659945707.21626,1265069.5459964,67
1659945707.21626,1265069.5459996,79
1659945707.21626,1265069.5460034,84
1659945707.21626,1265069.5460115,84
1659945707.21626,1265069.5460229,84
1659945707.21626,1265069.5460359,77
1659945707.21626,1265069.5460488,60
1659945707.21626,1265069.5460564,55
1659945707.21626,1265069.5460676,65
1659945707.22823,1265069.5460743,67
1659945707.22823,1265069.5460803,67
1659945707.22823,1265069.5460863,67
1659945707.22823,1265069.5460908,72
1659945707.22823,1265069.5460939,79
1659945707.22823,1265069.5461062,82
1659945707.22823,1265069.5461163,84
1659945707.22823,1265069.5461225,87
1659945707.22823,1265069.5461286,84
1659945707.22823,1265069.5461321,82
1659945707.22823,1265069.5461452,96
1659945707.22823,1265069.5461578,113
1659945707.22823,1265069.5461691,120
1659945707.22823,1265069.5461804,116
1659945707.22823,1265069.5461891,103
1659945707.22823,1265070.1307597,96
1659945707.22823,1265070.1307785,99
1659945707.22823,1265070.1307895,96
1659945707.22823,1265070.1308052,89
1659945707.22823,1265070.1308187,89
1659945707.22823,1265070.1308304,79
1659945707.22823,1265070.1308373,55
1659945707.22823,1265070.1308438,50
1659945707.22823,1265070.1308517,62
1659945707.75609,1265070.1308587,62
1659945707.75609,1265070.1308655,50
1659945707.75609,1265070.1308724,77
1659945707.75609,1265070.1308804,227
1659945707.75609,1265070.1308881,529
1659945707.75609,1265070.1308955,838
1659945707.75609,1265070.1308998,862
1659945707.75609,1265070.1309056,483
1659945707.75609,1265070.1309101,26
1659945707.75609,1265070.1309165,-101
1659945707.75609,1265070.1309257,-4
1659945707.75609,1265070.1309319,14
1659945707.75609,1265070.13094,-14
1659945707.75609,1265070.1309463,-7
1659945707.75609,1265070.1309529,-4
1659945707.75609,1265070.1309598,-12
1659945707.75609,1265070.1309666,-9
1659945707.75609,1265070.1309702,0
1659945707.75609,1265070.1309735,12
1659945707.75609,1265070.1309793,19
1659945707.75609,1265070.1309853,16
1659945707.75609,1265070.1309885,16
1659945707.75609,1265070.1309942,31
1659945707.75609,1265070.1309975,43
1659945707.75609,1265070.1310032,58
1659945707.75609,1265070.1310063,74
1659945707.75609,1265070.131012,87
1659945707.75609,1265070.1310158,99
1659945707.75609,1265070.131022,106
1659945707.75609,1265070.1310286,103
1659945707.75609,1265070.1310319,106
1659945707.75609,1265070.1310416,108
1659945707.75609,1265070.1310522,99
1659945707.75609,1265070.1313344,89
1659945707.75609,1265070.1314057,79
1659945707.75609,1265070.1314182,65
1659945707.75609,1265070.1314251,53
1659945707.75609,1265070.1314312,45
1659945707.75609,1265070.1314363,29
1659945707.75609,1265070.1314407,4
1659945707.75609,1265070.1314453,-2
1659945707.75609,1265070.1314512,4
1659945707.75609,1265070.1314563,4
1659945707.75609,1265070.1314613,4
1659945707.75609,1265070.1314652,14
1659945707.75609,1265070.1314691,21
1659945707.75609,1265070.1314741,31
1659945707.75609,1265070.1314813,41
1659945707.75609,1265070.1314877,43
1659945707.75609,1265070.1314919,50
1659945707.76606,1265070.1314961,62
1659945707.76606,1265070.1315012,60
1659945707.76606,1265070.1315048,58
1659945707.76606,1265070.1315106,62
1659945707.76606,1265070.1315174,65
1659945707.76606,1265070.1315243,62
1659945707.76606,1265070.13153,65
1659945707.76606,1265070.1315365,70
1659945707.76606,1265070.1315426,72
1659945707.76606,1265070.1315458,77
1659945707.76606,1265070.1315489,79
1659945707.76606,1265070.1315522,79
1659945707.76606,1265070.1315553,77
1659945707.76606,1265070.1315582,79
1659945707.76606,1265070.6686164,84
1659945707.76606,1265070.6686347,89
1659945707.76606,1265070.6686429,89
1659945707.76606,1265070.6686492,89
1659945707.76606,1265070.6686525,89
1659945707.76606,1265070.6686582,89
1659945707.76606,1265070.6686612,89
1659945707.76606,1265070.6686643,94
1659945707.76606,1265070.6686672,94
1659945707.76606,1265070.6686701,67
1659945708.49027,1265070.6686735,43
1659945708.49027,1265070.6686802,60
1659945708.49027,1265070.6686872,91
1659945708.49027,1265070.6686941,106
1659945708.49027,1265070.668701,103
1659945708.49027,1265070.668705,84
1659945708.49027,1265070.6687096,55
1659945708.49027,1265070.6687137,41
1659945708.49027,1265070.6687176,45
1659945708.49027,1265070.6687222,43
1659945708.49027,1265070.6687258,33
1659945708.49027,1265070.6687303,29
1659945708.49027,1265070.6687337,24
1659945708.49027,1265070.6687383,29
1659945708.49027,1265070.6687419,38
1659945708.49027,1265070.668749,41
1659945708.49027,1265070.6687537,31
1659945708.49027,1265070.6687594,53
1659945708.49027,1265070.6687651,188
1659945708.49027,1265070.6687697,480
1659945708.49027,1265070.6687762,804
1659945708.49027,1265070.6687816,870
1659945708.49027,1265070.6687865,529
1659945708.49027,1265070.6687928,72
1659945708.49027,1265070.6687992,-89
1659945708.49027,1265070.668803,-12
1659945708.49027,1265070.6688094,12
1659945708.49027,1265070.6688133,-14
1659945708.49027,1265070.6688192,-2
1659945708.49027,1265070.6688238,-2
1659945708.49027,1265070.6688298,-36
1659945708.49027,1265070.6688337,-43
1659945708.49027,1265070.66884,-16
1659945708.49027,1265070.6688462,-4
1659945708.49027,1265070.6688521,-4
1659945708.49027,1265070.6688566,7
1659945708.49027,1265070.6688626,16
1659945708.49027,1265070.6688691,19
1659945708.49027,1265070.6688788,33
1659945708.49027,1265070.6688839,53
1659945708.49027,1265070.6688904,67
1659945708.49027,1265070.6688966,74
1659945708.49027,1265070.6689028,74
1659945708.49027,1265070.6689093,72
1659945708.49027,1265070.6689157,82
1659945708.49027,1265070.6689228,91
1659945708.49027,1265070.6689298,79
1659945708.49027,1265070.6689376,67
1659945708.49027,1265070.6689443,65
1659945708.49027,1265070.6689508,55
1659945708.50124,1265070.6689587,38
1659945708.50124,1265070.6689668,29
1659945708.50124,1265070.6689708,24
1659945708.50124,1265070.6689777,12
1659945708.50124,1265070.6689848,9
1659945708.50124,1265070.6690021,14
1659945708.50124,1265070.6690099,9
1659945708.50124,1265070.6690172,4
1659945708.50124,1265070.6690242,9
1659945708.50124,1265070.6690332,16
1659945708.50124,1265070.669042,21
1659945708.50124,1265070.6690489,29
1659945708.50124,1265070.669056,31
1659945708.50124,1265071.3998115,36
1659945708.50124,1265071.3998279,50
1659945708.50124,1265071.3998333,58
1659945708.50124,1265071.3998396,53
1659945708.50124,1265071.3998444,58
1659945708.50124,1265071.3998506,58
1659945708.50124,1265071.3998554,33
1659945708.50124,1265071.3998615,31
1659945708.50124,1265071.399867,48
1659945708.50124,1265071.3998716,48
1659945708.50124,1265071.3998763,41
1659945709.02941,1265071.3998809,36
1659945709.02941,1265071.399885,21
1659945709.02941,1265071.3998894,9
1659945709.02941,1265071.3998939,19
1659945709.02941,1265071.3998984,26
1659945709.02941,1265071.3999032,31
1659945709.02941,1265071.399909,36
1659945709.02941,1265071.3999137,29
1659945709.02941,1265071.3999205,14
1659945709.02941,1265071.3999252,16
1659945709.02941,1265071.3999315,26
1659945709.02941,1265071.3999361,29
1659945709.02941,1265071.3999426,33
1659945709.02941,1265071.3999473,41
1659945709.02941,1265071.3999532,41
1659945709.02941,1265071.3999579,38
1659945709.02941,1265071.3999653,45
1659945709.02941,1265071.3999716,62
1659945709.02941,1265071.3999783,87
1659945709.02941,1265071.3999844,96
1659945709.02941,1265071.3999892,91
1659945709.02941,1265071.3999963,87
1659945709.02941,1265071.4000011,70
1659945709.02941,1265071.4000072,43
1659945709.02941,1265071.4000119,31
1659945709.02941,1265071.4000198,41
1659945709.02941,1265071.4000244,48
1659945709.02941,1265071.4000304,48
1659945709.02941,1265071.4000351,50
1659945709.02941,1265071.4000402,55
1659945709.02941,1265071.4000463,58
1659945709.02941,1265071.400051,53
1659945709.02941,1265071.4000571,55
1659945709.02941,1265071.400062,174
1659945709.02941,1265071.4000688,461
1659945709.02941,1265071.4000754,780
1659945709.02941,1265071.40008,858
1659945709.02941,1265071.4000879,551
1659945709.02941,1265071.4000922,111
1659945709.02941,1265071.4000968,-67
1659945709.02941,1265071.4001029,-21
1659945709.02941,1265071.4001083,-2
1659945709.02941,1265071.4001144,-14
1659945709.02941,1265071.400119,-2
1659945709.02941,1265071.4001248,-2
1659945709.02941,1265071.40013,-14
1659945709.02941,1265071.400136,-14
1659945709.02941,1265071.4001406,4
1659945709.02941,1265071.4001464,16
1659945709.02941,1265071.400152,24
1659945709.04238,1265071.4001565,38
1659945709.04238,1265071.4001627,50
1659945709.04238,1265071.4001671,50
1659945709.04238,1265071.4001717,58
1659945709.04238,1265071.4001764,72
1659945709.04238,1265071.4001827,94
1659945709.04238,1265071.4001878,111
1659945709.04238,1265071.4001937,113
1659945709.04238,1265071.4001991,111
1659945709.04238,1265071.4002037,113
1659945709.04238,1265071.4002097,116
1659945709.04238,1265071.4002143,111
1659945709.04238,1265071.9350617,106
1659945709.04238,1265071.9350751,99
1659945709.04238,1265071.9350787,77
1659945709.04238,1265071.9350811,53
1659945709.04238,1265071.9350834,50
1659945709.04238,1265071.9350856,48
1659945709.04238,1265071.9350878,41
1659945709.04238,1265071.9350901,33
1659945709.04238,1265071.9350922,21
1659945709.04238,1265071.9350944,-2
1659945709.04238,1265071.9350965,-16
1659945709.04238,1265071.9350987,-7
1659945709.45662,1265071.9351007,2
1659945709.45662,1265071.9351028,9
1659945709.45662,1265071.9351048,12
1659945709.45662,1265071.9351073,9
1659945709.45662,1265071.935114,14
1659945709.45662,1265071.9351206,29
1659945709.45662,1265071.9351247,41
1659945709.45662,1265071.935131,45
1659945709.45662,1265071.9351363,48
1659945709.45662,1265071.9351422,48
1659945709.45662,1265071.9351456,50
1659945709.45662,1265071.9351489,53
1659945709.45662,1265071.9351518,65
1659945709.45662,1265071.9351547,70
1659945709.45662,1265071.9351577,65
1659945709.45662,1265071.9351606,45
1659945709.45662,1265071.9351636,29
1659945709.45662,1265071.9351664,36
1659945709.45662,1265071.9351693,53
1659945709.45662,1265071.9351722,48
1659945709.45662,1265071.9351751,41
1659945709.45662,1265071.935178,48
1659945709.45662,1265071.9351809,50
1659945709.45662,1265071.9351838,48
1659945709.45662,1265071.9351867,58
1659945709.45662,1265071.9351897,60
1659945709.45662,1265071.9351925,60
1659945709.45662,1265071.9351954,65
1659945709.45662,1265071.9351982,55
1659945709.45662,1265071.9352011,38
1659945709.45662,1265071.9352041,53
1659945709.45662,1265071.935207,84
1659945709.45662,1265071.9352099,91
1659945709.45662,1265071.9352128,89
1659945709.45662,1265071.9352157,91
1659945709.45662,1265071.9352186,87
1659945709.45662,1265071.9352241,74
1659945709.45662,1265071.9352295,72
1659945709.45662,1265071.9352343,74
1659945709.45662,1265071.9352411,74
1659945709.45662,1265071.9352462,82
1659945709.45662,1265071.9352522,87
1659945709.45662,1265071.9352554,84
1659945709.45662,1265071.9352588,87
1659945709.45662,1265071.9352621,87
1659945709.45662,1265071.9352658,74
1659945709.45662,1265071.9352712,128
1659945709.45662,1265071.9352747,343
1659945709.45662,1265071.93528,686
1659945709.45662,1265071.9352836,930
1659945709.46615,1265071.9352882,816
1659945709.46615,1265071.9352936,369
1659945709.46615,1265071.9352969,12
1659945709.46615,1265071.9353006,-14
1659945709.46615,1265071.9353062,41
1659945709.46615,1265071.9353099,12
1659945709.46615,1265071.9353161,0
1659945709.46615,1265071.9353255,16
1659945709.46615,1265071.9353387,7
1659945709.46615,1265071.9353529,-2
1659945709.46615,1265071.9353629,12
1659945709.46615,1265072.3732334,16
1659945709.46615,1265072.3732514,19
1659945709.46615,1265072.3732582,31
1659945709.46615,1265072.3732641,45
1659945709.46615,1265072.3732683,53
1659945709.46615,1265072.3732724,60
1659945709.46615,1265072.3732763,70
1659945709.46615,1265072.3732802,79
1659945709.46615,1265072.3732841,94
1659945709.46615,1265072.3732881,106
1659945709.46615,1265072.3732922,113
1659945709.46615,1265072.3732987,116
1659945709.46615,1265072.3733066,94
1659945709.99296,1265072.3733106,65
1659945709.99296,1265072.3733143,62
1659945709.99296,1265072.3733179,65
1659945709.99296,1265072.3733215,55
1659945709.99296,1265072.373325,45
1659945709.99296,1265072.3733287,31
1659945709.99296,1265072.3733323,0
1659945709.99296,1265072.3733356,-19
1659945709.99296,1265072.3733387,-14
1659945709.99296,1265072.3733416,-9
1659945709.99296,1265072.3733446,-12
1659945709.99296,1265072.3733476,-9
1659945709.99296,1265072.3733508,-12
1659945709.99296,1265072.3733537,-19
1659945709.99296,1265072.3733567,-9
1659945709.99296,1265072.3733599,4
1659945709.99296,1265072.3733629,9
1659945709.99296,1265072.3733659,9
1659945709.99296,1265072.3733689,-4
1659945709.99296,1265072.3733719,-16
1659945709.99296,1265072.3733748,0
1659945709.99296,1265072.3733777,16
1659945709.99296,1265072.3733812,19
1659945709.99296,1265072.3733859,26
1659945709.99296,1265072.3733919,29
1659945709.99296,1265072.3733962,29
1659945709.99296,1265072.3734023,33
1659945709.99296,1265072.3737409,45
1659945709.99296,1265072.3737502,50
1659945709.99296,1265072.3737545,50
1659945709.99296,1265072.3737583,50
1659945709.99296,1265072.3737621,53
1659945709.99296,1265072.3737659,55
1659945709.99296,1265072.3737695,60
1659945709.99296,1265072.3737732,70
1659945709.99296,1265072.3737769,74
1659945709.99296,1265072.3737806,70
1659945709.99296,1265072.3737843,65

1659945709.99296,1265072.3737878,70
1659945709.99296,1265072.3737913,79
1659945709.99296,1265072.3737949,84
1659945709.99296,1265072.3737985,84
1659945709.99296,1265072.3738022,82
1659945709.99296,1265072.3738057,94
1659945709.99296,1265072.3738092,113
1659945709.99296,1265072.3738129,123
1659945709.99296,1265072.3738161,120
1659945709.99296,1265072.3738203,118
1659945709.99296,1265072.3738239,113
1659945709.99296,1265072.3738275,106
1659945710.00493,1265072.3738312,91
1659945710.00493,1265072.373835,84
1659945710.00493,1265072.3738386,94
1659945710.00493,1265072.3738429,99
1659945710.00493,1265072.3738467,99
1659945710.00493,1265072.3738502,101
1659945710.00493,1265072.373854,103
1659945710.00493,1265072.3738587,96
1659945710.00493,1265072.3738628,87
1659945710.00493,1265072.3738666,125
1659945710.00493,1265072.9096051,302
1659945710.00493,1265072.9096224,618
1659945710.00493,1265072.9096284,928
1659945710.00493,1265072.9096335,945
1659945710.00493,1265072.9096385,555
1659945710.00493,1265072.9096433,94
1659945710.00493,1265072.9096483,-41
1659945710.00493,1265072.909653,38
1659945710.00493,1265072.9096576,48
1659945710.00493,1265072.9096633,0
1659945710.00493,1265072.9096681,-7
1659945710.00493,1265072.9096765,0
1659945710.00493,1265072.909684,-21
1659945710.00493,1265072.909689,-41
1659945710.58241,1265072.9096944,-38
1659945710.58241,1265072.9096993,-43
1659945710.58241,1265072.9097039,-62
1659945710.58241,1265072.909709,-62
1659945710.58241,1265072.9097141,-43
1659945710.58241,1265072.9097178,-26
1659945710.58241,1265072.9097202,-16
1659945710.58241,1265072.9097223,-7
1659945710.58241,1265072.9097242,7
1659945710.58241,1265072.9097266,24
1659945710.58241,1265072.9097308,36
1659945710.58241,1265072.9097354,50
1659945710.58241,1265072.9097402,62
1659945710.58241,1265072.9097472,60
1659945710.58241,1265072.9097813,48
1659945710.58241,1265072.9097914,43
1659945710.58241,1265072.9097972,41
1659945710.58241,1265072.9098048,31
1659945710.58241,1265072.9098115,19
1659945710.58241,1265072.9098152,9
1659945710.58241,1265072.9098185,-2
1659945710.58241,1265072.9098215,-12
1659945710.58241,1265072.9098247,-9
1659945710.58241,1265072.9098314,-2
1659945710.58241,1265072.909835,-2
1659945710.58241,1265072.9098412,0
1659945710.58241,1265072.9098446,12
1659945710.58241,1265072.9098481,9
1659945710.58241,1265072.9098549,4
1659945710.58241,1265072.9098639,16
1659945710.58241,1265072.9098796,33
1659945710.58241,1265072.909891,43
1659945710.58241,1265072.9099004,48
1659945710.58241,1265072.909911,50
1659945710.58241,1265072.909919,48
1659945710.58241,1265072.909925,45
1659945710.58241,1265072.9099303,53
1659945710.58241,1265072.909937,62
1659945710.58241,1265072.9099421,70
1659945710.58241,1265072.9099485,67
1659945710.58241,1265072.9099555,62
1659945710.58241,1265072.9099637,70
1659945710.58241,1265072.9099712,77
1659945710.58241,1265072.9099821,82
1659945710.58241,1265072.9099932,84
1659945710.58241,1265072.9100019,84
1659945710.58241,1265072.9100108,82
1659945710.58241,1265072.9100231,87
1659945710.58241,1265072.9100376,91
1659945710.58241,1265072.9100508,91
1659945710.59239,1265072.910064,96
1659945710.59239,1265072.9100731,99
1659945710.59239,1265072.9100764,94
1659945710.59239,1265072.9100786,91
1659945710.59239,1265072.9100809,96
1659945710.59239,1265072.910083,103
1659945710.59239,1265072.9100853,118
1659945710.59239,1265072.9100899,135
1659945710.59239,1265072.9100967,142
1659945710.59239,1265073.4947713,140
1659945710.59239,1265073.4947955,132
1659945710.59239,1265073.494802,130
1659945710.59239,1265073.4948069,125
1659945710.59239,1265073.4948106,103
1659945710.59239,1265073.4948151,65
1659945710.59239,1265073.4948196,38
1659945710.59239,1265073.4948242,36
1659945710.59239,1265073.4948297,38
1659945710.59239,1265073.4948356,36
1659945710.59239,1265073.4948402,45
1659945710.59239,1265073.494844,41
1659945710.59239,1265073.4948486,9
1659945710.59239,1265073.4948523,48
1659945710.59239,1265073.4948565,275
1659945711.11997,1265073.4948609,638
1659945711.11997,1265073.4948648,906
1659945711.11997,1265073.4948692,824
1659945711.11997,1265073.4948739,374
1659945711.11997,1265073.4948777,-41
1659945711.11997,1265073.4948823,-99
1659945711.11997,1265073.4948866,-9
1659945711.11997,1265073.4948902,-12
1659945711.11997,1265073.4948947,-26
1659945711.11997,1265073.494899,-9
1659945711.11997,1265073.4949025,-12
1659945711.11997,1265073.4949057,-19
1659945711.11997,1265073.4949091,-9
1659945711.11997,1265073.4949127,0
1659945711.11997,1265073.4949162,0
1659945711.11997,1265073.4949197,4
1659945711.11997,1265073.4949232,14
1659945711.11997,1265073.4949278,26
1659945711.11997,1265073.4949344,41
1659945711.11997,1265073.4949396,55
1659945711.11997,1265073.4949461,67
1659945711.11997,1265073.4949515,77
1659945711.11997,1265073.4949545,87
1659945711.11997,1265073.4949578,101
1659945711.11997,1265073.4949634,103
1659945711.11997,1265073.4949668,96
1659945711.11997,1265073.4949718,89
1659945711.11997,1265073.494975,87
1659945711.11997,1265073.4949789,74
1659945711.11997,1265073.4949868,60
1659945711.11997,1265073.4949941,55
1659945711.11997,1265073.4950037,48
1659945711.11997,1265073.4950173,31
1659945711.11997,1265073.495032,14
1659945711.11997,1265073.4950441,12
1659945711.11997,1265073.4950499,14
1659945711.11997,1265073.4950594,12
1659945711.11997,1265073.4950734,14
1659945711.11997,1265073.4950865,19
1659945711.11997,1265073.4950986,19
1659945711.11997,1265073.4951078,21
1659945711.11997,1265073.4951161,33
1659945711.11997,1265073.4951207,41
1659945711.11997,1265073.4951423,41
1659945711.11997,1265073.4951564,45
1659945711.11997,1265073.4951692,58
1659945711.11997,1265073.4951825,67
1659945711.11997,1265073.4951959,72
1659945711.11997,1265073.4952089,74
1659945711.11997,1265073.4952221,79
1659945711.13194,1265073.4952336,89
1659945711.13194,1265073.4952481,89
1659945711.13194,1265073.4952614,87
1659945711.13194,1265073.4952745,91
1659945711.13194,1265073.4952895,94
1659945711.13194,1265073.4953039,79
1659945711.13194,1265073.4953096,58
1659945711.13194,1265073.4953257,48
1659945711.13194,1265074.0315211,55
1659945711.13194,1265074.031534,60
1659945711.13194,1265074.0315368,58
1659945711.13194,1265074.0315391,55
1659945711.13194,1265074.0315411,58
1659945711.13194,1265074.0315432,60
1659945711.13194,1265074.0315452,65
1659945711.13194,1265074.0315472,74
1659945711.13194,1265074.0315492,70
1659945711.13194,1265074.0315512,41
1659945711.13194,1265074.0315533,26
1659945711.13194,1265074.0315553,41
1659945711.13194,1265074.0315574,65
1659945711.13194,1265074.0315594,82
1659945711.13194,1265074.0315614,89
1659945711.13194,1265074.0315634,70
1659945711.7002,1265074.0315657,43
1659945711.7002,1265074.0315723,41
1659945711.7002,1265074.0315827,43
1659945711.7002,1265074.0315875,38
1659945711.7002,1265074.0315898,41
1659945711.7002,1265074.0315918,45
1659945711.7002,1265074.0315942,41
1659945711.7002,1265074.0315983,43
1659945711.7002,1265074.0316043,53
1659945711.7002,1265074.0316117,55
1659945711.7002,1265074.0316169,53
1659945711.7002,1265074.0316237,50
1659945711.7002,1265074.031629,137
1659945711.7002,1265074.0316385,413
1659945711.7002,1265074.031647,780
1659945711.7002,1265074.0316599,966
1659945711.7002,1265074.0316696,746
1659945711.7002,1265074.0316723,248
1659945711.7002,1265074.0316745,-70
1659945711.7002,1265074.0316766,-45
1659945711.7002,1265074.0316787,29
1659945711.7002,1265074.0316807,7
1659945711.7002,1265074.0316838,0
1659945711.7002,1265074.031697,14
1659945711.7002,1265074.0317033,9
1659945711.7002,1265074.0317055,9
1659945711.7002,1265074.0317076,19
1659945711.7002,1265074.0317096,24
1659945711.7002,1265074.0317117,26
1659945711.7002,1265074.0317138,29
1659945711.7002,1265074.0317215,33
1659945711.7002,1265074.0317321,43
1659945711.7002,1265074.0317364,55
1659945711.7002,1265074.0317385,65
1659945711.7002,1265074.0317407,77
1659945711.7002,1265074.0317429,91
1659945711.7002,1265074.031745,101
1659945711.7002,1265074.0317471,108
1659945711.7002,1265074.0317492,116
1659945711.7002,1265074.0317513,113
1659945711.7002,1265074.0317535,108
1659945711.7002,1265074.0317556,108
1659945711.7002,1265074.0317577,101
1659945711.7002,1265074.0317598,84
1659945711.7002,1265074.0317619,65
1659945711.7002,1265074.031764,58
1659945711.7002,1265074.0317681,48
1659945711.7002,1265074.0317757,16
1659945711.7002,1265074.0317898,-7
1659945711.7002,1265074.0318038,-7
1659945711.71017,1265074.0318172,-2
1659945711.71017,1265074.0318287,-2
1659945711.71017,1265074.0318427,2
1659945711.71017,1265074.0318485,9
1659945711.71017,1265074.031851,14
1659945711.71017,1265074.031854,19
1659945711.71017,1265074.0318666,21
1659945711.71017,1265074.6163859,26
1659945711.71017,1265074.6163987,41
1659945711.71017,1265074.6164018,50
1659945711.71017,1265074.6164046,53
1659945711.71017,1265074.6164072,58
1659945711.71017,1265074.6164097,55
1659945711.71017,1265074.616417,38
1659945711.71017,1265074.6164302,33
1659945711.71017,1265074.6164339,45
1659945711.71017,1265074.6164382,50
1659945711.71017,1265074.6164403,55
1659945711.71017,1265074.6164423,55
1659945711.71017,1265074.6164444,33
1659945711.71017,1265074.6164465,14
1659945711.71017,1265074.6164486,26
1659945711.71017,1265074.6164554,38
1659945711.71017,1265074.6164667,38
1659945712.29548,1265074.6164725,45
1659945712.29548,1265074.6164755,48
1659945712.29548,1265074.6164845,41
1659945712.29548,1265074.6164916,43
1659945712.29548,1265074.6164972,48
1659945712.29548,1265074.6165042,43
1659945712.29548,1265074.6165089,43
1659945712.29548,1265074.6165191,50
1659945712.29548,1265074.6165261,50
1659945712.29548,1265074.6165304,58
1659945712.29548,1265074.6165356,79
1659945712.29548,1265074.616542,99
1659945712.29548,1265074.616546,106
1659945712.29548,1265074.6165499,103
1659945712.29548,1265074.6165537,96
1659945712.29548,1265074.616564,89
1659945712.29548,1265074.6165789,79
1659945712.29548,1265074.6165975,77
1659945712.29548,1265074.6166112,84
1659945712.29548,1265074.6166197,89
1659945712.29548,1265074.6166314,91
1659945712.29548,1265074.6166433,94
1659945712.29548,1265074.6166488,91
1659945712.29548,1265074.616652,91
1659945712.29548,1265074.6166542,87
1659945712.29548,1265074.6166574,118
1659945712.29548,1265074.6166681,285
1659945712.29548,1265074.6166758,613
1659945712.29548,1265074.6166783,940
1659945712.29548,1265074.6166805,981
1659945712.29548,1265074.6166879,606
1659945712.29548,1265074.6166985,123
1659945712.29548,1265074.6167094,-38
1659945712.29548,1265074.6167129,45
1659945712.29548,1265074.6167159,60
1659945712.29548,1265074.6167193,26
1659945712.29548,1265074.6167293,41
1659945712.29548,1265074.6167379,48
1659945712.29548,1265074.6167405,33
1659945712.29548,1265074.6167432,31
1659945712.29548,1265074.6167454,21
1659945712.29548,1265074.6167522,16
1659945712.29548,1265074.616763,29
1659945712.29548,1265074.6167666,36
1659945712.29548,1265074.6167695,36
1659945712.29548,1265074.616773,45
1659945712.29548,1265074.6167858,53
1659945712.29548,1265074.6167976,62
1659945712.29548,1265074.6168136,79
1659945712.29548,1265074.6168253,91
1659945712.30745,1265074.6168398,103
1659945712.30745,1265074.6168527,111
1659945712.30745,1265074.6168666,108
1659945712.30745,1265074.6168799,103
1659945712.30745,1265074.6168931,101
1659945712.30745,1265074.6169064,99
1659945712.30745,1265075.2019449,87
1659945712.30745,1265075.2019634,72
1659945712.30745,1265075.2019727,53
1659945712.30745,1265075.2019799,38
1659945712.30745,1265075.2019939,29
1659945712.30745,1265075.202005,24
1659945712.30745,1265075.2020123,21
1659945712.30745,1265075.2020207,21
1659945712.30745,1265075.2020281,7
1659945712.30745,1265075.2020342,-16
1659945712.30745,1265075.2020414,-21
1659945712.30745,1265075.2020475,-9
1659945712.30745,1265075.2020536,-2
1659945712.30745,1265075.2020579,-4
1659945712.30745,1265075.202064,-12
1659945712.30745,1265075.2020687,-24
1659945712.30745,1265075.2020745,-33
1659945712.30745,1265075.2020806,-24
1659945712.81972,1265075.2020863,-4
1659945712.81972,1265075.2020913,2
1659945712.81972,1265075.2020961,7
1659945712.81972,1265075.2021002,12
1659945712.81972,1265075.2021047,19
1659945712.81972,1265075.2021088,26
1659945712.81972,1265075.2021149,33
1659945712.81972,1265075.2021227,41
1659945712.81972,1265075.2021295,41
1659945712.81972,1265075.2021363,43
1659945712.81972,1265075.202142,45
1659945712.81972,1265075.202146,48
1659945712.81972,1265075.2021505,55
1659945712.81972,1265075.202156,58
1659945712.81972,1265075.2021619,60
1659945712.81972,1265075.202168,62
1659945712.81972,1265075.2021723,67
1659945712.81972,1265075.202177,70
1659945712.81972,1265075.202183,74
1659945712.81972,1265075.2021872,79
1659945712.81972,1265075.2021919,79
1659945712.81972,1265075.2021975,79
1659945712.81972,1265075.202203,79
1659945712.81972,1265075.2022087,87
1659945712.81972,1265075.2022156,108
1659945712.81972,1265075.2022243,128
1659945712.81972,1265075.2022307,130
1659945712.81972,1265075.2022363,120
1659945712.81972,1265075.2022399,106
1659945712.81972,1265075.2022436,91
1659945712.81972,1265075.2022474,84
1659945712.81972,1265075.2022523,67
1659945712.81972,1265075.2022605,50
1659945712.81972,1265075.2022671,58
1659945712.81972,1265075.2022749,70
1659945712.81972,1265075.2022803,65
1659945712.81972,1265075.2022907,67
1659945712.81972,1265075.2022956,72
1659945712.81972,1265075.2023003,62
1659945712.81972,1265075.2023041,70
1659945712.81972,1265075.2023128,195
1659945712.81972,1265075.2023176,495
1659945712.81972,1265075.2023215,853
1659945712.81972,1265075.2023261,1007
1659945712.81972,1265075.2023297,744
1659945712.81972,1265075.2023328,224
1659945712.81972,1265075.2023358,-60
1659945712.81972,1265075.2023387,2
1659945712.81972,1265075.2023417,65
1659945712.81972,1265075.2023445,24
1659945712.83168,1265075.2023477,19
1659945712.83168,1265075.2023519,43
1659945712.83168,1265075.2023551,38
1659945712.83168,1265075.2023584,41
1659945712.83168,1265075.202362,50
1659945712.83168,1265075.7373356,45
1659945712.83168,1265075.7373531,43
1659945712.83168,1265075.7373633,50
1659945712.83168,1265075.7373695,50
1659945712.83168,1265075.7373757,53
1659945712.83168,1265075.7373839,55
1659945712.83168,1265075.7373907,62
1659945712.83168,1265075.7374004,70
1659945712.83168,1265075.7374083,82
1659945712.83168,1265075.7374108,99
1659945712.83168,1265075.7374129,108
1659945712.83168,1265075.737415,106
1659945712.83168,1265075.7374169,91
1659945712.83168,1265075.737419,72
1659945712.83168,1265075.7374211,65
1659945712.83168,1265075.7374232,65
1659945712.83168,1265075.7374252,53
1659945712.83168,1265075.7374272,36
1659945712.83168,1265075.7374293,2
1659945713.41053,1265075.7374314,-36
1659945713.41053,1265075.7374335,-41
1659945713.41053,1265075.7374355,-29
1659945713.41053,1265075.7374374,-33
1659945713.41053,1265075.7374394,-33
1659945713.41053,1265075.7374413,-31
1659945713.41053,1265075.7374432,-41
1659945713.41053,1265075.7374451,-41
1659945713.41053,1265075.737447,-24
1659945713.41053,1265075.7374489,-12
1659945713.41053,1265075.7374509,-2
1659945713.41053,1265075.7374544,7
1659945713.41053,1265075.7374647,7
1659945713.41053,1265075.7374719,14
1659945713.41053,1265075.7374772,29
1659945713.41053,1265075.7374844,38
1659945713.41053,1265075.7374912,43
1659945713.41053,1265075.7375464,43
1659945713.41053,1265075.7375642,33
1659945713.41053,1265075.7375844,36
1659945713.41053,1265075.7375928,48
1659945713.41053,1265075.737599,50
1659945713.41053,1265075.7376033,43
1659945713.41053,1265075.7376084,33
1659945713.41053,1265075.737614,26
1659945713.41053,1265075.7376202,26
1659945713.41053,1265075.7376287,36
1659945713.41053,1265075.7376338,45
1659945713.41053,1265075.7376391,53
1659945713.41053,1265075.7376431,55
1659945713.41053,1265075.7376467,53
1659945713.41053,1265075.7376496,55
1659945713.41053,1265075.7376524,60
1659945713.41053,1265075.7376554,70
1659945713.41053,1265075.7376592,72
1659945713.41053,1265075.7376623,74
1659945713.41053,1265075.7376653,79
1659945713.41053,1265075.7376686,74
1659945713.41053,1265075.7376717,72
1659945713.41053,1265075.7376749,87
1659945713.41053,1265075.737681,113
1659945713.41053,1265075.737687,128
1659945713.41053,1265075.7376929,128
1659945713.41053,1265075.7376982,123
1659945713.41053,1265075.7377042,120
1659945713.41053,1265075.7377112,111
1659945713.41053,1265075.7377199,106
1659945713.41053,1265075.7377281,99
1659945713.41053,1265075.7377347,94
1659945713.41053,1265075.7377472,91
1659945713.41951,1265075.7377568,87
1659945713.41951,1265075.7377673,87
1659945713.41951,1265075.7377781,91
1659945713.41951,1265075.7377862,91
1659945713.41951,1265076.3221196,74
1659945713.41951,1265076.3221425,106
1659945713.41951,1265076.3221534,299
1659945713.41951,1265076.3221626,647
1659945713.41951,1265076.3221678,961
1659945713.41951,1265076.3221746,959
1659945713.41951,1265076.3221786,546
1659945713.41951,1265076.3221825,67
1659945713.41951,1265076.3221869,-67
1659945713.41951,1265076.3221928,14
1659945713.41951,1265076.3221968,19
1659945713.41951,1265076.3222024,-7
1659945713.41951,1265076.3222081,9
1659945713.41951,1265076.3222121,12
1659945713.41951,1265076.3222163,-7
1659945713.41951,1265076.3222218,-21
1659945713.41951,1265076.3222273,-31
1659945713.41951,1265076.3222326,-31
1659945713.41951,1265076.3222379,-19
1659945713.41951,1265076.3222419,-7
1659945714.04309,1265076.3222471,2
1659945714.04309,1265076.3222508,14
1659945714.04309,1265076.3222548,24
1659945714.04309,1265076.3222586,36
1659945714.04309,1265076.3222623,50
1659945714.04309,1265076.3222658,65
1659945714.04309,1265076.32227,79
1659945714.04309,1265076.3222744,84
1659945714.04309,1265076.3222781,84
1659945714.04309,1265076.3222814,82
1659945714.04309,1265076.3222849,74
1659945714.04309,1265076.3222891,70
1659945714.04309,1265076.322294,65
1659945714.04309,1265076.3222977,45
1659945714.04309,1265076.3223045,12
1659945714.04309,1265076.3223083,-7
1659945714.04309,1265076.3223121,-12
1659945714.04309,1265076.3223165,-16
1659945714.04309,1265076.3223219,-19
1659945714.04309,1265076.322329,-12
1659945714.04309,1265076.3223343,-7
1659945714.04309,1265076.32234,-7
1659945714.04309,1265076.3223462,-7
1659945714.04309,1265076.3223522,0
1659945714.04309,1265076.3223588,9
1659945714.04309,1265076.3223625,19
1659945714.04309,1265076.3223658,29
1659945714.04309,1265076.3223691,31
1659945714.04309,1265076.3223726,36
1659945714.04309,1265076.3223761,48
1659945714.04309,1265076.3223801,62
1659945714.04309,1265076.322384,70
1659945714.04309,1265076.3223875,74
1659945714.04309,1265076.3223913,74
1659945714.04309,1265076.3223953,77
1659945714.04309,1265076.3223993,82
1659945714.04309,1265076.3224033,89
1659945714.04309,1265076.3224072,91
1659945714.04309,1265076.3224111,96
1659945714.04309,1265076.3224151,91
1659945714.04309,1265076.3224192,84
1659945714.04309,1265076.3224232,84
1659945714.04309,1265076.3224272,91
1659945714.04309,1265076.3224311,96
1659945714.04309,1265076.322435,99
1659945714.04309,1265076.3224391,99
1659945714.04309,1265076.3224431,94
1659945714.04309,1265076.3224471,96
1659945714.04309,1265076.3224511,103
1659945714.04309,1265076.3224551,108
1659945714.05406,1265076.322459,111
1659945714.05406,1265076.3224629,111
1659945714.05406,1265076.3224668,103
1659945714.05406,1265076.9581433,106
1659945714.05406,1265076.9581613,111
1659945714.05406,1265076.9581668,111
1659945714.05406,1265076.9581691,120
1659945714.05406,1265076.9581723,140
1659945714.05406,1265076.9581744,137
1659945714.05406,1265076.9581767,111
1659945714.05406,1265076.9581789,103
1659945714.05406,1265076.958181,113
1659945714.05406,1265076.958183,106
1659945714.05406,1265076.9581851,89
1659945714.05406,1265076.9581872,74
1659945714.05406,1265076.9581893,50
1659945714.05406,1265076.9581913,38
1659945714.05406,1265076.9581934,55
1659945714.05406,1265076.9581955,67
1659945714.05406,1265076.9581978,62
1659945714.05406,1265076.9582047,58
1659945714.05406,1265076.958214,38
1659945714.05406,1265076.9582189,55
1659945714.05406,1265076.9582278,239
1659945714.53405,1265076.9582348,589
1659945714.53405,1265076.9582372,903
1659945714.53405,1265076.9582404,903
1659945714.53405,1265076.9582503,497
1659945714.53405,1265076.9582558,16
1659945714.53405,1265076.9582599,-118
1659945714.53405,1265076.9582654,-21
1659945714.53405,1265076.9582714,-7
1659945714.53405,1265076.9582784,-48
1659945714.53405,1265076.9582833,-41
1659945714.53405,1265076.9582937,-36
1659945714.53405,1265076.9583031,-43
1659945714.53405,1265076.9583141,-29
1659945714.53405,1265076.9583176,-14
1659945714.53405,1265076.9583217,-9
1659945714.53405,1265076.9583239,0
1659945714.53405,1265076.9583349,14
1659945714.53405,1265076.9583437,21
1659945714.53405,1265076.9583463,33
1659945714.53405,1265076.9583484,50
1659945714.53405,1265076.9583504,62
1659945714.53405,1265076.9583554,74
1659945714.53405,1265076.9583668,89
1659945714.53405,1265076.9583705,99
1659945714.53405,1265076.9583747,108
1659945714.53405,1265076.9583767,116
1659945714.53405,1265076.9583844,113
1659945714.53405,1265076.9583949,106
1659945714.53405,1265076.9583985,103
1659945714.53405,1265076.9584019,91
1659945714.53405,1265076.9584052,70
1659945714.53405,1265076.958418,53
1659945714.53405,1265076.9584239,41
1659945714.53405,1265076.9584261,31
1659945714.53405,1265076.9584281,24
1659945714.53405,1265076.9584361,21
1659945714.53405,1265076.9584468,21
1659945714.53405,1265076.9584503,19
1659945714.53405,1265076.9584543,24
1659945714.53405,1265076.9584621,29
1659945714.53405,1265076.9584726,33
1659945714.53405,1265076.9584762,38
1659945714.53405,1265076.9584865,43
1659945714.53405,1265076.958495,48
1659945714.53405,1265076.9585081,53
1659945714.53405,1265076.9585215,62
1659945714.53405,1265076.9585347,74
1659945714.53405,1265076.9585481,82
1659945714.53405,1265076.9585615,82
1659945714.53405,1265076.958575,84
1659945714.54561,1265076.9585885,89
1659945714.54561,1265076.9586016,94
1659945714.54561,1265077.443351,96
1659945714.54561,1265077.4433633,101
1659945714.54561,1265077.4433665,99
1659945714.54561,1265077.4433691,91
1659945714.54561,1265077.4433716,94
1659945714.54561,1265077.443374,101
1659945714.54561,1265077.4433765,103
1659945714.54561,1265077.4433788,103
1659945714.54561,1265077.4433812,108
1659945714.54561,1265077.4433835,103
1659945714.54561,1265077.4433859,91
1659945714.54561,1265077.4433882,87
1659945714.54561,1265077.4433906,96
1659945714.54561,1265077.4433929,101
1659945714.54561,1265077.4433953,96
1659945714.54561,1265077.4433976,77
1659945714.54561,1265077.4433999,65
1659945714.54561,1265077.4434023,72
1659945714.54561,1265077.4434046,65
1659945714.54561,1265077.4434069,45
1659945714.54561,1265077.4434092,43
1659945714.54561,1265077.4434114,43
1659945715.06846,1265077.4434137,33
1659945715.06846,1265077.443416,48
1659945715.06846,1265077.4434181,65
1659945715.06846,1265077.4434203,60
1659945715.06846,1265077.4434224,60
1659945715.06846,1265077.4434244,55
1659945715.06846,1265077.4434263,33
1659945715.06846,1265077.4434282,24
1659945715.06846,1265077.4434302,38
1659945715.06846,1265077.4434321,45
1659945715.06846,1265077.4434342,43
1659945715.06846,1265077.4434394,33
1659945715.06846,1265077.4434508,19
1659945715.06846,1265077.4434564,7
1659945715.06846,1265077.4434594,2
1659945715.06846,1265077.4434615,41
1659945715.06846,1265077.4434636,219
1659945715.06846,1265077.4434657,555
1659945715.06846,1265077.4434716,862
1659945715.06846,1265077.4434832,860
1659945715.06846,1265077.4434885,456
1659945715.06846,1265077.443492,-4
1659945715.06846,1265077.4434941,-125
1659945715.06846,1265077.4434962,-38
1659945715.06846,1265077.4434983,-36
1659945715.06846,1265077.4435004,-65
1659945715.06846,1265077.4435024,-43
1659945715.06846,1265077.4435044,-33
1659945715.06846,1265077.4435065,-41
1659945715.06846,1265077.4435085,-26
1659945715.06846,1265077.4435106,-14
1659945715.06846,1265077.4435127,-9
1659945715.06846,1265077.4435148,0
1659945715.06846,1265077.4435169,19
1659945715.06846,1265077.4435189,33
1659945715.06846,1265077.443521,41
1659945715.06846,1265077.4435231,48
1659945715.06846,1265077.4435316,62
1659945715.06846,1265077.4435339,77
1659945715.06846,1265077.4435359,91
1659945715.06846,1265077.4435379,106
1659945715.06846,1265077.44354,118
1659945715.06846,1265077.4435421,118
1659945715.06846,1265077.4435441,113
1659945715.06846,1265077.4435463,106
1659945715.06846,1265077.4435484,99
1659945715.06846,1265077.4435504,91
1659945715.06846,1265077.4435524,79
1659945715.06846,1265077.4435545,67
1659945715.06846,1265077.4435565,55
1659945715.07844,1265077.4435585,41
1659945715.07844,1265077.9801857,26
1659945715.07844,1265077.9802068,14
1659945715.07844,1265077.9802179,7
1659945715.07844,1265077.9802284,9
1659945715.07844,1265077.9802375,9
1659945715.07844,1265077.9802431,-2
1659945715.07844,1265077.9802475,-24
1659945715.07844,1265077.9802496,-21
1659945715.07844,1265077.9802516,-4
1659945715.07844,1265077.9802544,0
1659945715.07844,1265077.9802609,0
1659945715.07844,1265077.9802677,-9
1659945715.07844,1265077.9802746,-36
1659945715.07844,1265077.9802825,-41
1659945715.07844,1265077.9802944,-19
1659945715.07844,1265077.980301,-9
1659945715.07844,1265077.9803064,-7
1659945715.07844,1265077.980312,4
1659945715.07844,1265077.9803195,7
1659945715.07844,1265077.980327,7
1659945715.07844,1265077.9803363,14
1659945715.07844,1265077.9803421,19
1659945715.07844,1265077.9803467,26
1659945715.65356,1265077.9803511,33
1659945715.65356,1265077.9803566,36
1659945715.65356,1265077.9803639,31
1659945715.65356,1265077.9803698,36
1659945715.65356,1265077.9803743,43
1659945715.65356,1265077.9803791,48
1659945715.65356,1265077.980384,50
1659945715.65356,1265077.980388,58
1659945715.65356,1265077.9803922,60
1659945715.65356,1265077.9803962,55
1659945715.65356,1265077.9804003,48
1659945715.65356,1265077.9804053,53
1659945715.65356,1265077.9804105,60
1659945715.65356,1265077.9804156,62
1659945715.65356,1265077.9804231,58
1659945715.65356,1265077.9804305,58
1659945715.65356,1265077.9804373,70
1659945715.65356,1265077.9804421,84
1659945715.65356,1265077.9804462,103
1659945715.65356,1265077.9804508,120
1659945715.65356,1265077.9804555,118
1659945715.65356,1265077.9804595,103
1659945715.65356,1265077.9804633,96
1659945715.65356,1265077.9804672,89
1659945715.65356,1265077.9804716,79
1659945715.65356,1265077.9804755,72
1659945715.65356,1265077.9804816,74
1659945715.65356,1265077.9804937,77
1659945715.65356,1265077.9805004,74
1659945715.65356,1265077.9805042,77
1659945715.65356,1265077.9805076,77
1659945715.65356,1265077.9805198,72
1659945715.65356,1265077.980529,91
1659945715.65356,1265077.9805358,217
1659945715.65356,1265077.980541,493
1659945715.65356,1265077.9805502,812
1659945715.65356,1265077.9805576,908
1659945715.65356,1265077.9805621,599
1659945715.65356,1265077.9805655,135
1659945715.65356,1265077.9805714,-70
1659945715.65356,1265077.9805749,-26
1659945715.65356,1265077.9805822,4
1659945715.65356,1265077.9805869,-14
1659945715.65356,1265077.9805934,-7
1659945715.65356,1265077.9805968,4
1659945715.65356,1265077.9806002,2
1659945715.65356,1265077.9806036,0
1659945715.65356,1265077.980607,9
1659945715.65356,1265077.9806106,26
1659945715.65356,1265077.9806159,41
1659945715.66453,1265078.5651357,48
1659945715.66453,1265078.5651493,58
1659945715.66453,1265078.5651536,67
1659945715.66453,1265078.5651559,67
1659945715.66453,1265078.5651581,67
1659945715.66453,1265078.5651602,77
1659945715.66453,1265078.5651624,94
1659945715.66453,1265078.5651675,103
1659945715.66453,1265078.5651784,99
1659945715.66453,1265078.5651854,77
1659945715.66453,1265078.5651944,70
1659945715.66453,1265078.5652033,72
1659945715.66453,1265078.5652087,70
1659945715.66453,1265078.5652109,58
1659945715.66453,1265078.5652138,41
1659945715.66453,1265078.565216,9
1659945715.66453,1265078.5652182,-16
1659945715.66453,1265078.5652203,-19
1659945715.66453,1265078.5652226,-19
1659945715.66453,1265078.5652247,-29
1659945715.66453,1265078.5652268,-31
1659945715.66453,1265078.5652288,-29
1659945715.66453,1265078.5652316,-26
1659945715.66453,1265078.5652336,-19
1659945716.18887,1265078.5652358,-21
1659945716.18887,1265078.5652378,-26
1659945716.18887,1265078.5652398,-16
1659945716.18887,1265078.5652417,-4
1659945716.18887,1265078.5652437,0
1659945716.18887,1265078.5652457,9
1659945716.18887,1265078.5652476,21
1659945716.18887,1265078.5652494,31
1659945716.18887,1265078.5652516,38
1659945716.18887,1265078.5652557,45
1659945716.18887,1265078.5652648,48
1659945716.18887,1265078.5652695,53
1659945716.18887,1265078.5652768,60
1659945716.18887,1265078.5652821,67
1659945716.18887,1265078.5652905,72
1659945716.18887,1265078.5652947,77
1659945716.18887,1265078.5653012,74
1659945716.18887,1265078.5653145,77
1659945716.18887,1265078.5653256,87
1659945716.18887,1265078.5653292,87
1659945716.18887,1265078.5653333,82
1659945716.18887,1265078.5653354,87
1659945716.18887,1265078.5653375,91
1659945716.18887,1265078.5653396,89
1659945716.18887,1265078.5653417,89
1659945716.18887,1265078.5653438,99
1659945716.18887,1265078.565346,101
1659945716.18887,1265078.5653481,99
1659945716.18887,1265078.5653524,103
1659945716.18887,1265078.5653548,103
1659945716.18887,1265078.5653581,103
1659945716.18887,1265078.5653674,103
1659945716.18887,1265078.5653727,94
1659945716.18887,1265078.5653769,84
1659945716.18887,1265078.5653854,99
1659945716.18887,1265078.5653907,120
1659945716.18887,1265078.5653953,132
1659945716.18887,1265078.5653992,135
1659945716.18887,1265078.5654032,120
1659945716.18887,1265078.5654072,103
1659945716.18887,1265078.5654114,96
1659945716.18887,1265078.5654161,94
1659945716.18887,1265078.5654234,84
1659945716.18887,1265078.5654318,82
1659945716.18887,1265078.5654452,79
1659945716.18887,1265078.565458,62
1659945716.18887,1265078.5654665,50
1659945716.18887,1265078.5654729,58
1659945716.18887,1265078.5654774,53
1659945716.18887,1265079.1009502,33
1659945716.20054,1265079.1009691,67
1659945716.20054,1265079.1009798,248
1659945716.20054,1265079.1009887,580
1659945716.20054,1265079.1009933,882
1659945716.20054,1265079.1009994,865
1659945716.20054,1265079.1010091,449
1659945716.20054,1265079.1010153,2
1659945716.20054,1265079.1010255,-94
1659945716.20054,1265079.1010384,0
1659945716.20054,1265079.1010509,4
1659945716.20054,1265079.1010569,-31
1659945716.20054,1265079.1010684,-41
1659945716.20054,1265079.1010825,-45
1659945716.20054,1265079.1010909,-38
1659945716.20054,1265079.1010956,-29
1659945716.20054,1265079.1011016,-24
1659945716.20054,1265079.1011068,-19
1659945716.20054,1265079.1011125,-24
1659945716.20054,1265079.1011163,-36
1659945716.20054,1265079.1011203,-21
1659945716.20054,1265079.1011243,4
1659945716.20054,1265079.1011329,19
1659945716.20054,1265079.1011384,33
1659945716.20054,1265079.1011414,48
1659945716.7773,1265079.1011507,55
1659945716.7773,1265079.1011562,67
1659945716.7773,1265079.1011607,87
1659945716.7773,1265079.1011647,96
1659945716.7773,1265079.1011686,96
1659945716.7773,1265079.1011724,91
1659945716.7773,1265079.1011761,79
1659945716.7773,1265079.1011798,70
1659945716.7773,1265079.101184,62
1659945716.7773,1265079.1011918,53
1659945716.7773,1265079.1012018,43
1659945716.7773,1265079.1012091,31
1659945716.7773,1265079.1012132,19
1659945716.7773,1265079.1012188,14
1659945716.7773,1265079.1012238,19
1659945716.7773,1265079.1012322,24
1659945716.7773,1265079.1012376,29
1659945716.7773,1265079.1012419,33
1659945716.7773,1265079.101244,31
1659945716.7773,1265079.1012461,33
1659945716.7773,1265079.1012482,43
1659945716.7773,1265079.1012502,48
1659945716.7773,1265079.1012522,50
1659945716.7773,1265079.1012543,53
1659945716.7773,1265079.1012564,55
1659945716.7773,1265079.1012584,58
1659945716.7773,1265079.1012612,65
1659945716.7773,1265079.1012633,74
1659945716.7773,1265079.1012653,82
1659945716.7773,1265079.1012674,89
1659945716.7773,1265079.1012694,89
1659945716.7773,1265079.1012715,87
1659945716.7773,1265079.1012736,87
1659945716.7773,1265079.1012756,96
1659945716.7773,1265079.1012776,103
1659945716.7773,1265079.1012797,96
1659945716.7773,1265079.1012818,79
1659945716.7773,1265079.1012843,62
1659945716.7773,1265079.1012864,62
1659945716.7773,1265079.1012885,74
1659945716.7773,1265079.1012905,79
1659945716.7773,1265079.1012925,82
1659945716.7773,1265079.1012978,84
1659945716.7773,1265079.1013083,82
1659945716.7773,1265079.1013133,82
1659945716.7773,1265079.1013191,87
1659945716.7773,1265079.1013228,91
1659945716.7773,1265079.1013282,94
1659945716.7773,1265079.6859975,94
1659945716.7773,1265079.6860167,96
1659945716.78827,1265079.6860322,94
1659945716.78827,1265079.6860459,94
1659945716.78827,1265079.6860605,103
1659945716.78827,1265079.6860738,116
1659945716.78827,1265079.6860832,116
1659945716.78827,1265079.6860934,106
1659945716.78827,1265079.6861046,94
1659945716.78827,1265079.6861395,70
1659945716.78827,1265079.6861515,53
1659945716.78827,1265079.6861564,50
1659945716.78827,1265079.6861605,43
1659945716.78827,1265079.6861645,38
1659945716.78827,1265079.6861685,38
1659945716.78827,1265079.6861729,14
1659945716.78827,1265079.6861777,-7
1659945716.78827,1265079.6861824,0
1659945716.78827,1265079.6861871,0
1659945716.78827,1265079.6861926,-21
1659945716.78827,1265079.6861971,-9
1659945716.78827,1265079.6862016,123
1659945716.78827,1265079.6862058,420
1659945716.78827,1265079.6862101,775
1659945716.78827,1265079.6862151,908
1659945716.78827,1265079.6862232,613
1659945717.31014,1265079.6862293,111
1659945717.31014,1265079.6862367,-130
1659945717.31014,1265079.6862429,-58
1659945717.31014,1265079.6862491,-7
1659945717.31014,1265079.6862555,-43
1659945717.31014,1265079.6862637,-33
1659945717.31014,1265079.6862719,-7
1659945717.31014,1265079.6862771,-9
1659945717.31014,1265079.686282,-9
1659945717.31014,1265079.6862863,4
1659945717.31014,1265079.6862907,16
1659945717.31014,1265079.6862954,24
1659945717.31014,1265079.6862996,33
1659945717.31014,1265079.6863046,38
1659945717.31014,1265079.6863089,45
1659945717.31014,1265079.686316,58
1659945717.31014,1265079.686321,70
1659945717.31014,1265079.6863269,89
1659945717.31014,1265079.6863311,108
1659945717.31014,1265079.6863368,123
1659945717.31014,1265079.6863407,135
1659945717.31014,1265079.6863456,140
1659945717.31014,1265079.6863519,135
1659945717.31014,1265079.6863561,130
1659945717.31014,1265079.6863618,128
1659945717.31014,1265079.6863653,123
1659945717.31014,1265079.6863694,116
1659945717.31014,1265079.6863732,91
1659945717.31014,1265079.6863789,53
1659945717.31014,1265079.6863827,24
1659945717.31014,1265079.686389,21
1659945717.31014,1265079.6863937,26
1659945717.31014,1265079.6863992,24
1659945717.31014,1265079.6864026,21
1659945717.31014,1265079.6864063,16
1659945717.31014,1265079.6864115,16
1659945717.31014,1265079.6864153,26
1659945717.31014,1265079.6864211,38
1659945717.31014,1265079.6864259,45
1659945717.31014,1265079.6864302,48
1659945717.31014,1265079.6864363,50
1659945717.31014,1265079.6864425,55
1659945717.31014,1265079.6864464,65
1659945717.31014,1265079.6864525,74
1659945717.31014,1265079.6864585,74
1659945717.31014,1265079.6864625,70
1659945717.31014,1265079.6864675,67
1659945717.31014,1265080.222623,70
1659945717.31014,1265080.2226438,74
1659945717.31014,1265080.2226528,84
1659945717.3241,1265080.22266,89
1659945717.3241,1265080.2226638,87
1659945717.3241,1265080.2226674,67
1659945717.3241,1265080.222671,45
1659945717.3241,1265080.2226777,50
1659945717.3241,1265080.2226847,62
1659945717.3241,1265080.2226879,62
1659945717.3241,1265080.2226909,62
1659945717.3241,1265080.2226937,60
1659945717.3241,1265080.2226967,53
1659945717.3241,1265080.2226996,58
1659945717.3241,1265080.2227026,70
1659945717.3241,1265080.2227055,74
1659945717.3241,1265080.2227084,79
1659945717.3241,1265080.2227113,74
1659945717.3241,1265080.2227144,58
1659945717.3241,1265080.2227174,48
1659945717.3241,1265080.2227202,62
1659945717.3241,1265080.2227231,72
1659945717.3241,1265080.222726,70
1659945717.3241,1265080.2227289,60
1659945717.3241,1265080.2227318,55
1659945717.3241,1265080.2227347,65
1659945717.3241,1265080.2227376,89
1659945717.89522,1265080.2227416,99
1659945717.89522,1265080.2227484,91

1659945717.89522,1265080.2227552,82
1659945717.89522,1265080.2227622,65
1659945717.89522,1265080.2227694,50
1659945717.89522,1265080.2227754,45
1659945717.89522,1265080.2227794,45
1659945717.89522,1265080.2227847,43
1659945717.89522,1265080.2227883,41
1659945717.89522,1265080.2227913,33
1659945717.89522,1265080.2227941,26
1659945717.89522,1265080.222797,24
1659945717.89522,1265080.2227999,16
1659945717.89522,1265080.2228029,26
1659945717.89522,1265080.2228057,164
1659945717.89522,1265080.2228085,480
1659945717.89522,1265080.2228113,831
1659945717.89522,1265080.2228142,937
1659945717.89522,1265080.2228171,628
1659945717.89522,1265080.22282,125
1659945717.89522,1265080.222823,-123
1659945717.89522,1265080.2228259,-55
1659945717.89522,1265080.2228287,2
1659945717.89522,1265080.2228317,-33
1659945717.89522,1265080.2228346,-33
1659945717.89522,1265080.2228374,-9
1659945717.89522,1265080.2228403,-12
1659945717.89522,1265080.2228432,-4
1659945717.89522,1265080.2228466,14
1659945717.89522,1265080.2228494,19
1659945717.89522,1265080.2228523,29
1659945717.89522,1265080.2228552,43
1659945717.89522,1265080.2228582,58
1659945717.89522,1265080.2228611,70
1659945717.89522,1265080.2228639,79
1659945717.89522,1265080.2228668,79
1659945717.89522,1265080.2228698,87
1659945717.89522,1265080.2228727,111
1659945717.89522,1265080.2228755,125
1659945717.89522,1265080.2228784,132
1659945717.89522,1265080.2228812,142
1659945717.89522,1265080.2228841,147
1659945717.89522,1265080.222887,137
1659945717.89522,1265080.2228898,128
1659945717.89522,1265080.2228927,120
1659945717.89522,1265080.2228955,111
1659945717.89522,1265080.8074543,99
1659945717.89522,1265080.8074671,82
1659945717.89522,1265080.8074704,65
1659945717.89522,1265080.8074783,50
1659945717.90719,1265080.807488,43
1659945717.90719,1265080.8074998,43
1659945717.90719,1265080.8075109,48
1659945717.90719,1265080.8075146,53
1659945717.90719,1265080.8075174,38
1659945717.90719,1265080.8075195,12
1659945717.90719,1265080.8075216,9
1659945717.90719,1265080.8075236,26
1659945717.90719,1265080.8075257,36
1659945717.90719,1265080.8075277,41
1659945717.90719,1265080.8075299,41
1659945717.90719,1265080.8075319,21
1659945717.90719,1265080.8075341,12
1659945717.90719,1265080.8075361,26
1659945717.90719,1265080.8075382,41
1659945717.90719,1265080.8075402,43
1659945717.90719,1265080.8075423,43
1659945717.90719,1265080.8075443,33
1659945717.90719,1265080.8075464,29
1659945717.90719,1265080.8075484,38
1659945717.90719,1265080.8075505,48
1659945717.90719,1265080.8075525,50
1659945717.90719,1265080.8075545,55
1659945717.90719,1265080.8075565,55
1659945718.43313,1265080.8075586,50
1659945718.43313,1265080.8075606,53
1659945718.43313,1265080.8075628,62
1659945718.43313,1265080.8075647,67
1659945718.43313,1265080.8075667,70
1659945718.43313,1265080.8075685,72
1659945718.43313,1265080.8075705,72
1659945718.43313,1265080.8075724,74
1659945718.43313,1265080.8075742,82
1659945718.43313,1265080.8075761,84
1659945718.43313,1265080.8075781,87
1659945718.43313,1265080.8075801,82
1659945718.43313,1265080.8075821,65
1659945718.43313,1265080.807584,58
1659945718.43313,1265080.8075859,58
1659945718.43313,1265080.8075878,55
1659945718.43313,1265080.80759,53
1659945718.43313,1265080.807592,60
1659945718.43313,1265080.8075939,77
1659945718.43313,1265080.8075961,91
1659945718.43313,1265080.8076031,94
1659945718.43313,1265080.8076136,94
1659945718.43313,1265080.8076184,96
1659945718.43313,1265080.8076207,87
1659945718.43313,1265080.8076228,60
1659945718.43313,1265080.8076249,33
1659945718.43313,1265080.8076269,29
1659945718.43313,1265080.807629,31
1659945718.43313,1265080.8076311,36
1659945718.43313,1265080.8076331,36
1659945718.43313,1265080.8076352,31
1659945718.43313,1265080.8076372,24
1659945718.43313,1265080.8076393,12
1659945718.43313,1265080.8076413,48
1659945718.43313,1265080.8076432,229
1659945718.43313,1265080.8076452,567
1659945718.43313,1265080.8076472,879
1659945718.43313,1265080.8076492,887
1659945718.43313,1265080.8076513,493
1659945718.43313,1265080.8076533,33
1659945718.43313,1265080.8076554,-84
1659945718.43313,1265080.8076575,12
1659945718.43313,1265080.8076596,21
1659945718.43313,1265080.8076616,-14
1659945718.43313,1265080.8076636,-2
1659945718.43313,1265081.343268,12
1659945718.43313,1265081.3432812,16
1659945718.43313,1265081.343286,26
1659945718.43313,1265081.3432904,33
1659945718.43313,1265081.3432932,38
1659945718.4441,1265081.3432958,33
1659945718.4441,1265081.3432984,21
1659945718.4441,1265081.3433007,33
1659945718.4441,1265081.3433029,55
1659945718.4441,1265081.343305,60
1659945718.4441,1265081.3433071,70
1659945718.4441,1265081.3433092,89
1659945718.4441,1265081.3433113,99
1659945718.4441,1265081.3433133,108
1659945718.4441,1265081.3433155,123
1659945718.4441,1265081.3433175,128
1659945718.4441,1265081.3433196,125
1659945718.4441,1265081.3433218,116
1659945718.4441,1265081.343324,89
1659945718.4441,1265081.3433261,65
1659945718.4441,1265081.343328,58
1659945718.4441,1265081.3433301,43
1659945718.4441,1265081.3433321,24
1659945718.4441,1265081.3433343,12
1659945718.4441,1265081.3433364,4
1659945718.4441,1265081.3433386,0
1659945718.4441,1265081.3433411,-2
1659945718.4441,1265081.3433437,-9
1659945718.4441,1265081.3433461,-4
1659945719.16662,1265081.3433485,7
1659945719.16662,1265081.3433506,7
1659945719.16662,1265081.3433528,7
1659945719.16662,1265081.343355,16
1659945719.16662,1265081.3433571,12
1659945719.16662,1265081.3433593,2
1659945719.16662,1265081.3433613,12
1659945719.16662,1265081.3433634,29
1659945719.16662,1265081.3433656,33
1659945719.16662,1265081.3433677,33
1659945719.16662,1265081.3433698,41
1659945719.16662,1265081.3433719,55
1659945719.16662,1265081.3433742,58
1659945719.16662,1265081.3433803,58
1659945719.16662,1265081.3433887,65
1659945719.16662,1265081.3433991,60
1659945719.16662,1265081.3434081,53
1659945719.16662,1265081.3434196,67
1659945719.16662,1265081.343428,70
1659945719.16662,1265081.3434321,62
1659945719.16662,1265081.3434343,74
1659945719.16662,1265081.3434364,79
1659945719.16662,1265081.3434384,74
1659945719.16662,1265081.3434404,82
1659945719.16662,1265081.3434425,94
1659945719.16662,1265081.3434445,94
1659945719.16662,1265081.3434465,87
1659945719.16662,1265081.3434485,82
1659945719.16662,1265081.3434505,77
1659945719.16662,1265081.3434526,79
1659945719.16662,1265081.3434547,87
1659945719.16662,1265081.3434636,94
1659945719.16662,1265081.3434656,94
1659945719.16662,1265081.3434675,87
1659945719.16662,1265081.3434695,79
1659945719.16662,1265081.3434716,79
1659945719.16662,1265081.3434737,91
1659945719.16662,1265081.3434758,118
1659945719.16662,1265081.3434778,130
1659945719.16662,1265081.3434799,113
1659945719.16662,1265081.3434819,96
1659945719.16662,1265081.3434839,89
1659945719.16662,1265081.3434858,79
1659945719.16662,1265081.3434878,65
1659945719.16662,1265082.076764,55
1659945719.16662,1265082.076782,50
1659945719.16662,1265082.0767896,43
1659945719.16662,1265082.0768056,41
1659945719.16662,1265082.0768187,38
1659945719.16662,1265082.0768326,41
1659945719.17859,1265082.0768446,38
1659945719.17859,1265082.0768538,45
1659945719.17859,1265082.0768578,120
1659945719.17859,1265082.0768627,333
1659945719.17859,1265082.0768663,655
1659945719.17859,1265082.07687,843
1659945719.17859,1265082.0768741,642
1659945719.17859,1265082.0768776,190
1659945719.17859,1265082.0768828,-89
1659945719.17859,1265082.0768876,-99
1659945719.17859,1265082.0768917,-62
1659945719.17859,1265082.0768992,-50
1659945719.17859,1265082.0769049,-38
1659945719.17859,1265082.0769128,-38
1659945719.17859,1265082.0769203,-41
1659945719.17859,1265082.0769286,-26
1659945719.17859,1265082.0769338,-16
1659945719.17859,1265082.0769414,-9
1659945719.17859,1265082.0769482,7
1659945719.17859,1265082.076956,7
1659945719.17859,1265082.0769632,0
1659945719.17859,1265082.0769695,16
1659945719.17859,1265082.0769794,36
1659945719.17859,1265082.0769913,48
1659945719.55474,1265082.0770051,67
1659945719.55474,1265082.0770132,82
1659945719.55474,1265082.0770189,89
1659945719.55474,1265082.0770292,99
1659945719.55474,1265082.0770392,106
1659945719.55474,1265082.0770452,103
1659945719.55474,1265082.0770506,99
1659945719.55474,1265082.0770571,91
1659945719.55474,1265082.0770674,87
1659945719.55474,1265082.0770752,79
1659945719.55474,1265082.0770777,58
1659945719.55474,1265082.0770933,38
1659945719.55474,1265082.0770953,36
1659945719.55474,1265082.0770971,24
1659945719.55474,1265082.077099,-2
1659945719.55474,1265082.0771017,-7
1659945719.55474,1265082.0771246,9
1659945719.55474,1265082.0771336,7
1659945719.55474,1265082.0771372,4
1659945719.55474,1265082.0771394,19
1659945719.55474,1265082.0771416,19
1659945719.55474,1265082.0771478,0
1659945719.55474,1265082.0771593,-2
1659945719.55474,1265082.0771637,9
1659945719.55474,1265082.0771659,31
1659945719.55474,1265082.077168,48
1659945719.55474,1265082.0771701,48
1659945719.55474,1265082.0771721,62
1659945719.55474,1265082.0771741,99
1659945719.55474,1265082.0771762,108
1659945719.55474,1265082.0771783,103
1659945719.55474,1265082.0771803,106
1659945719.55474,1265082.0771823,101
1659945719.55474,1265082.0771843,89
1659945719.55474,1265082.0771864,96
1659945719.55474,1265082.0771883,101
1659945719.55474,1265082.0771904,87
1659945719.55474,1265082.0771925,77
1659945719.55474,1265082.0771945,84
1659945719.55474,1265082.0771966,87
1659945719.55474,1265082.0771985,89
1659945719.55474,1265082.0772006,94
1659945719.55474,1265082.0772026,91
1659945719.55474,1265082.4653533,89
1659945719.55474,1265082.4653713,84
1659945719.55474,1265082.4653837,84
1659945719.55474,1265082.465391,94
1659945719.55474,1265082.4653945,89
1659945719.55474,1265082.4653967,77
1659945719.55474,1265082.4653988,84
1659945719.56571,1265082.4654009,89
1659945719.56571,1265082.465403,82
1659945719.56571,1265082.465405,89
1659945719.56571,1265082.465407,113
1659945719.56571,1265082.4654091,125
1659945719.56571,1265082.4654125,113
1659945719.56571,1265082.4654254,106
1659945719.56571,1265082.4654327,106
1659945719.56571,1265082.4654359,89
1659945719.56571,1265082.465438,70
1659945719.56571,1265082.4654401,58
1659945719.56571,1265082.4654461,38
1659945719.56571,1265082.4654573,24
1659945719.56571,1265082.4654625,26
1659945719.56571,1265082.4654656,29
1659945719.56571,1265082.4654714,33
1659945719.56571,1265082.4654825,43
1659945719.56571,1265082.4654877,36
1659945719.56571,1265082.4654905,58
1659945719.56571,1265082.4654933,227
1659945719.56571,1265082.4655038,563
1659945719.56571,1265082.4655113,853
1659945719.56571,1265082.4655143,814
1659945719.56571,1265082.4655167,418
1659945720.09427,1265082.4655265,21
1659945720.09427,1265082.4655352,-84
1659945720.09427,1265082.4655695,-45
1659945720.09427,1265082.4655776,-41
1659945720.09427,1265082.4655829,-21
1659945720.09427,1265082.4655878,2
1659945720.09427,1265082.4655925,-4
1659945720.09427,1265082.4655968,-4
1659945720.09427,1265082.4656012,12
1659945720.09427,1265082.4656057,21
1659945720.09427,1265082.4656103,26
1659945720.09427,1265082.4656148,36
1659945720.09427,1265082.4656192,36
1659945720.09427,1265082.465624,26
1659945720.09427,1265082.4656291,38
1659945720.09427,1265082.4656345,67
1659945720.09427,1265082.4656426,82
1659945720.09427,1265082.4656499,91
1659945720.09427,1265082.4656568,106
1659945720.09427,1265082.4656612,111
1659945720.09427,1265082.4656679,111
1659945720.09427,1265082.4656754,118
1659945720.09427,1265082.4656857,120
1659945720.09427,1265082.4656971,135
1659945720.09427,1265082.4657092,145
1659945720.09427,1265082.4657158,111
1659945720.09427,1265082.4657203,77
1659945720.09427,1265082.465725,70
1659945720.09427,1265082.4657291,53
1659945720.09427,1265082.4657335,33
1659945720.09427,1265082.465738,24
1659945720.09427,1265082.46574,12
1659945720.09427,1265082.4657423,4
1659945720.09427,1265082.4657458,9
1659945720.09427,1265082.465755,21
1659945720.09427,1265082.4657676,29
1659945720.09427,1265082.4657747,33
1659945720.09427,1265082.465784,45
1659945720.09427,1265082.4657939,50
1659945720.09427,1265082.4658011,43
1659945720.09427,1265082.4658102,48
1659945720.09427,1265082.4658174,58
1659945720.09427,1265083.002961,62
1659945720.09427,1265083.0029754,67
1659945720.09427,1265083.0029801,84
1659945720.09427,1265083.0029824,91
1659945720.09427,1265083.0029844,91
1659945720.09427,1265083.0029865,101
1659945720.09427,1265083.0029886,108
1659945720.09427,1265083.0029906,94
1659945720.10624,1265083.0029926,70
1659945720.10624,1265083.0029946,53
1659945720.10624,1265083.0029966,53
1659945720.10624,1265083.0029986,60
1659945720.10624,1265083.0030006,55
1659945720.10624,1265083.0030027,55
1659945720.10624,1265083.0030059,41
1659945720.10624,1265083.0030193,7
1659945720.10624,1265083.0030264,0
1659945720.10624,1265083.0030296,14
1659945720.10624,1265083.0030318,21
1659945720.10624,1265083.0030339,26
1659945720.10624,1265083.0030359,24
1659945720.10624,1265083.0030386,21
1659945720.10624,1265083.0030407,36
1659945720.10624,1265083.0030427,50
1659945720.10624,1265083.0030448,41
1659945720.10624,1265083.0030469,14
1659945720.10624,1265083.0030489,7
1659945720.10624,1265083.0030531,29
1659945720.10624,1265083.0030661,48
1659945720.10624,1265083.0031149,65
1659945720.10624,1265083.0031317,67
1659945720.10624,1265083.0031428,67
1659945720.72049,1265083.0031499,84
1659945720.72049,1265083.0031561,94
1659945720.72049,1265083.0031619,91
1659945720.72049,1265083.0031656,82
1659945720.72049,1265083.0031692,58
1659945720.72049,1265083.0031727,43
1659945720.72049,1265083.0031761,41
1659945720.72049,1265083.0031814,33
1659945720.72049,1265083.0031851,29
1659945720.72049,1265083.0031886,26
1659945720.72049,1265083.0031922,26
1659945720.72049,1265083.0031958,38
1659945720.72049,1265083.0032004,50
1659945720.72049,1265083.003205,50
1659945720.72049,1265083.0032086,103
1659945720.72049,1265083.0032129,287
1659945720.72049,1265083.0032176,592
1659945720.72049,1265083.0032225,858
1659945720.72049,1265083.0032278,819
1659945720.72049,1265083.0032328,415
1659945720.72049,1265083.00324,31
1659945720.72049,1265083.003247,-41
1659945720.72049,1265083.0032535,-4
1659945720.72049,1265083.0032595,-9
1659945720.72049,1265083.003264,4
1659945720.72049,1265083.0032673,21
1659945720.72049,1265083.003271,21
1659945720.72049,1265083.0032745,29
1659945720.72049,1265083.0032787,29
1659945720.72049,1265083.0032836,31
1659945720.72049,1265083.0032873,50
1659945720.72049,1265083.0032927,60
1659945720.72049,1265083.0032981,72
1659945720.72049,1265083.0033041,89
1659945720.72049,1265083.0033113,87
1659945720.72049,1265083.0033172,94
1659945720.72049,1265083.0033225,128
1659945720.72049,1265083.0033281,147
1659945720.72049,1265083.0033369,152
1659945720.72049,1265083.0033429,161
1659945720.72049,1265083.0033547,178
1659945720.72049,1265083.6354603,195
1659945720.72049,1265083.6354787,188
1659945720.72049,1265083.6354843,176
1659945720.72049,1265083.6354884,171
1659945720.72049,1265083.6354923,152
1659945720.72049,1265083.6354996,96
1659945720.72049,1265083.6355041,41
1659945720.72049,1265083.6355102,26
1659945720.72049,1265083.6355133,31
1659945720.73147,1265083.6355165,29
1659945720.73147,1265083.6355311,21
1659945720.73147,1265083.6355408,-4
1659945720.73147,1265083.6355476,-14
1659945720.73147,1265083.6355526,9
1659945720.73147,1265083.6355588,24
1659945720.73147,1265083.6355635,29
1659945720.73147,1265083.6355678,48
1659945720.73147,1265083.6355718,48
1659945720.73147,1265083.6355776,19
1659945720.73147,1265083.6355828,-2
1659945720.73147,1265083.635587,14
1659945720.73147,1265083.6355927,38
1659945720.73147,1265083.6355968,50
1659945720.73147,1265083.635604,62
1659945720.73147,1265083.6356087,60
1659945720.73147,1265083.6356142,53
1659945720.73147,1265083.6356187,62
1659945720.73147,1265083.6356237,84
1659945720.73147,1265083.6356288,94
1659945720.73147,1265083.6356343,91
1659945720.73147,1265083.6356379,79
1659945720.73147,1265083.6356414,77
1659945720.73147,1265083.6356449,89
1659945721.2098,1265083.63565,99
1659945721.2098,1265083.6356534,94
1659945721.2098,1265083.6356568,87
1659945721.2098,1265083.63566,99
1659945721.2098,1265083.6356633,99
1659945721.2098,1265083.6356667,82
1659945721.2098,1265083.6356701,89
1659945721.2098,1265083.6356734,101
1659945721.2098,1265083.6356768,89
1659945721.2098,1265083.6356804,67
1659945721.2098,1265083.6356838,70
1659945721.2098,1265083.6356875,79
1659945721.2098,1265083.6356914,82
1659945721.2098,1265083.6356968,72
1659945721.2098,1265083.6357024,62
1659945721.2098,1265083.6357061,70
1659945721.2098,1265083.6357097,82
1659945721.2098,1265083.6357138,84
1659945721.2098,1265083.6357173,82
1659945721.2098,1265083.6357208,89
1659945721.2098,1265083.6357244,94
1659945721.2098,1265083.6357277,101
1659945721.2098,1265083.6357332,101
1659945721.2098,1265083.6357393,94
1659945721.2098,1265083.6357447,106
1659945721.2098,1265083.6357494,103
1659945721.2098,1265083.635755,82
1659945721.2098,1265083.6357606,72
1659945721.2098,1265083.6357646,70
1659945721.2098,1265083.6357688,60
1659945721.2098,1265083.6357728,55
1659945721.2098,1265083.635777,62
1659945721.2098,1265083.6357826,72
1659945721.2098,1265083.6357868,79
1659945721.2098,1265083.6357909,84
1659945721.2098,1265083.6357967,74
1659945721.2098,1265083.6358007,62
1659945721.2098,1265083.6358047,120
1659945721.2098,1265083.6358097,326
1659945721.2098,1265083.6358127,635
1659945721.2098,1265084.1228913,860
1659945721.2098,1265084.1229073,749
1659945721.2098,1265084.1229113,321
1659945721.2098,1265084.1229167,-21
1659945721.2098,1265084.1229203,-58
1659945721.2098,1265084.1229235,-12
1659945721.2098,1265084.1229267,-19
1659945721.2098,1265084.1229299,-16
1659945721.2098,1265084.1229332,4
1659945721.2098,1265084.1229363,7
1659945721.21977,1265084.1229394,-12
1659945721.21977,1265084.1229425,-7
1659945721.21977,1265084.1229457,26
1659945721.21977,1265084.1229489,45
1659945721.21977,1265084.1229521,33
1659945721.21977,1265084.1229562,26
1659945721.21977,1265084.1229613,29
1659945721.21977,1265084.1229646,38
1659945721.21977,1265084.1229696,65
1659945721.21977,1265084.122973,91
1659945721.21977,1265084.1229776,103
1659945721.21977,1265084.1229826,99
1659945721.21977,1265084.1229858,99
1659945721.21977,1265084.1229891,106
1659945721.21977,1265084.1229923,103
1659945721.21977,1265084.1229955,99
1659945721.21977,1265084.1229987,111
1659945721.21977,1265084.1230018,113
1659945721.21977,1265084.1230049,84
1659945721.21977,1265084.123008,58
1659945721.21977,1265084.1230112,45
1659945721.21977,1265084.1230143,26
1659945721.21977,1265084.1230174,24
1659945721.21977,1265084.1230206,29
1659945721.79804,1265084.1230238,2
1659945721.79804,1265084.123027,-16
1659945721.79804,1265084.1230303,-4
1659945721.79804,1265084.1230337,0
1659945721.79804,1265084.123037,2
1659945721.79804,1265084.1230403,14
1659945721.79804,1265084.1230434,24
1659945721.79804,1265084.1230465,19
1659945721.79804,1265084.1230497,16
1659945721.79804,1265084.1230529,41
1659945721.79804,1265084.1230561,58
1659945721.79804,1265084.1230593,45
1659945721.79804,1265084.1230624,45
1659945721.79804,1265084.1230656,55
1659945721.79804,1265084.1230687,53
1659945721.79804,1265084.1230719,58
1659945721.79804,1265084.1230752,70
1659945721.79804,1265084.1230784,87
1659945721.79804,1265084.1230816,103
1659945721.79804,1265084.1230848,91
1659945721.79804,1265084.1230879,82
1659945721.79804,1265084.1230911,96
1659945721.79804,1265084.1230942,101
1659945721.79804,1265084.1230973,91
1659945721.79804,1265084.1231011,94
1659945721.79804,1265084.1231042,99
1659945721.79804,1265084.1231075,94
1659945721.79804,1265084.1231106,84
1659945721.79804,1265084.1231137,72
1659945721.79804,1265084.1231169,70
1659945721.79804,1265084.12312,70
1659945721.79804,1265084.1231231,74
1659945721.79804,1265084.1231263,67
1659945721.79804,1265084.1231294,33
1659945721.79804,1265084.1231326,19
1659945721.79804,1265084.1231356,36
1659945721.79804,1265084.1231387,53
1659945721.79804,1265084.1231419,53
1659945721.79804,1265084.1231451,41
1659945721.79804,1265084.7079193,55
1659945721.79804,1265084.707941,94
1659945721.79804,1265084.7079518,89
1659945721.79804,1265084.7079601,43
1659945721.79804,1265084.7079671,16
1659945721.79804,1265084.7079724,7
1659945721.79804,1265084.7079785,12
1659945721.79804,1265084.7079851,55
1659945721.79804,1265084.707994,67
1659945721.79804,1265084.7079998,29
1659945721.79804,1265084.7080025,14
1659945721.80901,1265084.7080126,-4
1659945721.80901,1265084.7080214,-48
1659945721.80901,1265084.7080252,-36
1659945721.80901,1265084.7080318,2
1659945721.80901,1265084.7080466,-9
1659945721.80901,1265084.7080555,-36
1659945721.80901,1265084.7080651,-26
1659945721.80901,1265084.7080745,-16
1659945721.80901,1265084.7080839,-16
1659945721.80901,1265084.7080906,-14
1659945721.80901,1265084.708093,33
1659945721.80901,1265084.7080951,207
1659945721.80901,1265084.7080978,493
1659945721.80901,1265084.7081069,756
1659945721.80901,1265084.708119,749
1659945721.80901,1265084.7081245,386
1659945721.80901,1265084.7081278,14
1659945721.80901,1265084.7081352,-77
1659945721.80901,1265084.7081444,-45
1659945721.80901,1265084.7081484,-45
1659945721.80901,1265084.7081526,-16
1659945721.80901,1265084.7081585,14
1659945721.80901,1265084.7081623,-2
1659945721.80901,1265084.7081683,-16
1659945722.42621,1265084.7081729,9
1659945722.42621,1265084.7081773,45
1659945722.42621,1265084.7081815,53
1659945722.42621,1265084.7081855,48
1659945722.42621,1265084.7081893,48
1659945722.42621,1265084.7081931,60
1659945722.42621,1265084.7081968,89
1659945722.42621,1265084.7082003,113
1659945722.42621,1265084.7082044,142
1659945722.42621,1265084.7082083,181
1659945722.42621,1265084.7082116,174
1659945722.42621,1265084.7082158,142
1659945722.42621,1265084.7082218,178
1659945722.42621,1265084.7082279,236
1659945722.42621,1265084.7082327,222
1659945722.42621,1265084.7082392,181
1659945722.42621,1265084.7082448,169
1659945722.42621,1265084.7082511,161
1659945722.42621,1265084.7082592,152
1659945722.42621,1265084.7082639,118
1659945722.42621,1265084.7082701,62
1659945722.42621,1265084.7082759,62
1659945722.42621,1265084.7082815,70
1659945722.42621,1265084.7082861,14
1659945722.42621,1265084.7082921,4
1659945722.42621,1265084.7082968,50
1659945722.42621,1265084.7083026,31
1659945722.42621,1265084.7083067,0
1659945722.42621,1265084.7083113,16
1659945722.42621,1265084.7083174,26
1659945722.42621,1265084.7083214,38
1659945722.42621,1265084.7083273,67
1659945722.42621,1265084.7083319,62
1659945722.42621,1265084.7083379,29
1659945722.42621,1265084.7083416,38
1659945722.42621,1265084.7083464,79
1659945722.42621,1265084.7083517,77
1659945722.42621,1265084.7083562,53
1659945722.42621,1265085.3429087,70
1659945722.42621,1265085.3429266,91
1659945722.42621,1265085.3429332,82
1659945722.42621,1265085.3429405,77
1659945722.42621,1265085.3429452,91
1659945722.42621,1265085.3429503,89
1659945722.42621,1265085.3429531,84
1659945722.42621,1265085.3429554,99
1659945722.42621,1265085.3429575,82
1659945722.42621,1265085.3429596,38
1659945722.42621,1265085.3429617,43
1659945722.42621,1265085.3429638,65
1659945722.43777,1265085.3429659,48
1659945722.43777,1265085.342968,19
1659945722.43777,1265085.3429704,0
1659945722.43777,1265085.3429725,0
1659945722.43777,1265085.3429746,2
1659945722.43777,1265085.3429768,-4
1659945722.43777,1265085.3429791,7
1659945722.43777,1265085.3429812,12
1659945722.43777,1265085.3429833,-19
1659945722.43777,1265085.3429855,-26
1659945722.43777,1265085.3429876,-4
1659945722.43777,1265085.3429897,-7
1659945722.43777,1265085.342994,-14
1659945722.43777,1265085.3429962,-4
1659945722.43777,1265085.3429983,21
1659945722.43777,1265085.3430004,31
1659945722.43777,1265085.3430025,4
1659945722.43777,1265085.3430045,-7
1659945722.43777,1265085.3430065,14
1659945722.43777,1265085.3430086,29
1659945722.43777,1265085.3430108,21
1659945722.43777,1265085.3430465,12
1659945722.43777,1265085.3430578,4
1659945722.43777,1265085.3430683,-4
1659945722.91799,1265085.3430786,-2
1659945722.91799,1265085.3430854,31
1659945722.91799,1265085.3430896,48
1659945722.91799,1265085.3430935,12
1659945722.91799,1265085.3430973,-12
1659945722.91799,1265085.3431012,43
1659945722.91799,1265085.3431049,227
1659945722.91799,1265085.3431086,531
1659945722.91799,1265085.3431125,831
1659945722.91799,1265085.3431165,865
1659945722.91799,1265085.3431264,512
1659945722.91799,1265085.3431362,82
1659945722.91799,1265085.3431432,-91
1659945722.91799,1265085.3431474,-77
1659945722.91799,1265085.3431513,-58
1659945722.91799,1265085.3431549,-36
1659945722.91799,1265085.3431585,-16
1659945722.91799,1265085.3431622,-26
1659945722.91799,1265085.3431657,-24
1659945722.91799,1265085.3431691,-2
1659945722.91799,1265085.3431726,16
1659945722.91799,1265085.3431762,33
1659945722.91799,1265085.3431832,29
1659945722.91799,1265085.3431871,29
1659945722.91799,1265085.3431926,67
1659945722.91799,1265085.3432062,77
1659945722.91799,1265085.3432109,55
1659945722.91799,1265085.343219,79
1659945722.91799,1265085.3432255,111
1659945722.91799,1265085.3432325,125
1659945722.91799,1265085.3432416,142
1659945722.91799,1265085.3432461,157
1659945722.91799,1265085.3432601,164
1659945722.91799,1265085.3432707,154
1659945722.91799,1265085.3432767,130
1659945722.91799,1265085.3432907,130
1659945722.91799,1265085.3433011,128
1659945722.91799,1265085.8287552,96
1659945722.91799,1265085.8287771,62
1659945722.91799,1265085.8287931,43
1659945722.91799,1265085.8288052,38
1659945722.91799,1265085.8288176,33
1659945722.91799,1265085.8288279,-2
1659945722.91799,1265085.8288373,-43
1659945722.91799,1265085.8288438,-58
1659945722.91799,1265085.8288481,-53
1659945722.91799,1265085.8288544,-29
1659945722.91799,1265085.8288586,-21
1659945722.91799,1265085.8288628,-48
1659945722.91799,1265085.8288682,-48
1659945722.92696,1265085.8288746,-38
1659945722.92696,1265085.8288866,-65
1659945722.92696,1265085.8289006,-82
1659945722.92696,1265085.8289079,-55
1659945722.92696,1265085.8289103,-38
1659945722.92696,1265085.8289125,-58
1659945722.92696,1265085.8289145,-91
1659945722.92696,1265085.8289166,-96
1659945722.92696,1265085.8289187,-65
1659945722.92696,1265085.8289208,-50
1659945722.92696,1265085.8289228,-84
1659945722.92696,1265085.8289256,-111
1659945722.92696,1265085.8289364,-82
1659945722.92696,1265085.8289421,-60
1659945722.92696,1265085.8289465,-84
1659945722.92696,1265085.8289485,-99
1659945722.92696,1265085.8289504,-108
1659945722.92696,1265085.8289531,-154
1659945722.92696,1265085.8289632,-166
1659945722.92696,1265085.8289723,-135
1659945722.92696,1265085.8289749,-137
1659945722.92696,1265085.8289771,-152
1659945722.92696,1265085.8289792,-145
1659945722.92696,1265085.8289814,-157
1659945723.55318,1265085.8289844,-169
1659945723.55318,1265085.8289948,-154
1659945723.55318,1265085.8290009,-161
1659945723.55318,1265085.8290033,-190
1659945723.55318,1265085.8290053,-198
1659945723.55318,1265085.8290073,-198
1659945723.55318,1265085.8290092,-212
1659945723.55318,1265085.8290111,-227
1659945723.55318,1265085.829013,-200
1659945723.55318,1265085.8290149,-166
1659945723.55318,1265085.8290182,-166
1659945723.55318,1265085.8290294,-171
1659945723.55318,1265085.8290404,-176
1659945723.55318,1265085.8290475,-188
1659945723.55318,1265085.8290561,-164
1659945723.55318,1265085.8290618,-164
1659945723.55318,1265085.8290685,-207
1659945723.55318,1265085.8290734,-198
1659945723.55318,1265085.82908,-176
1659945723.55318,1265085.8290853,-198
1659945723.55318,1265085.8290919,-193
1659945723.55318,1265085.8290982,-154
1659945723.55318,1265085.8291058,-145
1659945723.55318,1265085.8291169,-178
1659945723.55318,1265085.8291263,-171
1659945723.55318,1265085.8291288,12
1659945723.55318,1265085.829131,381
1659945723.55318,1265085.8291331,725
1659945723.55318,1265085.8291359,783
1659945723.55318,1265085.8291462,442
1659945723.55318,1265085.8291542,-62
1659945723.55318,1265085.8291567,-292
1659945723.55318,1265085.8291589,-256
1659945723.55318,1265085.829161,-232
1659945723.55318,1265085.8291631,-234
1659945723.55318,1265085.8291652,-224
1659945723.55318,1265086.4629445,-222
1659945723.55318,1265086.4629572,-205
1659945723.55318,1265086.4629601,-198
1659945723.55318,1265086.4629625,-203
1659945723.55318,1265086.4629646,-198
1659945723.55318,1265086.4629668,-174
1659945723.55318,1265086.4629688,-159
1659945723.55318,1265086.4629709,-166
1659945723.55318,1265086.4629739,-174
1659945723.55318,1265086.4629851,-178
1659945723.55318,1265086.4629923,-174
1659945723.55318,1265086.4629961,-164
1659945723.55318,1265086.4629997,-130
1659945723.55318,1265086.4630029,-96
1659945723.56415,1265086.4630063,-111
1659945723.56415,1265086.4630114,-142
1659945723.56415,1265086.4630171,-145
1659945723.56415,1265086.4630234,-137
1659945723.56415,1265086.4630272,-140
1659945723.56415,1265086.4630326,-152
1659945723.56415,1265086.4630361,-171
1659945723.56415,1265086.4630395,-198
1659945723.56415,1265086.4630428,-219
1659945723.56415,1265086.4630466,-241
1659945723.56415,1265086.4630501,-258
1659945723.56415,1265086.463056,-251
1659945723.56415,1265086.4630623,-239
1659945723.56415,1265086.4630729,-258
1659945723.56415,1265086.4630819,-287
1659945723.56415,1265086.4630914,-285
1659945723.56415,1265086.4631001,-263
1659945723.56415,1265086.4631045,-251
1659945723.56415,1265086.4631115,-248
1659945723.56415,1265086.4631207,-253
1659945723.56415,1265086.463131,-253
1659945723.56415,1265086.4631386,-239
1659945723.56415,1265086.4631449,-219
1659945723.56415,1265086.4631532,-222
1659945724.04164,1265086.463166,-219
1659945724.04164,1265086.4631739,-198
1659945724.04164,1265086.463181,-186
1659945724.04164,1265086.4631908,-190
1659945724.04164,1265086.4632032,-200
1659945724.04164,1265086.4632119,-190
1659945724.04164,1265086.4632163,-159
1659945724.04164,1265086.4632216,-161
1659945724.04164,1265086.4632255,-183
1659945724.04164,1265086.4632294,-178
1659945724.04164,1265086.4632346,-178
1659945724.04164,1265086.4632383,-166
1659945724.04164,1265086.4632422,-130
1659945724.04164,1265086.463246,-140
1659945724.04164,1265086.4632511,-166
1659945724.04164,1265086.4632558,-147
1659945724.04164,1265086.463261,-130
1659945724.04164,1265086.4632656,-145
1659945724.04164,1265086.4632778,-147
1659945724.04164,1265086.4632877,-125
1659945724.04164,1265086.4632903,-99
1659945724.04164,1265086.4632924,-94
1659945724.04164,1265086.4632953,-108
1659945724.04164,1265086.4633049,-123
1659945724.04164,1265086.4633172,-116
1659945724.04164,1265086.4633306,-111
1659945724.04164,1265086.4633446,-111
1659945724.04164,1265086.4633575,-91
1659945724.04164,1265086.4633712,-74
1659945724.04164,1265086.4633849,-74
1659945724.04164,1265086.4633983,-67
1659945724.04164,1265086.4634119,-55
1659945724.04164,1265086.4634254,-58
1659945724.04164,1265086.4634389,-72
1659945724.04164,1265086.4634524,-74
1659945724.04164,1265086.9502964,-65
1659945724.04164,1265086.9503161,-50
1659945724.04164,1265086.9503249,-38
1659945724.04164,1265086.9503317,-43
1659945724.04164,1265086.9503352,-58
1659945724.04164,1265086.9503388,-77
1659945724.04164,1265086.9503468,-82
1659945724.04164,1265086.9503562,-67
1659945724.04164,1265086.9503634,4
1659945724.04164,1265086.9503657,210
1659945724.04164,1265086.9503678,543
1659945724.04164,1265086.9503699,821
1659945724.04164,1265086.950372,751
1659945724.04164,1265086.9503741,316
1659945724.04164,1265086.9503766,-82
1659945724.05161,1265086.9503786,-169
1659945724.05161,1265086.9503808,-111
1659945724.05161,1265086.9503829,-91
1659945724.05161,1265086.9503892,-89
1659945724.05161,1265086.950401,-84
1659945724.05161,1265086.9504051,-87
1659945724.05161,1265086.9504093,-72
1659945724.05161,1265086.9504113,-50
1659945724.05161,1265086.9504135,-48
1659945724.05161,1265086.9504156,-43
1659945724.05161,1265086.9504192,-29
1659945724.05161,1265086.9504322,-21
1659945724.05161,1265086.9504382,-12
1659945724.05161,1265086.9504405,4
1659945724.05161,1265086.9504426,14
1659945724.05161,1265086.9504447,21
1659945724.05161,1265086.9504469,43
1659945724.05161,1265086.9504544,74
1659945724.05161,1265086.9504653,103
1659945724.05161,1265086.9504688,125
1659945724.05161,1265086.9504728,137
1659945724.05161,1265086.9504748,135
1659945724.05161,1265086.950477,120
1659945724.05161,1265086.9504791,108
1659945724.57571,1265086.9504812,94
1659945724.57571,1265086.9504845,74
1659945724.57571,1265086.9504952,58
1659945724.57571,1265086.9505008,38
1659945724.57571,1265086.9505031,16
1659945724.57571,1265086.9505051,2
1659945724.57571,1265086.9505071,-4
1659945724.57571,1265086.950509,-9
1659945724.57571,1265086.9505109,-16
1659945724.57571,1265086.9505129,-16
1659945724.57571,1265086.9505148,-7
1659945724.57571,1265086.9505175,2
1659945724.57571,1265086.9505202,-2
1659945724.57571,1265086.9505223,-12
1659945724.57571,1265086.9505244,-2
1659945724.57571,1265086.9505266,16
1659945724.57571,1265086.9505285,19
1659945724.57571,1265086.9505306,9
1659945724.57571,1265086.9505327,12
1659945724.57571,1265086.9505347,19
1659945724.57571,1265086.9505367,12
1659945724.57571,1265086.9505388,14
1659945724.57571,1265086.9505408,43
1659945724.57571,1265086.9505428,55
1659945724.57571,1265086.9505449,48
1659945724.57571,1265086.9505468,50
1659945724.57571,1265086.9505495,53
1659945724.57571,1265086.9505515,50
1659945724.57571,1265086.9505535,67
1659945724.57571,1265086.9505555,79
1659945724.57571,1265086.9505576,60
1659945724.57571,1265086.9505596,48
1659945724.57571,1265086.9505616,55
1659945724.57571,1265086.9505636,72
1659945724.57571,1265087.4887119,77
1659945724.57571,1265087.4887287,58
1659945724.57571,1265087.4887364,45
1659945724.57571,1265087.4887407,60
1659945724.57571,1265087.4887458,65
1659945724.57571,1265087.4887506,60
1659945724.57571,1265087.4887564,65
1659945724.57571,1265087.4887599,65
1659945724.57571,1265087.4887635,48
1659945724.57571,1265087.4887673,31
1659945724.57571,1265087.4887729,26
1659945724.57571,1265087.4887772,14
1659945724.57571,1265087.488781,-4
1659945724.57571,1265087.4887846,-9
1659945724.57571,1265087.4887882,-16
1659945724.57571,1265087.4887918,-41
1659945724.58568,1265087.4887953,-41
1659945724.58568,1265087.4887989,-26
1659945724.58568,1265087.4888025,-36
1659945724.58568,1265087.4888061,-41
1659945724.58568,1265087.4888096,-38
1659945724.58568,1265087.4888132,-62
1659945724.58568,1265087.4888168,-79
1659945724.58568,1265087.4888203,-70
1659945724.58568,1265087.4888257,-55
1659945724.58568,1265087.4888293,-48
1659945724.58568,1265087.4888345,-38
1659945724.58568,1265087.4888385,-33
1659945724.58568,1265087.4888437,-38
1659945724.58568,1265087.4888473,-24
1659945724.58568,1265087.4888522,-19
1659945724.58568,1265087.4888558,7
1659945724.58568,1265087.4888606,159
1659945724.58568,1265087.488864,447
1659945724.58568,1265087.4888675,761
1659945724.58568,1265087.4888709,891
1659945724.58568,1265087.4888743,626
1659945724.58568,1265087.4888777,142
1659945724.58568,1265087.4888812,-103
1659945724.58568,1265087.4888845,-48
1659945725.16038,1265087.4888878,9
1659945725.16038,1265087.4888912,-19
1659945725.16038,1265087.4888945,-33
1659945725.16038,1265087.4888979,-21
1659945725.16038,1265087.4889013,2
1659945725.16038,1265087.4889048,19
1659945725.16038,1265087.4889082,14
1659945725.16038,1265087.4889115,19
1659945725.16038,1265087.4889147,41
1659945725.16038,1265087.488918,48
1659945725.16038,1265087.4889213,60
1659945725.16038,1265087.4889246,89
1659945725.16038,1265087.4889278,101
1659945725.16038,1265087.4889311,99
1659945725.16038,1265087.4889343,118
1659945725.16038,1265087.4889379,157
1659945725.16038,1265087.4889414,183
1659945725.16038,1265087.4889446,200
1659945725.16038,1265087.4889478,217
1659945725.16038,1265087.4889511,219
1659945725.16038,1265087.4889545,205
1659945725.16038,1265087.4889577,193
1659945725.16038,1265087.4889609,203
1659945725.16038,1265087.4889641,205
1659945725.16038,1265087.4889674,176
1659945725.16038,1265087.4889706,132
1659945725.16038,1265087.4889739,101
1659945725.16038,1265087.4889772,84
1659945725.16038,1265087.4889805,74
1659945725.16038,1265087.4889837,70
1659945725.16038,1265087.4889869,62
1659945725.16038,1265087.4889901,24
1659945725.16038,1265087.4889934,21
1659945725.16038,1265088.0714599,91
1659945725.16038,1265088.071484,113
1659945725.16038,1265088.0714938,70
1659945725.16038,1265088.0715022,62
1659945725.16038,1265088.0715085,74
1659945725.16038,1265088.0715174,48
1659945725.16038,1265088.0715229,26

1659945725.16038,1265088.0715253,43
1659945725.16038,1265088.0715275,55
1659945725.16038,1265088.0715296,45
1659945725.16038,1265088.0715317,33
1659945725.16038,1265088.0715337,14
1659945725.16038,1265088.0715371,4
1659945725.16038,1265088.071545,19
1659945725.16038,1265088.0715495,21
1659945725.16038,1265088.0715559,29
1659945725.16038,1265088.0715613,67
1659945725.17135,1265088.0715677,79
1659945725.17135,1265088.071573,38
1659945725.17135,1265088.071581,21
1659945725.17135,1265088.0715856,43
1659945725.17135,1265088.0715916,45
1659945725.17135,1265088.0715946,36
1659945725.17135,1265088.0715976,38
1659945725.17135,1265088.0716005,45
1659945725.17135,1265088.0716034,55
1659945725.17135,1265088.0716062,60
1659945725.17135,1265088.0716091,53
1659945725.17135,1265088.071612,41
1659945725.17135,1265088.0716148,29
1659945725.17135,1265088.0716177,29
1659945725.17135,1265088.0716206,43
1659945725.17135,1265088.0716236,55
1659945725.17135,1265088.0716264,45
1659945725.17135,1265088.0716293,24
1659945725.17135,1265088.0716322,21
1659945725.17135,1265088.0716351,31
1659945725.17135,1265088.0716379,38
1659945725.17135,1265088.0716408,53
1659945725.17135,1265088.0716437,50
1659945725.17135,1265088.0716466,41
1659945725.79498,1265088.0716495,48
1659945725.79498,1265088.0716523,41
1659945725.79498,1265088.0716551,19
1659945725.79498,1265088.0716579,21
1659945725.79498,1265088.0716607,19
1659945725.79498,1265088.0716635,9
1659945725.79498,1265088.0716663,14
1659945725.79498,1265088.0716691,21
1659945725.79498,1265088.0716718,14
1659945725.79498,1265088.071676,9
1659945725.79498,1265088.0716807,19
1659945725.79498,1265088.0716873,19
1659945725.79498,1265088.0716904,45
1659945725.79498,1265088.0716933,188
1659945725.79498,1265088.0716962,459
1659945725.79498,1265088.0716999,766
1659945725.79498,1265088.0717036,870
1659945725.79498,1265088.0717056,587
1659945725.79498,1265088.0717075,152
1659945725.79498,1265088.0717104,-45
1659945725.79498,1265088.0717125,-24
1659945725.79498,1265088.0717146,2
1659945725.79498,1265088.0717167,19
1659945725.79498,1265088.0717187,43
1659945725.79498,1265088.0717208,31
1659945725.79498,1265088.0717229,9
1659945725.79498,1265088.0717249,9
1659945725.79498,1265088.0717271,31
1659945725.79498,1265088.0717291,65
1659945725.79498,1265088.0717312,77
1659945725.79498,1265088.0717332,84
1659945725.79498,1265088.0717353,111
1659945725.79498,1265088.704954,128
1659945725.79498,1265088.7049757,106
1659945725.79498,1265088.7049908,79
1659945725.79498,1265088.7050058,108
1659945725.79498,1265088.7050167,147
1659945725.79498,1265088.7050192,159
1659945725.79498,1265088.7050214,190
1659945725.79498,1265088.7050235,217
1659945725.79498,1265088.7050256,174
1659945725.79498,1265088.7050277,130
1659945725.79498,1265088.7050297,135
1659945725.79498,1265088.7050317,152
1659945725.79498,1265088.7050349,149
1659945725.79498,1265088.7050435,120
1659945725.79498,1265088.7050579,55
1659945725.79498,1265088.7050714,9
1659945725.79498,1265088.7050862,4
1659945725.79498,1265088.7051015,0
1659945725.80695,1265088.7051123,-4
1659945725.80695,1265088.7051148,4
1659945725.80695,1265088.7051171,0
1659945725.80695,1265088.7051191,-29
1659945725.80695,1265088.7051254,-38
1659945725.80695,1265088.7051368,-24
1659945725.80695,1265088.7051402,-14
1659945725.80695,1265088.705144,-7
1659945725.80695,1265088.705146,14
1659945725.80695,1265088.7051481,16
1659945725.80695,1265088.7051516,-4
1659945725.80695,1265088.7051646,2
1659945725.80695,1265088.7051764,36
1659945725.80695,1265088.7051908,45
1659945725.80695,1265088.7052051,31
1659945725.80695,1265088.7052181,24
1659945725.80695,1265088.7052273,33
1659945725.80695,1265088.7052382,48
1659945725.80695,1265088.7052476,43
1659945725.80695,1265088.705256,45
1659945725.80695,1265088.7052635,60
1659945725.80695,1265088.7052732,72
1659945725.80695,1265088.7052808,74
1659945725.80695,1265088.7052889,58
1659945726.27548,1265088.7052984,45
1659945726.27548,1265088.7053037,60
1659945726.27548,1265088.705306,94
1659945726.27548,1265088.7053084,111
1659945726.27548,1265088.7053135,84
1659945726.27548,1265088.7053215,58
1659945726.27548,1265088.7053261,60
1659945726.27548,1265088.7053313,62
1659945726.27548,1265088.7053367,50
1659945726.27548,1265088.7053419,50
1659945726.27548,1265088.7053475,72
1659945726.27548,1265088.7053535,74
1659945726.27548,1265088.7053648,58
1659945726.27548,1265088.7053748,60
1659945726.27548,1265088.7053815,48
1659945726.27548,1265088.7053896,29
1659945726.27548,1265088.7053972,70
1659945726.27548,1265088.7054056,103
1659945726.27548,1265088.7054103,67
1659945726.27548,1265088.7054136,55
1659945726.27548,1265088.7054192,67
1659945726.27548,1265088.7054256,29
1659945726.27548,1265088.705431,-16
1659945726.27548,1265088.7054366,16
1659945726.27548,1265088.7054404,55
1659945726.27548,1265088.7054439,19
1659945726.27548,1265088.7054478,-14
1659945726.27548,1265088.7054534,-2
1659945726.27548,1265088.7054571,7
1659945726.27548,1265088.7054626,14
1659945726.27548,1265088.7054678,33
1659945726.27548,1265089.1932778,106
1659945726.27548,1265089.1933016,319
1659945726.27548,1265089.193308,667
1659945726.27548,1265089.1933126,935
1659945726.27548,1265089.1933198,843
1659945726.27548,1265089.1933271,396
1659945726.27548,1265089.1933345,-4
1659945726.27548,1265089.1933439,-84
1659945726.27548,1265089.1933495,-14
1659945726.27548,1265089.193354,16
1659945726.27548,1265089.1933577,21
1659945726.27548,1265089.1933621,14
1659945726.27548,1265089.1933683,7
1659945726.27548,1265089.1933792,26
1659945726.27548,1265089.1933871,41
1659945726.27548,1265089.1933924,43
1659945726.27548,1265089.1933968,48
1659945726.27548,1265089.1934016,41
1659945726.27548,1265089.193413,31
1659945726.28546,1265089.1934222,50
1659945726.28546,1265089.1934303,74
1659945726.28546,1265089.1934614,87
1659945726.28546,1265089.1934697,108
1659945726.28546,1265089.1934735,130
1659945726.28546,1265089.1934766,128
1659945726.28546,1265089.1934815,120
1659945726.28546,1265089.1934903,140
1659945726.28546,1265089.1935048,157
1659945726.28546,1265089.1935153,152
1659945726.28546,1265089.193522,161
1659945726.28546,1265089.193534,169
1659945726.28546,1265089.193545,137
1659945726.28546,1265089.1935544,108
1659945726.28546,1265089.1935641,111
1659945726.28546,1265089.1935751,106
1659945726.28546,1265089.1935855,79
1659945726.28546,1265089.1935919,48
1659945726.28546,1265089.1936043,31
1659945726.28546,1265089.1936135,41
1659945726.28546,1265089.1936205,43
1659945726.28546,1265089.193633,31
1659945726.28546,1265089.1936431,31
1659945726.28546,1265089.1936496,43
1659945726.91734,1265089.193663,53
1659945726.91734,1265089.1936714,53
1659945726.91734,1265089.1936785,58
1659945726.91734,1265089.1936856,70
1659945726.91734,1265089.1936929,74
1659945726.91734,1265089.1936968,58
1659945726.91734,1265089.1937019,62
1659945726.91734,1265089.1937077,82
1659945726.91734,1265089.1937137,74
1659945726.91734,1265089.1937199,67
1659945726.91734,1265089.1937331,87
1659945726.91734,1265089.1937412,101
1659945726.91734,1265089.193754,106
1659945726.91734,1265089.1937677,108
1659945726.91734,1265089.1937775,101
1659945726.91734,1265089.1937799,108
1659945726.91734,1265089.1937823,120
1659945726.91734,1265089.1937846,118
1659945726.91734,1265089.1937866,113
1659945726.91734,1265089.1937964,111
1659945726.91734,1265089.1937985,96
1659945726.91734,1265089.1938015,91
1659945726.91734,1265089.1938035,96
1659945726.91734,1265089.1938056,96
1659945726.91734,1265089.1938077,103
1659945726.91734,1265089.1938097,111
1659945726.91734,1265089.1938125,106
1659945726.91734,1265089.1938146,99
1659945726.91734,1265089.1938167,106
1659945726.91734,1265089.1938187,113
1659945726.91734,1265089.8273802,111
1659945726.91734,1265089.8273927,106
1659945726.91734,1265089.8273964,101
1659945726.91734,1265089.8273991,96
1659945726.91734,1265089.8274017,94
1659945726.91734,1265089.8274042,108
1659945726.91734,1265089.8274066,128
1659945726.91734,1265089.827409,130
1659945726.91734,1265089.8274113,106
1659945726.91734,1265089.8274138,67
1659945726.91734,1265089.8274173,58
1659945726.91734,1265089.8274284,62
1659945726.91734,1265089.8274362,58
1659945726.91734,1265089.827444,45
1659945726.91734,1265089.8274528,21
1659945726.91734,1265089.8274553,2
1659945726.91734,1265089.8274574,24
1659945726.91734,1265089.8274594,53
1659945726.91734,1265089.8274617,48
1659945726.91734,1265089.8274637,43
1659945726.92931,1265089.8274658,50
1659945726.92931,1265089.8274678,82
1659945726.92931,1265089.8274698,219
1659945726.92931,1265089.827475,497
1659945726.92931,1265089.8274786,797
1659945726.92931,1265089.8274895,882
1659945726.92931,1265089.8274959,594
1659945726.92931,1265089.8275,152
1659945726.92931,1265089.8275057,-48
1659945726.92931,1265089.8275094,4
1659945726.92931,1265089.8275152,45
1659945726.92931,1265089.8275188,36
1659945726.92931,1265089.8275226,58
1659945726.92931,1265089.8275262,62
1659945726.92931,1265089.8275299,36
1659945726.92931,1265089.8275353,48
1659945726.92931,1265089.8275458,82
1659945726.92931,1265089.8275543,96
1659945726.92931,1265089.8275586,99
1659945726.92931,1265089.8275639,99
1659945726.92931,1265089.8275676,116
1659945726.92931,1265089.8275725,135
1659945726.92931,1265089.8275762,145
1659945726.92931,1265089.8275863,149
1659945727.44625,1265089.827592,157
1659945727.44625,1265089.827594,176
1659945727.44625,1265089.8275959,200
1659945727.44625,1265089.8275979,205
1659945727.44625,1265089.8275998,219
1659945727.44625,1265089.8276019,241
1659945727.44625,1265089.8276038,236
1659945727.44625,1265089.8276057,229
1659945727.44625,1265089.8276075,224
1659945727.44625,1265089.8276094,195
1659945727.44625,1265089.8276113,164
1659945727.44625,1265089.8276132,130
1659945727.44625,1265089.8276151,94
1659945727.44625,1265089.8276169,67
1659945727.44625,1265089.8276226,58
1659945727.44625,1265089.8276313,41
1659945727.44625,1265089.8276376,19
1659945727.44625,1265089.8276433,21
1659945727.44625,1265089.8276491,38
1659945727.44625,1265089.8276569,55
1659945727.44625,1265089.8276626,77
1659945727.44625,1265089.8276695,77
1659945727.44625,1265089.827676,62
1659945727.44625,1265089.8276858,67
1659945727.44625,1265089.8276953,82
1659945727.44625,1265089.827702,84
1659945727.44625,1265089.8277064,77
1659945727.44625,1265089.8277107,65
1659945727.44625,1265089.8277165,60
1659945727.44625,1265090.3624433,67
1659945727.44625,1265090.3624623,82
1659945727.44625,1265090.3624748,96
1659945727.44625,1265090.3624855,108
1659945727.44625,1265090.3624885,108
1659945727.44625,1265090.3624908,94
1659945727.44625,1265090.3624929,87
1659945727.44625,1265090.362495,94
1659945727.44625,1265090.3624971,101
1659945727.44625,1265090.3624992,96
1659945727.44625,1265090.3625013,91
1659945727.44625,1265090.3625035,89
1659945727.44625,1265090.3625056,82
1659945727.44625,1265090.3625118,84
1659945727.44625,1265090.3625234,91
1659945727.44625,1265090.3625293,82
1659945727.44625,1265090.3625315,60
1659945727.44625,1265090.3625428,45
1659945727.44625,1265090.3625515,31
1659945727.44625,1265090.362554,24
1659945727.44625,1265090.3625562,36
1659945727.45832,1265090.3625583,45
1659945727.45832,1265090.362566,31
1659945727.45832,1265090.362577,12
1659945727.45832,1265090.3625805,2
1659945727.45832,1265090.3625847,-7
1659945727.45832,1265090.3625869,-9
1659945727.45832,1265090.3625946,9
1659945727.45832,1265090.362605,26
1659945727.45832,1265090.3626085,14
1659945727.45832,1265090.3626126,-2
1659945727.45832,1265090.3626171,-2
1659945727.45832,1265090.3626291,-4
1659945727.45832,1265090.3626349,-16
1659945727.45832,1265090.3626377,-31
1659945727.45832,1265090.3626398,-31
1659945727.45832,1265090.3626424,-16
1659945727.45832,1265090.3626528,-9
1659945727.45832,1265090.3626608,-9
1659945727.45832,1265090.3626633,2
