Time,TimeLsl,Value
1659953028.746,1272390.2149212,87
1659953028.746,1272390.2149391,98
1659953028.746,1272390.2149435,89
1659953028.746,1272390.214949,80
1659953028.746,1272390.2149526,87
1659953028.746,1272390.2149582,98
1659953028.746,1272390.2149617,101
1659953028.746,1272390.2149654,103
1659953028.746,1272390.2149712,106
1659953028.746,1272390.214975,91
1659953028.746,1272390.2149809,96
1659953028.746,1272390.214985,127
1659953028.746,1272390.2149907,143
1659953028.746,1272390.2149944,148
1659953028.746,1272390.2150036,157
1659953028.746,1272390.2150091,148
1659953028.746,1272390.2150127,136
1659953028.746,1272390.2150165,139
1659953028.746,1272390.2150204,143
1659953028.746,1272390.2150264,136
1659953028.746,1272390.2150303,115
1659953028.746,1272390.215034,84
1659953028.746,1272390.2150376,63
1659953028.746,1272390.2150432,49
1659953028.746,1272390.2150471,28
1659953028.746,1272390.2150536,4
1659953028.746,1272390.2150574,-4
1659953028.746,1272390.2150628,-18
1659953028.746,1272390.2150664,-30
1659953028.746,1272390.2150696,-23
1659953028.746,1272390.2150727,-7
1659953028.746,1272390.2150764,4
1659953028.746,1272390.2150822,16
1659953028.746,1272390.2150896,21
1659953028.746,1272390.2150956,18
1659953028.746,1272390.2150995,28
1659953028.746,1272390.2151053,37
1659953028.746,1272390.2151093,35
1659953028.746,1272390.2151145,35
1659953028.746,1272390.2151183,44
1659953028.746,1272390.2151239,37
1659953028.746,1272390.2151275,23
1659953028.746,1272390.2151311,14
1659953028.746,1272390.2151365,18
1659953028.746,1272390.2151403,32
1659953028.746,1272390.215146,35
1659953028.746,1272390.2151498,25
1659953028.746,1272390.2151555,16
1659953028.746,1272390.2151596,16
1659953028.746,1272390.2151653,18
1659953028.86668,1272390.2151731,21
1659953028.86668,1272390.2151788,28
1659953028.86668,1272390.2151828,40
1659953028.86668,1272390.2151883,56
1659953028.86668,1272390.2151922,70
1659953028.86668,1272390.2151961,65
1659953028.86668,1272390.2151998,58
1659953028.86668,1272390.2152052,54
1659953028.86668,1272390.215209,54
1659953028.86668,1272390.2152128,58
1659953028.86668,1272390.2152182,56
1659953028.86668,1272390.2152219,56
1659953028.86668,1272390.2152258,61
1659953028.86668,1272390.2152296,63
1659953028.86668,1272390.2152358,94
1659953028.86668,1272390.2152408,202
1659953028.86668,1272390.2152475,372
1659953028.86668,1272390.2152553,435
1659953028.86668,1272390.2152621,150
1659953028.86668,1272390.2152674,-221
1659953028.86668,1272390.2152735,-164
1659953028.86668,1272390.2152771,75
1659953028.86668,1272390.215285,68
1659953028.86668,1272390.7984809,7
1659953028.86668,1272390.7985017,51
1659953028.86668,1272390.7985099,61
1659953028.86668,1272390.7985174,37
1659953028.86668,1272390.798524,56
1659953028.86668,1272390.7985292,68
1659953028.86668,1272390.798536,56
1659953028.86668,1272390.7985454,63
1659953028.86668,1272390.7985565,75
1659953028.86668,1272390.7985659,75
1659953028.86668,1272390.7985725,80
1659953028.86668,1272390.7985789,87
1659953028.86668,1272390.7985842,89
1659953028.86668,1272390.7985926,98
1659953028.86668,1272390.7986041,115
1659953028.86668,1272390.79866,127
1659953028.86668,1272390.7986769,143
1659953028.86668,1272390.7986862,155
1659953028.86668,1272390.7986923,148
1659953028.86668,1272390.7986958,146
1659953028.86668,1272390.7987013,155
1659953028.86668,1272390.7987048,155
1659953028.86668,1272390.7987099,148
1659953028.86668,1272390.7987134,141
1659953028.86668,1272390.7987179,120
1659953028.86668,1272390.7987265,87
1659953028.86668,1272390.7987332,63
1659953028.91754,1272390.7987363,49
1659953028.91754,1272390.7987393,28
1659953028.91754,1272390.7987422,11
1659953028.91754,1272390.7987452,-4
1659953028.91754,1272390.7987481,-16
1659953028.91754,1272390.798751,-14
1659953028.91754,1272390.7987539,-16
1659953028.91754,1272390.7987567,-32
1659953028.91754,1272390.7987596,-30
1659953028.91754,1272390.7987624,-14
1659953028.91754,1272390.7987653,-7
1659953028.91754,1272390.7987683,-7
1659953028.91754,1272390.7987712,2
1659953028.91754,1272390.7987741,11
1659953028.91754,1272390.7987769,23
1659953028.91754,1272390.7987819,28
1659953028.91754,1272390.798787,25
1659953028.91754,1272390.7987915,23
1659953028.91754,1272390.7987945,25
1659953028.91754,1272390.7987975,30
1659953028.91754,1272390.7988027,37
1659953028.91754,1272390.7988084,40
1659953028.91754,1272390.7988116,42
1659953028.91754,1272390.7988184,44
1659953028.91754,1272390.798824,44
1659953028.91754,1272390.7988308,44
1659953028.91754,1272390.798834,47
1659953028.91754,1272390.7988369,47
1659953028.91754,1272390.7988398,51
1659953028.91754,1272390.7988426,68
1659953028.91754,1272390.7988455,89
1659953028.91754,1272390.7988484,115
1659953028.91754,1272390.7988513,108
1659953028.91754,1272390.7988544,75
1659953028.91754,1272390.7988572,68
1659953028.91754,1272390.7988601,75
1659953028.91754,1272390.798863,63
1659953028.91754,1272390.7988659,63
1659953028.91754,1272390.7988687,73
1659953028.91754,1272390.7988717,80
1659953028.91754,1272390.7988745,84
1659953028.91754,1272390.7988774,87
1659953028.91754,1272390.7988803,127
1659953028.91754,1272390.7988834,237
1659953028.91754,1272390.7988863,379
1659953028.91754,1272390.7988893,336
1659953028.91754,1272391.4332904,-16
1659953028.91754,1272391.4333106,-240
1659953028.96242,1272391.4333205,-54
1659953028.96242,1272391.4333301,101
1659953028.96242,1272391.4333386,47
1659953028.96242,1272391.4333459,37
1659953028.96242,1272391.4333516,82
1659953028.96242,1272391.433358,75
1659953028.96242,1272391.4333644,51
1659953028.96242,1272391.4333705,44
1659953028.96242,1272391.4333765,47
1659953028.96242,1272391.4333826,56
1659953028.96242,1272391.4333889,65
1659953028.96242,1272391.4333986,65
1659953028.96242,1272391.4334048,61
1659953028.96242,1272391.4334131,54
1659953028.96242,1272391.4334192,51
1659953028.96242,1272391.4334267,68
1659953028.96242,1272391.4334344,87
1659953028.96242,1272391.433441,101
1659953028.96242,1272391.4334486,113
1659953028.96242,1272391.4334546,129
1659953028.96242,1272391.4334654,143
1659953028.96242,1272391.4334726,160
1659953028.96242,1272391.4334836,171
1659953028.96242,1272391.4334925,174
1659953028.96242,1272391.4334952,157
1659953028.96242,1272391.4334981,131
1659953028.96242,1272391.433507,122
1659953028.96242,1272391.43352,117
1659953028.96242,1272391.4335345,98
1659953028.96242,1272391.4335473,82
1659953028.96242,1272391.4335573,70
1659953028.96242,1272391.4335644,54
1659953028.96242,1272391.4335726,32
1659953028.96242,1272391.4335822,16
1659953028.96242,1272391.433587,14
1659953028.96242,1272391.4335968,18
1659953028.96242,1272391.4336402,18
1659953028.96242,1272391.4336562,25
1659953028.96242,1272391.4336635,30
1659953028.96242,1272391.4336671,35
1659953028.96242,1272391.4336705,47
1659953028.96242,1272391.4336748,54
1659953028.96242,1272391.4336782,51
1659953028.96242,1272391.4336822,58
1659953028.96242,1272391.4336861,70
1659953028.96242,1272391.4336892,70
1659953028.96242,1272391.4336921,75
1659953028.96242,1272391.4336951,84
1659953028.96242,1272391.433699,82
1659953028.96242,1272391.4337025,80
1659953028.9724,1272391.4337064,87
1659953028.9724,1272391.43371,91
1659953028.9724,1272391.4337143,94
1659953028.9724,1272391.4337175,98
1659953028.9724,1272391.4337208,98
1659953028.9724,1272391.433724,98
1659953028.9724,1272391.4337276,94
1659953028.9724,1272391.4337316,87
1659953028.9724,1272391.4337352,87
1659953028.9724,1272391.4337391,103
1659953028.9724,1272391.4337433,127
1659953028.9724,1272391.4337467,143
1659953028.9724,1272391.4337505,143
1659953028.9724,1272391.4337548,129
1659953028.9724,1272391.4337586,117
1659953028.9724,1272391.4337621,110
1659953028.9724,1272391.433766,103
1659953028.9724,1272391.4337697,101
1659953028.9724,1272391.4337735,103
1659953028.9724,1272391.4337772,103
1659953028.9724,1272391.4337807,96
1659953028.9724,1272391.870916,106
1659953028.9724,1272391.8709351,181
1659953028.9724,1272391.8709445,322
1659953029.55233,1272391.8710015,447
1659953029.55233,1272391.8710068,332
1659953029.55233,1272391.8710114,-58
1659953029.55233,1272391.8710155,-216
1659953029.55233,1272391.8710196,21
1659953029.55233,1272391.8710239,143
1659953029.55233,1272391.8710278,70
1659953029.55233,1272391.8710317,80
1659953029.55233,1272391.8710379,127
1659953029.55233,1272391.871042,108
1659953029.55233,1272391.8710458,94
1659953029.55233,1272391.8710498,117
1659953029.55233,1272391.8710558,131
1659953029.55233,1272391.8710601,127
1659953029.55233,1272391.8710976,131
1659953029.55233,1272391.8711069,131
1659953029.55233,1272391.8711137,124
1659953029.55233,1272391.8711196,131
1659953029.55233,1272391.8711233,143
1659953029.55233,1272391.871127,153
1659953029.55233,1272391.871133,160
1659953029.55233,1272391.8711366,162
1659953029.55233,1272391.87114,143
1659953029.55233,1272391.8711454,131
1659953029.55233,1272391.8711487,157
1659953029.55233,1272391.8711521,181
1659953029.55233,1272391.8711556,179
1659953029.55233,1272391.8711614,171
1659953029.55233,1272391.8711667,155
1659953029.55233,1272391.8711701,134
1659953029.55233,1272391.8711758,124
1659953029.55233,1272391.8711796,117
1659953029.55233,1272391.8711854,108
1659953029.55233,1272391.8711913,87
1659953029.55233,1272391.8711968,58
1659953029.55233,1272391.8712004,37
1659953029.55233,1272391.8712048,25
1659953029.55233,1272391.8712106,18
1659953029.55233,1272391.8712152,11
1659953029.55233,1272391.871221,7
1659953029.55233,1272391.8712246,7
1659953029.55233,1272391.8712296,14
1659953029.55233,1272391.8712331,30
1659953029.55233,1272391.871239,37
1659953029.55233,1272391.8712428,42
1659953029.55233,1272391.8712462,49
1659953029.55233,1272391.8712503,51
1659953029.55233,1272391.8712542,49
1659953029.55233,1272391.8712578,56
1659953029.55233,1272391.8712612,65
1659953029.5658,1272391.8712648,65
1659953029.5658,1272391.8712687,63
1659953029.5658,1272391.8712726,61
1659953029.5658,1272391.8712763,61
1659953029.5658,1272391.8712806,56
1659953029.5658,1272391.8712862,44
1659953029.5658,1272391.8712901,37
1659953029.5658,1272391.8712947,35
1659953029.5658,1272391.8712989,28
1659953029.5658,1272391.8713043,21
1659953029.5658,1272391.8713109,30
1659953029.5658,1272391.8713151,61
1659953029.5658,1272391.871321,89
1659953029.5658,1272391.8713263,82
1659953029.5658,1272391.8713322,61
1659953029.5658,1272391.8713362,56
1659953029.5658,1272391.8713419,56
1659953029.5658,1272391.871346,56
1659953029.5658,1272391.8713498,58
1659953029.5658,1272391.8713536,44
1659953029.5658,1272392.456004,28
1659953029.5658,1272392.4560235,42
1659953029.5658,1272392.4560384,58
1659953029.5658,1272392.4560515,108
1659953030.0794,1272392.456059,247
1659953030.0794,1272392.4560643,400
1659953030.0794,1272392.4560696,315
1659953030.0794,1272392.4560747,-70
1659953030.0794,1272392.4560797,-289
1659953030.0794,1272392.4560858,-94
1659953030.0794,1272392.4560898,65
1659953030.0794,1272392.4560936,4
1659953030.0794,1272392.4560973,-23
1659953030.0794,1272392.4561012,14
1659953030.0794,1272392.4561053,-2
1659953030.0794,1272392.4561116,-32
1659953030.0794,1272392.4561159,-16
1659953030.0794,1272392.4561198,-9
1659953030.0794,1272392.4561253,-14
1659953030.0794,1272392.4561291,7
1659953030.0794,1272392.456135,25
1659953030.0794,1272392.4561391,25
1659953030.0794,1272392.4561448,30
1659953030.0794,1272392.4561501,49
1659953030.0794,1272392.4561557,65
1659953030.0794,1272392.456161,77
1659953030.0794,1272392.4561666,89
1659953030.0794,1272392.4561704,108
1659953030.0794,1272392.4561767,124
1659953030.0794,1272392.4561823,136
1659953030.0794,1272392.4561869,146
1659953030.0794,1272392.456193,150
1659953030.0794,1272392.4561984,155
1659953030.0794,1272392.4562024,157
1659953030.0794,1272392.4562064,150
1659953030.0794,1272392.4562121,136
1659953030.0794,1272392.4562163,131
1659953030.0794,1272392.4562216,120
1659953030.0794,1272392.4562251,101
1659953030.0794,1272392.456229,84
1659953030.0794,1272392.4562351,61
1659953030.0794,1272392.456239,40
1659953030.0794,1272392.4562429,35
1659953030.0794,1272392.4562484,37
1659953030.0794,1272392.4562523,28
1659953030.0794,1272392.4562562,18
1659953030.0794,1272392.45626,37
1659953030.0794,1272392.4562634,56
1659953030.0794,1272392.4562668,54
1659953030.0794,1272392.4562701,51
1659953030.0794,1272392.4562734,51
1659953030.0794,1272392.4562782,56
1659953030.0794,1272392.4562834,65
1659953030.0794,1272392.4562873,65
1659953030.09507,1272392.4562907,65
1659953030.09507,1272392.456294,75
1659953030.09507,1272392.456299,82
1659953030.09507,1272392.4563058,84
1659953030.09507,1272392.4563103,82
1659953030.09507,1272392.4563159,80
1659953030.09507,1272392.4563219,80
1659953030.09507,1272392.4563316,73
1659953030.09507,1272392.4563378,63
1659953030.09507,1272392.45635,65
1659953030.09507,1272392.4563587,77
1659953030.09507,1272392.4563652,96
1659953030.09507,1272392.4563694,113
1659953030.09507,1272392.456377,117
1659953030.09507,1272392.4563872,108
1659953030.09507,1272392.4564002,103
1659953030.09507,1272392.4564134,87
1659953030.09507,1272392.456428,68
1659953030.09507,1272392.4564355,68
1659953030.09507,1272392.9929234,73
1659953030.09507,1272392.992945,80
1659953030.09507,1272392.9929542,91
1659953030.09507,1272392.9929588,89
1659953030.09507,1272392.9929654,77
1659953030.67141,1272392.9929721,113
1659953030.67141,1272392.992976,237
1659953030.67141,1272392.9929797,348
1659953030.67141,1272392.9929834,181
1659953030.67141,1272392.9929871,-183
1659953030.67141,1272392.9929908,-226
1659953030.67141,1272392.9929945,21
1659953030.67141,1272392.9929982,82
1659953030.67141,1272392.9930016,21
1659953030.67141,1272392.9930047,54
1659953030.67141,1272392.993008,82
1659953030.67141,1272392.9930121,58
1659953030.67141,1272392.9930168,61
1659953030.67141,1272392.9930214,70
1659953030.67141,1272392.993027,56
1659953030.67141,1272392.9930321,54
1659953030.67141,1272392.993038,73
1659953030.67141,1272392.9930432,87
1659953030.67141,1272392.9930473,96
1659953030.67141,1272392.9930534,101
1659953030.67141,1272392.9930582,108
1659953030.67141,1272392.9930647,122
1659953030.67141,1272392.9930692,129
1659953030.67141,1272392.9930746,136
1659953030.67141,1272392.9930815,155
1659953030.67141,1272392.9930914,167
1659953030.67141,1272392.9931173,174
1659953030.67141,1272392.9931255,188
1659953030.67141,1272392.9931313,204
1659953030.67141,1272392.9931353,202
1659953030.67141,1272392.9931418,190
1659953030.67141,1272392.9931466,186
1659953030.67141,1272392.9931537,181
1659953030.67141,1272392.9931569,167
1659953030.67141,1272392.9931604,150
1659953030.67141,1272392.993166,120
1659953030.67141,1272392.9931695,89
1659953030.67141,1272392.9931728,77
1659953030.67141,1272392.9931766,70
1659953030.67141,1272392.9931834,61
1659953030.67141,1272392.9931912,65
1659953030.67141,1272392.9931977,75
1659953030.67141,1272392.9932065,77
1659953030.67141,1272392.9932106,77
1659953030.67141,1272392.9932175,84
1659953030.67141,1272392.9932228,98
1659953030.67141,1272392.9932275,103
1659953030.67141,1272392.9932327,96
1659953030.67141,1272392.9932382,101
1659953030.67141,1272392.9932436,103
1659953030.68137,1272392.9932483,94
1659953030.68137,1272392.9932546,98
1659953030.68137,1272392.9932599,110
1659953030.68137,1272392.9932646,110
1659953030.68137,1272392.9932708,108
1659953030.68137,1272392.9932766,103
1659953030.68137,1272392.9932816,106
1659953030.68137,1272392.9932872,101
1659953030.68137,1272392.9932916,96
1659953030.68137,1272392.9932979,96
1659953030.68137,1272392.9933029,108
1659953030.68137,1272392.9933077,131
1659953030.68137,1272392.9933137,157
1659953030.68137,1272392.9933189,160
1659953030.68137,1272392.9933248,134
1659953030.68137,1272392.9933313,108
1659953030.68137,1272392.9933358,87
1659953030.68137,1272392.9933413,54
1659953030.68137,1272393.578918,44
1659953030.68137,1272393.5789305,63
1659953030.68137,1272393.5789338,75
1659953030.68137,1272393.578938,82
1659953030.68137,1272393.5789402,89
1659953030.68137,1272393.5789425,148
1659953031.20907,1272393.5789448,322
1659953031.20907,1272393.5789471,478
1659953031.20907,1272393.5789492,339
1659953031.20907,1272393.5789514,-103
1659953031.20907,1272393.5789535,-320
1659953031.20907,1272393.5789557,-82
1659953031.20907,1272393.5789578,87
1659953031.20907,1272393.578962,16
1659953031.20907,1272393.5789704,4
1659953031.20907,1272393.578975,47
1659953031.20907,1272393.5789791,30
1659953031.20907,1272393.5789862,23
1659953031.20907,1272393.5789916,40
1659953031.20907,1272393.5789982,40
1659953031.20907,1272393.5790072,44
1659953031.20907,1272393.5790146,51
1659953031.20907,1272393.5790178,56
1659953031.20907,1272393.57902,75
1659953031.20907,1272393.579022,91
1659953031.20907,1272393.5790241,96
1659953031.20907,1272393.5790261,98
1659953031.20907,1272393.5790282,106
1659953031.20907,1272393.5790303,122
1659953031.20907,1272393.5790324,150
1659953031.20907,1272393.5790346,167
1659953031.20907,1272393.5790367,162
1659953031.20907,1272393.5790387,167
1659953031.20907,1272393.5790408,176
1659953031.20907,1272393.5790429,167
1659953031.20907,1272393.5790449,164
1659953031.20907,1272393.5790476,171
1659953031.20907,1272393.5790496,162
1659953031.20907,1272393.5790523,141
1659953031.20907,1272393.5790543,124
1659953031.20907,1272393.5790565,106
1659953031.20907,1272393.5790586,89
1659953031.20907,1272393.5790607,70
1659953031.20907,1272393.5790628,47
1659953031.20907,1272393.5790651,40
1659953031.20907,1272393.5790672,47
1659953031.20907,1272393.5790741,44
1659953031.20907,1272393.5790858,44
1659953031.20907,1272393.5790893,56
1659953031.20907,1272393.5790915,51
1659953031.20907,1272393.5790937,54
1659953031.20907,1272393.5790957,70
1659953031.20907,1272393.5790978,75
1659953031.20907,1272393.5790999,75
1659953031.20907,1272393.5791019,80
1659953031.20907,1272393.579104,77
1659953031.22802,1272393.579106,80
1659953031.22802,1272393.5791081,89
1659953031.22802,1272393.5791102,84
1659953031.22802,1272393.5791122,73
1659953031.22802,1272393.5791144,70
1659953031.22802,1272393.5791164,68
1659953031.22802,1272393.5791184,63
1659953031.22802,1272393.5791204,56
1659953031.22802,1272393.5791226,65
1659953031.22802,1272393.5791246,94
1659953031.22802,1272393.5791267,96
1659953031.22802,1272393.5791287,77
1659953031.22802,1272393.5791308,70
1659953031.22802,1272393.5791328,73
1659953031.22802,1272393.5791349,70
1659953031.22802,1272393.5791369,68
1659953031.22802,1272393.5791389,75
1659953031.22802,1272394.1131106,82
1659953031.22802,1272394.1131332,73
1659953031.22802,1272394.1131429,68
1659953031.22802,1272394.1131523,117
1659953031.22802,1272394.1131574,245
1659953031.22802,1272394.1131606,400
1659953031.22802,1272394.1131658,372
1659953031.78338,1272394.113178,18
1659953031.78338,1272394.1131849,-233
1659953031.78338,1272394.1131946,-58
1659953031.78338,1272394.1132039,127
1659953031.78338,1272394.1132164,70
1659953031.78338,1272394.1132279,37
1659953031.78338,1272394.113235,82
1659953031.78338,1272394.1132466,70
1659953031.78338,1272394.1132576,47
1659953031.78338,1272394.1132658,65
1659953031.78338,1272394.1132739,70
1659953031.78338,1272394.1132801,44
1659953031.78338,1272394.1132824,37
1659953031.78338,1272394.1132845,58
1659953031.78338,1272394.1132866,70
1659953031.78338,1272394.1132887,65
1659953031.78338,1272394.1132907,65
1659953031.78338,1272394.1132929,63
1659953031.78338,1272394.1132956,61
1659953031.78338,1272394.1133063,75
1659953031.78338,1272394.113314,98
1659953031.78338,1272394.1133166,113
1659953031.78338,1272394.1133188,127
1659953031.78338,1272394.1133209,141
1659953031.78338,1272394.113323,136
1659953031.78338,1272394.113326,124
1659953031.78338,1272394.113339,120
1659953031.78338,1272394.1133491,120
1659953031.78338,1272394.1133626,117
1659953031.78338,1272394.1133683,108
1659953031.78338,1272394.1133725,87
1659953031.78338,1272394.1133794,65
1659953031.78338,1272394.1133838,51
1659953031.78338,1272394.1133899,37
1659953031.78338,1272394.1133936,30
1659953031.78338,1272394.1133973,32
1659953031.78338,1272394.1134029,30
1659953031.78338,1272394.1134077,25
1659953031.78338,1272394.1134141,30
1659953031.78338,1272394.1134221,42
1659953031.78338,1272394.1134279,51
1659953031.78338,1272394.1134317,58
1659953031.78338,1272394.1134391,63
1659953031.78338,1272394.113448,65
1659953031.78338,1272394.1134614,70
1659953031.78338,1272394.1134736,73
1659953031.78338,1272394.1134824,70
1659953031.78338,1272394.1134901,68
1659953031.78338,1272394.1134977,58
1659953031.78338,1272394.1135088,42
1659953031.79435,1272394.1135202,32
1659953031.79435,1272394.1135259,32
1659953031.79435,1272394.1135392,40
1659953031.79435,1272394.1135495,42
1659953031.79435,1272394.1135581,44
1659953031.79435,1272394.1135704,58
1659953031.79435,1272394.1135789,84
1659953031.79435,1272394.1135879,106
1659953031.79435,1272394.1136003,103
1659953031.79435,1272394.1136095,89
1659953031.79435,1272394.1136183,77
1659953031.79435,1272394.113629,77
1659953031.79435,1272394.1136368,82
1659953031.79435,1272394.1136472,84
1659953031.79435,1272394.1136587,89
1659953031.79435,1272394.1136675,98
1659953031.79435,1272394.6987319,103
1659953031.79435,1272394.6987513,113
1659953031.79435,1272394.6987577,179
1659953031.79435,1272394.6987643,322
1659953031.79435,1272394.6987697,426
1659953031.79435,1272394.6987735,249
1659953031.79435,1272394.6987774,-124
1659953031.79435,1272394.6987831,-181
1659953032.32741,1272394.6987887,56
1659953032.32741,1272394.698793,103
1659953032.32741,1272394.6987971,30
1659953032.32741,1272394.6988008,65
1659953032.32741,1272394.6988042,98
1659953032.32741,1272394.6988105,70
1659953032.32741,1272394.6988155,54
1659953032.32741,1272394.6988196,51
1659953032.32741,1272394.6988232,44
1659953032.32741,1272394.6988264,44
1659953032.32741,1272394.6988302,44
1659953032.32741,1272394.6988338,44
1659953032.32741,1272394.6988368,49
1659953032.32741,1272394.6988411,51
1659953032.32741,1272394.6988475,63
1659953032.32741,1272394.6988533,80
1659953032.32741,1272394.6988566,91
1659953032.32741,1272394.6988598,106
1659953032.32741,1272394.6988632,117
1659953032.32741,1272394.698867,124
1659953032.32741,1272394.6988714,129
1659953032.32741,1272394.6988752,139
1659953032.32741,1272394.6988783,146
1659953032.32741,1272394.6988818,150
1659953032.32741,1272394.6988848,143
1659953032.32741,1272394.6988894,131
1659953032.32741,1272394.698894,124
1659953032.32741,1272394.6988984,117
1659953032.32741,1272394.6989049,103
1659953032.32741,1272394.6989122,89
1659953032.32741,1272394.6989176,75
1659953032.32741,1272394.698923,56
1659953032.32741,1272394.6989302,40
1659953032.32741,1272394.6989348,35
1659953032.32741,1272394.6989388,42
1659953032.32741,1272394.6989429,44
1659953032.32741,1272394.6989469,42
1659953032.32741,1272394.6989514,42
1659953032.32741,1272394.6989584,40
1659953032.32741,1272394.6989628,32
1659953032.32741,1272394.698967,25
1659953032.32741,1272394.6989711,25
1659953032.32741,1272394.6989753,32
1659953032.32741,1272394.6989801,35
1659953032.32741,1272394.6989865,37
1659953032.32741,1272394.6989907,42
1659953032.32741,1272394.6989948,47
1659953032.32741,1272394.6990127,44
1659953032.32741,1272394.6990198,35
1659953032.32741,1272394.6990242,35
1659953032.33838,1272394.69903,42
1659953032.33838,1272394.6990335,37
1659953032.33838,1272394.6990371,47
1659953032.33838,1272394.6990403,80
1659953032.33838,1272394.6990439,103
1659953032.33838,1272394.6990472,89
1659953032.33838,1272394.6990507,80
1659953032.33838,1272394.6990541,75
1659953032.33838,1272394.6990574,68
1659953032.33838,1272394.6990615,70
1659953032.33838,1272394.6990653,77
1659953032.33838,1272394.6990684,82
1659953032.33838,1272394.6990713,87
1659953032.33838,1272394.6990919,89
1659953032.33838,1272394.6991043,96
1659953032.33838,1272395.236372,164
1659953032.33838,1272395.2363938,313
1659953032.33838,1272395.2364022,433
1659953032.33838,1272395.2364114,275
1659953032.33838,1272395.2364189,-117
1659953032.33838,1272395.2364285,-221
1659953032.33838,1272395.236435,30
1659953032.33838,1272395.236448,129
1659953032.33838,1272395.2364576,61
1659953032.96621,1272395.2364629,80
1659953032.96621,1272395.2364673,115
1659953032.96621,1272395.2364718,80
1659953032.96621,1272395.2364765,51
1659953032.96621,1272395.2364811,68
1659953032.96621,1272395.2364859,77
1659953032.96621,1272395.2364926,77
1659953032.96621,1272395.2364971,84
1659953032.96621,1272395.2365018,87
1659953032.96621,1272395.2365062,73
1659953032.96621,1272395.2365125,70
1659953032.96621,1272395.2365173,82
1659953032.96621,1272395.2365234,91
1659953032.96621,1272395.2365281,94
1659953032.96621,1272395.2365343,101
1659953032.96621,1272395.2365389,110
1659953032.96621,1272395.2365451,117
1659953032.96621,1272395.2365491,131
1659953032.96621,1272395.2365547,148
1659953032.96621,1272395.2365584,150
1659953032.96621,1272395.2365625,143
1659953032.96621,1272395.2365664,131
1659953032.96621,1272395.2365721,122
1659953032.96621,1272395.2365772,115
1659953032.96621,1272395.2365831,110
1659953032.96621,1272395.2365869,101
1659953032.96621,1272395.2365908,82
1659953032.96621,1272395.236595,51
1659953032.96621,1272395.2366005,23
1659953032.96621,1272395.2366044,18
1659953032.96621,1272395.23661,16
1659953032.96621,1272395.2366139,2
1659953032.96621,1272395.2366194,2
1659953032.96621,1272395.2366229,11
1659953032.96621,1272395.2366265,16
1659953032.96621,1272395.2366329,18
1659953032.96621,1272395.2366373,35
1659953032.96621,1272395.2366423,49
1659953032.96621,1272395.2366458,51
1659953032.96621,1272395.2366511,54
1659953032.96621,1272395.2366545,51
1659953032.96621,1272395.2366595,54
1659953032.96621,1272395.2366631,63
1659953032.96621,1272395.2366719,68
1659953032.96621,1272395.2366769,63
1659953032.96621,1272395.2366838,61
1659953032.96621,1272395.2366871,56
1659953032.96621,1272395.2366901,51
1659953032.96621,1272395.236693,56
1659953032.96621,1272395.2366961,73
1659953032.97855,1272395.2367136,106
1659953032.97855,1272395.2367239,131
1659953032.97855,1272395.2367292,122
1659953032.97855,1272395.2367335,103
1659953032.97855,1272395.2367376,101
1659953032.97855,1272395.2367431,106
1659953032.97855,1272395.2367476,106
1659953032.97855,1272395.2367519,108
1659953032.97855,1272395.236756,110
1659953032.97855,1272395.2367602,106
1659953032.97855,1272395.2367644,103
1659953032.97855,1272395.2367726,120
1659953032.97855,1272395.2367783,209
1659953032.97855,1272395.2367827,391
1659953032.97855,1272395.8688497,511
1659953032.97855,1272395.8688734,294
1659953032.97855,1272395.8688859,-122
1659953032.97855,1272395.8688967,-179
1659953032.97855,1272395.8689038,89
1659953032.97855,1272395.8689152,164
1659953032.97855,1272395.8689181,94
1659953032.97855,1272395.8689204,117
1659953032.97855,1272395.8689226,134
1659953032.97855,1272395.8689247,94
1659953033.44754,1272395.8689268,96
1659953033.44754,1272395.8689288,117
1659953033.44754,1272395.8689307,110
1659953033.44754,1272395.8689326,106
1659953033.44754,1272395.8689386,115
1659953033.44754,1272395.8689472,108
1659953033.44754,1272395.8689519,106
1659953033.44754,1272395.8689635,122
1659953033.44754,1272395.8689716,129
1659953033.44754,1272395.8689808,131
1659953033.44754,1272395.8689937,141
1659953033.44754,1272395.8690082,136
1659953033.44754,1272395.8690165,129
1659953033.44754,1272395.8690191,143
1659953033.44754,1272395.8690212,150
1659953033.44754,1272395.8690247,141
1659953033.44754,1272395.869034,134
1659953033.44754,1272395.8690476,131
1659953033.44754,1272395.8690586,115
1659953033.44754,1272395.86907,103
1659953033.44754,1272395.8690751,101
1659953033.44754,1272395.8690773,94
1659953033.44754,1272395.86908,68
1659953033.44754,1272395.8690822,30
1659953033.44754,1272395.8690844,0
1659953033.44754,1272395.8690866,-18
1659953033.44754,1272395.8690887,-30
1659953033.44754,1272395.8690908,-35
1659953033.44754,1272395.8690929,-28
1659953033.44754,1272395.869095,-18
1659953033.44754,1272395.8690972,-9
1659953033.44754,1272395.8690993,-4
1659953033.44754,1272395.8691014,-2
1659953033.44754,1272395.8691034,7
1659953033.44754,1272395.8691056,16
1659953033.44754,1272395.8691091,21
1659953033.44754,1272395.8691187,23
1659953033.44754,1272395.8691301,28
1659953033.44754,1272395.8691397,30
1659953033.44754,1272395.8691524,35
1659953033.44754,1272395.8691596,40
1659953033.44754,1272395.8691621,35
1659953033.44754,1272395.8691644,28
1659953033.44754,1272395.8691714,25
1659953033.44754,1272395.8691822,21
1659953033.44754,1272395.8691853,28
1659953033.44754,1272395.8691876,61
1659953033.44754,1272395.8691896,87
1659953033.44754,1272395.8691918,89
1659953033.44754,1272395.8691938,77
1659953033.4605,1272395.869196,58
1659953033.4605,1272395.8692023,44
1659953033.4605,1272395.8692136,54
1659953033.4605,1272395.8692248,63
1659953033.4605,1272395.8692386,68
1659953033.4605,1272395.8692516,70
1659953033.4605,1272395.8692655,68
1659953033.4605,1272395.8692792,73
1659953033.4605,1272395.8692929,122
1659953033.4605,1272395.8693065,233
1659953033.4605,1272395.8693202,369
1659953033.4605,1272395.8693341,358
1659953033.4605,1272395.8693478,30
1659953033.4605,1272396.3578438,-233
1659953033.4605,1272396.3578651,-56
1659953033.4605,1272396.3578728,148
1659953033.4605,1272396.3578823,98
1659953033.4605,1272396.3578888,61
1659953033.4605,1272396.3578955,87
1659953033.4605,1272396.3579023,70
1659953033.4605,1272396.3579125,63
1659953033.4605,1272396.35792,89
1659953033.4605,1272396.3579244,98
1659953033.4605,1272396.3579278,94
1659953034.02913,1272396.3579311,87
1659953034.02913,1272396.3579355,73
1659953034.02913,1272396.3579414,77
1659953034.02913,1272396.3579465,94
1659953034.02913,1272396.3579505,98
1659953034.02913,1272396.3579546,101
1659953034.02913,1272396.3579595,110
1659953034.02913,1272396.3579634,117
1659953034.02913,1272396.3579669,122
1659953034.02913,1272396.3579707,136
1659953034.02913,1272396.3579742,150
1659953034.02913,1272396.3579792,153
1659953034.02913,1272396.3579844,157
1659953034.02913,1272396.3579893,148
1659953034.02913,1272396.3579951,122
1659953034.02913,1272396.3580001,98
1659953034.02913,1272396.3580048,89
1659953034.02913,1272396.3580118,73
1659953034.02913,1272396.3580188,49
1659953034.02913,1272396.3580231,32
1659953034.02913,1272396.3580293,16
1659953034.02913,1272396.3580362,7
1659953034.02913,1272396.3580421,4
1659953034.02913,1272396.3580483,-4
1659953034.02913,1272396.3580545,-9
1659953034.02913,1272396.3580609,-4
1659953034.02913,1272396.358067,0
1659953034.02913,1272396.358073,4
1659953034.02913,1272396.3580792,18
1659953034.02913,1272396.3580845,25
1659953034.02913,1272396.35809,23
1659953034.02913,1272396.3580973,32
1659953034.02913,1272396.3581055,42
1659953034.02913,1272396.3581114,42
1659953034.02913,1272396.358118,47
1659953034.02913,1272396.3581213,51
1659953034.02913,1272396.3581309,54
1659953034.02913,1272396.3581341,49
1659953034.02913,1272396.3581364,44
1659953034.02913,1272396.3581398,40
1659953034.02913,1272396.3581528,35
1659953034.02913,1272396.358167,35
1659953034.02913,1272396.3581767,58
1659953034.02913,1272396.3581846,91
1659953034.02913,1272396.3581953,106
1659953034.02913,1272396.3582063,91
1659953034.02913,1272396.3582148,77
1659953034.02913,1272396.3582196,73
1659953034.02913,1272396.3582278,73
1659953034.02913,1272396.3582346,77
1659953034.04209,1272396.3582441,82
1659953034.04209,1272396.3582563,84
1659953034.04209,1272396.3582664,89
1659953034.04209,1272396.3582752,84
1659953034.04209,1272396.3582861,103
1659953034.04209,1272396.358293,195
1659953034.04209,1272396.3583015,348
1659953034.04209,1272396.3583108,417
1659953034.04209,1272396.3583179,181
1659953034.04209,1272396.3583266,-169
1659953034.04209,1272396.3583312,-136
1659953034.04209,1272396.3583381,122
1659953034.04209,1272396.9414216,150
1659953034.04209,1272396.9414392,82
1659953034.04209,1272396.9414501,115
1659953034.04209,1272396.941456,136
1659953034.04209,1272396.9414619,120
1659953034.04209,1272396.9414674,127
1659953034.04209,1272396.9414727,141
1659953034.04209,1272396.9414785,139
1659953034.04209,1272396.9414841,127
1659953034.04209,1272396.9414875,113
1659953034.04209,1272396.9414907,108
1659953034.04209,1272396.9414939,120
1659953034.56675,1272396.941497,129
1659953034.56675,1272396.9415002,136
1659953034.56675,1272396.941505,139
1659953034.56675,1272396.9415085,131
1659953034.56675,1272396.941512,131
1659953034.56675,1272396.9415158,143
1659953034.56675,1272396.9415228,143
1659953034.56675,1272396.9415272,143
1659953034.56675,1272396.9415319,150
1659953034.56675,1272396.9415354,136
1659953034.56675,1272396.9415388,117
1659953034.56675,1272396.9415424,117
1659953034.56675,1272396.9415459,110
1659953034.56675,1272396.9415495,91
1659953034.56675,1272396.9415531,75
1659953034.56675,1272396.9415566,56
1659953034.56675,1272396.9415601,25
1659953034.56675,1272396.9415637,4
1659953034.56675,1272396.9415673,0
1659953034.56675,1272396.941571,-4
1659953034.56675,1272396.9415769,-9
1659953034.56675,1272396.9415816,-14
1659953034.56675,1272396.9415854,-11
1659953034.56675,1272396.941589,-4
1659953034.56675,1272396.9415928,4
1659953034.56675,1272396.941598,11
1659953034.56675,1272396.9416027,18
1659953034.56675,1272396.9416081,23
1659953034.56675,1272396.9416118,21
1659953034.56675,1272396.9416169,16
1659953034.56675,1272396.9416204,14
1659953034.56675,1272396.9416243,21
1659953034.56675,1272396.9416296,30
1659953034.56675,1272396.9416334,23
1659953034.56675,1272396.9416385,11
1659953034.56675,1272396.9416423,4
1659953034.56675,1272396.941646,9
1659953034.56675,1272396.9416508,14
1659953034.56675,1272396.9416545,28
1659953034.56675,1272396.9416582,56
1659953034.56675,1272396.9416614,75
1659953034.56675,1272396.9416648,70
1659953034.56675,1272396.9416683,63
1659953034.56675,1272396.9416716,58
1659953034.56675,1272396.9416749,51
1659953034.56675,1272396.9416784,54
1659953034.56675,1272396.941682,56
1659953034.56675,1272396.9416853,56
1659953034.56675,1272396.9416889,61
1659953034.56675,1272396.9416923,65
1659953034.57971,1272396.9416957,73
1659953034.57971,1272396.9416991,120
1659953034.57971,1272396.9417028,245
1659953034.57971,1272396.9417086,384
1659953034.57971,1272396.9417125,296
1659953034.57971,1272396.9417162,-75
1659953034.57971,1272396.9417199,-242
1659953034.57971,1272396.9417235,-4
1659953034.57971,1272396.9417273,148
1659953034.57971,1272396.9417329,80
1659953034.57971,1272396.9417365,73
1659953034.57971,1272397.4793294,115
1659953034.57971,1272397.4793409,98
1659953034.57971,1272397.4793435,87
1659953034.57971,1272397.4793458,106
1659953034.57971,1272397.479348,103
1659953034.57971,1272397.4793502,87
1659953034.57971,1272397.4793523,82
1659953034.57971,1272397.4793543,94
1659953034.57971,1272397.4793564,106
1659953034.57971,1272397.4793584,113
1659953034.57971,1272397.4793605,117
1659953034.57971,1272397.4793633,117
1659953034.57971,1272397.4793701,117
1659953035.16578,1272397.4793789,122
1659953035.16578,1272397.4793853,136
1659953035.16578,1272397.479393,150
1659953035.16578,1272397.4793982,160
1659953035.16578,1272397.4794004,155
1659953035.16578,1272397.4794025,136
1659953035.16578,1272397.4794045,129
1659953035.16578,1272397.4794066,129
1659953035.16578,1272397.4794091,117
1659953035.16578,1272397.4794172,106
1659953035.16578,1272397.479425,96
1659953035.16578,1272397.479431,70
1659953035.16578,1272397.4794346,40
1659953035.16578,1272397.4794379,21
1659953035.16578,1272397.4794412,9
1659953035.16578,1272397.4794549,-4
1659953035.16578,1272397.4794633,-11
1659953035.16578,1272397.4794658,-9
1659953035.16578,1272397.479468,-4
1659953035.16578,1272397.4794702,0
1659953035.16578,1272397.4794723,-4
1659953035.16578,1272397.4794744,-4
1659953035.16578,1272397.4794766,7
1659953035.16578,1272397.4794787,11
1659953035.16578,1272397.4794809,11
1659953035.16578,1272397.479483,16
1659953035.16578,1272397.4794851,23
1659953035.16578,1272397.4794872,25
1659953035.16578,1272397.4794893,32
1659953035.16578,1272397.4794914,32
1659953035.16578,1272397.4794935,28
1659953035.16578,1272397.4794955,23
1659953035.16578,1272397.4794976,23
1659953035.16578,1272397.4794997,23
1659953035.16578,1272397.4795017,25
1659953035.16578,1272397.4795038,44
1659953035.16578,1272397.4795059,77
1659953035.16578,1272397.4795081,94

1659953035.16578,1272397.4795103,82
1659953035.16578,1272397.4795124,73
1659953035.16578,1272397.4795145,73
1659953035.16578,1272397.4795165,73
1659953035.16578,1272397.4795187,80
1659953035.16578,1272397.4795208,75
1659953035.16578,1272397.4795228,73
1659953035.16578,1272397.4795249,82
1659953035.16578,1272397.479527,87
1659953035.16578,1272397.4795292,101
1659953035.16578,1272397.4795313,200
1659953035.16578,1272397.4795334,386
1659953035.18772,1272397.4795356,475
1659953035.18772,1272397.4795378,214
1659953035.18772,1272397.4795399,-204
1659953035.18772,1272397.479542,-219
1659953035.18772,1272397.4795441,65
1659953035.18772,1272397.4795536,129
1659953035.18772,1272397.4795556,54
1659953035.18772,1272397.4795576,84
1659953035.18772,1272397.4795597,120
1659953035.18772,1272397.4795619,103
1659953035.18772,1272398.0619802,108
1659953035.18772,1272398.0620022,124
1659953035.18772,1272398.0620174,120
1659953035.18772,1272398.0620312,115
1659953035.18772,1272398.0620416,117
1659953035.18772,1272398.0620492,117
1659953035.18772,1272398.062059,127
1659953035.18772,1272398.062072,131
1659953035.18772,1272398.0620827,117
1659953035.18772,1272398.0620881,115
1659953035.18772,1272398.062094,131
1659953035.18772,1272398.0620996,139
1659953035.18772,1272398.0621031,143
1659953035.18772,1272398.0621067,160
1659953035.69483,1272398.0621104,164
1659953035.69483,1272398.0621144,153
1659953035.69483,1272398.0621182,155
1659953035.69483,1272398.0621216,160
1659953035.69483,1272398.0621253,153
1659953035.69483,1272398.0621289,143
1659953035.69483,1272398.0621324,127
1659953035.69483,1272398.0621359,87
1659953035.69483,1272398.0621396,54
1659953035.69483,1272398.0621445,40
1659953035.69483,1272398.0621517,14
1659953035.69483,1272398.062159,-21
1659953035.69483,1272398.0621661,-35
1659953035.69483,1272398.0621727,-37
1659953035.69483,1272398.0621767,-42
1659953035.69483,1272398.0621804,-35
1659953035.69483,1272398.0621844,-21
1659953035.69483,1272398.06219,-14
1659953035.69483,1272398.0621937,-11
1659953035.69483,1272398.062198,-4
1659953035.69483,1272398.0622017,2
1659953035.69483,1272398.0622064,11
1659953035.69483,1272398.0622102,21
1659953035.69483,1272398.0622137,21
1659953035.69483,1272398.0622176,18
1659953035.69483,1272398.0622212,18
1659953035.69483,1272398.0622249,21
1659953035.69483,1272398.0622294,23
1659953035.69483,1272398.0622333,16
1659953035.69483,1272398.0622367,11
1659953035.69483,1272398.0622404,11
1659953035.69483,1272398.0622435,18
1659953035.69483,1272398.0622496,28
1659953035.69483,1272398.0622537,61
1659953035.69483,1272398.0622604,87
1659953035.69483,1272398.0622651,73
1659953035.69483,1272398.0622685,56
1659953035.69483,1272398.0622721,56
1659953035.69483,1272398.0622762,51
1659953035.69483,1272398.0622806,51
1659953035.69483,1272398.0622836,61
1659953035.69483,1272398.0622865,63
1659953035.69483,1272398.0622895,56
1659953035.69483,1272398.0622926,56
1659953035.69483,1272398.0622957,77
1659953035.69483,1272398.0622987,160
1659953035.69483,1272398.0623021,313
1659953035.69483,1272398.0623056,398
1659953035.69483,1272398.0623086,174
1659953035.69483,1272398.0623117,-193
1659953035.7078,1272398.0623149,-190
1659953035.7078,1272398.0623181,70
1659953035.7078,1272398.0623216,124
1659953035.7078,1272398.0623252,56
1659953035.7078,1272398.0623291,87
1659953035.7078,1272398.0623362,106
1659953035.7078,1272398.0623407,73
1659953035.7078,1272398.0623443,73
1659953035.7078,1272398.062349,91
1659953035.7078,1272398.5981366,91
1659953035.7078,1272398.598149,96
1659953035.7078,1272398.5981519,110
1659953035.7078,1272398.5981541,113
1659953035.7078,1272398.5981562,115
1659953035.7078,1272398.5981582,127
1659953035.7078,1272398.5981603,134
1659953035.7078,1272398.5981623,139
1659953035.7078,1272398.5981643,150
1659953035.7078,1272398.5981664,167
1659953035.7078,1272398.5981684,171
1659953035.7078,1272398.5981705,162
1659953035.7078,1272398.5981726,150
1659953035.7078,1272398.5981746,153
1659953035.7078,1272398.5981766,153
1659953036.22176,1272398.5981786,143
1659953036.22176,1272398.5981806,131
1659953036.22176,1272398.5981827,113
1659953036.22176,1272398.5981873,80
1659953036.22176,1272398.5981982,51
1659953036.22176,1272398.5982038,40
1659953036.22176,1272398.5982067,21
1659953036.22176,1272398.5982167,0
1659953036.22176,1272398.5982287,-14
1659953036.22176,1272398.598238,-25
1659953036.22176,1272398.5982406,-37
1659953036.22176,1272398.5982427,-37
1659953036.22176,1272398.5982448,-23
1659953036.22176,1272398.5982474,-14
1659953036.22176,1272398.5982567,-7
1659953036.22176,1272398.5982667,-2
1659953036.22176,1272398.5982706,-2
1659953036.22176,1272398.5982729,2
1659953036.22176,1272398.5982793,14
1659953036.22176,1272398.5982908,21
1659953036.22176,1272398.5982944,25
1659953036.22176,1272398.5982983,25
1659953036.22176,1272398.5983004,25
1659953036.22176,1272398.5983029,32
1659953036.22176,1272398.5983131,37
1659953036.22176,1272398.5983238,30
1659953036.22176,1272398.5983652,23
1659953036.22176,1272398.5983752,28
1659953036.22176,1272398.5983835,32
1659953036.22176,1272398.598388,32
1659953036.22176,1272398.5983914,61
1659953036.22176,1272398.5983969,96
1659953036.22176,1272398.5984019,84
1659953036.22176,1272398.5984059,58
1659953036.22176,1272398.5984111,51
1659953036.22176,1272398.5984144,51
1659953036.22176,1272398.5984175,54
1659953036.22176,1272398.5984211,65
1659953036.22176,1272398.5984246,70
1659953036.22176,1272398.5984305,68
1659953036.22176,1272398.5984341,65
1659953036.22176,1272398.5984375,75
1659953036.22176,1272398.5984411,124
1659953036.22176,1272398.5984454,242
1659953036.22176,1272398.598451,381
1659953036.22176,1272398.5984548,325
1659953036.22176,1272398.5984582,-30
1659953036.22176,1272398.5984613,-237
1659953036.22176,1272398.5984646,-32
1659953036.22176,1272398.5984681,127
1659953036.23572,1272398.5984716,68
1659953036.23572,1272398.5984765,61
1659953036.23572,1272398.59848,106
1659953036.23572,1272398.598484,94
1659953036.23572,1272398.5984898,89
1659953036.23572,1272398.5984936,110
1659953036.23572,1272398.5984971,117
1659953036.23572,1272398.5985004,115
1659953036.23572,1272399.1347386,120
1659953036.23572,1272399.1347554,124
1659953036.23572,1272399.1347613,124
1659953036.23572,1272399.1347681,134
1659953036.23572,1272399.134773,146
1659953036.23572,1272399.134779,150
1659953036.23572,1272399.1347838,148
1659953036.23572,1272399.1347899,148
1659953036.23572,1272399.1347964,136
1659953036.23572,1272399.1348025,129
1659953036.23572,1272399.134807,143
1659953036.23572,1272399.1348131,160
1659953036.23572,1272399.1348183,157
1659953036.23572,1272399.1348247,150
1659953036.23572,1272399.1348304,131
1659953036.23572,1272399.1348365,103
1659953036.86125,1272399.1348409,94
1659953036.86125,1272399.1348453,87
1659953036.86125,1272399.1348499,61
1659953036.86125,1272399.1348542,40
1659953036.86125,1272399.1348585,21
1659953036.86125,1272399.1348632,-2
1659953036.86125,1272399.1348694,-16
1659953036.86125,1272399.134874,-14
1659953036.86125,1272399.1348797,-11
1659953036.86125,1272399.1348841,-11
1659953036.86125,1272399.1348886,-9
1659953036.86125,1272399.1348933,-9
1659953036.86125,1272399.1348997,0
1659953036.86125,1272399.134905,14
1659953036.86125,1272399.1349153,18
1659953036.86125,1272399.1349291,21
1659953036.86125,1272399.1349419,30
1659953036.86125,1272399.1349504,32
1659953036.86125,1272399.134953,32
1659953036.86125,1272399.1349566,35
1659953036.86125,1272399.1349695,35
1659953036.86125,1272399.1349757,32
1659953036.86125,1272399.134978,32
1659953036.86125,1272399.1349802,23
1659953036.86125,1272399.1349823,16
1659953036.86125,1272399.1349854,11
1659953036.86125,1272399.1349983,11
1659953036.86125,1272399.1350043,23
1659953036.86125,1272399.1350065,54
1659953036.86125,1272399.1350129,84
1659953036.86125,1272399.1350244,89
1659953036.86125,1272399.1350373,73
1659953036.86125,1272399.1350498,61
1659953036.86125,1272399.135061,58
1659953036.86125,1272399.1350661,61
1659953036.86125,1272399.1350682,63
1659953036.86125,1272399.1350717,68
1659953036.86125,1272399.135086,73
1659953036.86125,1272399.1350995,73
1659953036.86125,1272399.1351127,70
1659953036.86125,1272399.1351259,87
1659953036.86125,1272399.1351361,174
1659953036.86125,1272399.1351413,325
1659953036.86125,1272399.1351484,367
1659953036.86125,1272399.1351534,91
1659953036.86125,1272399.1351633,-245
1659953036.86125,1272399.135177,-160
1659953036.86125,1272399.1351897,101
1659953036.86125,1272399.1352028,110
1659953036.86125,1272399.135216,47
1659953036.87728,1272399.1352292,87
1659953036.87728,1272399.1352422,108
1659953036.87728,1272399.1352552,94
1659953036.87728,1272399.1352681,103
1659953036.87728,1272399.1352814,113
1659953036.87728,1272399.1352943,98
1659953036.87728,1272399.1353076,103
1659953036.87728,1272399.7683216,117
1659953036.87728,1272399.7683414,124
1659953036.87728,1272399.7683519,131
1659953036.87728,1272399.7683591,141
1659953036.87728,1272399.7683659,141
1659953036.87728,1272399.768372,127
1659953036.87728,1272399.7683808,127
1659953036.87728,1272399.7683892,148
1659953036.87728,1272399.7684012,162
1659953036.87728,1272399.7684144,167
1659953036.87728,1272399.7684286,171
1659953036.87728,1272399.7684419,160
1659953036.87728,1272399.7684552,141
1659953036.87728,1272399.7684685,139
1659953036.87728,1272399.7684818,136
1659953036.87728,1272399.7684951,122
1659953036.87728,1272399.7685074,110
1659953037.40973,1272399.7685237,87
1659953037.40973,1272399.7685615,56
1659953037.40973,1272399.7685669,44
1659953037.40973,1272399.7685726,35
1659953037.40973,1272399.7685779,21
1659953037.40973,1272399.768583,16
1659953037.40973,1272399.7685873,9
1659953037.40973,1272399.7685909,2
1659953037.40973,1272399.7685944,9
1659953037.40973,1272399.7685979,23
1659953037.40973,1272399.7686022,32
1659953037.40973,1272399.768605,32
1659953037.40973,1272399.7686076,32
1659953037.40973,1272399.7686102,30
1659953037.40973,1272399.7686128,30
1659953037.40973,1272399.7686153,35
1659953037.40973,1272399.7686179,49
1659953037.40973,1272399.7686206,56
1659953037.40973,1272399.7686231,51
1659953037.40973,1272399.7686257,54
1659953037.40973,1272399.7686614,61
1659953037.40973,1272399.7686726,63
1659953037.40973,1272399.7686814,65
1659953037.40973,1272399.7686865,65
1659953037.40973,1272399.7686919,63
1659953037.40973,1272399.7686957,65
1659953037.40973,1272399.7687013,80
1659953037.40973,1272399.7687051,113
1659953037.40973,1272399.7687093,131
1659953037.40973,1272399.7687166,120
1659953037.40973,1272399.7687205,103
1659953037.40973,1272399.7687235,98
1659953037.40973,1272399.7687279,87
1659953037.40973,1272399.7687322,70
1659953037.40973,1272399.7687374,80
1659953037.40973,1272399.768741,96
1659953037.40973,1272399.7687445,94
1659953037.40973,1272399.7687508,94
1659953037.40973,1272399.7687602,115
1659953037.40973,1272399.7687725,216
1659953037.40973,1272399.7687857,414
1659953037.40973,1272399.768799,482
1659953037.40973,1272399.7688128,160
1659953037.40973,1272399.7688262,-235
1659953037.40973,1272399.768841,-176
1659953037.40973,1272399.7688526,80
1659953037.40973,1272399.768866,98
1659953037.40973,1272399.7688788,51
1659953037.40973,1272399.7688919,110
1659953037.40973,1272399.7689042,136
1659953037.42469,1272399.7689137,96
1659953037.42469,1272399.7689187,89
1659953037.42469,1272399.7689223,110
1659953037.42469,1272399.7689257,120
1659953037.42469,1272399.7689386,136
1659953037.42469,1272399.768953,148
1659953037.42469,1272400.3052605,136
1659953037.42469,1272400.3052776,134
1659953037.42469,1272400.3052939,148
1659953037.42469,1272400.3053037,150
1659953037.42469,1272400.3053125,153
1659953037.42469,1272400.3053197,169
1659953037.42469,1272400.3053282,190
1659953037.42469,1272400.305333,195
1659953037.42469,1272400.3053381,179
1659953037.42469,1272400.305343,164
1659953037.42469,1272400.3053504,167
1659953037.42469,1272400.3053571,169
1659953037.42469,1272400.3053635,164
1659953037.42469,1272400.3053726,157
1659953037.42469,1272400.305377,129
1659953037.42469,1272400.305385,89
1659953037.42469,1272400.3053925,77
1659953037.42469,1272400.3054001,70
1659953037.93031,1272400.3054065,40
1659953037.93031,1272400.3054131,16
1659953037.93031,1272400.305418,2
1659953037.93031,1272400.3054228,-23
1659953037.93031,1272400.3054267,-40
1659953037.93031,1272400.3054297,-32
1659953037.93031,1272400.305433,-23
1659953037.93031,1272400.3054362,-11
1659953037.93031,1272400.3054405,0
1659953037.93031,1272400.3054464,0
1659953037.93031,1272400.3054537,-2
1659953037.93031,1272400.3054629,4
1659953037.93031,1272400.3054678,11
1659953037.93031,1272400.3054699,16
1659953037.93031,1272400.3054721,28
1659953037.93031,1272400.3054742,30
1659953037.93031,1272400.3054799,21
1659953037.93031,1272400.3054916,25
1659953037.93031,1272400.3054969,30
1659953037.93031,1272400.305499,14
1659953037.93031,1272400.3055024,7
1659953037.93031,1272400.3055072,16
1659953037.93031,1272400.3055141,11
1659953037.93031,1272400.3055194,4
1659953037.93031,1272400.3055256,23
1659953037.93031,1272400.3055305,58
1659953037.93031,1272400.3055364,82
1659953037.93031,1272400.3055461,65
1659953037.93031,1272400.3055584,40
1659953037.93031,1272400.3055639,40
1659953037.93031,1272400.3055675,47
1659953037.93031,1272400.3055813,42
1659953037.93031,1272400.3055906,49
1659953037.93031,1272400.3055955,65
1659953037.93031,1272400.305605,68
1659953037.93031,1272400.3056129,65
1659953037.93031,1272400.3056165,80
1659953037.93031,1272400.3056231,153
1659953037.93031,1272400.305635,296
1659953037.93031,1272400.3056423,405
1659953037.93031,1272400.3056485,249
1659953037.93031,1272400.3056577,-122
1659953037.93031,1272400.3056667,-202
1659953037.93031,1272400.3056806,63
1659953037.93031,1272400.3056913,176
1659953037.93031,1272400.3056974,117
1659953037.93031,1272400.3057034,146
1659953037.93031,1272400.3057067,188
1659953037.93031,1272400.3057099,171
1659953037.93031,1272400.3057147,195
1659953037.94427,1272400.3057277,240
1659953037.94427,1272400.3057414,230
1659953037.94427,1272400.3057541,223
1659953037.94427,1272400.30576,252
1659953037.94427,1272400.3057647,261
1659953037.94427,1272400.8408843,245
1659953037.94427,1272400.8409088,263
1659953037.94427,1272400.8409245,299
1659953037.94427,1272400.8409347,308
1659953037.94427,1272400.8409417,310
1659953037.94427,1272400.8409522,322
1659953037.94427,1272400.8409968,341
1659953037.94427,1272400.841009,367
1659953037.94427,1272400.8410144,381
1659953037.94427,1272400.8410213,395
1659953037.94427,1272400.8410258,412
1659953037.94427,1272400.8410304,395
1659953037.94427,1272400.841037,369
1659953037.94427,1272400.8410412,372
1659953037.94427,1272400.8410469,379
1659953037.94427,1272400.8410516,365
1659953037.94427,1272400.8410574,355
1659953037.94427,1272400.8410617,341
1659953037.94427,1272400.8410675,303
1659953038.56804,1272400.8410715,287
1659953038.56804,1272400.8410754,299
1659953038.56804,1272400.84108,313
1659953038.56804,1272400.841084,306
1659953038.56804,1272400.8410882,308
1659953038.56804,1272400.8410924,336
1659953038.56804,1272400.8410965,346
1659953038.56804,1272400.8411004,343
1659953038.56804,1272400.8411047,365
1659953038.56804,1272400.841109,379
1659953038.56804,1272400.8411131,372
1659953038.56804,1272400.8411192,379
1659953038.56804,1272400.8411236,395
1659953038.56804,1272400.8411296,402
1659953038.56804,1272400.8411355,407
1659953038.56804,1272400.8411415,402
1659953038.56804,1272400.8411465,391
1659953038.56804,1272400.8411522,376
1659953038.56804,1272400.8411563,353
1659953038.56804,1272400.841163,341
1659953038.56804,1272400.8411673,355
1659953038.56804,1272400.8411715,360
1659953038.56804,1272400.8411757,348
1659953038.56804,1272400.8411813,362
1659953038.56804,1272400.8411852,400
1659953038.56804,1272400.8411915,409
1659953038.56804,1272400.8411956,391
1659953038.56804,1272400.8411997,374
1659953038.56804,1272400.8412054,367
1659953038.56804,1272400.8412096,365
1659953038.56804,1272400.8412157,360
1659953038.56804,1272400.84122,374
1659953038.56804,1272400.8412242,395
1659953038.56804,1272400.84123,379
1659953038.56804,1272400.8412342,360
1659953038.56804,1272400.8412398,398
1659953038.56804,1272400.8412443,506
1659953038.56804,1272400.8412484,657
1659953038.56804,1272400.8412524,697
1659953038.56804,1272400.8412582,431
1659953038.56804,1272400.8412623,113
1659953038.56804,1272400.8412681,200
1659953038.56804,1272400.8412729,445
1659953038.56804,1272400.8412768,442
1659953038.56804,1272400.8412809,367
1659953038.56804,1272400.8412866,407
1659953038.56804,1272400.8412907,438
1659953038.56804,1272400.8412968,424
1659953038.56804,1272400.8413011,457
1659953038.56804,1272400.8413052,501
1659953038.584,1272400.8413096,497
1659953038.584,1272400.8413156,478
1659953038.584,1272400.8413196,487
1659953038.584,1272400.8413258,504
1659953038.584,1272401.4746891,506
1659953038.584,1272401.4747051,527
1659953038.584,1272401.4747116,548
1659953038.584,1272401.4747169,534
1659953038.584,1272401.4747206,539
1659953038.584,1272401.4747241,560
1659953038.584,1272401.4747277,556
1659953038.584,1272401.4747312,548
1659953038.584,1272401.4747347,523
1659953038.584,1272401.4747382,478
1659953038.584,1272401.4747418,464
1659953038.584,1272401.4747453,473
1659953038.584,1272401.4747488,457
1659953038.584,1272401.4747522,426
1659953038.584,1272401.4747558,386
1659953038.584,1272401.4747594,343
1659953038.584,1272401.4747646,320
1659953038.584,1272401.4747696,294
1659953038.584,1272401.474775,266
1659953038.584,1272401.4747795,245
1659953039.05037,1272401.4747846,221
1659953039.05037,1272401.4747881,209
1659953039.05037,1272401.4747916,223
1659953039.05037,1272401.4747952,226
1659953039.05037,1272401.4747987,204
1659953039.05037,1272401.4748022,200
1659953039.05037,1272401.4748057,207
1659953039.05037,1272401.4748091,193
1659953039.05037,1272401.4748125,169
1659953039.05037,1272401.474816,164
1659953039.05037,1272401.4748195,176
1659953039.05037,1272401.474823,179
1659953039.05037,1272401.4748264,179
1659953039.05037,1272401.47483,174
1659953039.05037,1272401.4748335,153
1659953039.05037,1272401.4748369,120
1659953039.05037,1272401.4748404,87
1659953039.05037,1272401.4748439,54
1659953039.05037,1272401.4748475,37
1659953039.05037,1272401.4748512,28
1659953039.05037,1272401.4748548,7
1659953039.05037,1272401.4748585,4
1659953039.05037,1272401.4748643,23
1659953039.05037,1272401.474868,9
1659953039.05037,1272401.474874,-35
1659953039.05037,1272401.4748789,-61
1659953039.05037,1272401.4748825,-56
1659953039.05037,1272401.474886,-47
1659953039.05037,1272401.4748899,-47
1659953039.05037,1272401.4748936,-58
1659953039.05037,1272401.4748989,-77
1659953039.05037,1272401.4749024,-96
1659953039.05037,1272401.4749059,-122
1659953039.05037,1272401.4749094,-101
1659953039.05037,1272401.4749131,40
1659953039.05037,1272401.4749169,197
1659953039.05037,1272401.4749206,70
1659953039.05037,1272401.4749242,-360
1659953039.05037,1272401.4749277,-581
1659953039.05037,1272401.4749315,-381
1659953039.05037,1272401.4749368,-228
1659953039.05037,1272401.4749403,-275
1659953039.05037,1272401.4749439,-268
1659953039.05037,1272401.4749474,-221
1659953039.05037,1272401.4749805,-247
1659953039.05037,1272401.4749922,-278
1659953039.05037,1272401.4749959,-275
1659953039.05037,1272401.4749997,-275
1659953039.05037,1272401.475005,-275
1659953039.05037,1272401.4750177,-261
1659953039.06533,1272401.4750213,-237
1659953039.06533,1272401.4750248,-214
1659953039.06533,1272401.4750285,-209
1659953039.06533,1272401.9627556,-214
1659953039.06533,1272401.9627735,-202
1659953039.06533,1272401.9627802,-183
1659953039.06533,1272401.9627853,-169
1659953039.06533,1272401.9628001,-148
1659953039.06533,1272401.9628129,-143
1659953039.06533,1272401.9628221,-155
1659953039.06533,1272401.9628316,-146
1659953039.06533,1272401.9628395,-127
1659953039.06533,1272401.9628471,-127
1659953039.06533,1272401.9628597,-131
1659953039.06533,1272401.9628707,-129
1659953039.06533,1272401.962879,-136
1659953039.06533,1272401.9628902,-134
1659953039.06533,1272401.9629009,-139
1659953039.06533,1272401.9629105,-162
1659953039.06533,1272401.9629231,-160
1659953039.06533,1272401.9629337,-174
1659953039.06533,1272401.9629433,-221
1659953039.06533,1272401.9629767,-226
1659953039.06533,1272401.9629826,-216
1659953039.6909,1272401.9629858,-223
1659953039.6909,1272401.9629879,-212
1659953039.6909,1272401.96299,-200
1659953039.6909,1272401.962992,-209
1659953039.6909,1272401.962994,-207
1659953039.6909,1272401.9629959,-181
1659953039.6909,1272401.9629979,-162
1659953039.6909,1272401.9629999,-155
1659953039.6909,1272401.9630018,-150
1659953039.6909,1272401.963007,-153
1659953039.6909,1272401.9630151,-146
1659953039.6909,1272401.9630199,-122
1659953039.6909,1272401.9630248,-98
1659953039.6909,1272401.9630301,-96
1659953039.6909,1272401.9630348,-94
1659953039.6909,1272401.9630459,-91
1659953039.6909,1272401.9630574,-106
1659953039.6909,1272401.9630676,-108
1659953039.6909,1272401.9631169,-87
1659953039.6909,1272401.9631239,-49
1659953039.6909,1272401.96313,-14
1659953039.6909,1272401.9631338,2
1659953039.6909,1272401.9631377,4
1659953039.6909,1272401.9631438,2
1659953039.6909,1272401.9631513,2
1659953039.6909,1272401.9631582,-4
1659953039.6909,1272401.963164,-2
1659953039.6909,1272401.9631725,14
1659953039.6909,1272401.9631794,18
1659953039.6909,1272401.9631868,9
1659953039.6909,1272401.9631927,21
1659953039.6909,1272401.9631975,54
1659953039.6909,1272401.9632034,108
1659953039.6909,1272401.9632074,230
1659953039.6909,1272401.9632114,369
1659953039.6909,1272401.9632154,270
1659953039.6909,1272401.9632192,-91
1659953039.6909,1272401.9632241,-240
1659953039.6909,1272401.9632288,-30
1659953039.6909,1272401.9632359,106
1659953039.6909,1272401.9632418,65
1659953039.6909,1272401.9632466,73
1659953039.6909,1272401.9632553,115
1659953039.6909,1272401.9632618,117
1659953039.6909,1272401.9632655,120
1659953039.6909,1272401.9632703,131
1659953039.6909,1272401.9632767,124
1659953039.6909,1272401.9632853,120
1659953039.6909,1272401.963294,143
1659953039.6909,1272401.9633006,155
1659953039.70785,1272401.9633087,148
1659953039.70785,1272401.9633175,162
1659953039.70785,1272402.5980632,181
1659953039.70785,1272402.5980841,183
1659953039.70785,1272402.5980912,183
1659953039.70785,1272402.5980936,197
1659953039.70785,1272402.5980958,207
1659953039.70785,1272402.5980978,207
1659953039.70785,1272402.5980999,221
1659953039.70785,1272402.5981019,230
1659953039.70785,1272402.5981039,214
1659953039.70785,1272402.5981063,197
1659953039.70785,1272402.5981133,209
1659953039.70785,1272402.5981282,223
1659953039.70785,1272402.5981392,207
1659953039.70785,1272402.5981464,174
1659953039.70785,1272402.5981592,139
1659953039.70785,1272402.5981994,103
1659953039.70785,1272402.5982408,84
1659953039.70785,1272402.5982499,70
1659953039.70785,1272402.5982544,56
1659953039.70785,1272402.5982598,49
1659953039.70785,1272402.5982635,51
1659953039.70785,1272402.5982672,56
1659953040.23887,1272402.5982725,73
1659953040.23887,1272402.5982775,94
1659953040.23887,1272402.5982987,98
1659953040.23887,1272402.5983025,96
1659953040.23887,1272402.5983061,103
1659953040.23887,1272402.5983188,115
1659953040.23887,1272402.5983234,127
1659953040.23887,1272402.5983272,134
1659953040.23887,1272402.5983308,124
1659953040.23887,1272402.5983381,117
1659953040.23887,1272402.5983726,122
1659953040.23887,1272402.5983861,134
1659953040.23887,1272402.5984017,141
1659953040.23887,1272402.5984153,134
1659953040.23887,1272402.5984266,113
1659953040.23887,1272402.5984353,103
1659953040.23887,1272402.5984407,113
1659953040.23887,1272402.5984545,122
1659953040.23887,1272402.5984652,122
1659953040.23887,1272402.5984706,136
1659953040.23887,1272402.5984797,164
1659953040.23887,1272402.5984878,176
1659953040.23887,1272402.5985005,164
1659953040.23887,1272402.5985095,157
1659953040.23887,1272402.5985207,153
1659953040.23887,1272402.5985317,139
1659953040.23887,1272402.5985398,141
1659953040.23887,1272402.5985493,146
1659953040.23887,1272402.5985603,143
1659953040.23887,1272402.5985666,146
1659953040.23887,1272402.5985799,148
1659953040.23887,1272402.5985906,181
1659953040.23887,1272402.5985966,320
1659953040.23887,1272402.5986102,492
1659953040.23887,1272402.5986207,428
1659953040.23887,1272402.5986302,42
1659953040.23887,1272402.5986407,-188
1659953040.23887,1272402.5986509,11
1659953040.23887,1272402.5986579,188
1659953040.23887,1272402.5986705,139
1659953040.23887,1272402.5986806,120
1659953040.23887,1272402.5986876,176
1659953040.23887,1272402.5987001,183
1659953040.23887,1272402.5987094,153
1659953040.23887,1272402.5987158,153
1659953040.23887,1272402.5987281,157
1659953040.23887,1272402.5987383,155
1659953040.23887,1272402.5987456,162
1659953040.23887,1272402.5987582,164
1659953040.23887,1272402.5987681,160
1659953040.25582,1272402.5987749,153
1659953040.25582,1272403.1327715,157
1659953040.25582,1272403.1327907,169
1659953040.25582,1272403.1328,174
1659953040.25582,1272403.1328052,174
1659953040.25582,1272403.1328128,169
1659953040.25582,1272403.1328177,153
1659953040.25582,1272403.1328251,155
1659953040.25582,1272403.1328304,164
1659953040.25582,1272403.132835,143
1659953040.25582,1272403.1328406,110
1659953040.25582,1272403.1328458,94
1659953040.25582,1272403.1328516,82
1659953040.25582,1272403.1328558,65
1659953040.25582,1272403.1328609,54
1659953040.25582,1272403.1328655,42
1659953040.25582,1272403.132871,21
1659953040.25582,1272403.1328759,-2
1659953040.25582,1272403.132882,-37
1659953040.25582,1272403.1328876,-80
1659953040.25582,1272403.1328931,-103
1659953040.25582,1272403.1328969,-106
1659953040.25582,1272403.1329022,-106
1659953040.25582,1272403.1329072,-101
1659953040.75635,1272403.1329127,-113
1659953040.75635,1272403.1329172,-134
1659953040.75635,1272403.132921,-117
1659953040.75635,1272403.1329248,-82
1659953040.75635,1272403.1329287,-80
1659953040.75635,1272403.1329325,-82
1659953040.75635,1272403.1329364,-75
1659953040.75635,1272403.1329403,-96
1659953040.75635,1272403.1329448,-115
1659953040.75635,1272403.132949,-106
1659953040.75635,1272403.1329528,-91
1659953040.75635,1272403.1329566,-96
1659953040.75635,1272403.1329601,-113
1659953040.75635,1272403.1329637,-115
1659953040.75635,1272403.1329675,-98
1659953040.75635,1272403.1329711,-80
1659953040.75635,1272403.1329749,-58
1659953040.75635,1272403.1329797,-37
1659953040.75635,1272403.1329838,-42
1659953040.75635,1272403.1329875,-65
1659953040.75635,1272403.1329912,-68
1659953040.75635,1272403.1329971,-47
1659953040.75635,1272403.1330009,-35
1659953040.75635,1272403.1330062,-28
1659953040.75635,1272403.1330113,-18
1659953040.75635,1272403.1330158,-11
1659953040.75635,1272403.1330215,0
1659953040.75635,1272403.1330252,9
1659953040.75635,1272403.133031,28
1659953040.75635,1272403.133035,131
1659953040.75635,1272403.1330408,334
1659953040.75635,1272403.1330443,412
1659953040.75635,1272403.1330498,103
1659953040.75635,1272403.1330532,-289
1659953040.75635,1272403.1330568,-233
1659953040.75635,1272403.1330622,35
1659953040.75635,1272403.1330674,73
1659953040.75635,1272403.1330723,16
1659953040.75635,1272403.1330762,40
1659953040.75635,1272403.1330831,70
1659953040.75635,1272403.1330885,70
1659953040.75635,1272403.1330929,70
1659953040.75635,1272403.1330964,77
1659953040.75635,1272403.1330999,80
1659953040.75635,1272403.1331037,77
1659953040.75635,1272403.1331091,75
1659953040.75635,1272403.1331127,70
1659953040.75635,1272403.133116,61
1659953040.75635,1272403.1331194,56
1659953040.75635,1272403.1331231,54
1659953040.77231,1272403.6687825,56
1659953040.77231,1272403.6688013,68
1659953040.77231,1272403.668811,58
1659953040.77231,1272403.6688209,42
1659953040.77231,1272403.6688365,58
1659953040.77231,1272403.668847,75
1659953040.77231,1272403.6688537,65
1659953040.77231,1272403.6688586,70
1659953040.77231,1272403.6688635,80
1659953040.77231,1272403.6688679,73
1659953040.77231,1272403.6688754,61
1659953040.77231,1272403.6688832,56
1659953040.77231,1272403.6688894,42
1659953040.77231,1272403.6688945,30
1659953040.77231,1272403.6689036,14
1659953040.77231,1272403.6689159,-18
1659953040.77231,1272403.668928,-40
1659953040.77231,1272403.6689347,-37
1659953040.77231,1272403.6689443,-37
1659953040.77231,1272403.6689583,-28
1659953040.77231,1272403.6689693,-25
1659953040.77231,1272403.668979,-58
1659953040.77231,1272403.668988,-65
1659953040.77231,1272403.6689958,-11
1659953041.39531,1272403.6689983,23
1659953041.39531,1272403.6690004,25
1659953041.39531,1272403.6690024,32
1659953041.39531,1272403.6690043,35
1659953041.39531,1272403.6690062,35
1659953041.39531,1272403.6690081,51
1659953041.39531,1272403.6690153,61
1659953041.39531,1272403.6690224,44
1659953041.39531,1272403.6690262,42
1659953041.39531,1272403.6690393,54
1659953041.39531,1272403.6690535,44
1659953041.39531,1272403.669067,28
1659953041.39531,1272403.6690734,28
1659953041.39531,1272403.6690757,35
1659953041.39531,1272403.6690778,54
1659953041.39531,1272403.6690799,82
1659953041.39531,1272403.6690819,113
1659953041.39531,1272403.6690839,129
1659953041.39531,1272403.669086,127
1659953041.39531,1272403.669088,129
1659953041.39531,1272403.6690901,134
1659953041.39531,1272403.6690922,150
1659953041.39531,1272403.6690942,169
1659953041.39531,1272403.6690962,174
1659953041.39531,1272403.6690982,186
1659953041.39531,1272403.6691004,200
1659953041.39531,1272403.6691025,219
1659953041.39531,1272403.6691045,252
1659953041.39531,1272403.6691076,329
1659953041.39531,1272403.6691187,468
1659953041.39531,1272403.6691315,581
1659953041.39531,1272403.6691446,440
1659953041.39531,1272403.669156,106
1659953041.39531,1272403.6691704,56
1659953041.39531,1272403.6691835,294
1659953041.39531,1272403.6691964,367
1659953041.39531,1272403.6692063,310
1659953041.39531,1272403.6692122,339
1659953041.39531,1272403.6692248,374
1659953041.39531,1272403.6692352,346
1659953041.39531,1272403.669241,329
1659953041.39531,1272403.6692539,339
1659953041.39531,1272403.669268,339
1659953041.39531,1272403.6692811,339
1659953041.39531,1272403.6692938,348
1659953041.39531,1272403.6693078,358
1659953041.39531,1272403.6693209,365
1659953041.39531,1272403.6693345,379
1659953041.39531,1272403.6693473,395
1659953041.39531,1272404.3037285,414
1659953041.41184,1272404.3037447,428
1659953041.41184,1272404.3037489,431
1659953041.41184,1272404.3037649,435
1659953041.41184,1272404.3037808,464
1659953041.41184,1272404.3037864,473
1659953041.41184,1272404.3037906,452
1659953041.41184,1272404.3037947,459
1659953041.41184,1272404.3037984,490
1659953041.41184,1272404.3038031,485
1659953041.41184,1272404.303807,466
1659953041.41184,1272404.3038109,454
1659953041.41184,1272404.303815,414
1659953041.41184,1272404.3038214,367
1659953041.41184,1272404.3038254,369
1659953041.41184,1272404.303832,384
1659953041.41184,1272404.3038363,376
1659953041.41184,1272404.303842,386
1659953041.41184,1272404.3038463,395
1659953041.41184,1272404.3038525,384
1659953041.41184,1272404.3038565,386
1659953041.41184,1272404.303863,407
1659953041.41184,1272404.3038671,417
1659953041.41184,1272404.3038714,398
1659953041.41184,1272404.3038771,386
1659953041.93177,1272404.303883,405
1659953041.93177,1272404.3038872,419
1659953041.93177,1272404.3038914,424
1659953041.93177,1272404.3038954,435
1659953041.93177,1272404.3038993,438
1659953041.93177,1272404.3039033,426
1659953041.93177,1272404.3039069,428
1659953041.93177,1272404.3039108,426
1659953041.93177,1272404.3039152,407
1659953041.93177,1272404.3039193,405
1659953041.93177,1272404.3039232,393
1659953041.93177,1272404.303927,365
1659953041.93177,1272404.3039308,374
1659953041.93177,1272404.3039351,402
1659953041.93177,1272404.3039405,421
1659953041.93177,1272404.303945,426
1659953041.93177,1272404.3039527,426
1659953041.93177,1272404.3039659,419
1659953041.93177,1272404.3039737,391
1659953041.93177,1272404.3039812,372
1659953041.93177,1272404.3039944,374
1659953041.93177,1272404.3040024,374
1659953041.93177,1272404.3040073,384
1659953041.93177,1272404.3040132,391
1659953041.93177,1272404.3040172,388
1659953041.93177,1272404.3040236,388
1659953041.93177,1272404.304028,428
1659953041.93177,1272404.304034,551
1659953041.93177,1272404.3040384,725
1659953041.93177,1272404.3040443,678
1659953041.93177,1272404.3040496,296
1659953041.93177,1272404.3040555,65
1659953041.93177,1272404.3040598,230
1659953041.93177,1272404.304064,367
1659953041.93177,1272404.3040681,325
1659953041.93177,1272404.304074,308
1659953041.93177,1272404.3040781,329
1659953041.93177,1272404.3040844,325
1659953041.93177,1272404.3040886,322
1659953041.93177,1272404.3040943,329
1659953041.93177,1272404.3040984,318
1659953041.93177,1272404.3041025,318
1659953041.93177,1272404.3041065,334
1659953041.93177,1272404.3041119,343
1659953041.93177,1272404.3041177,343
1659953041.93177,1272404.3041232,348
1659953041.93177,1272404.3041275,355
1659953041.93177,1272404.3041331,365
1659953041.93177,1272404.8393745,374
1659953041.93177,1272404.8393905,365
1659953041.9557,1272404.8393953,348
1659953041.9557,1272404.8394011,353
1659953041.9557,1272404.8394049,362
1659953041.9557,1272404.8394113,369
1659953041.9557,1272404.8394157,362
1659953041.9557,1272404.8394194,353
1659953041.9557,1272404.839423,372
1659953041.9557,1272404.8394267,379
1659953041.9557,1272404.8394305,341
1659953041.9557,1272404.8394341,308
1659953041.9557,1272404.8394384,287
1659953041.9557,1272404.8394421,252
1659953041.9557,1272404.8394457,214
1659953041.9557,1272404.8394492,190
1659953041.9557,1272404.8394527,169
1659953041.9557,1272404.8394562,141
1659953041.9557,1272404.83946,148
1659953041.9557,1272404.8394635,160
1659953041.9557,1272404.8394671,141
1659953041.9557,1272404.8394706,129
1659953041.9557,1272404.8394744,148
1659953041.9557,1272404.8394779,148
1659953041.9557,1272404.8394823,139
1659953041.9557,1272404.8394855,155
1659953042.57974,1272404.8394901,171
1659953042.57974,1272404.8394936,153
1659953042.57974,1272404.8394976,120
1659953042.57974,1272404.8395041,117
1659953042.57974,1272404.8395107,136
1659953042.57974,1272404.8395172,146
1659953042.57974,1272404.8395239,122
1659953042.57974,1272404.8395294,94
1659953042.57974,1272404.8395336,94
1659953042.57974,1272404.8395389,96
1659953042.57974,1272404.8395426,113
1659953042.57974,1272404.8395473,160
1659953042.57974,1272404.839554,167
1659953042.57974,1272404.8395586,124
1659953042.57974,1272404.8395619,113
1659953042.57974,1272404.8395647,131
1659953042.57974,1272404.8395678,115
1659953042.57974,1272404.8395708,91
1659953042.57974,1272404.8395738,101
1659953042.57974,1272404.8395767,115
1659953042.57974,1272404.8395798,108
1659953042.57974,1272404.8395828,82
1659953042.57974,1272404.8395858,63
1659953042.57974,1272404.839589,117
1659953042.57974,1272404.8395926,313
1659953042.57974,1272404.8395963,515
1659953042.57974,1272404.8396008,343
1659953042.57974,1272404.8396045,-120
1659953042.57974,1272404.83961,-200
1659953042.57974,1272404.8396153,65
1659953042.57974,1272404.8396223,124
1659953042.57974,1272404.8396315,54
1659953042.57974,1272404.8396386,87
1659953042.57974,1272404.8396427,113
1659953042.57974,1272404.8396474,89
1659953042.57974,1272404.8396524,87
1659953042.57974,1272404.8396627,89
1659953042.57974,1272404.8396683,75
1659953042.57974,1272404.8396731,77
1659953042.57974,1272404.8396777,110
1659953042.57974,1272404.839683,120
1659953042.57974,1272404.8396927,106
1659953042.57974,1272404.8396971,115
1659953042.57974,1272404.8397019,139
1659953042.57974,1272404.8397051,146
1659953042.57974,1272404.83971,139
1659953042.57974,1272404.8397231,134
1659953042.57974,1272405.4729109,155
1659953042.57974,1272405.4729236,186
1659953042.57974,1272405.4729273,186
1659953042.5947,1272405.4729298,183
1659953042.5947,1272405.4729321,197
1659953042.5947,1272405.4729342,193
1659953042.5947,1272405.4729363,169
1659953042.5947,1272405.4729384,157
1659953042.5947,1272405.4729405,131
1659953042.5947,1272405.4729426,63
1659953042.5947,1272405.4729448,23
1659953042.5947,1272405.4729469,51
1659953042.5947,1272405.4729862,11
1659953042.5947,1272405.4729948,-850
1659953042.5947,1272405.4729977,-4007
1659953042.5947,1272405.4729999,-7948
1659953042.5947,1272405.4730021,-7188
1659953042.5947,1272405.4730042,-2226
1659953042.5947,1272405.4730065,-75
1659953042.5947,1272405.4730086,-763
1659953042.5947,1272405.4730107,-207
1659953042.5947,1272405.4730129,556
1659953042.5947,1272405.473015,313
1659953042.5947,1272405.4730171,308
1659953042.5947,1272405.4730192,593
1659953042.5947,1272405.4730213,556
1659953042.5947,1272405.4730234,499
1659953043.00371,1272405.4730254,591
1659953043.00371,1272405.4730275,607

1659953043.00371,1272405.4730294,572
1659953043.00371,1272405.4730313,572
1659953043.00371,1272405.4730332,556
1659953043.00371,1272405.4730352,544
1659953043.00371,1272405.4730371,548
1659953043.00371,1272405.4730391,541
1659953043.00371,1272405.4730427,539
1659953043.00371,1272405.4730448,563
1659953043.00371,1272405.4730477,563
1659953043.00371,1272405.4731386,530
1659953043.00371,1272405.473146,513
1659953043.00371,1272405.4731505,506
1659953043.00371,1272405.4731562,468
1659953043.00371,1272405.4731598,435
1659953043.00371,1272405.4731634,440
1659953043.00371,1272405.473168,440
1659953043.00371,1272405.4731718,414
1659953043.00371,1272405.4731756,412
1659953043.00371,1272405.4731814,424
1659953043.00371,1272405.4731862,459
1659953043.00371,1272405.4731917,596
1659953043.00371,1272405.4731956,786
1659953043.00371,1272405.4731994,687
1659953043.00371,1272405.4732035,266
1659953043.00371,1272405.4732072,106
1659953043.00371,1272405.4732111,310
1659953043.00371,1272405.4732167,405
1659953043.00371,1272405.4732214,334
1659953043.00371,1272405.4732267,325
1659953043.00371,1272405.4732304,358
1659953043.00371,1272405.4732342,362
1659953043.00371,1272405.4732382,355
1659953043.00371,1272405.4732436,346
1659953043.00371,1272405.4732491,346
1659953043.00371,1272405.4732553,353
1659953043.00371,1272405.4732602,348
1659953043.00371,1272405.473264,341
1659953043.00371,1272405.4732679,334
1659953043.00371,1272405.4732744,318
1659953043.00371,1272405.4732784,325
1659953043.00371,1272405.4732847,339
1659953043.00371,1272405.4732975,339
1659953043.00371,1272405.4733021,348
1659953043.00371,1272405.4733083,360
1659953043.00371,1272405.9122528,348
1659953043.00371,1272405.9122734,343
1659953043.00371,1272405.9122838,367
1659953043.00371,1272405.9122929,372
1659953043.02565,1272405.9123014,353
1659953043.02565,1272405.9123061,358
1659953043.02565,1272405.9123115,351
1659953043.02565,1272405.9123171,303
1659953043.02565,1272405.912327,270
1659953043.02565,1272405.9123339,259
1659953043.02565,1272405.9123363,233
1659953043.02565,1272405.9123385,204
1659953043.02565,1272405.9123405,200
1659953043.02565,1272405.9123426,183
1659953043.02565,1272405.9123447,134
1659953043.02565,1272405.9123467,106
1659953043.02565,1272405.9123487,120
1659953043.02565,1272405.9123508,134
1659953043.02565,1272405.912353,136
1659953043.02565,1272405.9123553,127
1659953043.02565,1272405.9123635,120
1659953043.02565,1272405.9123724,139
1659953043.02565,1272405.912379,162
1659953043.02565,1272405.9123833,157
1659953043.02565,1272405.9123874,146
1659953043.02565,1272405.9123912,157
1659953043.02565,1272405.9123958,179
1659953043.02565,1272405.9123994,179
1659953043.54051,1272405.9124033,171
1659953043.54051,1272405.9124072,176
1659953043.54051,1272405.9124117,171
1659953043.54051,1272405.9124159,164
1659953043.54051,1272405.9124203,171
1659953043.54051,1272405.9124244,169
1659953043.54051,1272405.9124284,148
1659953043.54051,1272405.9124324,160
1659953043.54051,1272405.9124364,207
1659953043.54051,1272405.9124404,230
1659953043.54051,1272405.9124444,204
1659953043.54051,1272405.9124485,176
1659953043.54051,1272405.9124524,176
1659953043.54051,1272405.9124558,181
1659953043.54051,1272405.9124599,174
1659953043.54051,1272405.9124629,174
1659953043.54051,1272405.9124657,186
1659953043.54051,1272405.9124687,202
1659953043.54051,1272405.9124716,202
1659953043.54051,1272405.9124746,181
1659953043.54051,1272405.9124776,204
1659953043.54051,1272405.9124805,327
1659953043.54051,1272405.9124835,518
1659953043.54051,1272405.9124865,518
1659953043.54051,1272405.9124894,162
1659953043.54051,1272405.9124923,-94
1659953043.54051,1272405.9124951,65
1659953043.54051,1272405.9124981,237
1659953043.54051,1272405.9125009,202
1659953043.54051,1272405.9125037,153
1659953043.54051,1272405.9125067,169
1659953043.54051,1272405.9125097,183
1659953043.54051,1272405.9125127,176
1659953043.54051,1272405.9125155,179
1659953043.54051,1272405.9125184,183
1659953043.54051,1272405.9125214,179
1659953043.54051,1272405.9125242,188
1659953043.54051,1272405.9125272,202
1659953043.54051,1272405.9125302,200
1659953043.54051,1272405.9125332,197
1659953043.54051,1272405.9125456,207
1659953043.54051,1272405.9125543,212
1659953043.54051,1272405.9125645,214
1659953043.54051,1272405.9125745,221
1659953043.54051,1272405.9125801,233
1659953043.54051,1272406.447513,242
1659953043.54051,1272406.4475313,254
1659953043.54051,1272406.4475395,259
1659953043.54051,1272406.4475444,256
1659953043.54051,1272406.4475518,245
1659953043.55448,1272406.4475571,240
1659953043.55448,1272406.4475652,247
1659953043.55448,1272406.4475704,235
1659953043.55448,1272406.4475761,204
1659953043.55448,1272406.4475806,190
1659953043.55448,1272406.4475863,174
1659953043.55448,1272406.4475908,117
1659953043.55448,1272406.4475965,61
1659953043.55448,1272406.447601,58
1659953043.55448,1272406.4476074,61
1659953043.55448,1272406.4476117,32
1659953043.55448,1272406.4476175,32
1659953043.55448,1272406.4476231,61
1659953043.55448,1272406.4476301,58
1659953043.55448,1272406.4476374,32
1659953043.55448,1272406.4476479,28
1659953043.55448,1272406.4476525,49
1659953043.55448,1272406.4476547,56
1659953043.55448,1272406.4476644,47
1659953043.55448,1272406.4476785,51
1659953043.55448,1272406.447689,51
1659953043.55448,1272406.4476966,35
1659953043.55448,1272406.4477038,32
1659953043.55448,1272406.4477099,47
1659953044.17135,1272406.4477147,47
1659953044.17135,1272406.4477223,49
1659953044.17135,1272406.4477298,58
1659953044.17135,1272406.4477371,56
1659953044.17135,1272406.447743,35
1659953044.17135,1272406.447747,16
1659953044.17135,1272406.4477504,16
1659953044.17135,1272406.4477541,40
1659953044.17135,1272406.4477582,82
1659953044.17135,1272406.4477635,110
1659953044.17135,1272406.4477691,96
1659953044.17135,1272406.4477736,70
1659953044.17135,1272406.4477913,68
1659953044.17135,1272406.4477953,80
1659953044.17135,1272406.4477991,89
1659953044.17135,1272406.4478046,84
1659953044.17135,1272406.4478078,73
1659953044.17135,1272406.4478113,82
1659953044.17135,1272406.4478145,94
1659953044.17135,1272406.447818,82
1659953044.17135,1272406.4478218,122
1659953044.17135,1272406.4478254,285
1659953044.17135,1272406.447829,464
1659953044.17135,1272406.4478327,343
1659953044.17135,1272406.4478362,-73
1659953044.17135,1272406.4478398,-219
1659953044.17135,1272406.4478432,0
1659953044.17135,1272406.4478465,80
1659953044.17135,1272406.4478501,9
1659953044.17135,1272406.4478537,23
1659953044.17135,1272406.4478583,49
1659953044.17135,1272406.4478613,32
1659953044.17135,1272406.4478641,28
1659953044.17135,1272406.447867,25
1659953044.17135,1272406.44787,28
1659953044.17135,1272406.4478734,47
1659953044.17135,1272406.4478769,40
1659953044.17135,1272406.4478803,21
1659953044.17135,1272406.4478837,21
1659953044.17135,1272406.447887,18
1659953044.17135,1272406.4478902,16
1659953044.17135,1272406.4478934,23
1659953044.17135,1272406.4478965,28
1659953044.17135,1272406.4478996,30
1659953044.17135,1272407.0811962,14
1659953044.17135,1272407.0812158,-2
1659953044.17135,1272407.0812304,7
1659953044.17135,1272407.0812437,9
1659953044.17135,1272407.0812568,-9
1659953044.17135,1272407.0812684,-2
1659953044.18782,1272407.081273,7
1659953044.18782,1272407.0812787,-25
1659953044.18782,1272407.081283,-91
1659953044.18782,1272407.0812894,-139
1659953044.18782,1272407.081295,-171
1659953044.18782,1272407.0813014,-212
1659953044.18782,1272407.0813069,-252
1659953044.18782,1272407.0813125,-296
1659953044.18782,1272407.0813185,-353
1659953044.18782,1272407.0813229,-414
1659953044.18782,1272407.0813291,-454
1659953044.18782,1272407.0813335,-506
1659953044.18782,1272407.0813382,-591
1659953044.18782,1272407.0813427,-666
1659953044.18782,1272407.081348,-716
1659953044.18782,1272407.0813511,-744
1659953044.18782,1272407.0813555,-749
1659953044.18782,1272407.0813584,-744
1659953044.18782,1272407.0813614,-744
1659953044.18782,1272407.0813644,-735
1659953044.18782,1272407.0813674,-725
1659953044.18782,1272407.0813704,-720
1659953044.18782,1272407.0813734,-709
1659953044.18782,1272407.0813764,-669
1659953044.70816,1272407.0813808,-629
1659953044.70816,1272407.0813838,-619
1659953044.70816,1272407.0813866,-619
1659953044.70816,1272407.0813894,-607
1659953044.70816,1272407.0813922,-588
1659953044.70816,1272407.0813951,-577
1659953044.70816,1272407.081398,-574
1659953044.70816,1272407.0814009,-558
1659953044.70816,1272407.0814037,-511
1659953044.70816,1272407.0814065,-464
1659953044.70816,1272407.0814093,-442
1659953044.70816,1272407.0814121,-435
1659953044.70816,1272407.0814149,-440
1659953044.70816,1272407.0814177,-428
1659953044.70816,1272407.0814205,-398
1659953044.70816,1272407.0814232,-386
1659953044.70816,1272407.08143,-381
1659953044.70816,1272407.08144,-355
1659953044.70816,1272407.0814525,-341
1659953044.70816,1272407.0814585,-336
1659953044.70816,1272407.0814608,-296
1659953044.70816,1272407.081463,-169
1659953044.70816,1272407.0814652,37
1659953044.70816,1272407.0814672,117
1659953044.70816,1272407.0814693,-183
1659953044.70816,1272407.0814713,-570
1659953044.70816,1272407.0814734,-513
1659953044.70816,1272407.0814754,-263
1659953044.70816,1272407.0814781,-237
1659953044.70816,1272407.0814803,-270
1659953044.70816,1272407.0814825,-221
1659953044.70816,1272407.0814845,-202
1659953044.70816,1272407.0814866,-219
1659953044.70816,1272407.0814885,-204
1659953044.70816,1272407.0814905,-188
1659953044.70816,1272407.0814926,-190
1659953044.70816,1272407.0814947,-176
1659953044.70816,1272407.0814967,-148
1659953044.70816,1272407.0814987,-139
1659953044.70816,1272407.0815008,-136
1659953044.70816,1272407.0815028,-120
1659953044.70816,1272407.0815049,-117
1659953044.70816,1272407.081507,-124
1659953044.70816,1272407.617528,-113
1659953044.70816,1272407.6175442,-106
1659953044.70816,1272407.6175498,-96
1659953044.70816,1272407.6175562,-73
1659953044.70816,1272407.6175593,-61
1659953044.70816,1272407.6175623,-65
1659953044.70816,1272407.6175652,-54
1659953044.72312,1272407.6175681,-40
1659953044.72312,1272407.617571,-47
1659953044.72312,1272407.6175739,-63
1659953044.72312,1272407.6175768,-73
1659953044.72312,1272407.6175797,-80
1659953044.72312,1272407.6175828,-106
1659953044.72312,1272407.6175857,-129
1659953044.72312,1272407.6175888,-146
1659953044.72312,1272407.6175917,-164
1659953044.72312,1272407.6175946,-179
1659953044.72312,1272407.6175975,-195
1659953044.72312,1272407.6176006,-195
1659953044.72312,1272407.6176035,-174
1659953044.72312,1272407.6176064,-155
1659953044.72312,1272407.6176094,-155
1659953044.72312,1272407.6176123,-157
1659953044.72312,1272407.6176151,-155
1659953044.72312,1272407.617618,-153
1659953044.72312,1272407.6176209,-141
1659953044.72312,1272407.6176238,-129
1659953044.72312,1272407.6176268,-127
1659953044.72312,1272407.6176296,-120
1659953044.72312,1272407.6176325,-101
1659953044.72312,1272407.6176354,-91
1659953045.24297,1272407.6176385,-91
1659953045.24297,1272407.6176414,-82
1659953045.24297,1272407.6176441,-87
1659953045.24297,1272407.6176469,-84
1659953045.24297,1272407.6176497,-70
1659953045.24297,1272407.6176524,-73
1659953045.24297,1272407.6176552,-84
1659953045.24297,1272407.617658,-75
1659953045.24297,1272407.6176607,-63
1659953045.24297,1272407.6176635,-47
1659953045.24297,1272407.6176664,-7
1659953045.24297,1272407.6176692,25
1659953045.24297,1272407.6176719,25
1659953045.24297,1272407.6176749,18
1659953045.24297,1272407.6176776,23
1659953045.24297,1272407.6176803,28
1659953045.24297,1272407.617683,23
1659953045.24297,1272407.617686,30
1659953045.24297,1272407.6176889,42
1659953045.24297,1272407.6176918,54
1659953045.24297,1272407.6176947,63
1659953045.24297,1272407.6176975,68
1659953045.24297,1272407.6177004,84
1659953045.24297,1272407.6177034,162
1659953045.24297,1272407.6177062,308
1659953045.24297,1272407.6177091,400
1659953045.24297,1272407.617712,214
1659953045.24297,1272407.6177149,-129
1659953045.24297,1272407.6177179,-134
1659953045.24297,1272407.6177209,94
1659953045.24297,1272407.6177242,129
1659953045.24297,1272407.6177287,61
1659953045.24297,1272407.6177316,87
1659953045.24297,1272407.6177345,110
1659953045.24297,1272407.6177375,87
1659953045.24297,1272407.6177404,84
1659953045.24297,1272407.6177432,94
1659953045.24297,1272407.6177462,91
1659953045.24297,1272407.6177493,96
1659953045.24297,1272407.6177525,101
1659953045.24297,1272407.6177577,98
1659953045.24297,1272407.6177608,106
1659953045.24297,1272408.1553416,110
1659953045.24297,1272408.155354,106
1659953045.24297,1272408.1553566,110
1659953045.24297,1272408.1553599,117
1659953045.24297,1272408.1553621,122
1659953045.24297,1272408.1553644,139
1659953045.24297,1272408.1553666,160
1659953045.24297,1272408.1553687,169
1659953045.25893,1272408.1553708,169
1659953045.25893,1272408.1553728,174
1659953045.25893,1272408.1553749,183
1659953045.25893,1272408.1553769,174
1659953045.25893,1272408.1553789,148
1659953045.25893,1272408.155381,136
1659953045.25893,1272408.155383,120
1659953045.25893,1272408.1553851,84
1659953045.25893,1272408.1553872,61
1659953045.25893,1272408.1553892,58
1659953045.25893,1272408.1553912,49
1659953045.25893,1272408.1553933,28
1659953045.25893,1272408.1553954,9
1659953045.25893,1272408.1553976,-7
1659953045.25893,1272408.1553997,-9
1659953045.25893,1272408.1554017,-2
1659953045.25893,1272408.1554038,4
1659953045.25893,1272408.1554059,11
1659953045.25893,1272408.1554079,14
1659953045.25893,1272408.15541,18
1659953045.25893,1272408.1554121,35
1659953045.25893,1272408.1554179,42
1659953045.25893,1272408.1554302,49
1659953045.25893,1272408.1554363,58
1659953045.92508,1272408.1554395,63
1659953045.92508,1272408.1554416,63
1659953045.92508,1272408.1554435,63
1659953045.92508,1272408.1554454,68
1659953045.92508,1272408.1554473,80
1659953045.92508,1272408.1554502,82
1659953045.92508,1272408.1554605,77
1659953045.92508,1272408.1554673,70
1659953045.92508,1272408.1554761,70
1659953045.92508,1272408.1554856,84
1659953045.92508,1272408.1554882,96
1659953045.92508,1272408.1554904,96
1659953045.92508,1272408.1554974,122
1659953045.92508,1272408.1555086,160
1659953045.92508,1272408.1555134,160
1659953045.92508,1272408.1555164,139
1659953045.92508,1272408.1555186,131
1659953045.92508,1272408.1555206,131
1659953045.92508,1272408.1555227,127
1659953045.92508,1272408.155529,124
1659953045.92508,1272408.1555401,124
1659953045.92508,1272408.1555453,117
1659953045.92508,1272408.1555474,115
1659953045.92508,1272408.1555496,115
1659953045.92508,1272408.1555517,134
1659953045.92508,1272408.1555588,237
1659953045.92508,1272408.1555698,426
1659953045.92508,1272408.1555743,482
1659953045.92508,1272408.1555765,162
1659953045.92508,1272408.1555786,-226
1659953045.92508,1272408.1555808,-155
1659953045.92508,1272408.1555829,113
1659953045.92508,1272408.155585,127
1659953045.92508,1272408.1555871,77
1659953045.92508,1272408.1555906,134
1659953045.92508,1272408.155603,153
1659953045.92508,1272408.1556083,117
1659953045.92508,1272408.155611,127
1659953045.92508,1272408.1556209,136
1659953045.92508,1272408.1556299,108
1659953045.92508,1272408.1556324,113
1659953045.92508,1272408.8372953,146
1659953045.92508,1272408.8373078,148
1659953045.92508,1272408.8373108,139
1659953045.92508,1272408.8373135,146
1659953045.92508,1272408.8373162,155
1659953045.92508,1272408.8373187,153
1659953045.92508,1272408.837321,160
1659953045.92508,1272408.8373233,181
1659953045.92508,1272408.8373254,190
1659953045.93904,1272408.8373278,183
1659953045.93904,1272408.8373321,183
1659953045.93904,1272408.837335,174
1659953045.93904,1272408.8373573,160
1659953045.93904,1272408.8373702,160
1659953045.93904,1272408.8373762,160
1659953045.93904,1272408.8373813,131
1659953045.93904,1272408.8373874,103
1659953045.93904,1272408.8373929,94
1659953045.93904,1272408.8373992,91
1659953045.93904,1272408.8374031,82
1659953045.93904,1272408.8374084,56
1659953045.93904,1272408.8374139,21
1659953045.93904,1272408.837418,-9
1659953045.93904,1272408.8374242,-28
1659953045.93904,1272408.837429,-42
1659953045.93904,1272408.8374346,-44
1659953045.93904,1272408.8374383,-25
1659953045.93904,1272408.837444,-2
1659953045.93904,1272408.837448,7
1659953045.93904,1272408.8374517,9
1659953045.93904,1272408.8374575,16
1659953045.93904,1272408.8374616,28
1659953045.93904,1272408.8374677,37
1659953046.37332,1272408.8374734,44
1659953046.37332,1272408.8374774,54
1659953046.37332,1272408.8374809,63
1659953046.37332,1272408.8374844,63
1659953046.37332,1272408.837488,54
1659953046.37332,1272408.8374925,51
1659953046.37332,1272408.8374964,54
1659953046.37332,1272408.8374999,51
1659953046.37332,1272408.8375036,47
1659953046.37332,1272408.8375073,30
1659953046.37332,1272408.8375108,18
1659953046.37332,1272408.8375143,37
1659953046.37332,1272408.8375178,61
1659953046.37332,1272408.8375215,40
1659953046.37332,1272408.8375253,-11
1659953046.37332,1272408.837529,-35
1659953046.37332,1272408.8375326,-40
1659953046.37332,1272408.8375368,-42
1659953046.37332,1272408.8375406,-28
1659953046.37332,1272408.8375462,-9
1659953046.37332,1272408.8375496,-4
1659953046.37332,1272408.8375536,-2
1659953046.37332,1272408.8375592,14
1659953046.37332,1272408.8375625,44
1659953046.37332,1272408.8375729,136
1659953046.37332,1272408.8375839,325
1659953046.37332,1272408.8375874,466
1659953046.37332,1272408.8375917,263
1659953046.37332,1272408.8375942,-146
1659953046.37332,1272408.8376055,-221
1659953046.37332,1272408.837618,-4
1659953046.37332,1272408.8376325,37
1659953046.37332,1272408.8376479,-35
1659953046.37332,1272408.8376608,-18
1659953046.37332,1272408.837674,-14
1659953046.37332,1272408.8376872,-37
1659953046.37332,1272408.8377004,-28
1659953046.37332,1272408.837714,-14
1659953046.37332,1272408.8377223,-11
1659953046.37332,1272408.8377249,2
1659953046.37332,1272409.2766812,16
1659953046.37332,1272409.2766955,28
1659953046.37332,1272409.2767013,40
1659953046.37332,1272409.2767059,54
1659953046.37332,1272409.2767091,65
1659953046.37332,1272409.2767121,65
1659953046.37332,1272409.2767151,56
1659953046.37332,1272409.2767181,56
1659953046.37332,1272409.2767213,68
1659953046.37332,1272409.2767341,75
1659953046.38784,1272409.2767433,82
1659953046.38784,1272409.2767461,94
1659953046.38784,1272409.2767482,89
1659953046.38784,1272409.2767504,82
1659953046.38784,1272409.2767526,77
1659953046.38784,1272409.2767553,63
1659953046.38784,1272409.2767661,49
1659953046.38784,1272409.2767736,47
1659953046.38784,1272409.2767763,44
1659953046.38784,1272409.2767785,21
1659953046.38784,1272409.2767807,-21
1659953046.38784,1272409.2767828,-32
1659953046.38784,1272409.2767849,-30
1659953046.38784,1272409.276787,-42
1659953046.38784,1272409.2767891,-61
1659953046.38784,1272409.2767912,-73
1659953046.38784,1272409.2767941,-82
1659953046.38784,1272409.2767963,-77
1659953046.38784,1272409.276799,-63
1659953046.38784,1272409.2768011,-61
1659953046.38784,1272409.2768032,-56
1659953046.38784,1272409.2768054,-54
1659953046.38784,1272409.2768075,-54
1659953046.38784,1272409.2768095,-37
1659953046.96012,1272409.2768116,-25
1659953046.96012,1272409.2768137,-23
1659953046.96012,1272409.2768156,-23
1659953046.96012,1272409.2768176,-30
1659953046.96012,1272409.2768196,-35
1659953046.96012,1272409.2768215,-37
1659953046.96012,1272409.2768235,-51
1659953046.96012,1272409.2768308,-61
1659953046.96012,1272409.2768395,-49
1659953046.96012,1272409.2768473,-40
1659953046.96012,1272409.2768548,-40
1659953046.96012,1272409.2768668,-21
1659953046.96012,1272409.2768781,11
1659953046.96012,1272409.2768876,23
1659953046.96012,1272409.2768974,11
1659953046.96012,1272409.2769018,9
1659953046.96012,1272409.2769057,32
1659953046.96012,1272409.2769078,35
1659953046.96012,1272409.2769099,16
1659953046.96012,1272409.276912,28
1659953046.96012,1272409.2769141,54
1659953046.96012,1272409.2769161,61
1659953046.96012,1272409.2769182,61
1659953046.96012,1272409.2769203,70
1659953046.96012,1272409.2769224,146
1659953046.96012,1272409.2769245,306
1659953046.96012,1272409.276927,409
1659953046.96012,1272409.2769291,190
1659953046.96012,1272409.2769312,-157
1659953046.96012,1272409.2769333,-134
1659953046.96012,1272409.2769354,70
1659953046.96012,1272409.2769375,73
1659953046.96012,1272409.2769395,25
1659953046.96012,1272409.2769416,54
1659953046.96012,1272409.2769438,54
1659953046.96012,1272409.2769459,35
1659953046.96012,1272409.2769481,30
1659953046.96012,1272409.2769565,14
1659953046.96012,1272409.2769586,14
1659953046.96012,1272409.8598753,32
1659953046.96012,1272409.8598885,23
1659953046.96012,1272409.8598922,16
1659953046.96012,1272409.8598971,42
1659953046.96012,1272409.8598991,65
1659953046.96012,1272409.8599012,65
1659953046.96012,1272409.8599032,73
1659953046.96012,1272409.8599053,87
1659953046.96012,1272409.8599074,98
1659953046.96012,1272409.8599094,127
1659953046.96012,1272409.8599115,146
1659953046.98007,1272409.8599134,141
1659953046.98007,1272409.8599154,134
1659953046.98007,1272409.8599174,127
1659953046.98007,1272409.8599195,117
1659953046.98007,1272409.8599215,120
1659953046.98007,1272409.8599237,117
1659953046.98007,1272409.8599269,94
1659953046.98007,1272409.8599408,65
1659953046.98007,1272409.8599472,35
1659953046.98007,1272409.8599519,7
1659953046.98007,1272409.8599542,0
1659953046.98007,1272409.8599564,-9
1659953046.98007,1272409.8599585,-63
1659953046.98007,1272409.8599605,-124
1659953046.98007,1272409.8599626,-115
1659953046.98007,1272409.8599695,-70
1659953046.98007,1272409.8599808,-61
1659953046.98007,1272409.8599858,-68
1659953046.98007,1272409.8599888,-68
1659953046.98007,1272409.8599909,-68
1659953046.98007,1272409.859993,-47
1659953046.98007,1272409.8599953,-14
1659953046.98007,1272409.8600029,-2
1659953046.98007,1272409.8600137,11
1659953047.48528,1272409.8600172,32
1659953047.48528,1272409.8600201,32
1659953047.48528,1272409.8600229,30
1659953047.48528,1272409.8600257,44
1659953047.48528,1272409.8600294,54
1659953047.48528,1272409.8600373,44
1659953047.48528,1272409.8600431,30
1659953047.48528,1272409.8600479,37
1659953047.48528,1272409.8600535,61
1659953047.48528,1272409.8600608,70
1659953047.48528,1272409.8600701,70
1659953047.48528,1272409.8600792,68
1659953047.48528,1272409.860083,61
1659953047.48528,1272409.8600952,47
1659953047.48528,1272409.8601028,28
1659953047.48528,1272409.8601053,25
1659953047.48528,1272409.8601075,32
1659953047.48528,1272409.8601096,37
1659953047.48528,1272409.8601121,42
1659953047.48528,1272409.8601196,47
1659953047.48528,1272409.8601302,40
1659953047.48528,1272409.8601335,65
1659953047.48528,1272409.8601372,195
1659953047.48528,1272409.8601391,407
1659953047.48528,1272409.8601427,461
1659953047.48528,1272409.8601556,124
1659953047.48528,1272409.8601614,-249
1659953047.48528,1272409.8601636,-186
1659953047.48528,1272409.8601657,18
1659953047.48528,1272409.8601677,9
1659953047.48528,1272409.8601698,-25
1659953047.48528,1272409.8601768,37
1659953047.48528,1272409.8601878,70
1659953047.48528,1272409.860191,35
1659953047.48528,1272409.8601933,9
1659953047.48528,1272409.8601955,18
1659953047.48528,1272409.8601988,16
1659953047.48528,1272409.8602118,-2
1659953047.48528,1272410.39703,-2
1659953047.48528,1272410.39705,7
1659953047.48528,1272410.3970634,2
1659953047.48528,1272410.3970726,-11
1659953047.48528,1272410.3970752,-7
1659953047.48528,1272410.3970775,28
1659953047.48528,1272410.3970797,68
1659953047.48528,1272410.3970819,65
1659953047.48528,1272410.397084,54
1659953047.48528,1272410.3970883,80
1659953047.48528,1272410.3971007,103
1659953047.48528,1272410.3971146,65
1659953047.49725,1272410.3971278,18
1659953047.49725,1272410.3971419,65
1659953047.49725,1272410.3971488,136
1659953047.49725,1272410.3971513,91
1659953047.49725,1272410.3971534,11
1659953047.49725,1272410.3971555,-11
1659953047.49725,1272410.3971578,-23
1659953047.49725,1272410.3971638,-54
1659953047.49725,1272410.3971749,-87
1659953047.49725,1272410.3971844,-115
1659953047.49725,1272410.3971932,-122
1659953047.49725,1272410.3971982,-124
1659953047.49725,1272410.397205,-129
1659953047.49725,1272410.3972094,-124
1659953047.49725,1272410.3972138,-117
1659953047.49725,1272410.39722,-120
1659953047.49725,1272410.3972246,-103
1659953047.49725,1272410.3972281,-73
1659953047.49725,1272410.397233,-65
1659953047.49725,1272410.3972363,-70
1659953047.49725,1272410.3972398,-61
1659953047.49725,1272410.3972432,-44
1659953047.49725,1272410.397247,-30
1659953047.49725,1272410.397251,-30
1659953048.0711,1272410.397255,-30
1659953048.0711,1272410.3972613,-18
1659953048.0711,1272410.3972669,-30
1659953048.0711,1272410.3972713,-51
1659953048.0711,1272410.397278,-47
1659953048.0711,1272410.3972854,-21
1659953048.0711,1272410.3972898,-9
1659953048.0711,1272410.3972938,-18
1659953048.0711,1272410.3973005,-25
1659953048.0711,1272410.397307,-28
1659953048.0711,1272410.3973138,-35
1659953048.0711,1272410.3973226,-18
1659953048.0711,1272410.3973314,9
1659953048.0711,1272410.3973396,14
1659953048.0711,1272410.3973464,16
1659953048.0711,1272410.397355,28
1659953048.0711,1272410.3973616,40
1659953048.0711,1272410.3973701,75
1659953048.0711,1272410.3973767,219
1659953048.0711,1272410.3973857,475
1659953048.0711,1272410.3973925,563
1659953048.0711,1272410.397401,171
1659953048.0711,1272410.3974066,-270
1659953048.0711,1272410.3974123,-188
1659953048.0711,1272410.3974169,65
1659953048.0711,1272410.3974221,63
1659953048.0711,1272410.3974272,40
1659953048.0711,1272410.3974433,96
1659953048.0711,1272410.3974464,84
1659953048.0711,1272410.3974494,63
1659953048.0711,1272410.3974672,89
1659953048.0711,1272410.3974703,96
1659953048.0711,1272410.3974734,94
1659953048.0711,1272410.3974764,113
1659953048.0711,1272410.3974795,108
1659953048.0711,1272410.3974825,91
1659953048.0711,1272410.3974857,94
1659953048.0711,1272410.9818169,98
1659953048.0711,1272410.9818356,96
1659953048.0711,1272410.9818424,113
1659953048.0711,1272410.9818477,131
1659953048.0711,1272410.9818518,117
1659953048.0711,1272410.9818569,94
1659953048.0711,1272410.9818605,113
1659953048.0711,1272410.9818645,157
1659953048.0711,1272410.9818702,167
1659953048.0711,1272410.9818736,146
1659953048.0711,1272410.981877,131
1659953048.0711,1272410.9818827,115
1659953048.0711,1272410.9818865,103
1659953048.08506,1272410.9818923,117
1659953048.08506,1272410.9818977,129
1659953048.08506,1272410.9819026,98
1659953048.08506,1272410.9819079,51
1659953048.08506,1272410.9819119,18
1659953048.08506,1272410.981915,-14
1659953048.08506,1272410.9819197,-42
1659953048.08506,1272410.9819224,-56
1659953048.08506,1272410.9819251,-61
1659953048.08506,1272410.9819279,-56
1659953048.08506,1272410.9819308,-42
1659953048.08506,1272410.9819336,-32
1659953048.08506,1272410.9819363,-23
1659953048.08506,1272410.981939,-7
1659953048.08506,1272410.9819418,0
1659953048.08506,1272410.9819446,2
1659953048.08506,1272410.9819473,9
1659953048.08506,1272410.98195,16
1659953048.08506,1272410.9819527,30
1659953048.08506,1272410.9819554,42
1659953048.08506,1272410.9819581,44
1659953048.08506,1272410.9819608,42
1659953048.08506,1272410.9819635,37
1659953048.08506,1272410.9819662,47
1659953048.60977,1272410.9819689,73
1659953048.60977,1272410.9819716,89
1659953048.60977,1272410.9819743,101
1659953048.60977,1272410.9819771,129
1659953048.60977,1272410.9819796,139
1659953048.60977,1272410.9819822,108
1659953048.60977,1272410.9819847,84
1659953048.60977,1272410.9819875,89
1659953048.60977,1272410.9819907,87
1659953048.60977,1272410.9820027,77
1659953048.60977,1272410.9820142,96
1659953048.60977,1272410.9820237,110
1659953048.60977,1272410.9820356,89
1659953048.60977,1272410.9820474,82
1659953048.60977,1272410.9820551,143
1659953048.60977,1272410.9820585,287
1659953048.60977,1272410.9820607,457
1659953048.60977,1272410.9820628,419
1659953048.60977,1272410.9820708,40
1659953048.60977,1272410.9820813,-214
1659953048.60977,1272410.9820847,-37
1659953048.60977,1272410.9820876,120
1659953048.60977,1272410.9820914,63
1659953048.60977,1272410.9821043,65
1659953048.60977,1272410.9821099,106
1659953048.60977,1272410.9821131,80
1659953048.60977,1272410.9821152,77
1659953048.60977,1272410.9821173,98
1659953048.60977,1272410.9821247,94
1659953048.60977,1272410.9821354,98
1659953048.60977,1272410.9821389,108
1659953048.60977,1272410.9821419,96
1659953048.60977,1272410.9821455,91
1659953048.60977,1272410.982156,108
1659953048.60977,1272410.9821638,122
1659953048.60977,1272410.982171,134
1659953048.60977,1272411.5179616,141
1659953048.60977,1272411.5179819,136
1659953048.60977,1272411.5179891,124
1659953048.60977,1272411.5179953,131
1659953048.60977,1272411.5179995,153
1659953048.60977,1272411.5180035,160
1659953048.60977,1272411.5180075,157
1659953048.60977,1272411.5180116,164
1659953048.60977,1272411.5180155,153
1659953048.60977,1272411.5180194,120
1659953048.60977,1272411.5180234,110
1659953048.60977,1272411.5180273,115
1659953048.60977,1272411.5180337,94
1659953048.60977,1272411.5180398,49
1659953048.62274,1272411.5180462,9
1659953048.62274,1272411.518051,2
1659953048.62274,1272411.5180582,0
1659953048.62274,1272411.5180641,-9
1659953048.62274,1272411.5180699,-9
1659953048.62274,1272411.5180746,-2
1659953048.62274,1272411.5180807,-25
1659953048.62274,1272411.5180861,-49
1659953048.62274,1272411.5180905,-25
1659953048.62274,1272411.5180949,-4
1659953048.62274,1272411.5181164,-9
1659953048.62274,1272411.5181266,0
1659953048.62274,1272411.5181309,11
1659953048.62274,1272411.5181347,4
1659953048.62274,1272411.5181383,-16
1659953048.62274,1272411.5181421,-28
1659953048.62274,1272411.5181457,-14
1659953048.62274,1272411.5181492,2
1659953048.62274,1272411.5181527,-14
1659953048.62274,1272411.5181563,-23
1659953048.62274,1272411.5181599,4
1659953048.62274,1272411.5181634,21
1659953048.62274,1272411.5181669,28
1659953048.62274,1272411.5181705,51
1659953049.15577,1272411.518174,44
1659953049.15577,1272411.5181776,21
1659953049.15577,1272411.5181812,28
1659953049.15577,1272411.5181847,40
1659953049.15577,1272411.5181882,42
1659953049.15577,1272411.5181917,47
1659953049.15577,1272411.5181952,44
1659953049.15577,1272411.5181986,47
1659953049.15577,1272411.5182021,61
1659953049.15577,1272411.5182056,80
1659953049.15577,1272411.5182091,141
1659953049.15577,1272411.5182128,287
1659953049.15577,1272411.5182173,449
1659953049.15577,1272411.5182208,360
1659953049.15577,1272411.5182243,-44
1659953049.15577,1272411.5182278,-230
1659953049.15577,1272411.5182313,2
1659953049.15577,1272411.5182348,146
1659953049.15577,1272411.5182392,73
1659953049.15577,1272411.518243,70
1659953049.15577,1272411.5182474,117
1659953049.15577,1272411.5182514,103
1659953049.15577,1272411.5182562,94
1659953049.15577,1272411.5182615,117
1659953049.15577,1272411.5182684,122
1659953049.15577,1272411.5182753,122
1659953049.15577,1272411.5182804,131
1659953049.15577,1272411.5182845,136
1659953049.15577,1272411.5182882,136
1659953049.15577,1272411.5182919,131
1659953049.15577,1272411.5182955,124
1659953049.15577,1272411.518299,136
1659953049.15577,1272411.5183024,162
1659953049.15577,1272411.5183059,174
1659953049.15577,1272411.5183096,176
1659953049.15577,1272412.0542935,188
1659953049.15577,1272412.0543127,212
1659953049.15577,1272412.0543212,228
1659953049.15577,1272412.0543266,221
1659953049.15577,1272412.0543329,200
1659953049.15577,1272412.0543373,190
1659953049.15577,1272412.0543439,183
1659953049.15577,1272412.0543486,167
1659953049.15577,1272412.0543533,155
1659953049.15577,1272412.0543573,139
1659953049.15577,1272412.0543614,103
1659953049.15577,1272412.0543657,63
1659953049.15577,1272412.0543701,37
1659953049.15577,1272412.0543764,18
1659953049.15577,1272412.0543805,9
1659953049.17571,1272412.0543843,7
1659953049.17571,1272412.0543883,0
1659953049.17571,1272412.0543924,-14
1659953049.17571,1272412.0543965,-16
1659953049.17571,1272412.0544006,-7
1659953049.17571,1272412.0544046,-16
1659953049.17571,1272412.0544084,-32
1659953049.17571,1272412.0544152,-14
1659953049.17571,1272412.0544189,4
1659953049.17571,1272412.0544225,-7
1659953049.17571,1272412.0544259,-7
1659953049.17571,1272412.0544293,7
1659953049.17571,1272412.0544329,-7
1659953049.17571,1272412.0544368,-21
1659953049.17571,1272412.0544409,-2
1659953049.17571,1272412.054448,25
1659953049.17571,1272412.0544522,40
1659953049.17571,1272412.054458,32
1659953049.17571,1272412.0544636,44
1659953049.17571,1272412.0544695,77
1659953049.17571,1272412.0544735,80
1659953049.17571,1272412.054477,56
1659953049.17571,1272412.0544809,44
1659953049.17571,1272412.0544867,61
1659953049.72786,1272412.054492,80
1659953049.72786,1272412.054496,77
1659953049.72786,1272412.0544994,73
1659953049.72786,1272412.0545027,73
1659953049.72786,1272412.0545058,84
1659953049.72786,1272412.0545095,110
1659953049.72786,1272412.0545143,164
1659953049.72786,1272412.0545202,322
1659953049.72786,1272412.0545239,523
1659953049.72786,1272412.0545275,433
1659953049.72786,1272412.0545316,-11
1659953049.72786,1272412.0545368,-233
1659953049.72786,1272412.0545406,0
1659953049.72786,1272412.0545462,164
1659953049.72786,1272412.0545504,89
1659953049.72786,1272412.0545557,51
1659953049.72786,1272412.0545595,103
1659953049.72786,1272412.0545656,131
1659953049.72786,1272412.0545693,106
1659953049.72786,1272412.0545748,70
1659953049.72786,1272412.0545795,63
1659953049.72786,1272412.0545851,94
1659953049.72786,1272412.0545888,146
1659953049.72786,1272412.0545924,157
1659953049.72786,1272412.0545979,139
1659953049.72786,1272412.0546058,131
1659953049.72786,1272412.05461,139
1659953049.72786,1272412.0546158,139
1659953049.72786,1272412.0546199,131
1659953049.72786,1272412.0546263,150
1659953049.72786,1272412.0546314,181
1659953049.72786,1272412.0546378,188
1659953049.72786,1272412.0546426,207
1659953049.72786,1272412.0546481,237
1659953049.72786,1272412.6393874,230
1659953049.72786,1272412.6394052,216
1659953049.72786,1272412.6394111,207
1659953049.72786,1272412.6394173,186
1659953049.72786,1272412.6394213,162
1659953049.72786,1272412.6394268,150
1659953049.72786,1272412.6394306,150
1659953049.72786,1272412.6394358,96
1659953049.72786,1272412.6394396,0
1659953049.72786,1272412.6394453,-16
1659953049.72786,1272412.6394488,32
1659953049.72786,1272412.6394548,9
1659953049.72786,1272412.6394606,-58
1659953049.72786,1272412.6394643,-89
1659953049.72786,1272412.6394695,-91
1659953049.72786,1272412.6394739,-84
1659953049.74081,1272412.6394792,-73
1659953049.74081,1272412.6394828,-58
1659953049.74081,1272412.6394881,-54
1659953049.74081,1272412.6394918,-51
1659953049.74081,1272412.6394972,-49
1659953049.74081,1272412.6395009,-47
1659953049.74081,1272412.639506,-44
1659953049.74081,1272412.6395098,-49
1659953049.74081,1272412.6395148,-54
1659953049.74081,1272412.6395185,-51
1659953049.74081,1272412.6395237,-58
1659953049.74081,1272412.6395293,-73
1659953049.74081,1272412.6395346,-68
1659953049.74081,1272412.6395399,-44
1659953049.74081,1272412.6395449,-23
1659953049.74081,1272412.6395486,-18
1659953049.74081,1272412.6395541,-9
1659953049.74081,1272412.6395578,2
1659953049.74081,1272412.6395632,-7
1659953049.74081,1272412.639567,0
1659953049.74081,1272412.6395722,23
1659953049.74081,1272412.6395759,28
1659953049.74081,1272412.639581,30
1659953049.74081,1272412.6395848,44
1659953050.27115,1272412.6395899,63
1659953050.27115,1272412.6395957,73
1659953050.27115,1272412.6395994,129
1659953050.27115,1272412.6396029,322
1659953050.27115,1272412.6396065,508
1659953050.27115,1272412.6396099,341
1659953050.27115,1272412.639613,-115
1659953050.27115,1272412.6396164,-242
1659953050.27115,1272412.6396199,14
1659953050.27115,1272412.6396236,106
1659953050.27115,1272412.6396273,21
1659953050.27115,1272412.639631,47
1659953050.27115,1272412.6396346,101
1659953050.27115,1272412.6396391,87
1659953050.27115,1272412.6396444,75
1659953050.27115,1272412.6396479,89
1659953050.27115,1272412.6396533,110
1659953050.27115,1272412.6396567,115
1659953050.27115,1272412.6396626,101
1659953050.27115,1272412.6396665,108
1659953050.27115,1272412.639672,127
1659953050.27115,1272412.6396769,129
1659953050.27115,1272412.639684,129
1659953050.27115,1272412.6396902,139
1659953050.27115,1272412.6396955,164
1659953050.27115,1272412.639699,186
1659953050.27115,1272412.6397024,190
1659953050.27115,1272412.6397058,195
1659953050.27115,1272412.6397107,207
1659953050.27115,1272412.6397148,221
1659953050.27115,1272412.6397198,233
1659953050.27115,1272412.6397232,233
1659953050.27115,1272412.6397283,214
1659953050.27115,1272413.1754419,202
1659953050.27115,1272413.1754619,204
1659953050.27115,1272413.1754767,193
1659953050.27115,1272413.175487,157
1659953050.27115,1272413.1754945,127
1659953050.27115,1272413.1755018,98
1659953050.27115,1272413.1755077,63

1659953050.27115,1272413.1755119,42
1659953050.27115,1272413.1755166,23
1659953050.27115,1272413.1755213,4
1659953050.27115,1272413.1755273,-28
1659953050.27115,1272413.1755419,-56
1659953050.27115,1272413.175555,-32
1659953050.27115,1272413.1755696,-9
1659953050.27115,1272413.1755846,-7
1659953050.27115,1272413.1755988,18
1659953050.27115,1272413.1756104,30
1659953050.28511,1272413.1756221,11
1659953050.28511,1272413.1756302,-7
1659953050.28511,1272413.1756334,-4
1659953050.28511,1272413.1756355,7
1659953050.28511,1272413.1756383,16
1659953050.28511,1272413.1756477,14
1659953050.28511,1272413.1756608,0
1659953050.28511,1272413.1756695,-4
1659953050.28511,1272413.1756796,-7
1659953050.28511,1272413.1756878,-16
1659953050.28511,1272413.1756987,-7
1659953050.28511,1272413.1757149,42
1659953050.28511,1272413.1757253,70
1659953050.28511,1272413.1757294,56
1659953050.28511,1272413.1757429,51
1659953050.28511,1272413.1757573,51
1659953050.28511,1272413.1757697,37
1659953050.28511,1272413.1757823,35
1659953050.28511,1272413.1757947,47
1659953050.28511,1272413.1758088,51
1659953050.28511,1272413.1758195,54
1659953050.28511,1272413.1758249,54
1659953050.28511,1272413.1758332,49
1659953050.28511,1272413.1758419,80
1659953050.80822,1272413.1758522,202
1659953050.80822,1272413.1758611,381
1659953050.80822,1272413.1758662,431
1659953050.80822,1272413.1758708,150
1659953050.80822,1272413.1758751,-204
1659953050.80822,1272413.1758793,-160
1659953050.80822,1272413.1758836,75
1659953050.80822,1272413.1758887,82
1659953050.80822,1272413.1758936,23
1659953050.80822,1272413.1759056,61
1659953050.80822,1272413.1759121,77
1659953050.80822,1272413.1759233,58
1659953050.80822,1272413.175936,70
1659953050.80822,1272413.1759478,75
1659953050.80822,1272413.1759614,61
1659953050.80822,1272413.1759749,73
1659953050.80822,1272413.1759889,80
1659953050.80822,1272413.176,80
1659953050.80822,1272413.1760076,87
1659953050.80822,1272413.1760188,82
1659953050.80822,1272413.1760293,94
1659953050.80822,1272413.1760368,122
1659953050.80822,1272413.1760454,124
1659953050.80822,1272413.1760579,120
1659953050.80822,1272413.1760732,131
1659953050.80822,1272413.1760876,157
1659953050.80822,1272413.1761019,174
1659953050.80822,1272413.1761139,157
1659953050.80822,1272413.1761274,160
1659953050.80822,1272413.1761371,179
1659953050.80822,1272413.1761429,155
1659953050.80822,1272413.1761622,113
1659953050.80822,1272413.7111477,94
1659953050.80822,1272413.7111688,89
1659953050.80822,1272413.7111816,80
1659953050.80822,1272413.7111901,40
1659953050.80822,1272413.7111997,7
1659953050.80822,1272413.7112087,2
1659953050.80822,1272413.7112193,-9
1659953050.80822,1272413.7112298,-51
1659953050.80822,1272413.7112355,-75
1659953050.80822,1272413.7112491,-61
1659953050.80822,1272413.71126,-35
1659953050.80822,1272413.7112692,-21
1659953050.80822,1272413.7112817,-30
1659953050.80822,1272413.7112907,-49
1659953050.80822,1272413.7112979,-54
1659953050.80822,1272413.7113102,-47
1659953050.80822,1272413.7113204,-42
1659953050.80822,1272413.7113271,-35
1659953050.82218,1272413.71134,-11
1659953050.82218,1272413.7113506,7
1659953050.82218,1272413.7113575,-14
1659953050.82218,1272413.7113699,-35
1659953050.82218,1272413.7113804,0
1659953050.82218,1272413.7113873,23
1659953050.82218,1272413.7113996,-2
1659953050.82218,1272413.7114101,-2
1659953050.82218,1272413.7114168,9
1659953050.82218,1272413.7114291,-2
1659953050.82218,1272413.7114395,9
1659953050.82218,1272413.7114463,47
1659953050.82218,1272413.7114587,63
1659953050.82218,1272413.7114691,56
1659953050.82218,1272413.7114785,47
1659953050.82218,1272413.7114891,32
1659953050.82218,1272413.7115005,11
1659953050.82218,1272413.7115092,4
1659953050.82218,1272413.7115141,28
1659953050.82218,1272413.7115213,47
1659953050.82218,1272413.7115499,32
1659953050.82218,1272413.711559,23
1659953050.82218,1272413.7115632,35
1659953050.82218,1272413.7115691,82
1659953051.48635,1272413.711576,197
1659953051.48635,1272413.7115878,369
1659953051.48635,1272413.7115985,417
1659953051.48635,1272413.711607,101
1659953051.48635,1272413.7116124,-247
1659953051.48635,1272413.7116221,-143
1659953051.48635,1272413.7116333,84
1659953051.48635,1272413.7116383,75
1659953051.48635,1272413.7116405,42
1659953051.48635,1272413.7116443,94
1659953051.48635,1272413.7116464,106
1659953051.48635,1272413.71165,82
1659953051.48635,1272413.7116631,103
1659953051.48635,1272413.7116688,120
1659953051.48635,1272413.711671,101
1659953051.48635,1272413.7116732,110
1659953051.48635,1272413.7116807,129
1659953051.48635,1272413.7116916,117
1659953051.48635,1272413.7116961,120
1659953051.48635,1272413.7116982,136
1659953051.48635,1272413.711704,134
1659953051.48635,1272413.7117156,148
1659953051.48635,1272413.7117211,169
1659953051.48635,1272413.7117234,157
1659953051.48635,1272413.7117255,141
1659953051.48635,1272413.7117276,157
1659953051.48635,1272413.7117298,179
1659953051.48635,1272413.7117373,188
1659953051.48635,1272413.711748,204
1659953051.48635,1272413.7117524,197
1659953051.48635,1272413.7117546,157
1659953051.48635,1272414.3949966,150
1659953051.48635,1272414.3950166,164
1659953051.48635,1272414.395025,127
1659953051.48635,1272414.3950275,75
1659953051.48635,1272414.3950317,44
1659953051.48635,1272414.3950432,4
1659953051.48635,1272414.3950482,-28
1659953051.48635,1272414.3950567,-30
1659953051.48635,1272414.3950714,-21
1659953051.48635,1272414.395079,-32
1659953051.48635,1272414.3950814,-56
1659953051.48635,1272414.3950836,-61
1659953051.48635,1272414.3950864,-51
1659953051.48635,1272414.3950967,-49
1659953051.48635,1272414.3951041,-37
1659953051.48635,1272414.3951075,-16
1659953051.48635,1272414.3951096,-18
1659953051.48635,1272414.3951119,-25
1659953051.48635,1272414.395122,-18
1659953051.5073,1272414.3951353,-18
1659953051.5073,1272414.3951487,-4
1659953051.5073,1272414.3951619,25
1659953051.5073,1272414.3951752,23
1659953051.5073,1272414.3951885,-7
1659953051.5073,1272414.3952017,-16
1659953051.5073,1272414.395215,0
1659953051.5073,1272414.3952282,14
1659953051.5073,1272414.3952413,7
1659953051.5073,1272414.3952546,-2
1659953051.5073,1272414.3952676,7
1659953051.5073,1272414.3952806,21
1659953051.5073,1272414.3952939,23
1659953051.5073,1272414.3953071,30
1659953051.5073,1272414.3953206,58
1659953051.5073,1272414.3953337,87
1659953051.5073,1272414.3953471,70
1659953051.5073,1272414.3953601,54
1659953051.5073,1272414.3953737,68
1659953051.5073,1272414.3953867,68
1659953051.5073,1272414.3953996,47
1659953051.5073,1272414.3954129,42
1659953051.5073,1272414.3954261,56
1659953051.5073,1272414.3954397,73
1659953051.98602,1272414.3954517,80
1659953051.98602,1272414.3954595,77
1659953051.98602,1272414.3954681,110
1659953051.98602,1272414.3954785,237
1659953051.98602,1272414.3954882,433
1659953051.98602,1272414.3954989,475
1659953051.98602,1272414.3955081,141
1659953051.98602,1272414.3955139,-216
1659953051.98602,1272414.3955218,-113
1659953051.98602,1272414.3955289,127
1659953051.98602,1272414.395533,117
1659953051.98602,1272414.3955458,77
1659953051.98602,1272414.3955599,117
1659953051.98602,1272414.3955728,131
1659953051.98602,1272414.3955859,134
1659953051.98602,1272414.3956,120
1659953051.98602,1272414.3956155,80
1659953051.98602,1272414.3956277,82
1659953051.98602,1272414.3956351,131
1659953051.98602,1272414.3956426,150
1659953051.98602,1272414.3956517,122
1659953051.98602,1272414.3956568,122
1659953051.98602,1272414.3956701,153
1659953051.98602,1272414.395683,155
1659953051.98602,1272414.3956926,134
1659953051.98602,1272414.3957058,148
1659953051.98602,1272414.39572,190
1659953051.98602,1272414.3957323,202
1659953051.98602,1272414.3957401,214
1659953051.98602,1272414.3957446,237
1659953051.98602,1272414.881389,230
1659953051.98602,1272414.8814095,207
1659953051.98602,1272414.8814175,212
1659953051.98602,1272414.8814233,230
1659953051.98602,1272414.8814272,228
1659953051.98602,1272414.8814311,200
1659953051.98602,1272414.8814348,181
1659953051.98602,1272414.8814386,171
1659953051.98602,1272414.8814446,143
1659953051.98602,1272414.8814486,113
1659953051.98602,1272414.8814544,96
1659953051.98602,1272414.8814583,84
1659953051.98602,1272414.8814622,77
1659953051.98602,1272414.881468,65
1659953051.98602,1272414.8814717,44
1659953051.98602,1272414.881477,42
1659953051.98602,1272414.8814817,56
1659953051.98602,1272414.8814872,51
1659953051.98602,1272414.8814928,49
1659953051.98602,1272414.8814978,61
1659953051.99799,1272414.8815033,58
1659953051.99799,1272414.881507,47
1659953051.99799,1272414.8815121,49
1659953051.99799,1272414.8815157,65
1659953051.99799,1272414.8815194,65
1659953051.99799,1272414.8815243,56
1659953051.99799,1272414.8815291,63
1659953051.99799,1272414.8815343,70
1659953051.99799,1272414.8815378,56
1659953051.99799,1272414.8815428,51
1659953051.99799,1272414.8815546,65
1659953051.99799,1272414.8815662,70
1659953051.99799,1272414.8815785,54
1659953051.99799,1272414.881588,40
1659953051.99799,1272414.8815906,37
1659953051.99799,1272414.8815928,44
1659953051.99799,1272414.8815949,51
1659953051.99799,1272414.881597,49
1659953051.99799,1272414.8815994,58
1659953051.99799,1272414.8816071,80
1659953051.99799,1272414.8816179,91
1659953051.99799,1272414.8816224,110
1659953051.99799,1272414.8816246,117
1659953051.99799,1272414.8816266,87
1659953052.50777,1272414.8816338,77
1659953052.50777,1272414.8816435,98
1659953052.50777,1272414.8816468,110
1659953052.50777,1272414.8816502,117
1659953052.50777,1272414.8816622,139
1659953052.50777,1272414.881672,160
1659953052.50777,1272414.8816774,174
1659953052.50777,1272414.8816806,294
1659953052.50777,1272414.8816827,567
1659953052.50777,1272414.8816853,629
1659953052.50777,1272414.8816934,181
1659953052.50777,1272414.8817047,-200
1659953052.50777,1272414.8817087,-9
1659953052.50777,1272414.8817108,233
1659953052.50777,1272414.8817142,209
1659953052.50777,1272414.8817212,252
1659953052.50777,1272414.8817322,336
1659953052.50777,1272414.8817371,303
1659953052.50777,1272414.8817394,301
1659953052.50777,1272414.8817415,365
1659953052.50777,1272414.8817437,355
1659953052.50777,1272414.8817507,303
1659953052.50777,1272414.8817616,303
1659953052.50777,1272414.8817664,306
1659953052.50777,1272414.8817685,273
1659953052.50777,1272414.8817706,256
1659953052.50777,1272414.8817727,259
1659953052.50777,1272414.8817789,223
1659953052.50777,1272414.8817901,207
1659953052.50777,1272415.4184466,226
1659953052.50777,1272415.4184675,221
1659953052.50777,1272415.418482,221
1659953052.50777,1272415.418492,249
1659953052.50777,1272415.418501,266
1659953052.50777,1272415.4185085,299
1659953052.50777,1272415.4185172,348
1659953052.50777,1272415.4185276,365
1659953052.50777,1272415.4185384,351
1659953052.50777,1272415.4185447,346
1659953052.50777,1272415.4185571,358
1659953052.50777,1272415.418568,360
1659953052.50777,1272415.4185765,332
1659953052.50777,1272415.4185848,287
1659953052.50777,1272415.4185974,242
1659953052.50777,1272415.4186062,209
1659953052.50777,1272415.4186107,186
