Time,TimeLsl,Value
1659950255.88198,1269617.2782034,140
1659950255.88198,1269617.2782261,123
1659950255.88198,1269617.278241,101
1659950255.88198,1269617.2782498,94
1659950255.88198,1269617.2782645,65
1659950255.88198,1269617.2782778,29
1659950255.88198,1269617.27829,14
1659950255.88198,1269617.2782988,-14
1659950255.88198,1269617.2783054,-36
1659950255.88198,1269617.278312,-12
1659950255.88198,1269617.2783167,-4
1659950255.88198,1269617.2783243,-19
1659950255.88198,1269617.2783292,-14
1659950255.88198,1269617.2783358,-16
1659950255.88198,1269617.278342,-45
1659950255.88198,1269617.2783481,-48
1659950255.88198,1269617.2783537,-9
1659950255.88198,1269617.2783599,19
1659950255.88198,1269617.2783643,21
1659950255.88198,1269617.2783698,4
1659950255.88198,1269617.2783784,-19
1659950255.88198,1269617.2783833,-45
1659950255.88198,1269617.2783944,-53
1659950255.88198,1269617.2784098,-36
1659950255.88198,1269617.278423,-36
1659950255.88198,1269617.2784306,-74
1659950255.88198,1269617.2784367,-108
1659950255.88198,1269617.2784408,-26
1659950255.88198,1269617.2784467,140
1659950255.88198,1269617.2784508,103
1659950255.88198,1269617.2784548,-224
1659950255.88198,1269617.2784588,-335
1659950255.88198,1269617.2784636,-55
1659950255.88198,1269617.2784685,89
1659950255.88198,1269617.2784726,2
1659950255.88198,1269617.2784767,14
1659950255.88198,1269617.2784829,82
1659950255.88198,1269617.2784914,72
1659950255.88198,1269617.2784986,67
1659950255.88198,1269617.2785065,89
1659950255.88198,1269617.2785132,96
1659950255.88198,1269617.2785198,108
1659950255.88198,1269617.2785267,137
1659950255.88198,1269617.2785335,164
1659950255.88198,1269617.2785403,183
1659950255.88198,1269617.2785462,193
1659950255.88198,1269617.2785512,210
1659950255.88198,1269617.278558,241
1659950255.88198,1269617.2785673,277
1659950255.88198,1269617.2785737,299
1659950256.00317,1269617.2785827,311
1659950256.00317,1269617.2785919,314
1659950256.00317,1269617.2786003,294
1659950256.00317,1269617.2786078,282
1659950256.00317,1269617.278615,290
1659950256.00317,1269617.2786207,270
1659950256.00317,1269617.2786245,232
1659950256.00317,1269617.2786285,207
1659950256.00317,1269617.2786342,195
1659950256.00317,1269617.2786379,186
1659950256.00317,1269617.2786435,183
1659950256.00317,1269617.2786474,183
1659950256.00317,1269617.2786512,171
1659950256.00317,1269617.278655,171
1659950256.00317,1269617.2786585,174
1659950256.00317,1269617.278662,164
1659950256.00317,1269617.2786658,154
1659950256.00317,1269617.2786693,161
1659950256.00317,1269617.2786731,195
1659950256.00317,1269617.2786825,229
1659950256.00317,1269617.2786858,212
1659950256.00317,1269617.2786914,171
1659950256.00317,1269617.2786953,164
1659950256.00317,1269617.9128557,171
1659950256.00317,1269617.912868,166
1659950256.00317,1269617.9128716,157
1659950256.00317,1269617.9128737,120
1659950256.00317,1269617.9128757,41
1659950256.00317,1269617.9128776,12
1659950256.00317,1269617.9128794,123
1659950256.00317,1269617.9128813,263
1659950256.00317,1269617.9128832,145
1659950256.00317,1269617.9128852,-174
1659950256.00317,1269617.9128871,-190
1659950256.00317,1269617.9128889,79
1659950256.00317,1269617.9128908,132
1659950256.00317,1269617.9128937,31
1659950256.00317,1269617.9128993,53
1659950256.00317,1269617.9129064,96
1659950256.00317,1269617.9129103,70
1659950256.00317,1269617.912916,65
1659950256.00317,1269617.9129211,94
1659950256.00317,1269617.9129268,99
1659950256.00317,1269617.9129379,101
1659950256.00317,1269617.9129429,108
1659950256.00317,1269617.9129449,116
1659950256.00317,1269617.9129512,128
1659950256.00317,1269617.9129627,147
1659950256.00317,1269617.9129738,183
1659950256.00317,1269617.9129799,212
1659950256.05403,1269617.9129918,224
1659950256.05403,1269617.9130029,232
1659950256.05403,1269617.9130085,232
1659950256.05403,1269617.9130108,227
1659950256.05403,1269617.9130175,222
1659950256.05403,1269617.91303,205
1659950256.05403,1269617.9130383,178
1659950256.05403,1269617.9130408,154
1659950256.05403,1269617.9130437,128
1659950256.05403,1269617.9130551,106
1659950256.05403,1269617.9130696,101
1659950256.05403,1269617.9130833,103
1659950256.05403,1269617.9130949,94
1659950256.05403,1269617.9131046,82
1659950256.05403,1269617.9131126,70
1659950256.05403,1269617.9131173,53
1659950256.05403,1269617.9131237,48
1659950256.05403,1269617.9131299,62
1659950256.05403,1269617.913141,74
1659950256.05403,1269617.9131476,74
1659950256.05403,1269617.9131511,106
1659950256.05403,1269617.9131542,132
1659950256.05403,1269617.9131627,118
1659950256.05403,1269617.9131742,96
1659950256.05403,1269617.913187,79
1659950256.05403,1269617.9131954,53
1659950256.05403,1269617.913209,43
1659950256.05403,1269617.9132213,55
1659950256.05403,1269617.9132348,38
1659950256.05403,1269617.9132487,-19
1659950256.05403,1269617.9132617,-38
1659950256.05403,1269617.9132754,67
1659950256.05403,1269617.9132889,217
1659950256.05403,1269617.9133025,130
1659950256.05403,1269617.9133162,-181
1659950256.05403,1269617.9133234,-222
1659950256.05403,1269617.9133298,48
1659950256.05403,1269617.9133336,130
1659950256.05403,1269617.9133408,45
1659950256.05403,1269617.9133446,67
1659950256.05403,1269617.9133482,103
1659950256.05403,1269617.9133519,91
1659950256.05403,1269617.9133553,106
1659950256.05403,1269617.9133586,123
1659950256.05403,1269617.9133643,113
1659950256.05403,1269617.9133703,108
1659950256.05403,1269618.4480195,116
1659950256.05403,1269618.4480394,125
1659950256.31908,1269618.4480564,140
1659950256.31908,1269618.4480686,149
1659950256.31908,1269618.4480764,161
1659950256.31908,1269618.4480843,186
1659950256.31908,1269618.44809,200
1659950256.31908,1269618.4480942,203
1659950256.31908,1269618.4480988,212
1659950256.31908,1269618.4481038,198
1659950256.31908,1269618.4481091,166
1659950256.31908,1269618.4481138,166
1659950256.31908,1269618.4481203,149
1659950256.31908,1269618.4481311,82
1659950256.31908,1269618.4481427,16
1659950256.31908,1269618.4481557,16
1659950256.31908,1269618.4481639,31
1659950256.31908,1269618.4481713,-2
1659950256.31908,1269618.4481773,-38
1659950256.31908,1269618.4481843,-48
1659950256.31908,1269618.448188,-70
1659950256.31908,1269618.4481934,-101
1659950256.31908,1269618.4481978,-99
1659950256.31908,1269618.4482056,-82
1659950256.31908,1269618.4482189,-101
1659950256.31908,1269618.4482318,-123
1659950256.31908,1269618.4482458,-106
1659950256.31908,1269618.4482554,-79
1659950256.31908,1269618.4482628,-94
1659950256.31908,1269618.4482684,-137
1659950256.31908,1269618.4482764,-159
1659950256.31908,1269618.4482836,-161
1659950256.31908,1269618.4482909,-176
1659950256.31908,1269618.4483014,-186
1659950256.31908,1269618.4483126,-195
1659950256.31908,1269618.4483273,-224
1659950256.31908,1269618.4483409,-248
1659950256.31908,1269618.4483542,-171
1659950256.31908,1269618.4483672,-16
1659950256.31908,1269618.4483795,-45
1659950256.31908,1269618.4483883,-398
1659950256.31908,1269618.4483923,-621
1659950256.31908,1269618.4483986,-386
1659950256.31908,1269618.4484025,-178
1659950256.31908,1269618.448407,-248
1659950256.31908,1269618.4484142,-273
1659950256.31908,1269618.4484179,-200
1659950256.31908,1269618.4484217,-203
1659950256.31908,1269618.4484271,-234
1659950256.31908,1269618.4484315,-203
1659950256.31908,1269618.4484352,-166
1659950256.31908,1269618.4484407,-176
1659950256.374,1269618.448448,-166
1659950256.374,1269618.4484615,-135
1659950256.374,1269618.4484765,-125
1659950256.374,1269618.4484877,-94
1659950256.374,1269618.4484968,-53
1659950256.374,1269618.4485035,-45
1659950256.374,1269618.4485178,-16
1659950256.374,1269618.4485312,38
1659950256.374,1269618.4485438,62
1659950256.374,1269618.4485552,41
1659950256.374,1269618.4485606,24
1659950256.374,1269618.4485719,26
1659950256.374,1269618.4485831,0
1659950256.374,1269618.448596,-45
1659950256.374,1269618.4486059,-67
1659950256.374,1269618.4486148,-87
1659950256.374,1269618.4486232,-118
1659950256.374,1269618.4486307,-130
1659950256.374,1269618.4486341,-130
1659950256.374,1269618.4486362,-142
1659950256.374,1269618.4486396,-157
1659950256.374,1269619.0821414,-159
1659950256.374,1269619.0821615,-161
1659950256.374,1269619.0821767,-176
1659950256.65803,1269619.0821894,-190
1659950256.65803,1269619.0822,-198
1659950256.65803,1269619.0822571,-186
1659950256.65803,1269619.0822677,-154
1659950256.65803,1269619.0822742,-135
1659950256.65803,1269619.0822802,-145
1659950256.65803,1269619.0822855,-169
1659950256.65803,1269619.08229,-212
1659950256.65803,1269619.0822965,-244
1659950256.65803,1269619.0823029,-219
1659950256.65803,1269619.0823061,-176
1659950256.65803,1269619.0823092,-186
1659950256.65803,1269619.0823122,-241
1659950256.65803,1269619.0823156,-224
1659950256.65803,1269619.0823184,-94
1659950256.65803,1269619.0823223,16
1659950256.65803,1269619.0823256,-149
1659950256.65803,1269619.0823303,-483
1659950256.65803,1269619.0823373,-442
1659950256.65803,1269619.0823413,-125
1659950256.65803,1269619.0823493,-84
1659950256.65803,1269619.0823577,-169
1659950256.65803,1269619.0823665,-89
1659950256.65803,1269619.0823724,-21
1659950256.65803,1269619.0823802,-45
1659950256.65803,1269619.0823872,-38
1659950256.65803,1269619.082394,-4
1659950256.65803,1269619.0823972,-2
1659950256.65803,1269619.0824057,-9
1659950256.65803,1269619.0824123,19
1659950256.65803,1269619.0824153,84
1659950256.65803,1269619.0824183,120
1659950256.65803,1269619.0824212,142
1659950256.65803,1269619.0824241,193
1659950256.65803,1269619.082427,232
1659950256.65803,1269619.0824299,256
1659950256.65803,1269619.0824327,280
1659950256.65803,1269619.0824356,306
1659950256.65803,1269619.0824384,319
1659950256.65803,1269619.0824413,299
1659950256.65803,1269619.0824442,292
1659950256.65803,1269619.0824471,311
1659950256.65803,1269619.08245,287
1659950256.65803,1269619.0824528,234
1659950256.65803,1269619.0824558,227
1659950256.65803,1269619.0824588,241
1659950256.65803,1269619.0824616,219
1659950256.65803,1269619.0824643,203
1659950256.65803,1269619.0824672,219
1659950256.65803,1269619.0824701,239
1659950256.672,1269619.082473,244
1659950256.672,1269619.0824759,244
1659950256.672,1269619.0824788,224
1659950256.672,1269619.0824818,200
1659950256.672,1269619.0824847,198
1659950256.672,1269619.0824875,217
1659950256.672,1269619.0824904,251
1659950256.672,1269619.0824934,256
1659950256.672,1269619.0824986,224
1659950256.672,1269619.0825121,215
1659950256.672,1269619.082521,219
1659950256.672,1269619.0825275,195
1659950256.672,1269619.0825353,174
1659950256.672,1269619.0825491,178
1659950256.672,1269619.0825617,147
1659950256.672,1269619.082571,84
1659950256.672,1269619.0825766,125
1659950256.672,1269619.0825822,292
1659950256.672,1269619.0825889,352
1659950256.672,1269619.0825922,77
1659950256.672,1269619.5706667,-183
1659950256.672,1269619.5706847,16
1659950256.672,1269619.5706908,265
1659950256.672,1269619.570697,193
1659950257.19273,1269619.5707003,147
1659950257.19273,1269619.570705,232
1659950257.19273,1269619.5707096,227
1659950257.19273,1269619.5707152,176
1659950257.19273,1269619.5707227,198
1659950257.19273,1269619.5707289,229
1659950257.19273,1269619.5707339,217
1659950257.19273,1269619.5707381,215
1659950257.19273,1269619.5707449,239
1659950257.19273,1269619.5707517,253
1659950257.19273,1269619.5707586,234
1659950257.19273,1269619.5707657,234
1659950257.19273,1269619.5707695,273
1659950257.19273,1269619.5707759,306
1659950257.19273,1269619.5707811,309
1659950257.19273,1269619.5707859,294
1659950257.19273,1269619.5707892,285
1659950257.19273,1269619.5707958,270
1659950257.19273,1269619.5708033,251
1659950257.19273,1269619.5708082,232
1659950257.19273,1269619.5708127,207
1659950257.19273,1269619.570817,169
1659950257.19273,1269619.5708211,118
1659950257.19273,1269619.5708252,111
1659950257.19273,1269619.5708293,132
1659950257.19273,1269619.5708331,118
1659950257.19273,1269619.5708373,94
1659950257.19273,1269619.5708421,91
1659950257.19273,1269619.5708461,84
1659950257.19273,1269619.5708536,62
1659950257.19273,1269619.5708579,41
1659950257.19273,1269619.5708653,26
1659950257.19273,1269619.57087,12
1659950257.19273,1269619.5708764,24
1659950257.19273,1269619.570881,65
1659950257.19273,1269619.5708934,82
1659950257.19273,1269619.5709,74
1659950257.19273,1269619.570906,82
1659950257.19273,1269619.570915,84
1659950257.19273,1269619.5709212,60
1659950257.19273,1269619.5709276,48
1659950257.19273,1269619.5709344,58
1659950257.19273,1269619.5709747,50
1659950257.19273,1269619.5709835,7
1659950257.19273,1269619.5709897,-26
1659950257.19273,1269619.5709958,65
1659950257.19273,1269619.5710018,246
1659950257.19273,1269619.5710079,169
1659950257.19273,1269619.571014,-190
1659950257.19273,1269619.5710201,-282
1659950257.2057,1269619.5710263,-7
1659950257.2057,1269619.5710331,118
1659950257.2057,1269619.5710395,45
1659950257.2057,1269619.5710456,38
1659950257.2057,1269619.5710516,58
1659950257.2057,1269619.571296,36
1659950257.2057,1269619.5713178,31
1659950257.2057,1269619.5713271,43
1659950257.2057,1269619.5713341,48
1659950257.2057,1269619.5713392,45
1659950257.2057,1269619.5713446,45
1659950257.2057,1269619.5713493,60
1659950257.2057,1269619.5713545,84
1659950257.2057,1269619.5713613,99
1659950257.2057,1269619.5713681,111
1659950257.2057,1269619.5713739,123
1659950257.2057,1269619.5713775,128
1659950257.2057,1269619.5713822,123
1659950257.2057,1269619.5713873,116
1659950257.2057,1269620.1068001,108
1659950257.2057,1269620.1068957,84
1659950257.2057,1269620.1069041,36
1659950257.2057,1269620.1069105,-14
1659950257.2057,1269620.1069148,-45
1659950257.73002,1269620.1069188,-108
1659950257.73002,1269620.1069227,-181
1659950257.73002,1269620.1069265,-198
1659950257.73002,1269620.1069302,-203
1659950257.73002,1269620.1069339,-244
1659950257.73002,1269620.1069424,-299
1659950257.73002,1269620.1069485,-314
1659950257.73002,1269620.1069552,-277
1659950257.73002,1269620.1069614,-268
1659950257.73002,1269620.1070009,-292
1659950257.73002,1269620.1070075,-314
1659950257.73002,1269620.1070112,-343
1659950257.73002,1269620.1070146,-357
1659950257.73002,1269620.1070187,-333
1659950257.73002,1269620.1070237,-311
1659950257.73002,1269620.1070297,-331
1659950257.73002,1269620.1070359,-357
1659950257.73002,1269620.1070419,-357
1659950257.73002,1269620.1070487,-333
1659950257.73002,1269620.1070518,-304
1659950257.73002,1269620.107059,-294
1659950257.73002,1269620.1070664,-319
1659950257.73002,1269620.1070729,-348
1659950257.73002,1269620.1070794,-265
1659950257.73002,1269620.107086,-82
1659950257.73002,1269620.1070895,-67
1659950257.73002,1269620.1070925,-391
1659950257.73002,1269620.1070954,-638
1659950257.73002,1269620.1070982,-420
1659950257.73002,1269620.1071012,-169
1659950257.73002,1269620.1071144,-212
1659950257.73002,1269620.1071228,-248
1659950257.73002,1269620.107135,-178
1659950257.73002,1269620.1071438,-166
1659950257.73002,1269620.1071565,-183
1659950257.73002,1269620.1071635,-176
1659950257.73002,1269620.1071709,-171
1659950257.73002,1269620.1071764,-166
1659950257.73002,1269620.1071891,-140
1659950257.73002,1269620.1071982,-108
1659950257.73002,1269620.1072046,-89
1659950257.73002,1269620.1072108,-72
1659950257.73002,1269620.1072167,-58
1659950257.73002,1269620.1072196,-31
1659950257.73002,1269620.1072225,19
1659950257.73002,1269620.1072256,48
1659950257.73002,1269620.107231,36
1659950257.73002,1269620.1072345,19
1659950257.73002,1269620.1072378,26
1659950257.73002,1269620.1072429,19
1659950257.74198,1269620.1072464,-2
1659950257.74198,1269620.1072493,-12
1659950257.74198,1269620.1072525,-33
1659950257.74198,1269620.1072553,-74
1659950257.74198,1269620.1072583,-101
1659950257.74198,1269620.1072613,-108
1659950257.74198,1269620.1072641,-111
1659950257.74198,1269620.1072673,-113
1659950257.74198,1269620.1072703,-120
1659950257.74198,1269620.1072731,-120
1659950257.74198,1269620.1072766,-116
1659950257.74198,1269620.1072828,-135
1659950257.74198,1269620.1072858,-161
1659950257.74198,1269620.1072887,-154
1659950257.74198,1269620.1072916,-125
1659950257.74198,1269620.1072946,-101
1659950257.74198,1269620.1072974,-91
1659950257.74198,1269620.1073002,-108
1659950257.74198,1269620.6429729,-135
1659950257.74198,1269620.6429909,-142
1659950257.74198,1269620.6430036,-123
1659950257.74198,1269620.6430088,-108
1659950257.74198,1269620.6430125,-111
1659950257.74198,1269620.6430146,-142
1659950258.36023,1269620.6430169,-193
1659950258.36023,1269620.643019,-149
1659950258.36023,1269620.643021,31
1659950258.36023,1269620.643023,94
1659950258.36023,1269620.6430249,-215
1659950258.36023,1269620.6430268,-519
1659950258.36023,1269620.6430307,-335
1659950258.36023,1269620.6430393,-53
1659950258.36023,1269620.6430464,-94
1659950258.36023,1269620.6430584,-147
1659950258.36023,1269620.6431005,-67
1659950258.36023,1269620.6431103,-48
1659950258.36023,1269620.6431182,-60
1659950258.36023,1269620.6431236,-31
1659950258.36023,1269620.6431281,-31
1659950258.36023,1269620.6431328,-36
1659950258.36023,1269620.6431383,-7
1659950258.36023,1269620.6431531,26
1659950258.36023,1269620.6431584,43
1659950258.36023,1269620.6431638,58
1659950258.36023,1269620.6431692,74
1659950258.36023,1269620.6431746,103
1659950258.36023,1269620.6431784,132
1659950258.36023,1269620.6431814,157
1659950258.36023,1269620.6431843,161
1659950258.36023,1269620.6431871,178
1659950258.36023,1269620.6431901,210
1659950258.36023,1269620.6431932,171
1659950258.36023,1269620.6431991,118
1659950258.36023,1269620.6432054,132
1659950258.36023,1269620.6432099,125
1659950258.36023,1269620.6432129,82
1659950258.36023,1269620.6432158,70
1659950258.36023,1269620.6432187,67
1659950258.36023,1269620.6432216,65
1659950258.36023,1269620.6432244,74
1659950258.36023,1269620.6432272,58
1659950258.36023,1269620.6432301,16
1659950258.36023,1269620.643233,19
1659950258.36023,1269620.6432358,33
1659950258.36023,1269620.6432386,12
1659950258.36023,1269620.6432414,12
1659950258.36023,1269620.6432442,53
1659950258.36023,1269620.6432471,89
1659950258.36023,1269620.64325,91
1659950258.36023,1269620.6432529,60
1659950258.36023,1269620.6432557,45
1659950258.36023,1269620.6432586,65
1659950258.36023,1269620.6432616,74
1659950258.36023,1269620.6432644,82
1659950258.3722,1269620.6432673,103
1659950258.3722,1269620.6432701,101
1659950258.3722,1269620.643273,58
1659950258.3722,1269620.6432757,84
1659950258.3722,1269620.6432787,234
1659950258.3722,1269620.6432815,321
1659950258.3722,1269620.6432845,108
1659950258.3722,1269620.6432873,-154
1659950258.3722,1269620.6432903,0
1659950258.3722,1269620.6432932,292
1659950258.3722,1269620.6432961,290
1659950258.3722,1269620.6432991,234
1659950258.3722,1269620.6433021,302
1659950258.3722,1269620.643305,323
1659950258.3722,1269620.6433079,302
1659950258.3722,1269620.6433268,314
1659950258.3722,1269620.6433389,316
1659950258.3722,1269621.2758222,311
1659950258.3722,1269621.2758406,331
1659950258.3722,1269621.2758457,343
1659950258.3722,1269621.2758517,335
1659950258.3722,1269621.2758554,328
1659950258.3722,1269621.2758591,348
1659950258.3722,1269621.2758645,393
1659950258.90487,1269621.2758685,425
1659950258.90487,1269621.2758726,442
1659950258.90487,1269621.275876,451
1659950258.90487,1269621.2758794,444
1659950258.90487,1269621.2758833,406
1659950258.90487,1269621.2758869,381
1659950258.90487,1269621.2758922,372
1659950258.90487,1269621.2758965,338
1659950258.90487,1269621.2758998,299
1659950258.90487,1269621.2759037,282
1659950258.90487,1269621.2759072,265
1659950258.90487,1269621.2759125,246
1659950258.90487,1269621.2759204,244
1659950258.90487,1269621.2759265,244
1659950258.90487,1269621.2759394,229
1659950258.90487,1269621.2759536,217
1659950258.90487,1269621.2759654,205
1659950258.90487,1269621.2759702,169
1659950258.90487,1269621.2759724,159
1659950258.90487,1269621.2759756,198
1659950258.90487,1269621.2759891,222
1659950258.90487,1269621.2759986,210
1659950258.90487,1269621.2760013,205
1659950258.90487,1269621.2760034,193
1659950258.90487,1269621.2760055,157
1659950258.90487,1269621.2760075,140
1659950258.90487,1269621.2760095,152
1659950258.90487,1269621.2760115,164
1659950258.90487,1269621.2760137,145
1659950258.90487,1269621.2760216,99
1659950258.90487,1269621.2760326,60
1659950258.90487,1269621.2760362,87
1659950258.90487,1269621.2760393,200
1659950258.90487,1269621.2760467,246
1659950258.90487,1269621.2760595,14
1659950258.90487,1269621.2760664,-227
1659950258.90487,1269621.2760696,-50
1659950258.90487,1269621.2760788,215
1659950258.90487,1269621.2760928,193
1659950258.90487,1269621.2761061,135
1659950258.90487,1269621.2761179,188
1659950258.90487,1269621.2761305,200
1659950258.90487,1269621.276142,176
1659950258.90487,1269621.2761564,190
1659950258.90487,1269621.2761696,207
1659950258.90487,1269621.2761827,207
1659950258.90487,1269621.276196,215
1659950258.90487,1269621.2762091,232
1659950258.90487,1269621.2762223,234
1659950258.90487,1269621.2762355,234
1659950258.91684,1269621.2762485,253
1659950258.91684,1269621.2762628,282
1659950258.91684,1269621.2762719,292
1659950258.91684,1269621.2762813,292
1659950258.91684,1269621.2762872,319
1659950258.91684,1269621.2762909,340
1659950258.91684,1269621.2762945,299
1659950258.91684,1269621.2762985,256
1659950258.91684,1269621.2763016,234
1659950258.91684,1269621.2763076,193
1659950258.91684,1269621.2763109,140
1659950258.91684,1269621.2763139,96
1659950258.91684,1269621.2763172,60
1659950258.91684,1269621.2763203,41
1659950258.91684,1269621.2763233,26
1659950258.91684,1269621.2763264,12
1659950258.91684,1269621.8126925,-21
1659950258.91684,1269621.8127096,-55
1659950258.91684,1269621.8127177,-84
1659950258.91684,1269621.8127236,-103
1659950258.91684,1269621.8127287,-113
1659950258.91684,1269621.8127327,-113
1659950258.91684,1269621.8127387,-99
1659950258.91684,1269621.8127434,-77
1659950259.48902,1269621.8127484,-101
1659950259.48902,1269621.8127519,-142
1659950259.48902,1269621.8127552,-152
1659950259.48902,1269621.8127587,-152
1659950259.48902,1269621.8127666,-161
1659950259.48902,1269621.8127769,-178
1659950259.48902,1269621.8127844,-200
1659950259.48902,1269621.8127923,-227
1659950259.48902,1269621.8128007,-224
1659950259.48902,1269621.8128076,-89
1659950259.48902,1269621.8128159,91
1659950259.48902,1269621.81282,-70
1659950259.48902,1269621.8128252,-543
1659950259.48902,1269621.8128304,-640
1659950259.48902,1269621.8128343,-277
1659950259.48902,1269621.8128398,-130
1659950259.48902,1269621.8128442,-224
1659950259.48902,1269621.8128496,-195
1659950259.48902,1269621.8128532,-137
1659950259.48902,1269621.8128571,-161
1659950259.48902,1269621.8128611,-176
1659950259.48902,1269621.8128647,-159
1659950259.48902,1269621.8128697,-154
1659950259.48902,1269621.8128732,-154
1659950259.48902,1269621.8128768,-128
1659950259.48902,1269621.812882,-101
1659950259.48902,1269621.8128867,-84
1659950259.48902,1269621.8128925,-55
1659950259.48902,1269621.812897,-24
1659950259.48902,1269621.8129035,-9
1659950259.48902,1269621.8129072,12
1659950259.48902,1269621.8129132,36
1659950259.48902,1269621.812917,38
1659950259.48902,1269621.8129257,33
1659950259.48902,1269621.8129568,19
1659950259.48902,1269621.8129638,-9
1659950259.48902,1269621.8129721,-21
1659950259.48902,1269621.812977,-24
1659950259.48902,1269621.8129825,-67
1659950259.48902,1269621.8129886,-106
1659950259.48902,1269621.8129934,-108
1659950259.48902,1269621.8129968,-116
1659950259.48902,1269621.813,-132
1659950259.48902,1269621.8130031,-130
1659950259.48902,1269621.813006,-128
1659950259.48902,1269621.8130089,-137
1659950259.48902,1269621.813012,-147
1659950259.48902,1269621.8130167,-166
1659950259.48902,1269621.8130226,-169
1659950259.48902,1269621.8130269,-152
1659950259.49999,1269621.8130299,-130
1659950259.49999,1269621.8130328,-103
1659950259.49999,1269621.8130366,-106
1659950259.49999,1269621.8130399,-142
1659950259.49999,1269621.8130435,-159
1659950259.49999,1269621.8130468,-145
1659950259.49999,1269621.8130501,-149
1659950259.49999,1269621.8131221,-174
1659950259.49999,1269621.8131316,-145
1659950259.49999,1269621.8131361,-111
1659950259.49999,1269621.8131461,-79
1659950259.49999,1269621.8131501,58
1659950259.49999,1269621.8131577,108
1659950259.49999,1269621.8131612,-215
1659950259.49999,1269621.813165,-529
1659950259.49999,1269622.3987799,-326
1659950259.49999,1269622.3987946,-7
1659950259.49999,1269622.3987981,-16
1659950259.49999,1269622.3988032,-74
1659950259.49999,1269622.3988059,-19
1659950259.49999,1269622.3988086,-9
1659950259.49999,1269622.3988112,-33
1659950259.49999,1269622.3988138,-14
1659950259.49999,1269622.3988164,24
1659950260.22086,1269622.398819,33
1659950260.22086,1269622.3988214,12
1659950260.22086,1269622.3988237,12
1659950260.22086,1269622.3988261,45
1659950260.22086,1269622.398828,60
1659950260.22086,1269622.3988299,60
1659950260.22086,1269622.3988318,70
1659950260.22086,1269622.3988338,77
1659950260.22086,1269622.3988357,99
1659950260.22086,1269622.3988377,137
1659950260.22086,1269622.3988396,157
1659950260.22086,1269622.3988415,137
1659950260.22086,1269622.3988434,99
1659950260.22086,1269622.3988453,60
1659950260.22086,1269622.3988472,31
1659950260.22086,1269622.398849,9
1659950260.22086,1269622.3988511,-9
1659950260.22086,1269622.3988534,-12
1659950260.22086,1269622.3988561,-12
1659950260.22086,1269622.3988584,-31
1659950260.22086,1269622.3988607,-29
1659950260.22086,1269622.398863,-9
1659950260.22086,1269622.3988652,-19
1659950260.22086,1269622.3988673,-26
1659950260.22086,1269622.3988694,-16
1659950260.22086,1269622.3988721,-29
1659950260.22086,1269622.3988743,-24
1659950260.22086,1269622.3988765,29
1659950260.22086,1269622.3988787,53
1659950260.22086,1269622.3988808,21
1659950260.22086,1269622.3988829,-4
1659950260.22086,1269622.398885,-9
1659950260.22086,1269622.398887,-9
1659950260.22086,1269622.3988892,-9
1659950260.22086,1269622.3988914,-7
1659950260.22086,1269622.3988935,2
1659950260.22086,1269622.3988955,-19
1659950260.22086,1269622.3988976,-31
1659950260.22086,1269622.3988998,74
1659950260.22086,1269622.398902,193
1659950260.22086,1269622.3989041,43
1659950260.22086,1269622.3989063,-261
1659950260.22086,1269622.3989085,-205
1659950260.22086,1269622.3989107,101
1659950260.22086,1269622.3989129,149
1659950260.22086,1269622.398915,72
1659950260.22086,1269622.398917,135
1659950260.22086,1269622.398919,186
1659950260.22086,1269622.3989211,157
1659950260.22086,1269622.3989232,164
1659950260.23312,1269622.3989254,203
1659950260.23312,1269622.3989278,212
1659950260.23312,1269622.39893,217
1659950260.23312,1269622.3989322,232
1659950260.23312,1269622.3989344,241
1659950260.23312,1269622.3989365,265
1659950260.23312,1269622.3989387,297
1659950260.23312,1269622.3989408,319
1659950260.23312,1269622.3989429,348
1659950260.23312,1269622.398945,379
1659950260.23312,1269622.3989472,386
1659950260.23312,1269622.3989492,384
1659950260.23312,1269622.3989512,386
1659950260.23312,1269622.3989532,377
1659950260.23312,1269623.1281259,350
1659950260.23312,1269623.1281452,314
1659950260.23312,1269623.1281556,277
1659950260.23312,1269623.1281661,253
1659950260.23312,1269623.1281753,244
1659950260.23312,1269623.1281862,236
1659950260.23312,1269623.1281975,210
1659950260.23312,1269623.1282079,178
1659950260.23312,1269623.1282138,166
1659950260.23312,1269623.1282184,169
1659950260.61299,1269623.1282215,164
1659950260.61299,1269623.1282243,149
1659950260.61299,1269623.128233,135
1659950260.61299,1269623.1282404,125
1659950260.61299,1269623.1282454,116
1659950260.61299,1269623.1282497,130
1659950260.61299,1269623.1282538,147
1659950260.61299,1269623.1282584,135
1659950260.61299,1269623.1282637,106
1659950260.61299,1269623.1282692,74
1659950260.61299,1269623.1282756,70
1659950260.61299,1269623.128283,94
1659950260.61299,1269623.1282935,87
1659950260.61299,1269623.1283024,24
1659950260.61299,1269623.1283117,9
1659950260.61299,1269623.1283187,111
1659950260.61299,1269623.1283295,210
1659950260.61299,1269623.1283376,87
1659950260.61299,1269623.1283464,-200
1659950260.61299,1269623.1283526,-205
1659950260.61299,1269623.1283587,79
1659950260.61299,1269623.1283627,171
1659950260.61299,1269623.1283665,82
1659950260.61299,1269623.1283744,103
1659950260.61299,1269623.1283806,152
1659950260.61299,1269623.1283849,130
1659950260.61299,1269623.128387,128
1659950260.61299,1269623.1283896,149
1659950260.61299,1269623.1283916,147
1659950260.61299,1269623.1283977,145
1659950260.61299,1269623.1284072,157
1659950260.61299,1269623.1284116,164
1659950260.61299,1269623.1284171,183
1659950260.61299,1269623.128422,205
1659950260.61299,1269623.1284287,217
1659950260.61299,1269623.1284417,236
1659950260.61299,1269623.1284535,253
1659950260.61299,1269623.1284663,258
1659950260.61299,1269623.1285223,256
1659950260.61299,1269623.1285371,261
1659950260.61299,1269623.1285508,265
1659950260.61299,1269623.128564,248
1659950260.61299,1269623.1285773,210
1659950260.61299,1269623.1285904,186
1659950260.61299,1269623.1286036,161
1659950260.61299,1269623.1286167,120
1659950260.61299,1269623.1286298,87
1659950260.61299,1269623.1286432,58
1659950260.61299,1269623.1286565,38
1659950260.61299,1269623.1286696,24
1659950260.62496,1269623.1286832,-4
1659950260.62496,1269623.1286962,-29
1659950260.62496,1269623.1287047,-31
1659950260.62496,1269623.1287073,-26
1659950260.62496,1269623.1287095,-29
1659950260.62496,1269623.1287115,-36
1659950260.62496,1269623.1287136,-38
1659950260.62496,1269623.1287156,-55
1659950260.62496,1269623.1287176,-87
1659950260.62496,1269623.1287196,-116
1659950260.62496,1269623.1287216,-135
1659950260.62496,1269623.1287237,-140
1659950260.62496,1269623.1287257,-137
1659950260.62496,1269623.5202795,-154
1659950260.62496,1269623.5202981,-190
1659950260.62496,1269623.5203025,-176
1659950260.62496,1269623.52031,-29
1659950260.62496,1269623.5203154,87
1659950260.62496,1269623.5203214,-147
1659950260.62496,1269623.5203253,-543
1659950260.62496,1269623.520329,-497
1659950260.62496,1269623.5203343,-154
1659950260.62496,1269623.520338,-91
1659950260.62496,1269623.5203417,-203
1659950261.1462,1269623.5203472,-176
1659950261.1462,1269623.5203507,-106
1659950261.1462,1269623.5203548,-118
1659950261.1462,1269623.5203586,-128
1659950261.1462,1269623.5203623,-101
1659950261.1462,1269623.520366,-99
1659950261.1462,1269623.5203696,-120
1659950261.1462,1269623.5203733,-106
1659950261.1462,1269623.5203771,-67
1659950261.1462,1269623.5203809,-45
1659950261.1462,1269623.5203847,-24
1659950261.1462,1269623.5203884,-2
1659950261.1462,1269623.5203961,19
1659950261.1462,1269623.5203998,55
1659950261.1462,1269623.5204036,87
1659950261.1462,1269623.5204073,96
1659950261.1462,1269623.5204109,94
1659950261.1462,1269623.5204187,70
1659950261.1462,1269623.5204226,38
1659950261.1462,1269623.5204283,29
1659950261.1462,1269623.5204319,12
1659950261.1462,1269623.5204356,-21
1659950261.1462,1269623.5204412,-45
1659950261.1462,1269623.5204449,-62
1659950261.1462,1269623.5204504,-74
1659950261.1462,1269623.5204543,-74
1659950261.1462,1269623.5204595,-72
1659950261.1462,1269623.5204639,-70
1659950261.1462,1269623.5204691,-60
1659950261.1462,1269623.5204738,-58
1659950261.1462,1269623.5204803,-87
1659950261.1462,1269623.520484,-108
1659950261.1462,1269623.52049,-70
1659950261.1462,1269623.5204945,-45
1659950261.1462,1269623.5205006,-74
1659950261.1462,1269623.5205053,-94
1659950261.1462,1269623.5205111,-94
1659950261.1462,1269623.520516,-103
1659950261.1462,1269623.5205224,-99
1659950261.1462,1269623.5205293,-77
1659950261.1462,1269623.5205352,-84
1659950261.1462,1269623.5205394,-125
1659950261.1462,1269623.5205441,-108
1659950261.1462,1269623.52055,21
1659950261.1462,1269623.5205543,108
1659950261.1462,1269623.5205587,-89
1659950261.1462,1269623.5205642,-364
1659950261.1462,1269623.5205688,-244
1659950261.1462,1269623.5205732,50
1659950261.1462,1269623.520577,60
1659950261.15816,1269623.5205803,-16
1659950261.15816,1269623.520584,41
1659950261.15816,1269623.5205877,79
1659950261.15816,1269623.5205928,60
1659950261.15816,1269623.5205987,70
1659950261.15816,1269623.5206038,96
1659950261.15816,1269623.5206121,101
1659950261.15816,1269623.520617,111
1659950261.15816,1269623.520622,135
1659950261.15816,1269623.5206252,145
1659950261.15816,1269623.5206285,145
1659950261.15816,1269623.5206315,152
1659950261.15816,1269624.0550496,174
1659950261.15816,1269624.0550615,205
1659950261.15816,1269624.0550648,232
1659950261.15816,1269624.0550691,244
1659950261.15816,1269624.0550714,239
1659950261.15816,1269624.0550737,232
1659950261.15816,1269624.055076,215
1659950261.15816,1269624.0550781,181
1659950261.15816,1269624.0550802,152
1659950261.15816,1269624.0550821,145
1659950261.15816,1269624.0550852,135
1659950261.15816,1269624.0550876,125
1659950261.72403,1269624.0550899,128
1659950261.72403,1269624.0550921,123
1659950261.72403,1269624.0550945,108
1659950261.72403,1269624.0550967,108
1659950261.72403,1269624.0550987,116
1659950261.72403,1269624.0551008,116
1659950261.72403,1269624.0551029,108
1659950261.72403,1269624.0551048,108
1659950261.72403,1269624.0551067,128
1659950261.72403,1269624.0551087,154
1659950261.72403,1269624.0551105,154
1659950261.72403,1269624.0551125,128
1659950261.72403,1269624.0551155,103
1659950261.72403,1269624.0551242,79
1659950261.72403,1269624.0551339,45
1659950261.72403,1269624.0551374,41
1659950261.72403,1269624.0551396,53
1659950261.72403,1269624.0551416,21
1659950261.72403,1269624.0551437,-33
1659950261.72403,1269624.0551458,-4
1659950261.72403,1269624.0551479,130
1659950261.72403,1269624.05515,164
1659950261.72403,1269624.0551521,-79
1659950261.72403,1269624.0551541,-277
1659950261.72403,1269624.0551562,-82
1659950261.72403,1269624.0551582,142
1659950261.72403,1269624.0551603,96
1659950261.72403,1269624.0551624,55
1659950261.72403,1269624.0551645,113
1659950261.72403,1269624.0551666,123
1659950261.72403,1269624.0551687,111
1659950261.72403,1269624.0551706,128
1659950261.72403,1269624.0551726,140
1659950261.72403,1269624.0551747,132
1659950261.72403,1269624.0551767,137
1659950261.72403,1269624.0551787,154
1659950261.72403,1269624.0551807,171
1659950261.72403,1269624.0551828,190
1659950261.72403,1269624.0551848,210
1659950261.72403,1269624.0551874,227
1659950261.72403,1269624.0551896,239
1659950261.72403,1269624.0551916,253
1659950261.72403,1269624.0551937,265
1659950261.72403,1269624.0551957,263
1659950261.72403,1269624.0551977,253
1659950261.72403,1269624.0551997,236
1659950261.72403,1269624.0552017,212
1659950261.72403,1269624.0552037,190
1659950261.72403,1269624.0552059,164
1659950261.72403,1269624.0552079,142
1659950261.735,1269624.0552101,132
1659950261.735,1269624.0552121,125
1659950261.735,1269624.0552141,106
1659950261.735,1269624.0552161,77
1659950261.735,1269624.0552182,60
1659950261.735,1269624.0552201,65
1659950261.735,1269624.0552222,70
1659950261.735,1269624.0552242,60
1659950261.735,1269624.0552263,58
1659950261.735,1269624.0552284,77
1659950261.735,1269624.0552304,108
1659950261.735,1269624.6403443,111
1659950261.735,1269624.6403652,89
1659950261.735,1269624.6403753,62
1659950261.735,1269624.6403826,26
1659950261.735,1269624.6403917,-7
1659950261.735,1269624.6403979,-14
1659950261.735,1269624.6404088,-14
1659950261.735,1269624.6404201,-55
1659950261.735,1269624.6404298,-87
1659950261.735,1269624.6404388,-12
1659950261.735,1269624.6404515,123
1659950261.735,1269624.6404607,60
1659950261.735,1269624.6404686,-244
1659950262.26881,1269624.6404812,-335
1659950262.26881,1269624.6404889,-72
1659950262.26881,1269624.6404955,60
1659950262.26881,1269624.6405054,-36
1659950262.26881,1269624.6405134,-50
1659950262.26881,1269624.6405195,4
1659950262.26881,1269624.6405293,4
1659950262.26881,1269624.64054,-2
1659950262.26881,1269624.6405486,14
1659950262.26881,1269624.640559,19
1659950262.26881,1269624.6405695,19
1659950262.26881,1269624.6405785,36
1659950262.26881,1269624.6405888,53
1659950262.26881,1269624.640599,62
1659950262.26881,1269624.6406075,84
1659950262.26881,1269624.6406177,106
1659950262.26881,1269624.640628,123
1659950262.26881,1269624.640637,149
1659950262.26881,1269624.6406473,178
1659950262.26881,1269624.6406574,188
1659950262.26881,1269624.6406672,181
1659950262.26881,1269624.6406775,169
1659950262.26881,1269624.6406873,149
1659950262.26881,1269624.6406968,132
1659950262.26881,1269624.6407093,116
1659950262.26881,1269624.6407181,89
1659950262.26881,1269624.6407282,62
1659950262.26881,1269624.6407391,55
1659950262.26881,1269624.6407475,48
1659950262.26881,1269624.6407578,31
1659950262.26881,1269624.6407688,24
1659950262.26881,1269624.6407773,9
1659950262.26881,1269624.6407871,0
1659950262.26881,1269624.6407979,9
1659950262.26881,1269624.6408065,12
1659950262.26881,1269624.6408154,12
1659950262.26881,1269624.6408268,38
1659950262.26881,1269624.6408354,65

1659950262.26881,1269624.640845,53
1659950262.26881,1269624.6408559,24
1659950262.26881,1269624.6408643,12
1659950262.26881,1269624.6408734,0
1659950262.26881,1269624.6408848,-4
1659950262.26881,1269624.6408932,-9
1659950262.26881,1269624.6409033,-48
1659950262.26881,1269624.6409144,-103
1659950262.26881,1269624.6409225,-74
1659950262.26881,1269624.6409325,84
1659950262.26881,1269624.6409434,178
1659950262.26881,1269624.6409507,-58
1659950262.27978,1269624.6409618,-386
1659950262.27978,1269624.6409728,-302
1659950262.27978,1269624.6409808,-4
1659950262.27978,1269624.6409907,31
1659950262.27978,1269624.6410015,-38
1659950262.27978,1269624.6410101,-4
1659950262.27978,1269624.6410196,24
1659950262.27978,1269624.6410305,9
1659950262.27978,1269624.6410389,26
1659950262.27978,1269624.6410582,58
1659950262.27978,1269625.1780876,60
1659950262.27978,1269625.1781111,53
1659950262.27978,1269625.1781218,55
1659950262.27978,1269625.1781305,67
1659950262.27978,1269625.1781372,91
1659950262.27978,1269625.1781437,123
1659950262.27978,1269625.1781475,147
1659950262.27978,1269625.1781539,166
1659950262.27978,1269625.1781574,188
1659950262.27978,1269625.1781636,203
1659950262.27978,1269625.178167,207
1659950262.27978,1269625.178173,212
1659950262.27978,1269625.1781766,198
1659950262.27978,1269625.1781825,152
1659950262.79774,1269625.1781863,111
1659950262.79774,1269625.1781909,91
1659950262.79774,1269625.1781955,70
1659950262.79774,1269625.1782001,48
1659950262.79774,1269625.1782046,43
1659950262.79774,1269625.1782087,31
1659950262.79774,1269625.1782132,9
1659950262.79774,1269625.1782177,7
1659950262.79774,1269625.1782212,14
1659950262.79774,1269625.1782261,12
1659950262.79774,1269625.1782294,4
1659950262.79774,1269625.1782339,-2
1659950262.79774,1269625.1782376,9
1659950262.79774,1269625.178242,43
1659950262.79774,1269625.1782458,62
1659950262.79774,1269625.1782491,45
1659950262.79774,1269625.1782551,29
1659950262.79774,1269625.1782584,19
1659950262.79774,1269625.1782642,7
1659950262.79774,1269625.1782674,0
1659950262.79774,1269625.1782728,-9
1659950262.79774,1269625.1782766,-45
1659950262.79774,1269625.1782802,-77
1659950262.79774,1269625.1782857,-26
1659950262.79774,1269625.1782931,106
1659950262.79774,1269625.1782998,130
1659950262.79774,1269625.1783028,-128
1659950262.79774,1269625.1783154,-314
1659950262.79774,1269625.178324,-96
1659950262.79774,1269625.1783298,103
1659950262.79774,1269625.1783361,33
1659950262.79774,1269625.1783493,9
1659950262.79774,1269625.1783629,79
1659950262.79774,1269625.1783767,79
1659950262.79774,1269625.1783901,65
1659950262.79774,1269625.1784039,79
1659950262.79774,1269625.1784174,70
1659950262.79774,1269625.1784309,58
1659950262.79774,1269625.1784443,72
1659950262.79774,1269625.1784572,89
1659950262.79774,1269625.1784673,108
1659950262.79774,1269625.1784753,132
1659950262.79774,1269625.1784807,154
1659950262.79774,1269625.1784895,171
1659950262.79774,1269625.1784958,188
1659950262.79774,1269625.1785081,217
1659950262.79774,1269625.1785184,229
1659950262.79774,1269625.1785289,215
1659950262.79774,1269625.1785401,200
1659950262.79774,1269625.1785484,190
1659950262.80871,1269625.1785577,174
1659950262.80871,1269625.1785684,142
1659950262.80871,1269625.178576,113
1659950262.80871,1269625.1785877,94
1659950262.80871,1269625.1785978,87
1659950262.80871,1269625.1786041,82
1659950262.80871,1269625.1786745,77
1659950262.80871,1269625.178688,79
1659950262.80871,1269625.1786997,77
1659950262.80871,1269625.7120848,67
1659950262.80871,1269625.7121087,58
1659950262.80871,1269625.7121193,58
1659950262.80871,1269625.712122,62
1659950262.80871,1269625.712124,87
1659950262.80871,1269625.712126,118
1659950262.80871,1269625.7121281,120
1659950262.80871,1269625.7121301,94
1659950262.80871,1269625.7121321,82
1659950262.80871,1269625.7121341,77
1659950262.80871,1269625.7121361,67
1659950262.80871,1269625.7121381,65
1659950262.80871,1269625.7121401,53
1659950262.80871,1269625.7121432,-7
1659950262.80871,1269625.7121519,-48
1659950263.47846,1269625.7121612,38
1659950263.47846,1269625.7121699,147
1659950263.47846,1269625.712173,16
1659950263.47846,1269625.7121753,-273
1659950263.47846,1269625.7121772,-256
1659950263.47846,1269625.7121791,24
1659950263.47846,1269625.7121818,87
1659950263.47846,1269625.7121887,-4
1659950263.47846,1269625.7121954,0
1659950263.47846,1269625.7122018,29
1659950263.47846,1269625.7122081,7
1659950263.47846,1269625.7122151,7
1659950263.47846,1269625.7122242,31
1659950263.47846,1269625.7122371,43
1659950263.47846,1269625.7122499,45
1659950263.47846,1269625.7122599,55
1659950263.47846,1269625.7122675,65
1659950263.47846,1269625.71227,87
1659950263.47846,1269625.7122722,116
1659950263.47846,1269625.7122744,140
1659950263.47846,1269625.7122811,161
1659950263.47846,1269625.712292,181
1659950263.47846,1269625.7122969,200
1659950263.47846,1269625.7122998,205
1659950263.47846,1269625.7123089,195
1659950263.47846,1269625.7123235,183
1659950263.47846,1269625.7123359,164
1659950263.47846,1269625.7123481,128
1659950263.47846,1269625.7123534,89
1659950263.47846,1269625.7123557,72
1659950263.47846,1269625.7123577,65
1659950263.47846,1269625.7123597,58
1659950263.47846,1269625.7123617,55
1659950263.47846,1269625.7123689,50
1659950263.47846,1269625.7123784,38
1659950263.47846,1269625.7123865,33
1659950263.47846,1269625.7123991,33
1659950263.47846,1269625.7124104,26
1659950263.47846,1269625.7124238,19
1659950263.47846,1269625.7124368,31
1659950263.47846,1269625.7124469,58
1659950263.47846,1269625.7124502,67
1659950263.47846,1269625.7124531,48
1659950263.47846,1269625.7124569,26
1659950263.47846,1269625.7124713,14
1659950263.47846,1269625.7124799,4
1659950263.47846,1269625.7124826,-2
1659950263.47846,1269625.7124901,-7
1659950263.47846,1269625.7125028,-29
1659950263.47846,1269625.7125073,-72
1659950263.48942,1269625.7125097,-62
1659950263.48942,1269625.7125119,62
1659950263.48942,1269625.712514,128
1659950263.48942,1269625.7125161,-103
1659950263.48942,1269625.7125181,-364
1659950263.48942,1269625.7125202,-219
1659950263.48942,1269625.7125279,31
1659950263.48942,1269625.7125411,19
1659950263.48942,1269626.3952655,-33
1659950263.48942,1269626.3952798,12
1659950263.48942,1269626.3952849,31
1659950263.48942,1269626.3952897,21
1659950263.48942,1269626.3952925,36
1659950263.48942,1269626.3952953,43
1659950263.48942,1269626.3952981,26
1659950263.48942,1269626.395301,12
1659950263.48942,1269626.3953037,19
1659950263.48942,1269626.395306,38
1659950263.48942,1269626.3953084,58
1659950263.48942,1269626.3953106,77
1659950263.48942,1269626.3953129,94
1659950263.48942,1269626.3953151,99
1659950263.48942,1269626.3953174,106
1659950263.48942,1269626.3953196,120
1659950263.91886,1269626.3953218,116
1659950263.91886,1269626.3953245,101
1659950263.91886,1269626.3953274,91
1659950263.91886,1269626.3953301,70
1659950263.91886,1269626.3953327,36
1659950263.91886,1269626.3953353,7
1659950263.91886,1269626.3953378,-7
1659950263.91886,1269626.3953403,-16
1659950263.91886,1269626.3953429,-26
1659950263.91886,1269626.3953454,-31
1659950263.91886,1269626.3953479,-29
1659950263.91886,1269626.3953504,-29
1659950263.91886,1269626.395353,-33
1659950263.91886,1269626.3953566,-33
1659950263.91886,1269626.395359,-41
1659950263.91886,1269626.3953614,-53
1659950263.91886,1269626.3953636,-41
1659950263.91886,1269626.3953659,-7
1659950263.91886,1269626.3953682,4
1659950263.91886,1269626.3953705,-24
1659950263.91886,1269626.3953727,-60
1659950263.91886,1269626.3953749,-67
1659950263.91886,1269626.3953772,-62
1659950263.91886,1269626.3953794,-60
1659950263.91886,1269626.3953817,-65
1659950263.91886,1269626.3953839,-101
1659950263.91886,1269626.3953861,-128
1659950263.91886,1269626.3953883,-33
1659950263.91886,1269626.3953906,137
1659950263.91886,1269626.3953928,70
1659950263.91886,1269626.395395,-292
1659950263.91886,1269626.3953973,-437
1659950263.91886,1269626.3953993,-183
1659950263.91886,1269626.3954013,-14
1659950263.91886,1269626.3954033,-74
1659950263.91886,1269626.3954053,-82
1659950263.91886,1269626.3954074,-31
1659950263.91886,1269626.3954096,-29
1659950263.91886,1269626.3954117,-36
1659950263.91886,1269626.3954137,-16
1659950263.91886,1269626.3954161,0
1659950263.91886,1269626.3954183,4
1659950263.91886,1269626.3954205,16
1659950263.91886,1269626.3954227,33
1659950263.91886,1269626.3954249,50
1659950263.91886,1269626.395427,74
1659950263.91886,1269626.3954291,103
1659950263.91886,1269626.395431,132
1659950263.91886,1269626.395433,157
1659950263.91886,1269626.395435,171
1659950263.93182,1269626.395437,181
1659950263.93182,1269626.395439,188
1659950263.93182,1269626.3954411,183
1659950263.93182,1269626.3954431,166
1659950263.93182,1269626.3954451,145
1659950263.93182,1269626.3954471,118
1659950263.93182,1269626.3954491,91
1659950263.93182,1269626.8340861,70
1659950263.93182,1269626.8341084,60
1659950263.93182,1269626.8341201,60
1659950263.93182,1269626.8341291,62
1659950263.93182,1269626.8341377,60
1659950263.93182,1269626.8341454,55
1659950263.93182,1269626.8341547,45
1659950263.93182,1269626.834161,41
1659950263.93182,1269626.8341678,31
1659950263.93182,1269626.8341708,19
1659950263.93182,1269626.8341738,21
1659950263.93182,1269626.8341767,33
1659950263.93182,1269626.8341801,38
1659950263.93182,1269626.834194,19
1659950263.93182,1269626.8342064,0
1659950263.93182,1269626.8342147,2
1659950263.93182,1269626.8342199,9
1659950264.46329,1269626.8342329,4
1659950264.46329,1269626.8342389,-19
1659950264.46329,1269626.8342438,-62
1659950264.46329,1269626.8342492,-53
1659950264.46329,1269626.834256,74
1659950264.46329,1269626.8342632,161
1659950264.46329,1269626.8342706,-50
1659950264.46329,1269626.8342767,-352
1659950264.46329,1269626.8342818,-261
1659950264.46329,1269626.8342868,21
1659950264.46329,1269626.8342917,33
1659950264.46329,1269626.8342974,-48
1659950264.46329,1269626.8343007,-14
1659950264.46329,1269626.8343055,16
1659950264.46329,1269626.8343087,7
1659950264.46329,1269626.8343119,21
1659950264.46329,1269626.8343207,43
1659950264.46329,1269626.8343289,45
1659950264.46329,1269626.8343337,45
1659950264.46329,1269626.834337,62
1659950264.46329,1269626.8343431,82
1659950264.46329,1269626.8343464,99
1659950264.46329,1269626.8343525,118
1659950264.46329,1269626.8343556,140
1659950264.46329,1269626.8343585,159
1659950264.46329,1269626.8343615,176
1659950264.46329,1269626.8343645,195
1659950264.46329,1269626.8343676,200
1659950264.46329,1269626.8343748,193
1659950264.46329,1269626.8343837,190
1659950264.46329,1269626.834392,176
1659950264.46329,1269626.8343998,149
1659950264.46329,1269626.8344075,128
1659950264.46329,1269626.8344131,113
1659950264.46329,1269626.834421,101
1659950264.46329,1269626.8344264,96
1659950264.46329,1269626.8344343,89
1659950264.46329,1269626.8344392,82
1659950264.46329,1269626.8344473,82
1659950264.46329,1269626.8344521,84
1659950264.46329,1269626.8344603,77
1659950264.46329,1269626.8344656,67
1659950264.46329,1269626.8344736,70
1659950264.46329,1269626.8344792,84
1659950264.46329,1269626.8344869,108
1659950264.46329,1269626.8344923,120
1659950264.46329,1269626.8345002,106
1659950264.46329,1269626.8345059,89
1659950264.46329,1269626.8345132,84
1659950264.46329,1269626.8345181,84
1659950264.47426,1269626.8345262,89
1659950264.47426,1269626.8345312,84
1659950264.47426,1269626.8345394,38
1659950264.47426,1269626.8345447,-24
1659950264.47426,1269626.8345527,-9
1659950264.47426,1269626.8345585,118
1659950264.47426,1269627.3708221,169
1659950264.47426,1269627.3708433,-62
1659950264.47426,1269627.3708545,-258
1659950264.47426,1269627.3708611,-60
1659950264.47426,1269627.3708654,140
1659950264.47426,1269627.3708708,72
1659950264.47426,1269627.3708748,24
1659950264.47426,1269627.3708804,60
1659950264.47426,1269627.3708842,60
1659950264.47426,1269627.3708882,53
1659950264.47426,1269627.3708921,74
1659950264.47426,1269627.3708958,82
1659950264.47426,1269627.3709015,74
1659950264.47426,1269627.3709056,67
1659950264.47426,1269627.3709108,72
1659950264.47426,1269627.3709149,94
1659950264.47426,1269627.3709197,118
1659950264.47426,1269627.3709244,149
1659950265.20189,1269627.3709304,181
1659950265.20189,1269627.3709369,193
1659950265.20189,1269627.3709394,200
1659950265.20189,1269627.3709421,207
1659950265.20189,1269627.3709503,190
1659950265.20189,1269627.370958,171
1659950265.20189,1269627.3709649,166
1659950265.20189,1269627.3709762,147
1659950265.20189,1269627.370989,116
1659950265.20189,1269627.3710019,103
1659950265.20189,1269627.3710114,94
1659950265.20189,1269627.3710187,74
1659950265.20189,1269627.371027,60
1659950265.20189,1269627.3710375,58
1659950265.20189,1269627.3710476,50
1659950265.20189,1269627.3710525,43
1659950265.20189,1269627.3710602,38
1659950265.20189,1269627.3710676,36
1659950265.20189,1269627.3710731,36
1659950265.20189,1269627.3710824,43
1659950265.20189,1269627.3710876,62
1659950265.20189,1269627.3710918,84
1659950265.20189,1269627.371096,89
1659950265.20189,1269627.3710997,70
1659950265.20189,1269627.3711039,55
1659950265.20189,1269627.371108,50
1659950265.20189,1269627.3711145,48
1659950265.20189,1269627.3711182,50
1659950265.20189,1269627.371122,41
1659950265.20189,1269627.371126,-12
1659950265.20189,1269627.3711316,-53
1659950265.20189,1269627.3711351,14
1659950265.20189,1269627.37114,135
1659950265.20189,1269627.3711435,62
1659950265.20189,1269627.3711469,-222
1659950265.20189,1269627.3711505,-258
1659950265.20189,1269627.3711541,14
1659950265.20189,1269627.3711592,106
1659950265.20189,1269627.3711631,21
1659950265.20189,1269627.3711682,36
1659950265.20189,1269627.371172,72
1659950265.20189,1269627.3711774,55
1659950265.20189,1269627.371181,60
1659950265.20189,1269627.3711863,77
1659950265.20189,1269627.3711898,70
1659950265.20189,1269627.3711931,62
1659950265.20189,1269627.3711965,74
1659950265.20189,1269627.3711998,89
1659950265.20189,1269627.3712033,108
1659950265.20189,1269627.3712069,132
1659950265.21187,1269627.3712105,154
1659950265.21187,1269627.3712169,174
1659950265.21187,1269627.3712235,186
1659950265.21187,1269627.3712274,195
1659950265.21187,1269627.3712325,203
1659950265.21187,1269628.103085,203
1659950265.21187,1269628.103109,193
1659950265.21187,1269628.1031169,171
1659950265.21187,1269628.1031232,132
1659950265.21187,1269628.1031278,91
1659950265.21187,1269628.1031318,74
1659950265.21187,1269628.1031359,65
1659950265.21187,1269628.1031578,58
1659950265.21187,1269628.1031694,53
1659950265.21187,1269628.1031752,38
1659950265.21187,1269628.1031818,7
1659950265.21187,1269628.1031886,-7
1659950265.21187,1269628.1031922,-4
1659950265.21187,1269628.1031971,-12
1659950265.21187,1269628.1032055,-31
1659950265.21187,1269628.1032117,-41
1659950265.21187,1269628.1032198,-29
1659950265.21187,1269628.1032253,-9
1659950265.21187,1269628.1032306,-7
1659950265.67754,1269628.1032339,-24
1659950265.67754,1269628.1032371,-41
1659950265.67754,1269628.1032404,-50
1659950265.67754,1269628.1032453,-60
1659950265.67754,1269628.1032515,-62
1659950265.67754,1269628.1032577,-70
1659950265.67754,1269628.1032619,-108
1659950265.67754,1269628.1032664,-99
1659950265.67754,1269628.1032711,24
1659950265.67754,1269628.1032745,99
1659950265.67754,1269628.1032788,-113
1659950265.67754,1269628.1032827,-389
1659950265.67754,1269628.103288,-273
1659950265.67754,1269628.1032916,-14
1659950265.67754,1269628.1032953,-24
1659950265.67754,1269628.1032989,-87
1659950265.67754,1269628.1033043,-38
1659950265.67754,1269628.1033088,-19
1659950265.67754,1269628.1033138,-36
1659950265.67754,1269628.1033175,-14
1659950265.67754,1269628.1033225,9
1659950265.67754,1269628.1033268,9
1659950265.67754,1269628.1033305,12
1659950265.67754,1269628.1033356,26
1659950265.67754,1269628.1033391,45
1659950265.67754,1269628.1033428,62
1659950265.67754,1269628.1033479,84
1659950265.67754,1269628.1033523,113
1659950265.67754,1269628.1033559,135
1659950265.67754,1269628.1033595,154
1659950265.67754,1269628.1033629,174
1659950265.67754,1269628.1033665,171
1659950265.67754,1269628.1033711,159
1659950265.67754,1269628.1033761,152
1659950265.67754,1269628.103381,130
1659950265.67754,1269628.1033844,87
1659950265.67754,1269628.103388,60
1659950265.67754,1269628.1033928,43
1659950265.67754,1269628.1033971,21
1659950265.67754,1269628.1034022,14
1659950265.67754,1269628.103408,21
1659950265.67754,1269628.1034117,12
1659950265.67754,1269628.1034152,9
1659950265.67754,1269628.1034205,14
1659950265.67754,1269628.1034252,9
1659950265.67754,1269628.1034301,-2
1659950265.67754,1269628.1034335,2
1659950265.67754,1269628.1034371,14
1659950265.67754,1269628.1034423,36
1659950265.67754,1269628.1034459,43
1659950265.68851,1269628.1034507,33
1659950265.68851,1269628.1034544,19
1659950265.68851,1269628.1034597,12
1659950265.68851,1269628.1034651,9
1659950265.68851,1269628.5887184,16
1659950265.68851,1269628.588735,12
1659950265.68851,1269628.5887412,-29
1659950265.68851,1269628.5887469,-67
1659950265.68851,1269628.5887505,2
1659950265.68851,1269628.588754,166
1659950265.68851,1269628.5887575,166
1659950265.68851,1269628.5887611,-174
1659950265.68851,1269628.5887647,-415
1659950265.68851,1269628.5887682,-193
1659950265.68851,1269628.5887717,38
1659950265.68851,1269628.5887753,-7
1659950265.68851,1269628.5887787,-38
1659950265.68851,1269628.5887822,9
1659950265.68851,1269628.5887858,12
1659950265.68851,1269628.5887892,7
1659950265.68851,1269628.5887928,31
1659950265.68851,1269628.5887963,48
1659950265.68851,1269628.5888,48
1659950265.68851,1269628.5888034,43
1659950266.16559,1269628.588807,50
1659950266.16559,1269628.5888104,70
1659950266.16559,1269628.5888147,94
1659950266.16559,1269628.588819,120
1659950266.16559,1269628.5888225,152
1659950266.16559,1269628.5888259,166
1659950266.16559,1269628.5888296,159
1659950266.16559,1269628.5888329,159
1659950266.16559,1269628.5888367,174
1659950266.16559,1269628.5888414,171
1659950266.16559,1269628.5888448,159
1659950266.16559,1269628.5888504,137
1659950266.16559,1269628.5888572,103
1659950266.16559,1269628.5888639,72
1659950266.16559,1269628.5888705,55
1659950266.16559,1269628.5888744,45
1659950266.16559,1269628.5888802,38
1659950266.16559,1269628.5888848,33
1659950266.16559,1269628.588888,14
1659950266.16559,1269628.588892,-4
1659950266.16559,1269628.5888957,-4
1659950266.16559,1269628.588899,0
1659950266.16559,1269628.5889027,-7
1659950266.16559,1269628.5889074,-9
1659950266.16559,1269628.5889119,4
1659950266.16559,1269628.5889161,29
1659950266.16559,1269628.5889201,38
1659950266.16559,1269628.5889242,26
1659950266.16559,1269628.5889287,12
1659950266.16559,1269628.5889337,12
1659950266.16559,1269628.5889676,19
1659950266.16559,1269628.5889719,21
1659950266.16559,1269628.5889752,16
1659950266.16559,1269628.5889785,-24
1659950266.16559,1269628.5889822,-60
1659950266.16559,1269628.5889858,2
1659950266.16559,1269628.5889892,147
1659950266.16559,1269628.5889923,128
1659950266.16559,1269628.5889954,-169
1659950266.16559,1269628.5889986,-299
1659950266.16559,1269628.5890018,-38
1659950266.16559,1269628.5890049,118
1659950266.16559,1269628.5890081,31
1659950266.16559,1269628.5890112,24
1659950266.16559,1269628.5890143,84
1659950266.16559,1269628.5890173,77
1659950266.16559,1269628.5890206,70
1659950266.16559,1269628.5890239,89
1659950266.16559,1269628.5890269,99
1659950266.16559,1269628.58903,99
1659950266.17257,1269628.5890331,113
1659950266.17257,1269628.5890362,128
1659950266.17257,1269628.5890393,128
1659950266.17257,1269629.0769535,137
1659950266.17257,1269629.0769716,161
1659950266.17257,1269629.0769803,186
1659950266.17257,1269629.0769873,203
1659950266.17257,1269629.076992,212
1659950266.17257,1269629.076996,215
1659950266.17257,1269629.0770024,215
1659950266.17257,1269629.077008,205
1659950266.17257,1269629.0770125,188
1659950266.17257,1269629.0770163,166
1659950266.17257,1269629.0770194,142
1659950266.17257,1269629.0770227,120
1659950266.17257,1269629.0770278,106
1659950266.17257,1269629.0770365,94
1659950266.17257,1269629.0770491,91
1659950266.17257,1269629.0770594,84
1659950266.17257,1269629.0770684,58
1659950266.17257,1269629.0770737,38
1659950266.17257,1269629.0770794,45
1659950266.17257,1269629.0770881,43
1659950266.17257,1269629.0770956,31
1659950266.79932,1269629.0771015,33
1659950266.79932,1269629.0771087,38
1659950266.79932,1269629.0771157,43
1659950266.79932,1269629.0771223,53
1659950266.79932,1269629.0771472,43
1659950266.79932,1269629.0771569,26
1659950266.79932,1269629.0771619,26
1659950266.79932,1269629.077169,33
1659950266.79932,1269629.0771739,31
1659950266.79932,1269629.0771802,19
1659950266.79932,1269629.0771865,-33
1659950266.79932,1269629.0771915,-74
1659950266.79932,1269629.0771981,-4
1659950266.79932,1269629.077203,130
1659950266.79932,1269629.0772096,89
1659950266.79932,1269629.0772145,-198
1659950266.79932,1269629.0772206,-282
1659950266.79932,1269629.0772253,-16
1659950266.79932,1269629.0772317,113
1659950266.79932,1269629.0772372,33
1659950266.79932,1269629.077244,36
1659950266.79932,1269629.0772503,82
1659950266.79932,1269629.0772549,67
1659950266.79932,1269629.0772609,70
1659950266.79932,1269629.0772654,96
1659950266.79932,1269629.0772714,101
1659950266.79932,1269629.0772761,99
1659950266.79932,1269629.0772823,108
1659950266.79932,1269629.077287,118
1659950266.79932,1269629.0772935,130
1659950266.79932,1269629.0772984,154
1659950266.79932,1269629.0773051,186
1659950266.79932,1269629.0773101,210
1659950266.79932,1269629.0773149,224
1659950266.79932,1269629.0773217,232
1659950266.79932,1269629.0773265,234
1659950266.79932,1269629.0773329,224
1659950266.79932,1269629.0773379,212
1659950266.79932,1269629.0773449,200
1659950266.79932,1269629.07735,178
1659950266.79932,1269629.0773572,149
1659950266.79932,1269629.077364,128
1659950266.79932,1269629.0773699,116
1659950266.79932,1269629.0773758,108
1659950266.79932,1269629.07738,89
1659950266.79932,1269629.0773864,67
1659950266.79932,1269629.0773914,58
1659950266.79932,1269629.0773993,48
1659950266.79932,1269629.0774071,36
1659950266.79932,1269629.0774121,33
1659950266.81129,1269629.0774181,29
1659950266.81129,1269629.077424,26
1659950266.81129,1269629.7096182,45
1659950266.81129,1269629.7096371,72
1659950266.81129,1269629.7096457,77
1659950266.81129,1269629.7096503,58
1659950266.81129,1269629.7096574,43
1659950266.81129,1269629.7096637,38
1659950266.81129,1269629.7096678,19
1659950266.81129,1269629.7096739,-7
1659950266.81129,1269629.7096783,-21
1659950266.81129,1269629.7096842,-60
1659950266.81129,1269629.7096879,-96
1659950266.81129,1269629.7096933,-31
1659950266.81129,1269629.7096984,89
1659950266.81129,1269629.7097039,16
1659950266.81129,1269629.7097076,-280
1659950266.81129,1269629.7097131,-335
1659950266.81129,1269629.7097167,-70
1659950266.81129,1269629.7097204,33
1659950266.81129,1269629.7097268,-53
1659950266.81129,1269629.7097302,-38
1659950266.81129,1269629.7097335,12
1659950266.81129,1269629.7097368,0
1659950267.28502,1269629.7097401,-4
1659950267.28502,1269629.7097434,16
1659950267.28502,1269629.7097469,19
1659950267.28502,1269629.7097503,19
1659950267.28502,1269629.7097537,29
1659950267.28502,1269629.7097569,38
1659950267.28502,1269629.7097604,55
1659950267.28502,1269629.7097637,79
1659950267.28502,1269629.7097672,101
1659950267.28502,1269629.7097727,125
1659950267.28502,1269629.7097766,149
1659950267.28502,1269629.7097803,161
1659950267.28502,1269629.7097842,164
1659950267.28502,1269629.709788,161
1659950267.28502,1269629.7097922,147
1659950267.28502,1269629.7097983,130
1659950267.28502,1269629.7098029,108
1659950267.28502,1269629.7098084,77
1659950267.28502,1269629.7098126,53
1659950267.28502,1269629.7098177,38
1659950267.28502,1269629.7098212,24
1659950267.28502,1269629.7098248,19
1659950267.28502,1269629.7098304,14
1659950267.28502,1269629.7098339,2
1659950267.28502,1269629.7098393,-7
1659950267.28502,1269629.7098442,-12
1659950267.28502,1269629.7098471,-21
1659950267.28502,1269629.7098514,-33
1659950267.28502,1269629.7098578,-33
1659950267.28502,1269629.709861,-9
1659950267.28502,1269629.7098643,21
1659950267.28502,1269629.7098677,26
1659950267.28502,1269629.7098709,0
1659950267.28502,1269629.7098744,-21
1659950267.28502,1269629.7098789,-24
1659950267.28502,1269629.7098846,-19
1659950267.28502,1269629.7098893,-29
1659950267.28502,1269629.7098948,-60
1659950267.28502,1269629.7098983,-103
1659950267.28502,1269629.7099038,-116
1659950267.28502,1269629.7099076,-2
1659950267.28502,1269629.7099131,159
1659950267.28502,1269629.7099168,58
1659950267.28502,1269629.7099217,-306
1659950267.28502,1269629.7099251,-391
1659950267.28502,1269629.70993,-101
1659950267.28502,1269629.7099333,33
1659950267.28502,1269629.7099369,-41
1659950267.28502,1269629.7099417,-31
1659950267.28502,1269629.7099475,14
1659950267.29599,1269629.7099512,2
1659950267.29599,1269630.1975931,2
1659950267.29599,1269630.1976142,26
1659950267.29599,1269630.1976291,31
1659950267.29599,1269630.1976432,29
1659950267.29599,1269630.1976518,45
1659950267.29599,1269630.1976544,60
1659950267.29599,1269630.1976566,70
1659950267.29599,1269630.1976587,91
1659950267.29599,1269630.1976608,125
1659950267.29599,1269630.1976629,147
1659950267.29599,1269630.1976649,159
1659950267.29599,1269630.197667,176
1659950267.29599,1269630.1976697,183
1659950267.29599,1269630.1976781,183
1659950267.29599,1269630.1976888,178
1659950267.29599,1269630.1976923,154
1659950267.29599,1269630.1976953,106
1659950267.29599,1269630.1976982,58
1659950267.29599,1269630.1977057,19
1659950267.29599,1269630.1977164,9
1659950267.29599,1269630.1977199,7
1659950267.29599,1269630.1977239,-4
1659950267.29599,1269630.1977291,-26
1659950267.82578,1269630.1977388,-41
1659950267.82578,1269630.1977427,-38
1659950267.82578,1269630.1977448,-33
1659950267.82578,1269630.1977468,-43
1659950267.82578,1269630.1977493,-48
1659950267.82578,1269630.1977583,-43
1659950267.82578,1269630.1977657,-21
1659950267.82578,1269630.1977728,7
1659950267.82578,1269630.1977801,16
1659950267.82578,1269630.1977846,2
1659950267.82578,1269630.1977929,-9
1659950267.82578,1269630.1977982,-14
1659950267.82578,1269630.1978004,-16
1659950267.82578,1269630.1978023,-12
1659950267.82578,1269630.1978043,-16
1659950267.82578,1269630.1978063,-58
1659950267.82578,1269630.1978082,-74
1659950267.82578,1269630.1978135,36
1659950267.82578,1269630.1978232,174
1659950267.82578,1269630.1978274,60
1659950267.82578,1269630.1978305,-263
1659950267.82578,1269630.1978424,-297
1659950267.82578,1269630.1978537,-4
1659950267.82578,1269630.1978589,94
1659950267.82578,1269630.1978617,7
1659950267.82578,1269630.1978638,26
1659950267.82578,1269630.197866,77
1659950267.82578,1269630.1978736,58
1659950267.82578,1269630.1978841,45
1659950267.82578,1269630.1978875,50
1659950267.82578,1269630.1978904,50
1659950267.82578,1269630.1978954,65
1659950267.82578,1269630.1979069,82
1659950267.82578,1269630.1979125,99
1659950267.82578,1269630.1979149,125
1659950267.82578,1269630.197917,154
1659950267.82578,1269630.197919,183
1659950267.82578,1269630.1979211,207
1659950267.82578,1269630.197923,232
1659950267.82578,1269630.1979261,251
1659950267.82578,1269630.1979388,256
1659950267.82578,1269630.1979444,246
1659950267.82578,1269630.1979475,236
1659950267.82578,1269630.1979496,222
1659950267.82578,1269630.1979532,198
1659950267.82578,1269630.1979653,169
1659950267.82578,1269630.1979734,147
1659950267.82578,1269630.1979759,142
1659950267.82578,1269630.197978,140
1659950267.82578,1269630.1979801,132
1659950267.83675,1269630.7355642,128
1659950267.83675,1269630.7355806,125
1659950267.83675,1269630.7355858,120
1659950267.83675,1269630.7355898,116
1659950267.83675,1269630.7355937,106
1659950267.83675,1269630.7355974,91
1659950267.83675,1269630.7356012,87
1659950267.83675,1269630.7356049,99
1659950267.83675,1269630.7356087,118
1659950267.83675,1269630.7356126,113
1659950267.83675,1269630.7356164,84
1659950267.83675,1269630.73562,74
1659950267.83675,1269630.7356238,67
1659950267.83675,1269630.7356275,41
1659950267.83675,1269630.7356312,31
1659950267.83675,1269630.7356349,24
1659950267.83675,1269630.7356387,-31
1659950267.83675,1269630.7356424,-65
1659950267.83675,1269630.7356463,33
1659950267.83675,1269630.73565,166
1659950267.83675,1269630.7356537,62
1659950267.83675,1269630.7356574,-224
1659950267.83675,1269630.735661,-210
1659950267.83675,1269630.7356647,70
1659950268.51003,1269630.7356699,123
1659950268.51003,1269630.7356743,38
1659950268.51003,1269630.735678,74
1659950268.51003,1269630.7356818,118
1659950268.51003,1269630.7356855,99
1659950268.51003,1269630.7356891,103
1659950268.51003,1269630.7356928,132
1659950268.51003,1269630.7356966,137
1659950268.51003,1269630.7357004,137
1659950268.51003,1269630.7357041,149
1659950268.51003,1269630.7357079,164
1659950268.51003,1269630.7357115,183
1659950268.51003,1269630.7357152,205
1659950268.51003,1269630.735719,229
1659950268.51003,1269630.7357229,253
1659950268.51003,1269630.7357267,270
1659950268.51003,1269630.7357303,273
1659950268.51003,1269630.7357341,265
1659950268.51003,1269630.7357378,256
1659950268.51003,1269630.7357415,256
1659950268.51003,1269630.7357452,236
1659950268.51003,1269630.735749,195
1659950268.51003,1269630.7357527,161
1659950268.51003,1269630.7357564,152
1659950268.51003,1269630.7357603,145
1659950268.51003,1269630.735764,137
1659950268.51003,1269630.7357678,132
1659950268.51003,1269630.7357716,125
1659950268.51003,1269630.7357753,116
1659950268.51003,1269630.735779,111
1659950268.51003,1269630.7357827,101
1659950268.51003,1269630.7357863,89
1659950268.51003,1269630.7357899,87
1659950268.51003,1269630.7357936,94
1659950268.51003,1269630.7357974,116
1659950268.51003,1269630.735801,140
1659950268.51003,1269630.7358048,132
1659950268.51003,1269630.7358084,113
1659950268.51003,1269630.735812,108
1659950268.51003,1269630.7358156,103
1659950268.51003,1269630.7358193,99
1659950268.51003,1269630.7358253,99
1659950268.51003,1269630.7358292,70
1659950268.51003,1269630.7361862,4
1659950268.51003,1269630.7362025,-2
1659950268.51003,1269630.7362133,113
1659950268.51003,1269630.7362199,200
1659950268.51003,1269630.7362299,29
1659950268.51003,1269630.7362403,-232
1659950268.51003,1269631.4172341,-142
1659950268.521,1269631.4172545,111
1659950268.521,1269631.4172647,120
1659950268.521,1269631.4172737,31
1659950268.521,1269631.417283,48
1659950268.521,1269631.4172875,77
1659950268.521,1269631.4172922,72
1659950268.521,1269631.4172997,84
1659950268.521,1269631.4173059,96
1659950268.521,1269631.4173164,77
1659950268.521,1269631.4173202,60
1659950268.521,1269631.4173225,77
1659950268.521,1269631.4173322,103
1659950268.521,1269631.4173444,120
1659950268.521,1269631.4173505,137
1659950268.521,1269631.4173529,154
1659950268.521,1269631.417355,174
1659950268.521,1269631.4173571,195
1659950268.521,1269631.4173662,207
1659950268.521,1269631.4173769,205
1659950268.521,1269631.4173803,198
1659950268.521,1269631.4173833,186
1659950268.521,1269631.4173862,171
1659950268.521,1269631.4173892,149
1659950268.521,1269631.4173969,130
1659950268.99854,1269631.4174074,111
1659950268.99854,1269631.4174109,99
1659950268.99854,1269631.4174138,96
1659950268.99854,1269631.4174167,91
1659950268.99854,1269631.4174226,84
1659950268.99854,1269631.4174331,74
1659950268.99854,1269631.4174372,70
1659950268.99854,1269631.4174408,53
1659950268.99854,1269631.417451,33
1659950268.99854,1269631.4174584,31
1659950268.99854,1269631.4174649,48
1659950268.99854,1269631.4174745,72
1659950268.99854,1269631.4174797,79
1659950268.99854,1269631.4174903,50
1659950268.99854,1269631.4175004,21
1659950268.99854,1269631.4175092,21
1659950268.99854,1269631.4175159,16
1659950268.99854,1269631.4175201,9
1659950268.99854,1269631.4175221,12
1659950268.99854,1269631.4175243,-12
1659950268.99854,1269631.4175265,-70
1659950268.99854,1269631.4175285,-48
1659950268.99854,1269631.4175316,94
1659950268.99854,1269631.4175443,140
1659950268.99854,1269631.4175501,-106
1659950268.99854,1269631.4175524,-333
1659950268.99854,1269631.4175546,-157
1659950268.99854,1269631.4175568,79
1659950268.99854,1269631.4175596,41
1659950268.99854,1269631.4175702,-4
1659950268.99854,1269631.4175785,53
1659950268.99854,1269631.4175809,60
1659950268.99854,1269631.4175831,43
1659950268.99854,1269631.4175852,62
1659950268.99854,1269631.4175873,72
1659950268.99854,1269631.4175904,67
1659950268.99854,1269631.4176033,82
1659950268.99854,1269631.4176156,101
1659950268.99854,1269631.4176234,103
1659950268.99854,1269631.4176366,113
1659950268.99854,1269631.4176444,130
1659950268.99854,1269631.41765,152
1659950268.99854,1269631.4176553,181
1659950268.99854,1269631.4176686,200
1659950268.99854,1269631.417677,203
1659950268.99854,1269631.4176813,203
1659950268.99854,1269631.4176877,198
1659950268.99854,1269631.4176926,188
1659950268.99854,1269631.9040855,169
1659950268.99854,1269631.9041108,140
1659950269.00951,1269631.9041184,103
1659950269.00951,1269631.904123,82
1659950269.00951,1269631.9041293,72
1659950269.00951,1269631.9041349,62
1659950269.00951,1269631.9041388,50
1659950269.00951,1269631.9041427,41
1659950269.00951,1269631.9041484,31
1659950269.00951,1269631.9041538,19
1659950269.00951,1269631.9041597,7
1659950269.00951,1269631.904164,-2
1659950269.00951,1269631.9041711,-7
1659950269.00951,1269631.9041756,7
1659950269.00951,1269631.9041791,36
1659950269.00951,1269631.9041896,50
1659950269.00951,1269631.9041935,29
1659950269.00951,1269631.9042054,9
1659950269.00951,1269631.9042113,2
1659950269.00951,1269631.9042193,-21
1659950269.00951,1269631.9042236,-43
1659950269.00951,1269631.9042302,-43
1659950269.00951,1269631.904235,-74
1659950269.00951,1269631.9042414,-123
1659950269.00951,1269631.9042455,-48
1659950269.00951,1269631.9042515,108
1659950269.52812,1269631.9042559,43
1659950269.52812,1269631.9042596,-302
1659950269.52812,1269631.9042634,-451
1659950269.52812,1269631.9042675,-193
1659950269.52812,1269631.9042711,-16
1659950269.52812,1269631.9042747,-96
1659950269.52812,1269631.904278,-123
1659950269.52812,1269631.9042812,-58
1659950269.52812,1269631.9042852,-43
1659950269.52812,1269631.9042889,-48
1659950269.52812,1269631.9042924,-24
1659950269.52812,1269631.9042961,-14
1659950269.52812,1269631.9042996,-19
1659950269.52812,1269631.9043033,-4
1659950269.52812,1269631.9043067,19
1659950269.52812,1269631.9043101,41
1659950269.52812,1269631.9043137,62
1659950269.52812,1269631.9043214,89
1659950269.52812,1269631.9043251,116
1659950269.52812,1269631.9043287,137
1659950269.52812,1269631.904334,164
1659950269.52812,1269631.9043399,178
1659950269.52812,1269631.9043438,178
1659950269.52812,1269631.9043473,171
1659950269.52812,1269631.9043522,157
1659950269.52812,1269631.9043554,135
1659950269.52812,1269631.9043587,108
1659950269.52812,1269631.904362,79
1659950269.52812,1269631.9043653,60
1659950269.52812,1269631.9043685,45
1659950269.52812,1269631.9043736,31
1659950269.52812,1269631.9043767,21
1659950269.52812,1269631.9043798,21
1659950269.52812,1269631.9043845,21
1659950269.52812,1269631.9043887,16
1659950269.52812,1269631.9043935,7
1659950269.52812,1269631.9043968,0
1659950269.52812,1269631.9044008,4
1659950269.52812,1269631.9044055,33
1659950269.52812,1269631.9044086,62
1659950269.52812,1269631.9044118,62
1659950269.52812,1269631.9044151,41
1659950269.52812,1269631.9044184,29
1659950269.52812,1269631.9044216,24
1659950269.52812,1269631.9044249,14
1659950269.52812,1269631.9044296,16
1659950269.52812,1269631.9044346,14
1659950269.52812,1269632.4400888,-36
1659950269.52812,1269632.4401039,-70
1659950269.52812,1269632.4401085,26
1659950269.53909,1269632.4401124,169
1659950269.53909,1269632.4401163,79
1659950269.53909,1269632.4401202,-236
1659950269.53909,1269632.4401239,-292
1659950269.53909,1269632.4401278,-9
1659950269.53909,1269632.4401318,99
1659950269.53909,1269632.4401355,-9
1659950269.53909,1269632.4401395,-14
1659950269.53909,1269632.4401432,41
1659950269.53909,1269632.4401468,29
1659950269.53909,1269632.4401507,19
1659950269.53909,1269632.4401591,31
1659950269.53909,1269632.440164,19
1659950269.53909,1269632.4401739,2
1659950269.53909,1269632.4401791,14
1659950269.53909,1269632.440185,31
1659950269.53909,1269632.4401912,45
1659950269.53909,1269632.4401959,74
1659950269.53909,1269632.4402018,108
1659950269.53909,1269632.440207,123
1659950269.53909,1269632.4402117,128
1659950269.53909,1269632.4402163,130
1659950269.53909,1269632.4402226,128
1659950269.53909,1269632.4402258,123
1659950270.20933,1269632.4402289,118
1659950270.20933,1269632.4402355,108

1659950270.20933,1269632.4402416,84
1659950270.20933,1269632.4402456,58
1659950270.20933,1269632.4402511,38
1659950270.20933,1269632.4402584,29
1659950270.20933,1269632.4402657,26
1659950270.20933,1269632.4402776,24
1659950270.20933,1269632.4402855,24
1659950270.20933,1269632.4402968,21
1659950270.20933,1269632.4403093,14
1659950270.20933,1269632.4403222,7
1659950270.20933,1269632.4403354,0
1659950270.20933,1269632.4403489,0
1659950270.20933,1269632.4403622,12
1659950270.20933,1269632.4403753,36
1659950270.20933,1269632.4403887,58
1659950270.20933,1269632.4403972,58
1659950270.20933,1269632.4404058,33
1659950270.20933,1269632.4404151,16
1659950270.20933,1269632.4404205,9
1659950270.20933,1269632.4404339,4
1659950270.20933,1269632.4404419,0
1659950270.20933,1269632.4404553,-24
1659950270.20933,1269632.440469,-82
1659950270.20933,1269632.4404828,-87
1659950270.20933,1269632.4404919,38
1659950270.20933,1269632.4404944,135
1659950270.20933,1269632.4404966,-45
1659950270.20933,1269632.4404986,-309
1659950270.20933,1269632.4405007,-198
1659950270.20933,1269632.4405065,70
1659950270.20933,1269632.440518,74
1659950270.20933,1269632.4405316,4
1659950270.20933,1269632.4405457,45
1659950270.20933,1269632.4405588,72
1659950270.20933,1269632.4405726,60
1659950270.20933,1269632.4405863,82
1659950270.20933,1269632.4406,103
1659950270.20933,1269632.4406137,96
1659950270.20933,1269632.4406277,91
1659950270.20933,1269632.4406416,111
1659950270.20933,1269632.4406557,130
1659950270.20933,1269632.4406698,145
1659950270.20933,1269632.4406839,164
1659950270.20933,1269632.4406975,183
1659950270.20933,1269633.1223966,203
1659950270.20933,1269633.1224263,222
1659950270.20933,1269633.1224336,229
1659950270.20933,1269633.1224401,222
1659950270.21931,1269633.1224467,222
1659950270.21931,1269633.1224534,203
1659950270.21931,1269633.1224579,149
1659950270.21931,1269633.1224618,103
1659950270.21931,1269633.1224646,89
1659950270.21931,1269633.1224677,74
1659950270.21931,1269633.1224721,60
1659950270.21931,1269633.1224773,60
1659950270.21931,1269633.122483,41
1659950270.21931,1269633.1224879,4
1659950270.21931,1269633.1224929,-2
1659950270.21931,1269633.1224986,7
1659950270.21931,1269633.122502,-12
1659950270.21931,1269633.122507,-43
1659950270.21931,1269633.1225116,-41
1659950270.21931,1269633.1225152,-16
1659950270.21931,1269633.1225206,7
1659950270.21931,1269633.1225259,19
1659950270.21931,1269633.1225294,12
1659950270.21931,1269633.1225342,-4
1659950270.21931,1269633.1225389,-14
1659950270.21931,1269633.122542,-14
1659950270.21931,1269633.1225451,-14
1659950270.21931,1269633.122548,-24
1659950270.75412,1269633.1225521,-62
1659950270.75412,1269633.1225587,-111
1659950270.75412,1269633.1225651,-70
1659950270.75412,1269633.1225718,70
1659950270.75412,1269633.1225772,72
1659950270.75412,1269633.1225811,-205
1659950270.75412,1269633.1225882,-348
1659950270.75412,1269633.1225955,-106
1659950270.75412,1269633.1226005,67
1659950270.75412,1269633.1226057,-7
1659950270.75412,1269633.1226101,-24
1659950270.75412,1269633.1226143,36
1659950270.75412,1269633.1226193,33
1659950270.75412,1269633.1226244,21
1659950270.75412,1269633.1226297,43
1659950270.75412,1269633.1226367,50
1659950270.75412,1269633.1226433,48
1659950270.75412,1269633.1226475,58
1659950270.75412,1269633.1226534,74
1659950270.75412,1269633.1226603,91
1659950270.75412,1269633.1226693,111
1659950270.75412,1269633.1226753,137
1659950270.75412,1269633.122679,166
1659950270.75412,1269633.1226841,183
1659950270.75412,1269633.1226877,200
1659950270.75412,1269633.1226943,212
1659950270.75412,1269633.1227004,205
1659950270.75412,1269633.1227084,190
1659950270.75412,1269633.1227149,181
1659950270.75412,1269633.1227219,157
1659950270.75412,1269633.1227299,128
1659950270.75412,1269633.1227358,101
1659950270.75412,1269633.1227436,79
1659950270.75412,1269633.1227502,72
1659950270.75412,1269633.1227579,74
1659950270.75412,1269633.1227651,62
1659950270.75412,1269633.1227721,48
1659950270.75412,1269633.1227792,43
1659950270.75412,1269633.1227869,36
1659950270.75412,1269633.1227941,21
1659950270.75412,1269633.1228009,9
1659950270.75412,1269633.122805,14
1659950270.75412,1269633.1228081,31
1659950270.75412,1269633.122811,43
1659950270.75412,1269633.1228139,33
1659950270.75412,1269633.6594988,14
1659950270.75412,1269633.6595112,7
1659950270.75412,1269633.6595149,7
1659950270.75412,1269633.6595203,0
1659950270.75412,1269633.6595238,-7
1659950270.7621,1269633.659529,-26
1659950270.7621,1269633.6595316,-70
1659950270.7621,1269633.6595345,-50
1659950270.7621,1269633.6595372,96
1659950270.7621,1269633.65954,171
1659950270.7621,1269633.6595423,-94
1659950270.7621,1269633.6595447,-413
1659950270.7621,1269633.6595473,-285
1659950270.7621,1269633.6595499,7
1659950270.7621,1269633.6595525,19
1659950270.7621,1269633.6595552,-48
1659950270.7621,1269633.6595578,-19
1659950270.7621,1269633.6595601,-9
1659950270.7621,1269633.6595626,-21
1659950270.7621,1269633.6595653,2
1659950270.7621,1269633.6595677,21
1659950270.7621,1269633.6595701,12
1659950270.7621,1269633.6595726,0
1659950270.7621,1269633.6595753,7
1659950270.7621,1269633.6595778,24
1659950270.7621,1269633.6595804,48
1659950270.7621,1269633.659583,77
1659950270.7621,1269633.6595855,108
1659950270.7621,1269633.659588,137
1659950271.23782,1269633.6595908,154
1659950271.23782,1269633.659593,166
1659950271.23782,1269633.6595952,174
1659950271.23782,1269633.6595974,174
1659950271.23782,1269633.6595994,171
1659950271.23782,1269633.6596014,152
1659950271.23782,1269633.6596032,113
1659950271.23782,1269633.6596051,82
1659950271.23782,1269633.659607,62
1659950271.23782,1269633.6596089,53
1659950271.23782,1269633.6596108,53
1659950271.23782,1269633.6596144,50
1659950271.23782,1269633.6596164,43
1659950271.23782,1269633.6596184,38
1659950271.23782,1269633.6596204,45
1659950271.23782,1269633.6596223,48
1659950271.23782,1269633.6596243,33
1659950271.23782,1269633.6596262,33
1659950271.23782,1269633.6596282,58
1659950271.23782,1269633.6596344,79
1659950271.23782,1269633.6596449,77
1659950271.23782,1269633.6596507,62
1659950271.23782,1269633.6596535,55
1659950271.23782,1269633.6596556,50
1659950271.23782,1269633.6596577,38
1659950271.23782,1269633.6596597,33
1659950271.23782,1269633.6596618,29
1659950271.23782,1269633.6596638,-9
1659950271.23782,1269633.6596659,-19
1659950271.23782,1269633.6596679,94
1659950271.23782,1269633.6596699,222
1659950271.23782,1269633.6596719,87
1659950271.23782,1269633.659674,-246
1659950271.23782,1269633.6596759,-251
1659950271.23782,1269633.6596779,50
1659950271.23782,1269633.6596799,130
1659950271.23782,1269633.659682,38
1659950271.23782,1269633.6596841,65
1659950271.23782,1269633.6596861,111
1659950271.23782,1269633.6596881,91
1659950271.23782,1269633.6596901,89
1659950271.23782,1269633.6596921,111
1659950271.23782,1269633.6596941,120
1659950271.23782,1269633.6596961,130
1659950271.23782,1269634.1479045,149
1659950271.23782,1269634.1479245,166
1659950271.23782,1269634.1479293,171
1659950271.23782,1269634.1479333,176
1659950271.23782,1269634.147937,198
1659950271.23782,1269634.1479409,227
1659950271.2488,1269634.147946,239
1659950271.2488,1269634.1479531,244
1659950271.2488,1269634.1479591,253
1659950271.2488,1269634.1479644,248
1659950271.2488,1269634.1479706,234
1659950271.2488,1269634.1479747,219
1659950271.2488,1269634.1479798,198
1659950271.2488,1269634.1479851,161
1659950271.2488,1269634.14799,130
1659950271.2488,1269634.1479935,113
1659950271.2488,1269634.1479975,108
1659950271.2488,1269634.1480034,108
1659950271.2488,1269634.1480095,108
1659950271.2488,1269634.1480154,103
1659950271.2488,1269634.1480234,91
1659950271.2488,1269634.1480304,91
1659950271.2488,1269634.1480378,94
1659950271.2488,1269634.1480509,96
1659950271.2488,1269634.148062,111
1659950271.2488,1269634.1480716,113
1659950271.2488,1269634.1480813,94
1659950271.2488,1269634.1480871,84
1659950271.2488,1269634.1480928,77
1659950271.2488,1269634.1481038,67
1659950271.82624,1269634.1481141,72
1659950271.82624,1269634.1481216,77
1659950271.82624,1269634.1481261,58
1659950271.82624,1269634.1481331,7
1659950271.82624,1269634.1481399,-31
1659950271.82624,1269634.1481485,38
1659950271.82624,1269634.1481587,178
1659950271.82624,1269634.1481667,128
1659950271.82624,1269634.1481733,-171
1659950271.82624,1269634.1481826,-248
1659950271.82624,1269634.1481914,26
1659950271.82624,1269634.1482044,154
1659950271.82624,1269634.1482176,74
1659950271.82624,1269634.1482307,87
1659950271.82624,1269634.1482438,135
1659950271.82624,1269634.148257,116
1659950271.82624,1269634.1482704,111
1659950271.82624,1269634.1482832,130
1659950271.82624,1269634.1482959,137
1659950271.82624,1269634.1483046,147
1659950271.82624,1269634.1483157,159
1659950271.82624,1269634.1483269,157
1659950271.82624,1269634.1483352,157
1659950271.82624,1269634.1483454,181
1659950271.82624,1269634.1483561,212
1659950271.82624,1269634.1483639,236
1659950271.82624,1269634.1483744,248
1659950271.82624,1269634.1483853,263
1659950271.82624,1269634.148393,265
1659950271.82624,1269634.1484046,258
1659950271.82624,1269634.1484154,248
1659950271.82624,1269634.1484242,246
1659950271.82624,1269634.1484373,234
1659950271.82624,1269634.1484475,195
1659950271.82624,1269634.1484542,161
1659950271.82624,1269634.1484664,154
1659950271.82624,1269634.1484746,149
1659950271.82624,1269634.1484798,145
1659950271.82624,1269634.1484909,128
1659950271.82624,1269634.1484995,106
1659950271.82624,1269634.148506,96
1659950271.82624,1269634.1485133,94
1659950271.82624,1269634.1485233,96
1659950271.82624,1269634.7331957,99
1659950271.82624,1269634.7332144,113
1659950271.82624,1269634.733223,135
1659950271.82624,1269634.7332342,140
1659950271.82624,1269634.7332446,116
1659950271.82624,1269634.7332509,99
1659950271.82624,1269634.7332589,96
1659950271.83721,1269634.733263,103
1659950271.83721,1269634.7332689,108
1659950271.83721,1269634.7332735,77
1659950271.83721,1269634.7332769,-2
1659950271.83721,1269634.7332921,-62
1659950271.83721,1269634.7333328,-7
1659950271.83721,1269634.7333378,130
1659950271.83721,1269634.7333417,101
1659950271.83721,1269634.7333459,-195
1659950271.83721,1269634.7333746,-314
1659950271.83721,1269634.7333853,-45
1659950271.83721,1269634.7333904,113
1659950271.83721,1269634.733395,31
1659950271.83721,1269634.7333998,29
1659950271.83721,1269634.7334044,77
1659950271.83721,1269634.7334089,41
1659950271.83721,1269634.7334138,26
1659950271.83721,1269634.7334186,67
1659950271.83721,1269634.7334255,74
1659950271.83721,1269634.733434,60
1659950271.83721,1269634.7334404,74
1659950271.83721,1269634.7334507,91
1659950271.83721,1269634.7334576,101
1659950271.83721,1269634.7334622,120
1659950272.35394,1269634.7334668,145
1659950272.35394,1269634.7334713,166
1659950272.35394,1269634.7334759,188
1659950272.35394,1269634.7334803,203
1659950272.35394,1269634.7334848,205
1659950272.35394,1269634.7334894,203
1659950272.35394,1269634.733494,198
1659950272.35394,1269634.7334988,181
1659950272.35394,1269634.7335033,161
1659950272.35394,1269634.7335122,142
1659950272.35394,1269634.7335171,113
1659950272.35394,1269634.7335217,82
1659950272.35394,1269634.7335394,70
1659950272.35394,1269634.7335541,65
1659950272.35394,1269634.7335609,50
1659950272.35394,1269634.733568,36
1659950272.35394,1269634.7335728,41
1659950272.35394,1269634.7335783,48
1659950272.35394,1269634.7335846,41
1659950272.35394,1269634.7335895,43
1659950272.35394,1269634.7335962,55
1659950272.35394,1269634.7336023,65
1659950272.35394,1269634.7336082,70
1659950272.35394,1269634.7336176,60
1659950272.35394,1269634.7336314,41
1659950272.35394,1269634.7336437,24
1659950272.35394,1269634.7336576,19
1659950272.35394,1269634.7336706,24
1659950272.35394,1269634.7336851,24
1659950272.35394,1269634.733697,-9
1659950272.35394,1269634.7337089,-60
1659950272.35394,1269634.7337204,-12
1659950272.35394,1269634.7337356,135
1659950272.35394,1269634.7337472,101
1659950272.35394,1269634.733762,-241
1659950272.35394,1269634.7337753,-408
1659950272.35394,1269634.7337896,-135
1659950272.35394,1269634.7338027,65
1659950272.35394,1269634.7338159,-9
1659950272.35394,1269634.7338291,-26
1659950272.35394,1269634.7338423,29
1659950272.35394,1269634.733856,9
1659950272.35394,1269635.2682262,-7
1659950272.35394,1269635.2682483,19
1659950272.35394,1269635.26826,26
1659950272.35394,1269635.2682706,33
1659950272.35394,1269635.2682772,53
1659950272.35394,1269635.2682876,53
1659950272.35394,1269635.2682961,50
1659950272.35394,1269635.2683042,74
1659950272.36192,1269635.2683095,101
1659950272.36192,1269635.2683184,113
1659950272.36192,1269635.2683245,128
1659950272.36192,1269635.268334,130
1659950272.36192,1269635.2683399,142
1659950272.36192,1269635.2683441,203
1659950272.36192,1269635.26835,219
1659950272.36192,1269635.2683562,145
1659950272.36192,1269635.2683664,103
1659950272.36192,1269635.2683771,106
1659950272.36192,1269635.2683898,84
1659950272.36192,1269635.268397,65
1659950272.36192,1269635.2684059,50
1659950272.36192,1269635.268418,-2
1659950272.36192,1269635.2684241,-33
1659950272.36192,1269635.2684266,-19
1659950272.36192,1269635.2684386,-12
1659950272.36192,1269635.2684498,-26
1659950272.36192,1269635.268455,-31
1659950272.36192,1269635.2684616,-24
1659950272.36192,1269635.2684671,-2
1659950272.36192,1269635.2684755,26
1659950272.36192,1269635.2684902,50
1659950272.36192,1269635.2684998,38
1659950272.89719,1269635.2685073,14
1659950272.89719,1269635.2685138,16
1659950272.89719,1269635.2685201,14
1659950272.89719,1269635.268527,-12
1659950272.89719,1269635.2685333,4
1659950272.89719,1269635.2685383,29
1659950272.89719,1269635.2685444,-4
1659950272.89719,1269635.2685533,87
1659950272.89719,1269635.26856,306
1659950272.89719,1269635.2685682,232
1659950272.89719,1269635.268575,-227
1659950272.89719,1269635.2685836,-437
1659950272.89719,1269635.2685906,-140
1659950272.89719,1269635.2685991,108
1659950272.89719,1269635.2686057,62
1659950272.89719,1269635.268614,36
1659950272.89719,1269635.2686202,116
1659950272.89719,1269635.2686289,142
1659950272.89719,1269635.2686354,106
1659950272.89719,1269635.2686437,101
1659950272.89719,1269635.2686501,106
1659950272.89719,1269635.2686594,84
1659950272.89719,1269635.2686663,94
1659950272.89719,1269635.2686752,161
1659950272.89719,1269635.2686819,212
1659950272.89719,1269635.2686903,200
1659950272.89719,1269635.2686967,212
1659950272.89719,1269635.2687054,261
1659950272.89719,1269635.2687118,285
1659950272.89719,1269635.2687201,328
1659950272.89719,1269635.2687262,355
1659950272.89719,1269635.2687347,306
1659950272.89719,1269635.2687409,309
1659950272.89719,1269635.2687492,348
1659950272.89719,1269635.2687557,282
1659950272.89719,1269635.2687644,227
1659950272.89719,1269635.2687708,227
1659950272.89719,1269635.2687795,147
1659950272.89719,1269635.2687863,113
1659950272.89719,1269635.2687948,193
1659950272.89719,1269635.2688011,200
1659950272.89719,1269635.803521,166
1659950272.89719,1269635.8035329,181
1659950272.89719,1269635.8035361,154
1659950272.89719,1269635.8035388,125
1659950272.89719,1269635.8035414,142
1659950272.89719,1269635.8035439,120
1659950272.89719,1269635.8035463,137
1659950272.89719,1269635.8035488,227
1659950272.89719,1269635.8035513,200
1659950272.90816,1269635.8035537,113
1659950272.90816,1269635.8035562,103
1659950272.90816,1269635.8035586,101
1659950272.90816,1269635.803561,77
1659950272.90816,1269635.8035634,125
1659950272.90816,1269635.8035659,181
1659950272.90816,1269635.8035683,94
1659950272.90816,1269635.8035706,53
1659950272.90816,1269635.8035731,256
1659950272.90816,1269635.8035756,297
1659950272.90816,1269635.803578,-91
1659950272.90816,1269635.8035849,-304
1659950272.90816,1269635.8035977,-29
1659950272.90816,1269635.8036048,166
1659950272.90816,1269635.803607,72
1659950272.90816,1269635.8036091,48
1659950272.90816,1269635.8036113,152
1659950272.90816,1269635.8036133,166
1659950272.90816,1269635.8036154,91
1659950272.90816,1269635.8036174,101
1659950272.90816,1269635.8036204,169
1659950272.90816,1269635.8036289,186
1659950272.90816,1269635.8036412,166
1659950272.90816,1269635.8036463,171
1659950273.47564,1269635.8036495,195
1659950273.47564,1269635.8036583,193
1659950273.47564,1269635.8036643,248
1659950273.47564,1269635.803671,331
1659950273.47564,1269635.8036781,328
1659950273.47564,1269635.8036853,335
1659950273.47564,1269635.8036919,374
1659950273.47564,1269635.8036965,355
1659950273.47564,1269635.8037002,309
1659950273.47564,1269635.8037036,290
1659950273.47564,1269635.8037067,297
1659950273.47564,1269635.8037114,297
1659950273.47564,1269635.8037153,253
1659950273.47564,1269635.8037258,178
1659950273.47564,1269635.8037291,152
1659950273.47564,1269635.8037313,159
1659950273.47564,1269635.803734,132
1659950273.47564,1269635.8037362,113
1659950273.47564,1269635.8037429,135
1659950273.47564,1269635.8037525,142
1659950273.47564,1269635.8037623,123
1659950273.47564,1269635.803774,125
1659950273.47564,1269635.8037828,157
1659950273.47564,1269635.8037876,166
1659950273.47564,1269635.8037899,166
1659950273.47564,1269635.8037976,161
1659950273.47564,1269635.8038094,142
1659950273.47564,1269635.8038227,118
1659950273.47564,1269635.803829,89
1659950273.47564,1269635.8038412,84
1659950273.47564,1269635.8038445,99
1659950273.47564,1269635.8038467,74
1659950273.47564,1269635.8038488,48
1659950273.47564,1269635.8038508,123
1659950273.47564,1269635.8038529,287
1659950273.47564,1269635.803855,241
1659950273.47564,1269635.8038573,-152
1659950273.47564,1269635.8038652,-348
1659950273.47564,1269635.8038758,-94
1659950273.47564,1269635.8038802,77
1659950273.47564,1269636.389449,48
1659950273.47564,1269636.389472,87
1659950273.47564,1269636.3894845,113
1659950273.47564,1269636.3894977,91
1659950273.47564,1269636.3895061,120
1659950273.47564,1269636.389512,132
1659950273.47564,1269636.389515,79
1659950273.47564,1269636.389518,101
1659950273.47564,1269636.3895208,178
1659950273.47564,1269636.3895237,183
1659950273.48661,1269636.3895266,178
1659950273.48661,1269636.3895418,207
1659950273.48661,1269636.3895544,215
1659950273.48661,1269636.3895665,193
1659950273.48661,1269636.3895754,219
1659950273.48661,1269636.389583,294
1659950273.48661,1269636.3895918,297
1659950273.48661,1269636.3896005,251
1659950273.48661,1269636.389605,261
1659950273.48661,1269636.3896134,285
1659950273.48661,1269636.3896206,261
1659950273.48661,1269636.3896288,215
1659950273.48661,1269636.3896351,174
1659950273.48661,1269636.3896435,130
1659950273.48661,1269636.3896507,113
1659950273.48661,1269636.3896575,137
1659950273.48661,1269636.3896605,140
1659950273.48661,1269636.3896635,116
1659950273.48661,1269636.3896664,111
1659950273.48661,1269636.3896694,118
1659950273.48661,1269636.3896724,106
1659950273.48661,1269636.3896775,96
1659950273.48661,1269636.3897154,123
1659950273.48661,1269636.3897381,161
1659950274.11395,1269636.3897507,164
1659950274.11395,1269636.3897578,142
1659950274.11395,1269636.3897658,140
1659950274.11395,1269636.3897723,142
1659950274.11395,1269636.3897782,103
1659950274.11395,1269636.3897818,91
1659950274.11395,1269636.3897856,116
1659950274.11395,1269636.3897885,58
1659950274.11395,1269636.389792,-4
1659950274.11395,1269636.3897953,125
1659950274.11395,1269636.3897998,292
1659950274.11395,1269636.3898044,195
1659950274.11395,1269636.3898082,-79
1659950274.11395,1269636.3898147,-137
1659950274.11395,1269636.3898196,45
1659950274.11395,1269636.3898234,101
1659950274.11395,1269636.3898263,41
1659950274.11395,1269636.3898292,125
1659950274.11395,1269636.3898322,195
1659950274.11395,1269636.3898353,120
1659950274.11395,1269636.389841,111
1659950274.11395,1269636.389846,164
1659950274.11395,1269636.3898512,166
1659950274.11395,1269636.3898563,169
1659950274.11395,1269636.3898648,188
1659950274.11395,1269636.3898725,200
1659950274.11395,1269636.38988,215
1659950274.11395,1269636.3898887,217
1659950274.11395,1269636.3898983,219
1659950274.11395,1269636.3899057,241
1659950274.11395,1269636.3899108,270
1659950274.11395,1269636.3899197,314
1659950274.11395,1269636.3899279,338
1659950274.11395,1269636.3899356,294
1659950274.11395,1269636.3899424,263
1659950274.11395,1269636.3899482,268
1659950274.11395,1269636.3899582,232
1659950274.11395,1269636.3899671,188
1659950274.11395,1269636.389976,174
1659950274.11395,1269637.0234188,140
1659950274.11395,1269637.0234396,96
1659950274.11395,1269637.0234537,84
1659950274.11395,1269637.0234577,106
1659950274.11395,1269637.0234599,123
1659950274.11395,1269637.023462,89
1659950274.11395,1269637.0234642,48
1659950274.11395,1269637.0234663,58
1659950274.11395,1269637.0234684,67
1659950274.11395,1269637.0234704,65
1659950274.11395,1269637.0234725,70
1659950274.12492,1269637.0234746,62
1659950274.12492,1269637.0234767,24
1659950274.12492,1269637.0234789,-2
1659950274.12492,1269637.0234811,16
1659950274.12492,1269637.0234831,31
1659950274.12492,1269637.0234852,14
1659950274.12492,1269637.0234887,-21
1659950274.12492,1269637.0234995,-77
1659950274.12492,1269637.0235082,-70
1659950274.12492,1269637.0235106,103
1659950274.12492,1269637.0235127,253
1659950274.12492,1269637.0235148,-4
1659950274.12492,1269637.0235169,-447
1659950274.12492,1269637.0235189,-406
1659950274.12492,1269637.0235209,-94
1659950274.12492,1269637.023523,-55
1659950274.12492,1269637.023525,-72
1659950274.12492,1269637.0235311,-2
1659950274.12492,1269637.0235427,-24
1659950274.12492,1269637.0235481,-72
1659950274.12492,1269637.0235502,-67
1659950274.12492,1269637.0235522,-60
1659950274.12492,1269637.0235555,-58
1659950274.12492,1269637.0235577,-55
1659950274.69654,1269637.0235633,-67
1659950274.69654,1269637.0235733,-48
1659950274.69654,1269637.0235775,-2
1659950274.69654,1269637.0235797,24
1659950274.69654,1269637.0235819,53
1659950274.69654,1269637.023584,103
1659950274.69654,1269637.0235917,137
1659950274.69654,1269637.0236019,149
1659950274.69654,1269637.0236081,169
1659950274.69654,1269637.023612,198
1659950274.69654,1269637.0236221,200
1659950274.69654,1269637.0236334,169
1659950274.69654,1269637.0236418,147
1659950274.69654,1269637.0236482,116
1659950274.69654,1269637.023661,36
1659950274.69654,1269637.0236706,-16
1659950274.69654,1269637.023673,-19
1659950274.69654,1269637.023676,4
1659950274.69654,1269637.023685,26
1659950274.69654,1269637.0236973,43
1659950274.69654,1269637.0237025,62
1659950274.69654,1269637.0237056,53
1659950274.69654,1269637.0237077,38
1659950274.69654,1269637.0237098,72
1659950274.69654,1269637.0237132,108
1659950274.69654,1269637.0237262,99
1659950274.69654,1269637.0237322,77
1659950274.69654,1269637.0237344,77
1659950274.69654,1269637.0237364,62
1659950274.69654,1269637.0237519,31
1659950274.69654,1269637.0237539,33
1659950274.69654,1269637.0237569,48
1659950274.69654,1269637.0237817,24
1659950274.69654,1269637.023788,-36
1659950274.69654,1269637.0237905,-9
1659950274.69654,1269637.0237927,186
1659950274.69654,1269637.0237948,333
1659950274.69654,1269637.0237968,125
1659950274.69654,1269637.6094683,-246
1659950274.69654,1269637.6094873,-222
1659950274.69654,1269637.6094944,41
1659950274.69654,1269637.609498,53
1659950274.69654,1269637.6095015,-7
1659950274.69654,1269637.6095063,48
1659950274.69654,1269637.6095095,38
1659950274.69654,1269637.6095138,4
1659950274.69654,1269637.6095172,43
1659950274.69654,1269637.6095205,58
1659950274.69654,1269637.6095249,14
1659950274.69654,1269637.6095283,2
1659950274.70752,1269637.6095316,21
1659950274.70752,1269637.609537,36
1659950274.70752,1269637.6095405,55
1659950274.70752,1269637.6095454,67
1659950274.70752,1269637.6095488,87
1659950274.70752,1269637.6095536,154
1659950274.70752,1269637.609557,232
1659950274.70752,1269637.6095603,239
1659950274.70752,1269637.6095652,193
1659950274.70752,1269637.6095701,174
1659950274.70752,1269637.6095784,178
1659950274.70752,1269637.6096068,149
1659950274.70752,1269637.6096188,113
1659950274.70752,1269637.6096276,94
1659950274.70752,1269637.6096321,74
1659950274.70752,1269637.6096359,50
1659950274.70752,1269637.6096389,14
1659950274.70752,1269637.6096419,14
1659950274.70752,1269637.609645,60
1659950274.70752,1269637.6096479,38
1659950274.70752,1269637.6096526,-41
1659950274.70752,1269637.60966,-43
1659950274.70752,1269637.6096734,26
1659950274.70752,1269637.6096824,65
1659950275.22995,1269637.6096912,55
1659950275.22995,1269637.6096966,53
1659950275.22995,1269637.6097027,60
1659950275.22995,1269637.609709,24
1659950275.22995,1269637.609714,-9
1659950275.22995,1269637.609718,33
1659950275.22995,1269637.6097213,67
1659950275.22995,1269637.609725,29
1659950275.22995,1269637.6097285,-2
1659950275.22995,1269637.6097332,-21
1659950275.22995,1269637.6097382,31
1659950275.22995,1269637.6097459,239
1659950275.22995,1269637.6097592,309
1659950275.22995,1269637.6097692,0
1659950275.22995,1269637.6097741,-253
1659950275.22995,1269637.6097782,-89
1659950275.22995,1269637.6097836,113
1659950275.22995,1269637.6097965,91
1659950275.22995,1269637.6098028,74
1659950275.22995,1269637.609811,123
1659950275.22995,1269637.6098183,108
1659950275.22995,1269637.6098259,70
1659950275.22995,1269637.6098313,82
1659950275.22995,1269637.6098406,103
1659950275.22995,1269637.6098475,132
1659950275.22995,1269637.6098508,181
1659950275.22995,1269637.6098637,198
1659950275.22995,1269637.6098702,195
1659950275.22995,1269637.6098783,227
1659950275.22995,1269637.6098905,256
1659950275.22995,1269637.6099054,280
1659950275.22995,1269637.6099177,335
1659950275.22995,1269637.6099273,369
1659950275.22995,1269637.6099347,350
1659950275.22995,1269637.6099429,335
1659950275.22995,1269637.6099486,338
1659950275.22995,1269637.609954,316
1659950275.22995,1269638.1439708,323
1659950275.22995,1269638.1440545,338
1659950275.22995,1269638.1440594,280
1659950275.22995,1269638.1440624,200
1659950275.22995,1269638.1440686,215
1659950275.22995,1269638.1440755,244
1659950275.22995,1269638.1440814,198
1659950275.22995,1269638.1440858,174
1659950275.22995,1269638.1440891,200
1659950275.22995,1269638.1440925,178
1659950275.22995,1269638.1440961,130
1659950275.22995,1269638.1440997,137
1659950275.22995,1269638.1441032,174
1659950275.24092,1269638.1441075,195
1659950275.24092,1269638.1441114,207
1659950275.24092,1269638.1441142,174
1659950275.24092,1269638.1441234,94
1659950275.24092,1269638.14413,62
1659950275.24092,1269638.1441472,84
1659950275.24092,1269638.144153,82
1659950275.24092,1269638.1441579,70
1659950275.24092,1269638.1441627,53
1659950275.24092,1269638.1441663,0
1659950275.24092,1269638.1441713,58
1659950275.24092,1269638.1441776,270
1659950275.24092,1269638.144182,246
1659950275.24092,1269638.1441873,-140
1659950275.24092,1269638.1441918,-309
1659950275.24092,1269638.1441956,-62
1659950275.24092,1269638.1441991,79
1659950275.24092,1269638.1442028,12
1659950275.24092,1269638.1442065,19
1659950275.24092,1269638.14421,62
1659950275.24092,1269638.1442135,48
1659950275.24092,1269638.1442177,29
1659950275.24092,1269638.1442214,19
1659950275.24092,1269638.1442272,29
1659950275.77014,1269638.1442317,62
1659950275.77014,1269638.1442354,38
1659950275.77014,1269638.1442391,2
1659950275.77014,1269638.1442426,38
1659950275.77014,1269638.1442463,48
1659950275.77014,1269638.1442501,31
1659950275.77014,1269638.1442721,74
1659950275.77014,1269638.1442768,108
1659950275.77014,1269638.144281,137
1659950275.77014,1269638.1442847,186
1659950275.77014,1269638.1442883,154
1659950275.77014,1269638.1442944,82
1659950275.77014,1269638.1442982,74
1659950275.77014,1269638.1443034,84
1659950275.77014,1269638.1443077,79
1659950275.77014,1269638.1443113,65
1659950275.77014,1269638.1443166,4
1659950275.77014,1269638.1443202,-58
1659950275.77014,1269638.1443236,-60
1659950275.77014,1269638.1443269,-53
1659950275.77014,1269638.144331,-67
1659950275.77014,1269638.1443343,-87
1659950275.77014,1269638.1443377,-116
1659950275.77014,1269638.1443416,-142
1659950275.77014,1269638.1443453,-111
1659950275.77014,1269638.1443491,-53
1659950275.77014,1269638.1443529,-55
1659950275.77014,1269638.1443568,-96
1659950275.77014,1269638.1443602,-111
1659950275.77014,1269638.144364,-99
1659950275.77014,1269638.1443706,-82
1659950275.77014,1269638.1443743,-94
1659950275.77014,1269638.1443795,-132
1659950275.77014,1269638.1443832,-152
1659950275.77014,1269638.1443891,-169
1659950275.77014,1269638.1443927,-157
1659950275.77014,1269638.6820614,-12
1659950275.77014,1269638.6820806,166
1659950275.77014,1269638.6820893,26
1659950275.77014,1269638.682094,-362
1659950275.77014,1269638.6820998,-432
1659950275.77014,1269638.682104,-178
1659950275.77014,1269638.6821103,-94
1659950275.77014,1269638.6821147,-166
1659950275.77014,1269638.6821205,-169
1659950275.77014,1269638.6821245,-161
1659950275.77014,1269638.68213,-171
1659950275.77014,1269638.682134,-149
1659950275.77014,1269638.6821405,-137
1659950275.77014,1269638.6821449,-157
1659950275.78011,1269638.6821509,-152
1659950275.78011,1269638.6821551,-128
1659950275.78011,1269638.6821608,-94
1659950275.78011,1269638.6821656,-50
1659950275.78011,1269638.6821741,-58
1659950275.78011,1269638.6821791,-77
1659950275.78011,1269638.6821848,-9
1659950275.78011,1269638.6821887,53
1659950275.78011,1269638.6821947,53
1659950275.78011,1269638.6822007,70
1659950275.78011,1269638.6822074,77
1659950275.78011,1269638.6822162,19
1659950275.78011,1269638.6822243,-2
1659950275.78011,1269638.6822376,21
1659950275.78011,1269638.6822456,-12
1659950275.78011,1269638.6822741,-53
1659950275.78011,1269638.6822838,-55
1659950275.78011,1269638.6822884,-91
1659950275.78011,1269638.6822946,-140
1659950275.78011,1269638.6822986,-137
1659950275.78011,1269638.6823026,-108
1659950275.78011,1269638.682308,-89
1659950275.78011,1269638.6823133,-101
1659950275.78011,1269638.682319,-128
1659950276.3525,1269638.6823229,-118
1659950276.3525,1269638.6823268,-65
1659950276.3525,1269638.6823308,-31
1659950276.3525,1269638.6823349,-48
1659950276.3525,1269638.682339,-72
1659950276.3525,1269638.6823432,-50
1659950276.3525,1269638.6823512,-36
1659950276.3525,1269638.6823554,-70
1659950276.3525,1269638.6823594,-82
1659950276.3525,1269638.6823697,-70
1659950276.3525,1269638.6823755,-120
1659950276.3525,1269638.6823793,-116
1659950276.3525,1269638.6823833,67
1659950276.3525,1269638.6823888,248
1659950276.3525,1269638.6823937,82
1659950276.3525,1269638.682399,-299
1659950276.3525,1269638.6824032,-292
1659950276.3525,1269638.6824085,-4
1659950276.3525,1269638.6824136,19
1659950276.3525,1269638.6824189,-82
1659950276.3525,1269638.6824233,-41
1659950276.3525,1269638.6824289,2
1659950276.3525,1269638.682433,-26
1659950276.3525,1269638.6824383,-19
1659950276.3525,1269638.682443,-7
1659950276.3525,1269638.6824483,-19
1659950276.3525,1269638.6824529,2
1659950276.3525,1269638.6824586,21
1659950276.3525,1269638.6824625,41
1659950276.3525,1269638.6824663,91
1659950276.3525,1269638.6824716,123
1659950276.3525,1269638.6824764,140
1659950276.3525,1269638.6824805,154
1659950276.3525,1269638.682486,166
1659950276.3525,1269638.6824897,203
1659950276.3525,1269639.2657155,227
1659950276.3525,1269639.265733,181
1659950276.3525,1269639.2657413,130
1659950276.3525,1269639.2657458,103
1659950276.3525,1269639.2657517,79
1659950276.3525,1269639.2657554,67
1659950276.3525,1269639.2657592,50
1659950276.3525,1269639.2657647,19
1659950276.3525,1269639.2657681,9
1659950276.3525,1269639.2657736,2
1659950276.3525,1269639.2657775,-2
1659950276.3525,1269639.2657814,12
1659950276.3525,1269639.2657864,7
1659950276.3525,1269639.2657937,-7
1659950276.3525,1269639.2657993,-2
1659950276.36347,1269639.2658048,-4
1659950276.36347,1269639.2658086,-2
1659950276.36347,1269639.2658119,9
1659950276.36347,1269639.2658155,12
1659950276.36347,1269639.2658206,24
1659950276.36347,1269639.2658239,43
1659950276.36347,1269639.2658272,31
1659950276.36347,1269639.2658327,-9
1659950276.36347,1269639.2658362,-2
1659950276.36347,1269639.2658399,14
1659950276.36347,1269639.2658448,-43
1659950276.36347,1269639.2658503,-21
1659950276.36347,1269639.265854,169
1659950276.36347,1269639.2658614,263
1659950276.36347,1269639.2658674,-7
1659950276.36347,1269639.2658723,-302
1659950276.36347,1269639.2658772,-159
1659950276.36347,1269639.2658847,72
1659950276.36347,1269639.265889,33
1659950276.36347,1269639.2658923,-21
1659950276.36347,1269639.2658959,31
1659950276.36347,1269639.2659028,41
1659950276.36347,1269639.2659068,31
1659950276.36347,1269639.2659107,45
1659950276.84655,1269639.2659157,55
1659950276.84655,1269639.2659202,70
1659950276.84655,1269639.2659235,82
1659950276.84655,1269639.2659266,84
1659950276.84655,1269639.2659298,113
1659950276.84655,1269639.265934,154
1659950276.84655,1269639.2659385,169
1659950276.84655,1269639.2659417,186
1659950276.84655,1269639.2659449,224
1659950276.84655,1269639.2659479,251
1659950276.84655,1269639.2659509,253
1659950276.84655,1269639.2659542,256
1659950276.84655,1269639.2659577,265
1659950276.84655,1269639.2659608,244
1659950276.84655,1269639.265964,188
1659950276.84655,1269639.2659683,152
1659950276.84655,1269639.2659716,135
1659950276.84655,1269639.265975,120
1659950276.84655,1269639.2659783,111
1659950276.84655,1269639.2659817,106
1659950276.84655,1269639.2659868,94
1659950276.84655,1269639.26599,82
1659950276.84655,1269639.2659934,94
1659950276.84655,1269639.2659968,94
1659950276.84655,1269639.2660019,67
1659950276.84655,1269639.2660051,77
1659950276.84655,1269639.2660083,137
1659950276.84655,1269639.2660117,178
1659950276.84655,1269639.2660169,181
1659950276.84655,1269639.2660201,154
1659950276.84655,1269639.2660241,116
1659950276.84655,1269639.2660274,103
1659950276.84655,1269639.2660306,118
1659950276.84655,1269639.2660338,118
1659950276.84655,1269639.7532536,87
1659950276.84655,1269639.7532731,60
1659950276.84655,1269639.753282,58
1659950276.84655,1269639.7532935,145
1659950276.84655,1269639.7533026,314
1659950276.84655,1269639.7533107,294
1659950276.84655,1269639.7533162,-21
1659950276.84655,1269639.7533214,-181
1659950276.84655,1269639.7533273,60
1659950276.84655,1269639.7533335,219
1659950276.84655,1269639.7533385,135
1659950276.84655,1269639.7533426,111
1659950276.84655,1269639.753347,149
1659950276.84655,1269639.7533511,142
1659950276.84655,1269639.7533553,154
1659950276.84655,1269639.7533597,188
1659950276.85754,1269639.7533639,178
1659950276.85754,1269639.7533697,154
1659950276.85754,1269639.7533764,183
1659950276.85754,1269639.7533815,222
1659950276.85754,1269639.753385,224
1659950276.85754,1269639.7533882,246
1659950276.85754,1269639.7533914,287
1659950276.85754,1269639.7534015,304
1659950276.85754,1269639.7534085,319
1659950276.85754,1269639.7534185,338
1659950276.85754,1269639.7534253,348
1659950276.85754,1269639.7534278,343
1659950276.85754,1269639.75343,314
1659950276.85754,1269639.7534321,290
1659950276.85754,1269639.7534341,270
1659950276.85754,1269639.7534369,234
1659950276.85754,1269639.7534473,200
1659950276.85754,1269639.7534548,183
1659950276.85754,1269639.7534573,166
1659950276.85754,1269639.7534595,161
1659950276.85754,1269639.7534615,193
1659950276.85754,1269639.753469,186
1659950276.85754,1269639.7534796,135
1659950276.85754,1269639.7534842,145
1659950277.37392,1269639.7534863,178
1659950277.37392,1269639.753489,169
1659950277.37392,1269639.7534963,181
1659950277.37392,1269639.7535054,241
1659950277.37392,1269639.7535087,290
1659950277.37392,1269639.7535108,282
1659950277.37392,1269639.7535128,224
1659950277.37392,1269639.7535203,203
1659950277.37392,1269639.7535296,248
1659950277.37392,1269639.7535351,263
1659950277.37392,1269639.7535387,217
1659950277.37392,1269639.7535491,178
1659950277.37392,1269639.7535568,157
1659950277.37392,1269639.7535603,222
1659950277.37392,1269639.7535625,372
1659950277.37392,1269639.7535697,287
1659950277.37392,1269639.7535804,-91
1659950277.37392,1269639.7535851,-198
1659950277.37392,1269639.7535873,65
1659950277.37392,1269639.7535894,159
1659950277.37392,1269639.7535916,74
1659950277.37392,1269639.7535957,82
1659950277.37392,1269639.7535978,108
1659950277.37392,1269639.7536,99
1659950277.37392,1269639.753607,84
1659950277.37392,1269639.7536189,70
1659950277.37392,1269639.7536312,84
1659950277.37392,1269639.7536393,120
1659950277.37392,1269639.7536487,101
1659950277.37392,1269639.7536545,82
1659950277.37392,1269639.7536591,132
1659950277.37392,1269639.753665,181
1659950277.37392,1269639.7536687,195
1659950277.37392,1269640.2888361,224
1659950277.37392,1269640.2888484,246
1659950277.37392,1269640.2888528,244
1659950277.37392,1269640.2888583,241
1659950277.37392,1269640.2888609,241
1659950277.37392,1269640.2888645,239
1659950277.37392,1269640.2888671,234

1659950277.37392,1269640.2888696,198
1659950277.37392,1269640.288872,149
1659950277.37392,1269640.2888742,120
1659950277.37392,1269640.2888764,96
1659950277.37392,1269640.2888786,70
1659950277.37392,1269640.2888808,70
1659950277.37392,1269640.2888832,67
1659950277.37392,1269640.2888895,31
1659950277.37392,1269640.2889013,-2
1659950277.37392,1269640.2889071,-29
1659950277.38491,1269640.2889095,-48
1659950277.38491,1269640.2889116,-45
1659950277.38491,1269640.2889137,-33
1659950277.38491,1269640.2889158,-16
1659950277.38491,1269640.288921,-16
1659950277.38491,1269640.2889349,-33
1659950277.38491,1269640.2889481,-50
1659950277.38491,1269640.2889677,-62
1659950277.38491,1269640.2889792,-26
1659950277.38491,1269640.2889862,9
1659950277.38491,1269640.2889959,-24
1659950277.38491,1269640.2890007,-82
1659950277.38491,1269640.2890084,-82
1659950277.38491,1269640.2890118,50
1659950277.38491,1269640.2890151,207
1659950277.38491,1269640.2890185,67
1659950277.38491,1269640.2890221,-323
1659950277.38491,1269640.2890256,-406
1659950277.38491,1269640.2890293,-149
1659950277.38491,1269640.2890331,-55
1659950277.38491,1269640.2890368,-113
1659950277.38491,1269640.2890406,-74
1659950277.38491,1269640.2890444,-36
1659950277.38491,1269640.2890481,-60
1659950278.05989,1269640.2890517,-48
1659950278.05989,1269640.2890559,-12
1659950278.05989,1269640.2890591,-26
1659950278.05989,1269640.2890625,-29
1659950278.05989,1269640.289066,26
1659950278.05989,1269640.2890694,45
1659950278.05989,1269640.2890728,24
1659950278.05989,1269640.2890763,62
1659950278.05989,1269640.2890799,130
1659950278.05989,1269640.2890832,130
1659950278.05989,1269640.2890868,120
1659950278.05989,1269640.2890902,142
1659950278.05989,1269640.2890942,125
1659950278.05989,1269640.2890984,77
1659950278.05989,1269640.2891031,58
1659950278.05989,1269640.2891078,43
1659950278.05989,1269640.2891147,2
1659950278.05989,1269640.2891178,-55
1659950278.05989,1269640.2891207,-106
1659950278.05989,1269640.2891238,-130
1659950278.05989,1269640.2891283,-140
1659950278.05989,1269640.2891314,-142
1659950278.05989,1269640.2891447,-135
1659950278.05989,1269640.2891582,-140
1659950278.05989,1269640.289172,-142
1659950278.05989,1269640.289186,-128
1659950278.05989,1269640.2891953,-135
1659950278.05989,1269640.2892042,-145
1659950278.05989,1269640.2892183,-111
1659950278.05989,1269640.2892316,-77
1659950278.05989,1269640.2892453,-94
1659950278.05989,1269640.2892589,-99
1659950278.05989,1269640.9734197,-67
1659950278.05989,1269640.9734411,-65
1659950278.05989,1269640.973455,-91
1659950278.05989,1269640.9734741,-74
1659950278.05989,1269640.9734828,-70
1659950278.05989,1269640.9734894,-147
1659950278.05989,1269640.9734975,-176
1659950278.05989,1269640.9735075,-4
1659950278.05989,1269640.9735179,229
1659950278.05989,1269640.9735235,111
1659950278.05989,1269640.9735361,-340
1659950278.05989,1269640.9735467,-483
1659950278.05989,1269640.9735544,-210
1659950278.05989,1269640.9735657,-101
1659950278.05989,1269640.9735759,-207
1659950278.05989,1269640.9735862,-200
1659950278.05989,1269640.9735969,-118
1659950278.05989,1269640.9736043,-108
1659950278.07086,1269640.9736111,-118
1659950278.07086,1269640.9736151,-87
1659950278.07086,1269640.9736248,-72
1659950278.07086,1269640.9736357,-89
1659950278.07086,1269640.9736449,-58
1659950278.07086,1269640.9736498,-19
1659950278.07086,1269640.9736581,-14
1659950278.07086,1269640.9736688,14
1659950278.07086,1269640.9736775,50
1659950278.07086,1269640.9736844,60
1659950278.07086,1269640.9736878,91
1659950278.07086,1269640.9736926,123
1659950278.07086,1269640.973697,118
1659950278.07086,1269640.9736998,113
1659950278.07086,1269640.9737028,113
1659950278.07086,1269640.9737057,82
1659950278.07086,1269640.9737086,41
1659950278.07086,1269640.9737115,21
1659950278.07086,1269640.9737144,31
1659950278.07086,1269640.9737173,50
1659950278.07086,1269640.9737202,38
1659950278.07086,1269640.973723,16
1659950278.07086,1269640.973726,12
1659950278.07086,1269640.9737289,12
1659950278.6952,1269640.9737318,9
1659950278.6952,1269640.9737348,-9
1659950278.6952,1269640.9737376,-31
1659950278.6952,1269640.9737404,-19
1659950278.6952,1269640.973743,7
1659950278.6952,1269640.9737458,9
1659950278.6952,1269640.9737485,-19
1659950278.6952,1269640.9737519,-50
1659950278.6952,1269640.9737547,-77
1659950278.6952,1269640.973758,-72
1659950278.6952,1269640.973761,-38
1659950278.6952,1269640.9737638,-14
1659950278.6952,1269640.9737665,-43
1659950278.6952,1269640.9737692,-89
1659950278.6952,1269640.973772,-33
1659950278.6952,1269640.9737748,171
1659950278.6952,1269640.9737776,314
1659950278.6952,1269640.9737802,103
1659950278.6952,1269640.9737831,-273
1659950278.6952,1269640.9737862,-287
1659950278.6952,1269640.973789,-41
1659950278.6952,1269640.9737919,4
1659950278.6952,1269640.9737948,-55
1659950278.6952,1269640.9737977,-24
1659950278.6952,1269640.9738006,-12
1659950278.6952,1269640.9738034,-29
1659950278.6952,1269640.9738062,-4
1659950278.6952,1269640.9738091,36
1659950278.6952,1269640.9738123,48
1659950278.6952,1269640.9738151,41
1659950278.6952,1269640.973818,48
1659950278.6952,1269641.6062734,62
1659950278.6952,1269641.6062931,67
1659950278.6952,1269641.6063039,72
1659950278.6952,1269641.6063134,94
1659950278.6952,1269641.6063211,145
1659950278.6952,1269641.6063324,198
1659950278.6952,1269641.606341,222
1659950278.6952,1269641.6063475,219
1659950278.6952,1269641.6063556,200
1659950278.6952,1269641.6063624,183
1659950278.6952,1269641.6063704,176
1659950278.6952,1269641.6063758,149
1659950278.6952,1269641.6063825,120
1659950278.6952,1269641.6063912,111
1659950278.6952,1269641.6064016,89
1659950278.6952,1269641.6064058,48
1659950278.6952,1269641.6064083,9
1659950278.6952,1269641.6064108,-12
1659950278.6952,1269641.6064178,-7
1659950278.70394,1269641.6064286,12
1659950278.70394,1269641.6064322,9
1659950278.70394,1269641.6064362,-12
1659950278.70394,1269641.6064384,-14
1659950278.70394,1269641.6064406,4
1659950278.70394,1269641.6064427,14
1659950278.70394,1269641.6064448,24
1659950278.70394,1269641.6064468,24
1659950278.70394,1269641.6064489,-2
1659950278.70394,1269641.606451,-36
1659950278.70394,1269641.6064533,-50
1659950278.70394,1269641.6064554,-48
1659950278.70394,1269641.6064575,-70
1659950278.70394,1269641.6064596,-116
1659950278.70394,1269641.6064617,-77
1659950278.70394,1269641.6064638,87
1659950278.70394,1269641.6064658,166
1659950278.70394,1269641.6064679,-79
1659950278.70394,1269641.60647,-369
1659950278.70394,1269641.6064721,-268
1659950278.70394,1269641.6064742,-55
1659950278.70394,1269641.6064763,-82
1659950278.70394,1269641.6064785,-142
1659950278.70394,1269641.6064805,-84
1659950279.13407,1269641.6064828,-55
1659950279.13407,1269641.6064849,-79
1659950279.13407,1269641.6064869,-72
1659950279.13407,1269641.6064889,-45
1659950279.13407,1269641.6064908,-53
1659950279.13407,1269641.6064929,-48
1659950279.13407,1269641.6064949,-12
1659950279.13407,1269641.6064968,14
1659950279.13407,1269641.6065044,26
1659950279.13407,1269641.606514,55
1659950279.13407,1269641.6065197,94
1659950279.13407,1269641.6065226,125
1659950279.13407,1269641.6065247,147
1659950279.13407,1269641.6065275,149
1659950279.13407,1269641.6065381,149
1659950279.13407,1269641.6065462,161
1659950279.13407,1269641.6065487,147
1659950279.13407,1269641.606551,111
1659950279.13407,1269641.6065531,106
1659950279.13407,1269641.6065552,96
1659950279.13407,1269641.6065572,41
1659950279.13407,1269641.6065592,4
1659950279.13407,1269641.6065613,0
1659950279.13407,1269641.6065634,-19
1659950279.13407,1269641.6065655,-36
1659950279.13407,1269641.6065675,-29
1659950279.13407,1269641.6065697,-31
1659950279.13407,1269641.6065717,-21
1659950279.13407,1269641.6065737,-4
1659950279.13407,1269641.6065757,-4
1659950279.13407,1269642.044037,7
1659950279.13407,1269642.0440492,29
1659950279.13407,1269642.0440521,24
1659950279.13407,1269642.0440547,9
1659950279.13407,1269642.0440571,4
1659950279.13407,1269642.0440593,0
1659950279.13407,1269642.0440617,-9
1659950279.13407,1269642.0440639,-26
1659950279.13407,1269642.0440661,-65
1659950279.13407,1269642.0440684,-62
1659950279.13407,1269642.0440706,60
1659950279.13407,1269642.0440728,232
1659950279.13407,1269642.0440751,154
1659950279.13407,1269642.0440773,-200
1659950279.13407,1269642.0440797,-302
1659950279.13407,1269642.0440819,-53
1659950279.13407,1269642.0440841,36
1659950279.13407,1269642.0440863,-60
1659950279.13407,1269642.0440885,-72
1659950279.13407,1269642.0440907,-53
1659950279.14504,1269642.0440929,-67
1659950279.14504,1269642.0440951,-41
1659950279.14504,1269642.0440974,-12
1659950279.14504,1269642.0440997,-29
1659950279.14504,1269642.0441019,-36
1659950279.14504,1269642.0441189,-26
1659950279.14504,1269642.0441273,-7
1659950279.14504,1269642.0441324,24
1659950279.14504,1269642.0441381,53
1659950279.14504,1269642.0441467,74
1659950279.14504,1269642.0441538,101
1659950279.14504,1269642.044163,125
1659950279.14504,1269642.0441737,130
1659950279.14504,1269642.0441804,140
1659950279.14504,1269642.0441848,147
1659950279.14504,1269642.0441869,116
1659950279.14504,1269642.0441899,99
1659950279.14504,1269642.0441921,103
1659950279.14504,1269642.0441941,72
1659950279.14504,1269642.0441963,43
1659950279.14504,1269642.0441982,43
1659950279.14504,1269642.0442002,24
1659950279.14504,1269642.0442022,-2
1659950279.14504,1269642.0442043,-9
1659950279.67306,1269642.0442064,-14
1659950279.67306,1269642.0442085,-29
1659950279.67306,1269642.0442104,-36
1659950279.67306,1269642.0442123,-19
1659950279.67306,1269642.0442143,4
1659950279.67306,1269642.0442163,19
1659950279.67306,1269642.0442181,24
1659950279.67306,1269642.04422,24
1659950279.67306,1269642.044222,21
1659950279.67306,1269642.0442239,9
1659950279.67306,1269642.0442259,0
1659950279.67306,1269642.0442278,-2
1659950279.67306,1269642.0442297,-14
1659950279.67306,1269642.0442316,-50
1659950279.67306,1269642.0442335,-87
1659950279.67306,1269642.0442354,-41
1659950279.67306,1269642.0442374,130
1659950279.67306,1269642.0442394,200
1659950279.67306,1269642.0442414,-77
1659950279.67306,1269642.0442435,-319
1659950279.67306,1269642.0442455,-130
1659950279.67306,1269642.0442476,79
1659950279.67306,1269642.0442496,26
1659950279.67306,1269642.0442517,-2
1659950279.67306,1269642.0442538,41
1659950279.67306,1269642.0442558,31
1659950279.67306,1269642.0442578,26
1659950279.67306,1269642.0442599,48
1659950279.67306,1269642.0442619,58
1659950279.67306,1269642.5818423,74
1659950279.67306,1269642.5818539,96
1659950279.67306,1269642.5818572,103
1659950279.67306,1269642.5818596,99
1659950279.67306,1269642.5818617,116
1659950279.67306,1269642.5818637,161
1659950279.67306,1269642.5818658,193
1659950279.67306,1269642.5818678,207
