Time,TimeLsl,Value
1659962146.52664,1281507.5866626,134
1659962146.52664,1281507.5866813,34
1659962146.52664,1281507.5866869,83
1659962146.52664,1281507.5866929,113
1659962146.52664,1281507.5866979,71
1659962146.52664,1281507.5867027,62
1659962146.52664,1281507.5867077,76
1659962146.52664,1281507.5867124,81
1659962146.52664,1281507.5867174,85
1659962146.52664,1281507.5867224,95
1659962146.52664,1281507.5867274,102
1659962146.52664,1281507.5867323,99
1659962146.52664,1281507.5867373,97
1659962146.52664,1281507.5867421,109
1659962146.52664,1281507.5867471,125
1659962146.52664,1281507.5867528,136
1659962146.52664,1281507.5867788,153
1659962146.52664,1281507.5867869,164
1659962146.52664,1281507.5867911,166
1659962146.52664,1281507.5867964,169
1659962146.52664,1281507.5868002,178
1659962146.52664,1281507.5868038,185
1659962146.52664,1281507.5868074,187
1659962146.52664,1281507.586812,185
1659962146.52664,1281507.5868156,155
1659962146.52664,1281507.5868194,109
1659962146.52664,1281507.586823,81
1659962146.52664,1281507.5868265,64
1659962146.52664,1281507.5868303,37
1659962146.52664,1281507.586834,11
1659962146.52664,1281507.586838,-13
1659962146.52664,1281507.5868418,-37
1659962146.52664,1281507.5868456,-37
1659962146.52664,1281507.5868535,-23
1659962146.52664,1281507.5868591,-16
1659962146.52664,1281507.5868631,-11
1659962146.52664,1281507.586867,-4
1659962146.52664,1281507.5868711,-4
1659962146.52664,1281507.5868751,-4
1659962146.52664,1281507.5868789,11
1659962146.52664,1281507.5868841,23
1659962146.52664,1281507.5868878,20
1659962146.52664,1281507.5868916,23
1659962146.52664,1281507.5868952,51
1659962146.52664,1281507.5868988,71
1659962146.52664,1281507.5869023,64
1659962146.52664,1281507.5869061,67
1659962146.52664,1281507.5869097,88
1659962146.52664,1281507.5869139,83
1659962146.52664,1281507.586918,55
1659962146.65225,1281507.5869221,44
1659962146.65225,1281507.5869263,46
1659962146.65225,1281507.5869301,44
1659962146.65225,1281507.5869334,37
1659962146.65225,1281507.5869371,41
1659962146.65225,1281507.5869423,55
1659962146.65225,1281507.5869556,51
1659962146.65225,1281507.5869685,134
1659962146.65225,1281507.5869767,436
1659962146.65225,1281507.5869806,589
1659962146.65225,1281507.5869944,157
1659962146.65225,1281507.5870063,-301
1659962146.65225,1281507.5870151,-139
1659962146.65225,1281507.5870193,141
1659962146.65225,1281507.5870233,81
1659962146.65225,1281507.5870271,23
1659962146.65225,1281507.5870335,90
1659962146.65225,1281507.5870375,90
1659962146.65225,1281507.5870411,60
1659962146.65225,1281507.5870466,76
1659962146.65225,1281507.58705,85
1659962146.65225,1281507.5870533,81
1659962146.65225,1281507.5870584,88
1659962146.65225,1281508.024189,104
1659962146.65225,1281508.0242079,111
1659962146.65225,1281508.0242136,113
1659962146.65225,1281508.0242182,113
1659962146.65225,1281508.0242224,109
1659962146.65225,1281508.0242263,113
1659962146.65225,1281508.0242371,134
1659962146.65225,1281508.0242411,153
1659962146.65225,1281508.024245,166
1659962146.65225,1281508.0242493,171
1659962146.65225,1281508.024254,162
1659962146.65225,1281508.0242579,166
1659962146.65225,1281508.024262,178
1659962146.65225,1281508.0242661,183
1659962146.65225,1281508.0242702,178
1659962146.65225,1281508.0242741,162
1659962146.65225,1281508.0242778,136
1659962146.65225,1281508.0242818,111
1659962146.65225,1281508.0242859,85
1659962146.65225,1281508.0242898,62
1659962146.65225,1281508.0242936,39
1659962146.65225,1281508.0242976,16
1659962146.65225,1281508.0243012,6
1659962146.65225,1281508.0243044,16
1659962146.65225,1281508.0243077,27
1659962146.65225,1281508.0243113,34
1659962146.65225,1281508.024315,41
1659962146.70112,1281508.0243188,25
1659962146.70112,1281508.0243224,0
1659962146.70112,1281508.0243257,9
1659962146.70112,1281508.0243335,32
1659962146.70112,1281508.0243376,39
1659962146.70112,1281508.0243412,37
1659962146.70112,1281508.0243446,34
1659962146.70112,1281508.0243479,34
1659962146.70112,1281508.0243521,48
1659962146.70112,1281508.0243566,55
1659962146.70112,1281508.0243606,60
1659962146.70112,1281508.0243645,76
1659962146.70112,1281508.0243683,64
1659962146.70112,1281508.0243721,27
1659962146.70112,1281508.024376,16
1659962146.70112,1281508.024384,25
1659962146.70112,1281508.0243878,20
1659962146.70112,1281508.0243915,18
1659962146.70112,1281508.0243952,25
1659962146.70112,1281508.0243992,27
1659962146.70112,1281508.0244032,18
1659962146.70112,1281508.0244071,125
1659962146.70112,1281508.0244111,447
1659962146.70112,1281508.0244149,558
1659962146.70112,1281508.024419,92
1659962146.70112,1281508.0244234,-308
1659962146.70112,1281508.0244271,-102
1659962146.70112,1281508.0244308,136
1659962146.70112,1281508.0244361,55
1659962146.70112,1281508.0244405,20
1659962146.70112,1281508.0244442,88
1659962146.70112,1281508.0244501,76
1659962146.70112,1281508.0244581,51
1659962146.70112,1281508.0244622,71
1659962146.70112,1281508.024466,81
1659962146.70112,1281508.0244702,78
1659962146.70112,1281508.0244742,90
1659962146.70112,1281508.0244842,97
1659962146.70112,1281508.0244906,102
1659962146.70112,1281508.0244946,111
1659962146.70112,1281508.0245005,122
1659962146.70112,1281508.0245063,136
1659962146.70112,1281508.0245101,146
1659962146.70112,1281508.0245173,141
1659962146.70112,1281508.0245214,139
1659962146.70112,1281508.0245276,153
1659962146.70112,1281508.6590417,160
1659962146.70112,1281508.6590592,153
1659962146.70112,1281508.6590638,155
1659962146.70112,1281508.6590676,164
1659962146.72106,1281508.6590719,162
1659962146.72106,1281508.6590756,141
1659962146.72106,1281508.6590791,111
1659962146.72106,1281508.6590827,92
1659962146.72106,1281508.6590862,74
1659962146.72106,1281508.6590929,41
1659962146.72106,1281508.6590986,13
1659962146.72106,1281508.6591024,-13
1659962146.72106,1281508.6591053,-41
1659962146.72106,1281508.6591122,-39
1659962146.72106,1281508.6591187,-25
1659962146.72106,1281508.6591253,-25
1659962146.72106,1281508.6591318,-20
1659962146.72106,1281508.6591444,-6
1659962146.72106,1281508.65915,-2
1659962146.72106,1281508.6591553,0
1659962146.72106,1281508.6591591,11
1659962146.72106,1281508.6591652,20
1659962146.72106,1281508.6591693,30
1659962146.72106,1281508.6591742,37
1659962146.72106,1281508.6591777,34
1659962146.72106,1281508.6591807,44
1659962146.72106,1281508.6591848,76
1659962146.72106,1281508.6591892,85
1659962146.72106,1281508.6591952,74
1659962146.72106,1281508.6592005,88
1659962146.72106,1281508.6592097,102
1659962146.72106,1281508.6592188,67
1659962146.72106,1281508.6592266,34
1659962146.72106,1281508.6592325,39
1659962146.72106,1281508.6592383,46
1659962146.72106,1281508.6592474,39
1659962146.72106,1281508.6592557,39
1659962146.72106,1281508.6592619,46
1659962146.72106,1281508.6592705,32
1659962146.72106,1281508.6592786,39
1659962146.72106,1281508.6592828,257
1659962146.72106,1281508.659286,579
1659962146.72106,1281508.6592912,426
1659962146.72106,1281508.6592967,-132
1659962146.72106,1281508.6593056,-262
1659962146.72106,1281508.6593356,53
1659962146.72106,1281508.6593438,136
1659962146.72106,1281508.6593478,34
1659962146.72106,1281508.6593515,64
1659962146.72106,1281508.6593551,99
1659962146.72106,1281508.6593586,64
1659962146.72106,1281508.659362,67
1659962146.72106,1281508.6593655,90
1659962146.72106,1281508.659369,92
1659962146.73502,1281508.6593725,95
1659962146.73502,1281508.6593759,104
1659962146.73502,1281508.6593794,109
1659962146.73502,1281508.6593829,111
1659962146.73502,1281508.6593864,120
1659962146.73502,1281508.6593899,136
1659962146.73502,1281508.659394,150
1659962146.73502,1281508.6593975,157
1659962146.73502,1281508.6594009,155
1659962146.73502,1281508.6594044,153
1659962146.73502,1281508.6594079,162
1659962146.73502,1281508.6594114,164
1659962146.73502,1281508.6594148,164
1659962146.73502,1281508.6594183,173
1659962146.73502,1281508.6594217,176
1659962146.73502,1281508.6594253,169
1659962146.73502,1281508.6594287,166
1659962146.73502,1281508.6594322,155
1659962146.73502,1281508.6594357,127
1659962146.73502,1281509.2910402,99
1659962146.73502,1281509.291132,74
1659962146.73502,1281509.2911452,48
1659962146.99078,1281509.2911541,32
1659962146.99078,1281509.2911611,30
1659962146.99078,1281509.2911675,34
1659962146.99078,1281509.2911717,39
1659962146.99078,1281509.2911764,41
1659962146.99078,1281509.2911823,41
1659962146.99078,1281509.2911864,46
1659962146.99078,1281509.2911893,55
1659962146.99078,1281509.2911925,60
1659962146.99078,1281509.2913239,67
1659962146.99078,1281509.2913341,74
1659962146.99078,1281509.2913393,64
1659962146.99078,1281509.2913445,51
1659962146.99078,1281509.2913703,46
1659962146.99078,1281509.2913753,60
1659962146.99078,1281509.2913794,85
1659962146.99078,1281509.2913834,99
1659962146.99078,1281509.2913871,76
1659962146.99078,1281509.2913912,53
1659962146.99078,1281509.2913996,62
1659962146.99078,1281509.2914066,44
1659962146.99078,1281509.2914136,6
1659962146.99078,1281509.2914212,6
1659962146.99078,1281509.2914564,13
1659962146.99078,1281509.2914622,-4
1659962146.99078,1281509.2914671,-16
1659962146.99078,1281509.2914716,0
1659962146.99078,1281509.2914763,-2
1659962146.99078,1281509.2914812,-20
1659962146.99078,1281509.2914858,127
1659962146.99078,1281509.2914909,475
1659962146.99078,1281509.2914966,507
1659962146.99078,1281509.2915013,-9
1659962146.99078,1281509.2915062,-322
1659962146.99078,1281509.2915109,-60
1659962146.99078,1281509.2915157,122
1659962146.99078,1281509.2915207,20
1659962146.99078,1281509.2915255,6
1659962146.99078,1281509.2915303,69
1659962146.99078,1281509.291535,53
1659962146.99078,1281509.2915404,41
1659962146.99078,1281509.2915455,64
1659962146.99078,1281509.2915532,67
1659962146.99078,1281509.2915599,62
1659962146.99078,1281509.2915665,78
1659962146.99078,1281509.2915737,92
1659962146.99078,1281509.2915822,97
1659962146.99078,1281509.2915887,104
1659962146.99078,1281509.2915955,118
1659962146.99078,1281509.2916028,129
1659962147.04663,1281509.29161,141
1659962147.04663,1281509.2916166,146
1659962147.04663,1281509.2916207,139
1659962147.04663,1281509.2916246,136
1659962147.04663,1281509.2916286,143
1659962147.04663,1281509.2916344,150
1659962147.04663,1281509.291638,150
1659962147.04663,1281509.291642,155
1659962147.04663,1281509.2916476,166
1659962147.04663,1281509.2916514,164
1659962147.04663,1281509.291657,148
1659962147.04663,1281509.2916609,125
1659962147.04663,1281509.2916646,97
1659962147.04663,1281509.2916686,69
1659962147.04663,1281509.2916722,48
1659962147.04663,1281509.2916758,34
1659962147.04663,1281509.2916814,23
1659962147.04663,1281509.2916851,20
1659962147.04663,1281509.2916907,23
1659962147.04663,1281509.2916946,30
1659962147.04663,1281509.7312845,37
1659962147.04663,1281509.7313058,39
1659962147.04663,1281509.7313143,41
1659962147.04663,1281509.7313196,46
1659962147.4576,1281509.731327,53
1659962147.4576,1281509.731332,55
1659962147.4576,1281509.731337,60
1659962147.4576,1281509.731342,64
1659962147.4576,1281509.731347,62
1659962147.4576,1281509.731352,69
1659962147.4576,1281509.7313582,85
1659962147.4576,1281509.7313649,90
1659962147.4576,1281509.7313709,62
1659962147.4576,1281509.7313745,48
1659962147.4576,1281509.731378,64
1659962147.4576,1281509.7313816,51
1659962147.4576,1281509.7313854,11
1659962147.4576,1281509.7313899,2
1659962147.4576,1281509.7313967,-4
1659962147.4576,1281509.7314032,-23
1659962147.4576,1281509.7314096,-18
1659962147.4576,1281509.731414,-2
1659962147.4576,1281509.731418,-2
1659962147.4576,1281509.7314218,-23
1659962147.4576,1281509.7314256,48
1659962147.4576,1281509.7314294,354
1659962147.4576,1281509.731433,554
1659962147.4576,1281509.7314374,173
1659962147.4576,1281509.7314442,-303
1659962147.4576,1281509.7314508,-183
1659962147.4576,1281509.7314593,106
1659962147.4576,1281509.7314651,53
1659962147.4576,1281509.7314711,-18
1659962147.4576,1281509.7314774,57
1659962147.4576,1281509.731483,71
1659962147.4576,1281509.731487,46
1659962147.4576,1281509.7314924,55
1659962147.4576,1281509.7314963,55
1659962147.4576,1281509.7315003,51
1659962147.4576,1281509.7315081,69
1659962147.4576,1281509.7315129,85
1659962147.4576,1281509.7315184,90
1659962147.4576,1281509.7315224,95
1659962147.4576,1281509.7315277,104
1659962147.4576,1281509.7315316,120
1659962147.4576,1281509.7315368,136
1659962147.4576,1281509.7315405,141
1659962147.4576,1281509.731546,139
1659962147.4576,1281509.7315498,146
1659962147.4576,1281509.7315538,155
1659962147.4576,1281509.7315601,162
1659962147.4576,1281509.7315679,171
1659962147.4576,1281509.7315733,176
1659962147.4576,1281509.731577,173
1659962147.46858,1281509.7315825,173
1659962147.46858,1281509.7315863,164
1659962147.46858,1281509.7315918,139
1659962147.46858,1281509.7315955,111
1659962147.46858,1281509.731601,88
1659962147.46858,1281509.7316049,64
1659962147.46858,1281509.7316105,46
1659962147.46858,1281509.7316158,30
1659962147.46858,1281509.7316196,23
1659962147.46858,1281509.7316269,30
1659962147.46858,1281509.7316318,39
1659962147.46858,1281509.7316379,48
1659962147.46858,1281509.7316424,60
1659962147.46858,1281509.7316484,67
1659962147.46858,1281509.7316526,60
1659962147.46858,1281509.731659,57
1659962147.46858,1281509.7316637,71
1659962147.46858,1281509.7316697,88
1659962147.46858,1281509.7316746,95
1659962147.46858,1281510.3633431,88
1659962147.46858,1281510.3633635,85
1659962147.46858,1281510.3633718,97
1659962147.46858,1281510.3633761,120
1659962147.46858,1281510.3633817,122
1659962147.94772,1281510.3633869,104
1659962147.94772,1281510.3633906,104
1659962147.94772,1281510.3633945,102
1659962147.94772,1281510.363398,55
1659962147.94772,1281510.3634025,23
1659962147.94772,1281510.3634065,44
1659962147.94772,1281510.363411,51
1659962147.94772,1281510.363415,34
1659962147.94772,1281510.3634191,34
1659962147.94772,1281510.3634233,30
1659962147.94772,1281510.3634293,-6
1659962147.94772,1281510.363433,13
1659962147.94772,1281510.3634382,259
1659962147.94772,1281510.363442,568
1659962147.94772,1281510.3634471,396
1659962147.94772,1281510.3634526,-160
1659962147.94772,1281510.3634585,-285
1659962147.94772,1281510.3634622,27
1659962147.94772,1281510.3634659,95
1659962147.94772,1281510.3634696,-20
1659962147.94772,1281510.3634734,18
1659962147.94772,1281510.3634789,62
1659962147.94772,1281510.3634825,27
1659962147.94772,1281510.3634866,30
1659962147.94772,1281510.363492,57
1659962147.94772,1281510.3634956,55
1659962147.94772,1281510.3634992,53
1659962147.94772,1281510.3635028,69
1659962147.94772,1281510.3635079,76
1659962147.94772,1281510.36352,81
1659962147.94772,1281510.3635325,92
1659962147.94772,1281510.3635448,109
1659962147.94772,1281510.3635593,115
1659962147.94772,1281510.3635721,125
1659962147.94772,1281510.3635852,136
1659962147.94772,1281510.3635926,139
1659962147.94772,1281510.3635965,134
1659962147.94772,1281510.3636017,139
1659962147.94772,1281510.363606,150
1659962147.94772,1281510.3636117,157
1659962147.94772,1281510.3636157,164
1659962147.94772,1281510.3636212,166
1659962147.94772,1281510.363626,162
1659962147.94772,1281510.3636313,146
1659962147.94772,1281510.3636358,120
1659962147.94772,1281510.3636419,92
1659962147.94772,1281510.3636485,69
1659962147.94772,1281510.3636579,48
1659962147.94772,1281510.3636639,37
1659962147.94772,1281510.3636686,27
1659962147.95969,1281510.3636753,27
1659962147.95969,1281510.3636835,39
1659962147.95969,1281510.3636922,51
1659962147.95969,1281510.3636995,53
1659962147.95969,1281510.3637069,48
1659962147.95969,1281510.3637135,51
1659962147.95969,1281510.3637209,57
1659962147.95969,1281510.3637294,67
1659962147.95969,1281510.3637381,78
1659962147.95969,1281510.3637446,85
1659962147.95969,1281510.3637516,88
1659962147.95969,1281510.3637559,85
1659962147.95969,1281510.3637618,85
1659962147.95969,1281510.363766,95
1659962147.95969,1281510.3637713,111
1659962147.95969,1281510.3637756,104
1659962147.95969,1281510.3637813,83
1659962147.95969,1281510.363785,88
1659962147.95969,1281510.8518981,88
1659962147.95969,1281510.8519167,60
1659962147.95969,1281510.8519273,55
1659962147.95969,1281510.8519344,71
1659962147.95969,1281510.8519413,62
1659962147.95969,1281510.8519462,48
1659962148.58005,1281510.8519554,55
1659962148.58005,1281510.8519628,57
1659962148.58005,1281510.8519729,34
1659962148.58005,1281510.8519817,92
1659962148.58005,1281510.8519879,398
1659962148.58005,1281510.8520297,628
1659962148.58005,1281510.8520438,259
1659962148.58005,1281510.8520589,-259
1659962148.58005,1281510.8520721,-183
1659962148.58005,1281510.8520854,111
1659962148.58005,1281510.8520987,83
1659962148.58005,1281510.8521123,-9
1659962148.58005,1281510.8521268,27
1659962148.58005,1281510.852136,37
1659962148.58005,1281510.8521441,20
1659962148.58005,1281510.8521498,32
1659962148.58005,1281510.8521547,41
1659962148.58005,1281510.8521622,39
1659962148.58005,1281510.8521673,46
1659962148.58005,1281510.8521711,55
1659962148.58005,1281510.8521747,64
1659962148.58005,1281510.8521782,78
1659962148.58005,1281510.8521818,85
1659962148.58005,1281510.8522103,83
1659962148.58005,1281510.852225,88
1659962148.58005,1281510.8522334,104
1659962148.58005,1281510.8522414,118
1659962148.58005,1281510.8522499,113
1659962148.58005,1281510.8522524,118
1659962148.58005,1281510.8522545,132
1659962148.58005,1281510.8522605,129
1659962148.58005,1281510.8522719,122
1659962148.58005,1281510.8522793,139
1659962148.58005,1281510.8522859,155
1659962148.58005,1281510.8522935,141
1659962148.58005,1281510.8522985,118
1659962148.58005,1281510.8523073,97
1659962148.58005,1281510.8523165,69
1659962148.58005,1281510.8523243,44
1659962148.58005,1281510.8523333,30
1659962148.58005,1281510.8523412,18
1659962148.58005,1281510.8523505,16
1659962148.58005,1281510.8523584,18
1659962148.58005,1281510.8523625,25
1659962148.58005,1281510.8523755,32
1659962148.58005,1281510.8523891,37
1659962148.58005,1281510.8523997,44
1659962148.58005,1281510.8524083,48
1659962148.58005,1281510.8524197,53
1659962148.58005,1281510.8524289,60
1659962148.59003,1281510.8524384,71
1659962148.59003,1281510.8524497,81
1659962148.59003,1281510.8524578,85
1659962148.59003,1281510.8524692,83
1659962148.59003,1281510.8524778,76
1659962148.59003,1281510.8524824,71
1659962148.59003,1281510.8524869,88
1659962148.59003,1281510.8524931,95
1659962148.59003,1281510.8524973,78
1659962148.59003,1281510.8525018,83
1659962148.59003,1281510.8525075,99
1659962148.59003,1281510.8525192,76
1659962148.59003,1281510.8525236,51
1659962148.59003,1281510.852527,57
1659962148.59003,1281510.8525303,64
1659962148.59003,1281510.8525374,55
1659962148.59003,1281510.8525491,62
1659962148.59003,1281511.4853667,69
1659962148.59003,1281511.4853835,44
1659962148.59003,1281511.4853887,48
1659962148.59003,1281511.4853953,287
1659962148.59003,1281511.4853999,609
1659962148.59003,1281511.4854059,438
1659962148.59003,1281511.4854106,-111
1659962149.11189,1281511.4854212,-224
1659962149.11189,1281511.4854291,62
1659962149.11189,1281511.4854352,113
1659962149.11189,1281511.4854408,11
1659962149.11189,1281511.4854517,48
1659962149.11189,1281511.4854603,85
1659962149.11189,1281511.4854719,57
1659962149.11189,1281511.4854788,48
1659962149.11189,1281511.4854836,44
1659962149.11189,1281511.4854906,32
1659962149.11189,1281511.4854992,44
1659962149.11189,1281511.4855071,60
1659962149.11189,1281511.4855113,64
1659962149.11189,1281511.4855167,64
1659962149.11189,1281511.4855207,57
1659962149.11189,1281511.4855239,60
1659962149.11189,1281511.4855288,81
1659962149.11189,1281511.4855412,102
1659962149.11189,1281511.4855496,99
1659962149.11189,1281511.4855555,97
1659962149.11189,1281511.4855604,109
1659962149.11189,1281511.4855643,115
1659962149.11189,1281511.4855708,120
1659962149.11189,1281511.4855743,136
1659962149.11189,1281511.4855875,148
1659962149.11189,1281511.4855999,155
1659962149.11189,1281511.4856062,148
1659962149.11189,1281511.4856201,129
1659962149.11189,1281511.4856284,109
1659962149.11189,1281511.4856354,81
1659962149.11189,1281511.4856434,53
1659962149.11189,1281511.4856509,34
1659962149.11189,1281511.4856602,25
1659962149.11189,1281511.4856658,16
1659962149.11189,1281511.4856703,16
1659962149.11189,1281511.4856767,27
1659962149.11189,1281511.48568,37
1659962149.11189,1281511.4856917,39
1659962149.11189,1281511.4856999,46
1659962149.11189,1281511.4857039,51
1659962149.11189,1281511.4857109,55
1659962149.11189,1281511.4857194,67
1659962149.11189,1281511.4857277,74
1659962149.11189,1281511.4857323,78
1659962149.11189,1281511.4857358,83
1659962149.11189,1281511.4857503,83
1659962149.11189,1281511.4857605,76
1659962149.11189,1281511.4857657,78
1659962149.11189,1281511.4857698,92
1659962149.11189,1281511.4857756,109
1659962149.12386,1281511.4857814,109
1659962149.12386,1281511.4857869,92
1659962149.12386,1281511.4857925,95
1659962149.12386,1281511.4857983,104
1659962149.12386,1281511.485805,85
1659962149.12386,1281511.4858086,71
1659962149.12386,1281511.4858141,76
1659962149.12386,1281511.4858199,76
1659962149.12386,1281511.4858251,64
1659962149.12386,1281511.4858285,64
1659962149.12386,1281511.4858345,71
1659962149.12386,1281511.4858377,55
1659962149.12386,1281511.4858441,78
1659962149.12386,1281511.4858503,329
1659962149.12386,1281511.4858588,628
1659962149.12386,1281511.4858629,417
1659962149.12386,1281512.0210977,-125
1659962149.12386,1281512.0211169,-194
1659962149.12386,1281512.0211266,111
1659962149.12386,1281512.0211357,153
1659962149.12386,1281512.0211398,41
1659962149.12386,1281512.0211459,57
1659962149.12386,1281512.0211494,74
1659962149.12386,1281512.021157,53
1659962149.64762,1281512.0211636,67
1659962149.64762,1281512.0211669,78
1659962149.64762,1281512.0211709,69
1659962149.64762,1281512.0211741,69
1659962149.64762,1281512.0211773,78
1659962149.64762,1281512.0211805,88
1659962149.64762,1281512.0211838,95
1659962149.64762,1281512.0211903,104
1659962149.64762,1281512.0211951,115
1659962149.64762,1281512.0212017,122
1659962149.64762,1281512.0212077,122
1659962149.64762,1281512.0212135,134
1659962149.64762,1281512.0212189,153
1659962149.64762,1281512.0212264,160
1659962149.64762,1281512.021236,164
1659962149.64762,1281512.0212424,164
1659962149.64762,1281512.0212483,148
1659962149.64762,1281512.0212527,139
1659962149.64762,1281512.021256,155
1659962149.64762,1281512.0212624,155
1659962149.64762,1281512.021268,132
1659962149.64762,1281512.0212711,111
1659962149.64762,1281512.021274,85
1659962149.64762,1281512.0212769,53
1659962149.64762,1281512.0212826,32
1659962149.64762,1281512.021289,27
1659962149.64762,1281512.0212931,20
1659962149.64762,1281512.0212965,20
1659962149.64762,1281512.0213026,27
1659962149.64762,1281512.0213095,32
1659962149.64762,1281512.0213154,39
1659962149.64762,1281512.0213211,46
1659962149.64762,1281512.0213261,51
1659962149.64762,1281512.0213339,53
1659962149.64762,1281512.0213413,62
1659962149.64762,1281512.0213445,69
1659962149.64762,1281512.0213496,67
1659962149.64762,1281512.0213564,71
1659962149.64762,1281512.0213655,81
1659962149.64762,1281512.0213713,81
1659962149.64762,1281512.0213762,76
1659962149.64762,1281512.021385,88
1659962149.64762,1281512.0213919,106
1659962149.64762,1281512.021397,104
1659962149.64762,1281512.0214154,92
1659962149.64762,1281512.0214209,104
1659962149.64762,1281512.0214261,102
1659962149.64762,1281512.0214324,62
1659962149.64762,1281512.0214372,48
1659962149.64762,1281512.0214417,67
1659962149.66458,1281512.0214465,67
1659962149.66458,1281512.0214504,57
1659962149.66458,1281512.0214569,69
1659962149.66458,1281512.0214601,71
1659962149.66458,1281512.0214661,46
1659962149.66458,1281512.0214694,127
1659962149.66458,1281512.0214814,454
1659962149.66458,1281512.0214897,633
1659962149.66458,1281512.021498,222
1659962149.66458,1281512.0215073,-234
1659962149.66458,1281512.0215124,-104
1659962149.66458,1281512.0215164,155
1659962149.66458,1281512.0215195,104
1659962149.66458,1281512.0215224,48
1659962149.66458,1281512.0215253,111
1659962149.66458,1281512.5581395,113
1659962149.66458,1281512.5581619,83
1659962149.66458,1281512.5581695,90
1659962149.66458,1281512.5581752,92
1659962149.66458,1281512.5581786,92
1659962149.66458,1281512.558182,106
1659962149.66458,1281512.5581854,115
1659962149.66458,1281512.5581897,115
1659962149.66458,1281512.5581954,118
1659962150.23291,1281512.5582012,122
1659962150.23291,1281512.5582047,129
1659962150.23291,1281512.5582083,129
1659962150.23291,1281512.5582115,139
1659962150.23291,1281512.5582146,153
1659962150.23291,1281512.558218,143
1659962150.23291,1281512.5582219,127
1659962150.23291,1281512.5582259,141
1659962150.23291,1281512.5582293,155
1659962150.23291,1281512.5582329,153
1659962150.23291,1281512.5582364,155
1659962150.23291,1281512.5582398,150
1659962150.23291,1281512.5582433,115
1659962150.23291,1281512.5582469,88
1659962150.23291,1281512.5582504,78
1659962150.23291,1281512.5582539,57
1659962150.23291,1281512.5582574,27
1659962150.23291,1281512.5582609,4
1659962150.23291,1281512.5582646,-11
1659962150.23291,1281512.5582681,-16
1659962150.23291,1281512.5582716,-11
1659962150.23291,1281512.558275,-2
1659962150.23291,1281512.5582785,2
1659962150.23291,1281512.5582819,9
1659962150.23291,1281512.5582855,16
1659962150.23291,1281512.558289,13
1659962150.23291,1281512.5582924,16
1659962150.23291,1281512.5582959,30
1659962150.23291,1281512.5582995,41
1659962150.23291,1281512.5583031,46
1659962150.23291,1281512.5583067,55
1659962150.23291,1281512.5583102,55
1659962150.23291,1281512.5583137,48
1659962150.23291,1281512.5583172,57
1659962150.23291,1281512.5583208,83
1659962150.23291,1281512.5583243,88
1659962150.23291,1281512.5583278,74
1659962150.23291,1281512.5583313,78
1659962150.23291,1281512.5583348,83
1659962150.23291,1281512.5583383,57
1659962150.23291,1281512.5583419,41
1659962150.23291,1281512.5583453,53
1659962150.23291,1281512.5583488,53
1659962150.23291,1281512.5583522,41
1659962150.23291,1281512.5583557,48
1659962150.23291,1281512.5583606,60
1659962150.23291,1281512.5583641,46
1659962150.23291,1281512.5583675,62
1659962150.23291,1281512.5583711,294
1659962150.23291,1281512.5583745,596
1659962150.24289,1281512.558378,405
1659962150.24289,1281512.5583819,-136
1659962150.24289,1281512.5583854,-224
1659962150.24289,1281512.5583888,85
1659962150.24289,1281512.5583923,139
1659962150.24289,1281512.5583958,30
1659962150.24289,1281512.5583995,62
1659962150.24289,1281512.558403,90
1659962150.24289,1281512.5584065,51
1659962150.24289,1281512.5584101,55
1659962150.24289,1281512.5584143,76
1659962150.24289,1281512.5584178,71
1659962150.24289,1281512.5584213,76
1659962150.24289,1281512.558425,90
1659962150.24289,1281513.1425474,95
1659962150.24289,1281513.1425664,99
1659962150.24289,1281513.142571,104
1659962150.24289,1281513.1425746,106
1659962150.24289,1281513.1425781,106
1659962150.24289,1281513.1425832,122
1659962150.24289,1281513.1425886,139
1659962150.24289,1281513.1425924,148
1659962150.24289,1281513.1425958,157
1659962150.24289,1281513.1425988,166
1659962150.76927,1281513.1426038,169
1659962150.76927,1281513.1426105,155
1659962150.76927,1281513.1426161,141
1659962150.76927,1281513.142654,146
1659962150.76927,1281513.142667,150
1659962150.76927,1281513.1426931,129
1659962150.76927,1281513.1427023,92
1659962150.76927,1281513.1427072,48
1659962150.76927,1281513.1427115,0
1659962150.76927,1281513.1427157,-25
1659962150.76927,1281513.1427194,-25
1659962150.76927,1281513.142723,-27
1659962150.76927,1281513.1427266,-30
1659962150.76927,1281513.14273,-25
1659962150.76927,1281513.1427333,-23
1659962150.76927,1281513.1427367,-30
1659962150.76927,1281513.1427401,-30
1659962150.76927,1281513.1427434,-18
1659962150.76927,1281513.142747,-9
1659962150.76927,1281513.1427511,2
1659962150.76927,1281513.1427554,6
1659962150.76927,1281513.1427629,6
1659962150.76927,1281513.1427672,16
1659962150.76927,1281513.1427734,27
1659962150.76927,1281513.1427775,27
1659962150.76927,1281513.1427838,37
1659962150.76927,1281513.1427884,57
1659962150.76927,1281513.1427936,62
1659962150.76927,1281513.1427977,51
1659962150.76927,1281513.1428034,64
1659962150.76927,1281513.1428074,81
1659962150.76927,1281513.1428111,57
1659962150.76927,1281513.1428146,37
1659962150.76927,1281513.1428185,44
1659962150.76927,1281513.1428246,46
1659962150.76927,1281513.1428286,39
1659962150.76927,1281513.1428341,41
1659962150.76927,1281513.1428378,51
1659962150.76927,1281513.1428414,41
1659962150.76927,1281513.1428452,46
1659962150.76927,1281513.1428491,257
1659962150.76927,1281513.1428545,582
1659962150.76927,1281513.1428584,456
1659962150.76927,1281513.142864,-83
1659962150.76927,1281513.1428679,-229
1659962150.76927,1281513.1428736,62
1659962150.76927,1281513.1428789,141
1659962150.76927,1281513.1428865,34
1659962150.76927,1281513.1428904,55
1659962150.76927,1281513.1428942,92
1659962150.78123,1281513.142898,64
1659962150.78123,1281513.1429038,64
1659962150.78123,1281513.1429081,81
1659962150.78123,1281513.1429115,81
1659962150.78123,1281513.142915,92
1659962150.78123,1281513.1429188,104
1659962150.78123,1281513.1429252,109
1659962150.78123,1281513.1429293,115
1659962150.78123,1281513.1429344,120
1659962150.78123,1281513.1429376,118
1659962150.78123,1281513.1429671,118
1659962150.78123,1281513.1429767,134
1659962150.78123,1281513.1429818,150
1659962150.78123,1281513.678599,155
1659962150.78123,1281513.6786166,162
1659962150.78123,1281513.678626,173
1659962150.78123,1281513.6786337,185
1659962150.78123,1281513.6786408,192
1659962150.78123,1281513.6786601,197
1659962150.78123,1281513.6786677,197
1659962150.78123,1281513.6786732,178
1659962150.78123,1281513.6786787,141
1659962150.78123,1281513.6786828,106
1659962150.78123,1281513.678687,85
1659962151.30975,1281513.6786908,60
1659962151.30975,1281513.6786948,32
1659962151.30975,1281513.6786986,11
1659962151.30975,1281513.6787023,2
1659962151.30975,1281513.6787062,-4
1659962151.30975,1281513.678711,0
1659962151.30975,1281513.6787149,2
1659962151.30975,1281513.678719,4
1659962151.30975,1281513.6787229,6
1659962151.30975,1281513.6787278,-6
1659962151.30975,1281513.6787325,-18
1659962151.30975,1281513.6787367,-2
1659962151.30975,1281513.6787407,18
1659962151.30975,1281513.6787455,20
1659962151.30975,1281513.6787494,20
1659962151.30975,1281513.6787533,30
1659962151.30975,1281513.6787577,27
1659962151.30975,1281513.6787616,25
1659962151.30975,1281513.6787656,48
1659962151.30975,1281513.6787696,67
1659962151.30975,1281513.6787741,55
1659962151.30975,1281513.6787781,55
1659962151.30975,1281513.6787829,81
1659962151.30975,1281513.678787,62
1659962151.30975,1281513.6787907,27
1659962151.30975,1281513.6787944,34
1659962151.30975,1281513.6787995,53
1659962151.30975,1281513.6788041,44
1659962151.30975,1281513.6788091,34
1659962151.30975,1281513.678813,44
1659962151.30975,1281513.6788173,46
1659962151.30975,1281513.6788212,27
1659962151.30975,1281513.6788257,150
1659962151.30975,1281513.6788297,503
1659962151.30975,1281513.6788332,598
1659962151.30975,1281513.6788372,120
1659962151.30975,1281513.6788409,-257
1659962151.30975,1281513.6788448,-60
1659962151.30975,1281513.6788488,141
1659962151.30975,1281513.6788525,57
1659962151.30975,1281513.6788562,30
1659962151.30975,1281513.6788604,83
1659962151.30975,1281513.6788641,64
1659962151.30975,1281513.6788678,51
1659962151.30975,1281513.6788717,76
1659962151.30975,1281513.6788754,83
1659962151.30975,1281513.6788797,83
1659962151.30975,1281513.6788836,90
1659962151.30975,1281513.6788874,97
1659962151.30975,1281513.6788914,104
1659962151.32072,1281513.6788953,118
1659962151.32072,1281513.6788995,120
1659962151.32072,1281513.6789033,111
1659962151.32072,1281513.6789071,118
1659962151.32072,1281513.6789108,132
1659962151.32072,1281513.6789145,141
1659962151.32072,1281513.6789183,155
1659962151.32072,1281513.6789221,169
1659962151.32072,1281513.6789262,176
1659962151.32072,1281513.67893,180
1659962151.32072,1281513.6789336,185
1659962151.32072,1281513.6789374,190
1659962151.32072,1281514.2166965,194
1659962151.32072,1281514.2167088,183
1659962151.32072,1281514.216712,160
1659962151.32072,1281514.2167162,134
1659962151.32072,1281514.2167185,99
1659962151.32072,1281514.2167209,64
1659962151.32072,1281514.2167232,48
1659962151.32072,1281514.2167256,41
1659962151.32072,1281514.216728,25
1659962151.32072,1281514.2167303,20
1659962151.32072,1281514.2167325,23
1659962151.32072,1281514.2167349,6
1659962151.84837,1281514.2167373,-2
1659962151.84837,1281514.2167431,13
1659962151.84837,1281514.2167532,25
1659962151.84837,1281514.2167579,27
1659962151.84837,1281514.21676,32
1659962151.84837,1281514.2167621,18
1659962151.84837,1281514.2167641,4
1659962151.84837,1281514.216766,20
1659962151.84837,1281514.216768,37
1659962151.84837,1281514.21677,32
1659962151.84837,1281514.2167759,30
1659962151.84837,1281514.2167874,39
1659962151.84837,1281514.2167927,44
1659962151.84837,1281514.2167948,37
1659962151.84837,1281514.2167969,48
1659962151.84837,1281514.216799,64
1659962151.84837,1281514.216801,46
1659962151.84837,1281514.2168031,18
1659962151.84837,1281514.2168051,27
1659962151.84837,1281514.2168072,44
1659962151.84837,1281514.2168119,39
1659962151.84837,1281514.2168139,39
1659962151.84837,1281514.2168161,53
1659962151.84837,1281514.2168182,46
1659962151.84837,1281514.2168202,34
1659962151.84837,1281514.2168222,213
1659962151.84837,1281514.2168246,558
1659962151.84837,1281514.2168267,517
1659962151.84837,1281514.2168289,-27
1659962151.84837,1281514.216831,-273
1659962151.84837,1281514.2168331,11
1659962151.84837,1281514.2168351,148
1659962151.84837,1281514.2168371,37
1659962151.84837,1281514.2168392,46
1659962151.84837,1281514.2168412,97
1659962151.84837,1281514.2168432,64
1659962151.84837,1281514.2168453,62
1659962151.84837,1281514.2168474,88
1659962151.84837,1281514.2168494,88
1659962151.84837,1281514.2168514,95
1659962151.84837,1281514.2168535,111
1659962151.84837,1281514.2168555,106
1659962151.84837,1281514.2168575,104
1659962151.84837,1281514.2168635,106
1659962151.84837,1281514.2168748,104
1659962151.84837,1281514.2168799,113
1659962151.84837,1281514.2168821,136
1659962151.84837,1281514.2168849,148
1659962151.84837,1281514.216887,157
1659962151.84837,1281514.216889,171
1659962151.85734,1281514.2168924,180
1659962151.85734,1281514.2169135,183
1659962151.85734,1281514.2169253,187
1659962151.85734,1281514.2169399,197
1659962151.85734,1281514.2169531,206
1659962151.85734,1281514.2169616,208
1659962151.85734,1281514.2169653,192
1659962151.85734,1281514.2169674,164
1659962151.85734,1281514.2169695,136
1659962151.85734,1281514.2169715,99
1659962151.85734,1281514.2169737,62
1659962151.85734,1281514.7514875,48
1659962151.85734,1281514.7515012,41
1659962151.85734,1281514.7515061,34
1659962151.85734,1281514.7515105,34
1659962151.85734,1281514.7515142,39
1659962151.85734,1281514.751517,44
1659962151.85734,1281514.7515196,57
1659962151.85734,1281514.7515223,53
1659962151.85734,1281514.751528,23
1659962151.85734,1281514.7515396,20
1659962151.85734,1281514.7515454,46
1659962151.85734,1281514.7515477,51
1659962151.85734,1281514.7515501,46
1659962152.4802,1281514.7515521,53
1659962152.4802,1281514.7515541,57
1659962152.4802,1281514.7515562,44
1659962152.4802,1281514.7515582,44
1659962152.4802,1281514.7515601,69
1659962152.4802,1281514.7515622,90
1659962152.4802,1281514.7515641,67
1659962152.4802,1281514.751566,37
1659962152.4802,1281514.751568,37
1659962152.4802,1281514.7515699,37
1659962152.4802,1281514.751572,11
1659962152.4802,1281514.751574,11
1659962152.4802,1281514.7515759,32
1659962152.4802,1281514.7515778,30
1659962152.4802,1281514.7515798,18
1659962152.4802,1281514.7515817,27
1659962152.4802,1281514.7515836,27
1659962152.4802,1281514.7515856,2
1659962152.4802,1281514.7515875,102
1659962152.4802,1281514.7515896,433
1659962152.4802,1281514.7515916,568
1659962152.4802,1281514.7515935,113
1659962152.4802,1281514.7515955,-303
1659962152.4802,1281514.7515976,-111
1659962152.4802,1281514.7516002,136
1659962152.4802,1281514.7516023,62
1659962152.4802,1281514.7516045,18
1659962152.4802,1281514.7516065,81
1659962152.4802,1281514.7516086,71
1659962152.4802,1281514.7516107,46
1659962152.4802,1281514.7516127,67
1659962152.4802,1281514.7516149,78
1659962152.4802,1281514.7516169,74
1659962152.4802,1281514.7516189,78
1659962152.4802,1281514.751621,90
1659962152.4802,1281514.751623,92
1659962152.4802,1281514.7516251,92
1659962152.4802,1281514.7516271,97

1659962152.4802,1281514.7516292,106
1659962152.4802,1281514.7516313,115
1659962152.4802,1281514.7516333,127
1659962152.4802,1281514.7516353,148
1659962152.4802,1281514.7516373,164
1659962152.4802,1281514.7516394,171
1659962152.4802,1281514.7516414,171
1659962152.4802,1281514.7516435,171
1659962152.4802,1281514.7516455,173
1659962152.4802,1281514.7516475,185
1659962152.4802,1281514.7516495,190
1659962152.4802,1281514.7516515,176
1659962152.49117,1281514.7516535,148
1659962152.49117,1281514.7516555,113
1659962152.49117,1281514.7516576,81
1659962152.49117,1281514.7516596,60
1659962152.49117,1281514.7516617,48
1659962152.49117,1281514.7516706,37
1659962152.49117,1281514.7516727,30
1659962152.49117,1281514.7516747,30
1659962152.49117,1281514.7516767,34
1659962152.49117,1281514.7516788,37
1659962152.49117,1281515.3846252,46
1659962152.49117,1281515.3846491,55
1659962152.49117,1281515.3846591,57
1659962152.49117,1281515.3846772,62
1659962152.49117,1281515.3846906,55
1659962152.49117,1281515.3846984,39
1659962152.49117,1281515.3847025,39
1659962152.49117,1281515.3847081,53
1659962152.49117,1281515.3847191,57
1659962152.49117,1281515.3847227,53
1659962152.49117,1281515.384725,44
1659962152.49117,1281515.3847271,30
1659962152.49117,1281515.3847292,39
1659962152.49117,1281515.3847313,48
1659962152.49117,1281515.384739,34
1659962153.01941,1281515.384749,46
1659962153.01941,1281515.3847556,55
1659962153.01941,1281515.3847628,25
1659962153.01941,1281515.3847723,9
1659962153.01941,1281515.3847817,27
1659962153.01941,1281515.3847888,30
1659962153.01941,1281515.3847956,13
1659962153.01941,1281515.3848029,18
1659962153.01941,1281515.3848081,30
1659962153.01941,1281515.384817,2
1659962153.01941,1281515.3848268,30
1659962153.01941,1281515.3848395,301
1659962153.01941,1281515.3848508,577
1659962153.01941,1281515.3848621,317
1659962153.01941,1281515.3848693,-197
1659962153.01941,1281515.3848774,-213
1659962153.01941,1281515.3848903,83
1659962153.01941,1281515.3849035,102
1659962153.01941,1281515.3849175,13
1659962153.01941,1281515.384931,60
1659962153.01941,1281515.3849443,88
1659962153.01941,1281515.3849578,57
1659962153.01941,1281515.3849711,62
1659962153.01941,1281515.3849853,78
1659962153.01941,1281515.3850208,74
1659962153.01941,1281515.3850337,81
1659962153.01941,1281515.3850484,83
1659962153.01941,1281515.3850635,69
1659962153.01941,1281515.3850766,74
1659962153.01941,1281515.3850904,97
1659962153.01941,1281515.3851059,104
1659962153.01941,1281515.3851455,115
1659962153.01941,1281515.3851601,141
1659962153.01941,1281515.3851748,160
1659962153.01941,1281515.3851884,166
1659962153.01941,1281515.3852027,176
1659962153.01941,1281515.385217,183
1659962153.01941,1281515.3852302,185
1659962153.01941,1281515.3852434,192
1659962153.01941,1281515.3852579,190
1659962153.01941,1281515.3852714,183
1659962153.01941,1281515.3852848,178
1659962153.01941,1281515.3852991,160
1659962153.01941,1281515.3853122,125
1659962153.01941,1281515.3853254,92
1659962153.01941,1281515.3853397,67
1659962153.01941,1281515.3853537,44
1659962153.01941,1281515.3853619,27
1659962153.01941,1281515.3853654,23
1659962153.01941,1281515.3853676,25
1659962153.03238,1281515.3853699,27
1659962153.03238,1281515.3853729,37
1659962153.03238,1281515.3853824,44
1659962153.03238,1281515.3853973,44
1659962153.03238,1281515.3854106,41
1659962153.03238,1281515.3854238,51
1659962153.03238,1281515.3854374,67
1659962153.03238,1281515.385447,71
1659962153.03238,1281515.9216266,69
1659962153.03238,1281515.9216451,76
1659962153.03238,1281515.9216541,81
1659962153.03238,1281515.921659,83
1659962153.03238,1281515.9216632,81
1659962153.03238,1281515.9216654,81
1659962153.03238,1281515.9216675,97
1659962153.03238,1281515.9216697,102
1659962153.03238,1281515.9216717,78
1659962153.03238,1281515.9216738,83
1659962153.03238,1281515.9216758,109
1659962153.03238,1281515.921678,90
1659962153.03238,1281515.9216801,85
1659962153.03238,1281515.9216823,118
1659962153.03238,1281515.9216844,88
1659962153.64759,1281515.9216866,-4
1659962153.64759,1281515.9216886,-30
1659962153.64759,1281515.9216906,2
1659962153.64759,1281515.9216927,-6
1659962153.64759,1281515.9216946,-13
1659962153.64759,1281515.9216965,180
1659962153.64759,1281515.9216985,505
1659962153.64759,1281515.9217006,422
1659962153.64759,1281515.9217025,-104
1659962153.64759,1281515.9217046,-289
1659962153.64759,1281515.9217066,4
1659962153.64759,1281515.9217085,106
1659962153.64759,1281515.9217105,-18
1659962153.64759,1281515.9217134,-6
1659962153.64759,1281515.9217245,57
1659962153.64759,1281515.9217292,37
1659962153.64759,1281515.9217328,30
1659962153.64759,1281515.921739,51
1659962153.64759,1281515.9217426,46
1659962153.64759,1281515.921746,37
1659962153.64759,1281515.9217511,53
1659962153.64759,1281515.9217637,69
1659962153.64759,1281515.9217763,71
1659962153.64759,1281515.9217903,76
1659962153.64759,1281515.9218019,88
1659962153.64759,1281515.9218094,104
1659962153.64759,1281515.921814,122
1659962153.64759,1281515.9218219,132
1659962153.64759,1281515.9218283,143
1659962153.64759,1281515.9218833,155
1659962153.64759,1281515.921895,157
1659962153.64759,1281515.9219018,160
1659962153.64759,1281515.9219084,169
1659962153.64759,1281515.9219137,173
1659962153.64759,1281515.9219205,178
1659962153.64759,1281515.9219268,180
1659962153.64759,1281515.9219321,162
1659962153.64759,1281515.9219356,129
1659962153.64759,1281515.921941,109
1659962153.64759,1281515.9219445,81
1659962153.64759,1281515.9219477,48
1659962153.64759,1281515.9219511,34
1659962153.64759,1281515.9219543,37
1659962153.64759,1281515.9219576,37
1659962153.64759,1281515.9219618,37
1659962153.64759,1281515.921966,44
1659962153.64759,1281515.9219702,60
1659962153.64759,1281515.9219733,62
1659962153.64759,1281515.9219762,53
1659962153.64759,1281515.9219791,51
1659962153.65856,1281515.9219829,62
1659962153.65856,1281515.9219887,74
1659962153.65856,1281515.9219922,85
1659962153.65856,1281515.921999,88
1659962153.65856,1281515.9220092,90
1659962153.65856,1281515.922018,90
1659962153.65856,1281515.9220245,88
1659962153.65856,1281515.922031,95
1659962153.65856,1281516.5557835,109
1659962153.65856,1281516.5558011,104
1659962153.65856,1281516.5558062,95
1659962153.65856,1281516.5558136,106
1659962153.65856,1281516.5558198,92
1659962153.65856,1281516.5558257,55
1659962153.65856,1281516.5558298,55
1659962153.65856,1281516.5558338,78
1659962153.65856,1281516.5558395,71
1659962153.65856,1281516.5558436,53
1659962153.65856,1281516.5558492,46
1659962153.65856,1281516.5558531,34
1659962153.65856,1281516.5558582,4
1659962153.65856,1281516.555862,57
1659962153.65856,1281516.5558655,357
1659962153.65856,1281516.5558707,628
1659962154.18989,1281516.5558761,308
1659962154.18989,1281516.5558797,-250
1659962154.18989,1281516.5558837,-238
1659962154.18989,1281516.5558882,69
1659962154.18989,1281516.5558922,69
1659962154.18989,1281516.5558963,-16
1659962154.18989,1281516.5559003,39
1659962154.18989,1281516.5559054,57
1659962154.18989,1281516.5559097,23
1659962154.18989,1281516.5559138,41
1659962154.18989,1281516.5559201,55
1659962154.18989,1281516.5559244,32
1659962154.18989,1281516.5559284,30
1659962154.18989,1281516.5559333,53
1659962154.18989,1281516.5559402,55
1659962154.18989,1281516.5559472,60
1659962154.18989,1281516.5559543,83
1659962154.18989,1281516.5559591,97
1659962154.18989,1281516.5559666,106
1659962154.18989,1281516.5559703,125
1659962154.18989,1281516.5559764,150
1659962154.18989,1281516.5559825,173
1659962154.18989,1281516.5562004,166
1659962154.18989,1281516.5562081,139
1659962154.18989,1281516.5562134,143
1659962154.18989,1281516.5562183,162
1659962154.18989,1281516.5562233,160
1659962154.18989,1281516.556228,146
1659962154.18989,1281516.5562327,122
1659962154.18989,1281516.5562376,102
1659962154.18989,1281516.5562425,90
1659962154.18989,1281516.5562475,90
1659962154.18989,1281516.5562523,90
1659962154.18989,1281516.5562612,71
1659962154.18989,1281516.5562698,55
1659962154.18989,1281516.5562744,60
1659962154.18989,1281516.556283,62
1659962154.18989,1281516.556288,53
1659962154.18989,1281516.5562929,41
1659962154.18989,1281516.5563017,46
1659962154.18989,1281516.5563066,60
1659962154.18989,1281516.5563112,60
1659962154.18989,1281516.5563157,60
1659962154.18989,1281516.5563202,71
1659962154.18989,1281516.5563251,74
1659962154.18989,1281516.5563296,76
1659962154.18989,1281516.556334,90
1659962154.18989,1281516.5563389,95
1659962154.18989,1281516.5563437,83
1659962154.18989,1281516.556348,88
1659962154.20186,1281516.5563519,111
1659962154.20186,1281516.5563565,109
1659962154.20186,1281516.5563607,78
1659962154.20186,1281516.5563641,88
1659962154.20186,1281516.5563705,120
1659962154.20186,1281516.5563744,97
1659962154.20186,1281516.5563785,64
1659962154.20186,1281517.0921357,71
1659962154.20186,1281517.0921549,71
1659962154.20186,1281517.0921708,57
1659962154.20186,1281517.0921851,62
1659962154.20186,1281517.0921982,76
1659962154.20186,1281517.0922114,62
1659962154.20186,1281517.0922249,69
1659962154.20186,1281517.0922337,285
1659962154.20186,1281517.0922362,598
1659962154.20186,1281517.0922384,449
1659962154.20186,1281517.0922406,-111
1659962154.20186,1281517.0922428,-243
1659962154.20186,1281517.0922449,71
1659962154.20186,1281517.092247,129
1659962154.20186,1281517.0922491,4
1659962154.20186,1281517.0922512,44
1659962154.20186,1281517.0922533,88
1659962154.66812,1281517.0922585,60
1659962154.66812,1281517.0922664,64
1659962154.66812,1281517.0922741,67
1659962154.66812,1281517.09228,25
1659962154.66812,1281517.0922824,18
1659962154.66812,1281517.0922845,46
1659962154.66812,1281517.0922865,48
1659962154.66812,1281517.0922885,39
1659962154.66812,1281517.0922927,57
1659962154.66812,1281517.0922972,85
1659962154.66812,1281517.0923018,99
1659962154.66812,1281517.0923068,106
1659962154.66812,1281517.0923114,122
1659962154.66812,1281517.0923138,141
1659962154.66812,1281517.092316,155
1659962154.66812,1281517.0923182,160
1659962154.66812,1281517.0923203,155
1659962154.66812,1281517.0923252,166
1659962154.66812,1281517.0923362,178
1659962154.66812,1281517.092341,155
1659962154.66812,1281517.0923433,122
1659962154.66812,1281517.0923472,113
1659962154.66812,1281517.0923493,109
1659962154.66812,1281517.0923518,81
1659962154.66812,1281517.0923584,37
1659962154.66812,1281517.0923648,6
1659962154.66812,1281517.0923747,23
1659962154.66812,1281517.0923811,46
1659962154.66812,1281517.0923853,32
1659962154.66812,1281517.0923893,9
1659962154.66812,1281517.0923931,9
1659962154.66812,1281517.0923972,25
1659962154.66812,1281517.0924017,37
1659962154.66812,1281517.0924056,25
1659962154.66812,1281517.0924098,16
1659962154.66812,1281517.0924158,39
1659962154.66812,1281517.0924191,64
1659962154.66812,1281517.0924229,69
1659962154.66812,1281517.0924287,71
1659962154.66812,1281517.0924344,60
1659962154.66812,1281517.0924494,51
1659962154.66812,1281517.0924598,83
1659962154.66812,1281517.0924669,115
1659962154.66812,1281517.0924747,85
1659962154.66812,1281517.0924863,55
1659962154.66812,1281517.0924955,88
1659962154.66812,1281517.0925004,106
1659962154.66812,1281517.0925109,69
1659962154.66812,1281517.0925186,46
1659962154.66812,1281517.092528,48
1659962154.6781,1281517.0925401,46
1659962154.6781,1281517.0925519,51
1659962154.6781,1281517.0925664,64
1659962154.6781,1281517.0925795,60
1659962154.6781,1281517.0925925,23
1659962154.6781,1281517.0926054,46
1659962154.6781,1281517.5793126,320
1659962154.6781,1281517.5793323,603
1659962154.6781,1281517.5793427,338
1659962154.6781,1281517.5793493,-190
1659962154.6781,1281517.5793528,-199
1659962154.6781,1281517.579356,104
1659962154.6781,1281517.5793594,115
1659962154.6781,1281517.5793629,25
1659962154.6781,1281517.5793662,83
1659962154.6781,1281517.5793697,104
1659962154.6781,1281517.5793734,53
1659962154.6781,1281517.5793772,27
1659962154.6781,1281517.5793819,18
1659962154.6781,1281517.5793879,20
1659962154.6781,1281517.5793965,41
1659962154.6781,1281517.5794018,60
1659962154.6781,1281517.5794113,69
1659962154.6781,1281517.579419,74
1659962155.20695,1281517.5794244,67
1659962155.20695,1281517.5794312,67
1659962155.20695,1281517.5794384,85
1659962155.20695,1281517.5794454,111
1659962155.20695,1281517.5794526,132
1659962155.20695,1281517.57946,139
1659962155.20695,1281517.579466,125
1659962155.20695,1281517.5794709,118
1659962155.20695,1281517.5794777,132
1659962155.20695,1281517.5794824,143
1659962155.20695,1281517.5794867,143
1659962155.20695,1281517.5794912,136
1659962155.20695,1281517.579499,122
1659962155.20695,1281517.5795073,111
1659962155.20695,1281517.5795239,90
1659962155.20695,1281517.579534,60
1659962155.20695,1281517.5795386,37
1659962155.20695,1281517.5795432,9
1659962155.20695,1281517.5795496,-16
1659962155.20695,1281517.5795532,-20
1659962155.20695,1281517.5795569,-18
1659962155.20695,1281517.5795604,-23
1659962155.20695,1281517.5795643,-9
1659962155.20695,1281517.5795688,16
1659962155.20695,1281517.5795744,27
1659962155.20695,1281517.5795813,27
1659962155.20695,1281517.5795885,32
1659962155.20695,1281517.5795977,41
1659962155.20695,1281517.5796019,48
1659962155.20695,1281517.5796074,53
1659962155.20695,1281517.5796124,55
1659962155.20695,1281517.5796178,51
1659962155.20695,1281517.5796213,39
1659962155.20695,1281517.5796249,44
1659962155.20695,1281517.5796286,71
1659962155.20695,1281517.5796325,78
1659962155.20695,1281517.5796377,60
1659962155.20695,1281517.579643,62
1659962155.20695,1281517.5796482,62
1659962155.20695,1281517.579652,30
1659962155.20695,1281517.5796573,23
1659962155.20695,1281517.5796619,41
1659962155.20695,1281517.5796677,39
1659962155.20695,1281517.5796738,32
1659962155.20695,1281517.5796785,41
1659962155.20695,1281517.5796846,37
1659962155.20695,1281517.5796885,9
1659962155.20695,1281517.5796952,32
1659962155.20695,1281517.5797037,273
1659962155.20695,1281517.5797081,582
1659962155.21992,1281517.579712,401
1659962155.21992,1281517.5797187,-143
1659962155.21992,1281517.5797249,-236
1659962155.21992,1281517.579729,76
1659962155.21992,1281517.5797334,132
1659962155.21992,1281518.1147744,16
1659962155.21992,1281518.1147907,39
1659962155.21992,1281518.1147966,76
1659962155.21992,1281518.1148032,51
1659962155.21992,1281518.1148133,46
1659962155.21992,1281518.1148181,55
1659962155.21992,1281518.114824,48
1659962155.21992,1281518.1148286,44
1659962155.21992,1281518.1148344,41
1659962155.21992,1281518.1148387,41
1659962155.21992,1281518.1148441,41
1659962155.21992,1281518.1148485,53
1659962155.21992,1281518.1148541,76
1659962155.21992,1281518.1148583,85
1659962155.21992,1281518.114864,74
1659962155.21992,1281518.1148683,78
1659962155.21992,1281518.1148742,102
1659962155.21992,1281518.1148785,113
1659962155.21992,1281518.1148895,120
1659962155.84265,1281518.1148939,134
1659962155.84265,1281518.114898,141
1659962155.84265,1281518.1149018,141
1659962155.84265,1281518.1149059,141
1659962155.84265,1281518.1149098,139
1659962155.84265,1281518.1149137,125
1659962155.84265,1281518.1149174,104
1659962155.84265,1281518.1149211,78
1659962155.84265,1281518.1149249,53
1659962155.84265,1281518.1149287,34
1659962155.84265,1281518.1149327,20
1659962155.84265,1281518.1149365,11
1659962155.84265,1281518.1149404,13
1659962155.84265,1281518.1149442,13
1659962155.84265,1281518.1149485,11
1659962155.84265,1281518.1149543,18
1659962155.84265,1281518.1149619,34
1659962155.84265,1281518.1149676,41
1659962155.84265,1281518.1149719,48
1659962155.84265,1281518.1149774,60
1659962155.84265,1281518.1149815,57
1659962155.84265,1281518.114987,53
1659962155.84265,1281518.1149908,67
1659962155.84265,1281518.1149958,81
1659962155.84265,1281518.1149997,76
1659962155.84265,1281518.1150051,62
1659962155.84265,1281518.1150087,60
1659962155.84265,1281518.1150137,71
1659962155.84265,1281518.1150174,85
1659962155.84265,1281518.1150226,76
1659962155.84265,1281518.1150267,76
1659962155.84265,1281518.1150321,99
1659962155.84265,1281518.1150358,85
1659962155.84265,1281518.1150397,46
1659962155.84265,1281518.1150436,53
1659962155.84265,1281518.1150487,69
1659962155.84265,1281518.1150524,60
1659962155.84265,1281518.1150576,60
1659962155.84265,1281518.1150615,76
1659962155.84265,1281518.1150664,69
1659962155.84265,1281518.11507,48
1659962155.84265,1281518.1150753,190
1659962155.84265,1281518.1150789,531
1659962155.84265,1281518.1150841,575
1659962155.84265,1281518.1150899,76
1659962155.84265,1281518.1150952,-257
1659962155.84265,1281518.1150991,-23
1659962155.84265,1281518.1151042,171
1659962155.84265,1281518.1151092,78
1659962155.84265,1281518.1151131,60
1659962155.85462,1281518.1151169,120
1659962155.85462,1281518.115122,92
1659962155.85462,1281518.1151266,55
1659962155.85462,1281518.1151317,81
1659962155.85462,1281518.7491021,95
1659962155.85462,1281518.7491199,74
1659962155.85462,1281518.7491292,76
1659962155.85462,1281518.7491343,83
1659962155.85462,1281518.749141,71
1659962155.85462,1281518.7491442,67
1659962155.85462,1281518.7491472,90
1659962155.85462,1281518.7491551,106
1659962155.85462,1281518.7491632,111
1659962155.85462,1281518.7491718,122
1659962155.85462,1281518.749181,127
1659962155.85462,1281518.7491891,115
1659962155.85462,1281518.7491916,115
1659962155.85462,1281518.7491937,134
1659962155.85462,1281518.7491959,146
1659962155.85462,1281518.749198,150
1659962155.85462,1281518.7492001,157
1659962155.85462,1281518.7492022,153
1659962155.85462,1281518.7492044,136
1659962155.85462,1281518.7492066,118
1659962156.37843,1281518.7492087,97
1659962156.37843,1281518.7492107,64
1659962156.37843,1281518.7492127,39
1659962156.37843,1281518.7492146,30
1659962156.37843,1281518.7492166,23
1659962156.37843,1281518.7492186,13
1659962156.37843,1281518.7492205,11
1659962156.37843,1281518.7492225,16
1659962156.37843,1281518.7492245,20
1659962156.37843,1281518.7492264,32
1659962156.37843,1281518.7492285,41
1659962156.37843,1281518.7492306,44
1659962156.37843,1281518.7492325,46
1659962156.37843,1281518.7492345,44
1659962156.37843,1281518.7492365,46
1659962156.37843,1281518.7492386,53
1659962156.37843,1281518.7492458,60
1659962156.37843,1281518.7492567,69
1659962156.37843,1281518.7492642,74
1659962156.37843,1281518.7492669,76
1659962156.37843,1281518.7492692,67
1659962156.37843,1281518.7492714,55
1659962156.37843,1281518.7492734,64
1659962156.37843,1281518.7492755,78
1659962156.37843,1281518.7492781,74
1659962156.37843,1281518.7492802,69
1659962156.37843,1281518.749283,92
1659962156.37843,1281518.7492851,90
1659962156.37843,1281518.7492872,46
1659962156.37843,1281518.7492893,39
1659962156.37843,1281518.7492915,64
1659962156.37843,1281518.7492935,67
1659962156.37843,1281518.7492957,57
1659962156.37843,1281518.7492978,60
1659962156.37843,1281518.7492999,60
1659962156.37843,1281518.749302,32
1659962156.37843,1281518.749304,81
1659962156.37843,1281518.7493061,385
1659962156.37843,1281518.7493082,651
1659962156.37843,1281518.7493103,340
1659962156.37843,1281518.7493126,-176
1659962156.37843,1281518.7493146,-155
1659962156.37843,1281518.7493167,113
1659962156.37843,1281518.7493188,90
1659962156.37843,1281518.7493209,-2
1659962156.37843,1281518.749323,44
1659962156.37843,1281518.7493252,67
1659962156.37843,1281518.7493273,44
1659962156.37843,1281518.7493294,48
1659962156.37843,1281518.7493384,62
1659962156.3894,1281518.7493405,62
1659962156.3894,1281518.7493426,71
1659962156.3894,1281518.7493446,88
1659962156.3894,1281519.2858683,97
1659962156.3894,1281519.2858896,99
1659962156.3894,1281519.2859059,104
1659962156.3894,1281519.28592,118
1659962156.3894,1281519.2859291,134
1659962156.3894,1281519.2859348,148
1659962156.3894,1281519.285959,166
1659962156.3894,1281519.2859765,178
1659962156.3894,1281519.2859907,176
1659962156.3894,1281519.2859958,176
1659962156.3894,1281519.2860017,185
1659962156.3894,1281519.2860054,194
1659962156.3894,1281519.2860091,204
1659962156.3894,1281519.2860161,197
1659962156.3894,1281519.2860221,157
1659962156.3894,1281519.286027,125
1659962156.3894,1281519.2860323,109
1659962156.3894,1281519.2860386,85
1659962156.3894,1281519.286046,64
1659962156.3894,1281519.2860559,37
1659962156.3894,1281519.2860651,-11
1659962156.91155,1281519.2860704,-37
1659962156.91155,1281519.2860775,-16
1659962156.91155,1281519.2860847,-6
1659962156.91155,1281519.2860917,-18
1659962156.91155,1281519.2860981,-16
1659962156.91155,1281519.2861018,-11
1659962156.91155,1281519.2861049,-9
1659962156.91155,1281519.2861083,4
1659962156.91155,1281519.2861116,6
1659962156.91155,1281519.2861158,6
1659962156.91155,1281519.2861206,20
1659962156.91155,1281519.2861288,30
1659962156.91155,1281519.2861334,27
1659962156.91155,1281519.2861406,41
1659962156.91155,1281519.2861439,55
1659962156.91155,1281519.2861522,51
1659962156.91155,1281519.2861654,39
1659962156.91155,1281519.2861794,30
1659962156.91155,1281519.2861922,20
1659962156.91155,1281519.2862055,30
1659962156.91155,1281519.2862205,51
1659962156.91155,1281519.2862334,48
1659962156.91155,1281519.2862478,48
1659962156.91155,1281519.2862608,67
1659962156.91155,1281519.2862738,64
1659962156.91155,1281519.2862869,32
1659962156.91155,1281519.2862955,30
1659962156.91155,1281519.286298,51
1659962156.91155,1281519.2863003,51
1659962156.91155,1281519.2863027,41
1659962156.91155,1281519.2863048,53
1659962156.91155,1281519.2863069,53
1659962156.91155,1281519.2863089,32
1659962156.91155,1281519.2863108,141
1659962156.91155,1281519.2863127,452
1659962156.91155,1281519.2863148,540
1659962156.91155,1281519.2863221,106
1659962156.91155,1281519.2863307,-262
1659962156.91155,1281519.2863379,-88
1659962156.91155,1281519.2863441,134
1659962156.91155,1281519.2863505,69
1659962156.91155,1281519.2863528,23
1659962156.91155,1281519.2863553,78
1659962156.91155,1281519.2863596,76
1659962156.91155,1281519.2863678,60
1659962156.91155,1281519.2863747,85
1659962156.91155,1281519.2863788,99
1659962156.91155,1281519.2863845,88
1659962156.91155,1281519.2863907,88
1659962156.91155,1281519.2863975,99
1659962156.92351,1281519.286406,106
1659962156.92351,1281519.2864146,120
1659962156.92351,1281519.8228978,134
1659962156.92351,1281519.822919,148
1659962156.92351,1281519.8229293,164
1659962156.92351,1281519.8229372,187
1659962156.92351,1281519.8229484,206
1659962156.92351,1281519.8229559,201
1659962156.92351,1281519.8229626,201
1659962156.92351,1281519.8229682,215
1659962156.92351,1281519.8229759,218
1659962156.92351,1281519.8229819,213
1659962156.92351,1281519.8230032,206
1659962156.92351,1281519.8230125,183
1659962156.92351,1281519.8230192,160
1659962156.92351,1281519.8230258,143
1659962156.92351,1281519.8230309,111
1659962156.92351,1281519.8230355,71
1659962156.92351,1281519.8230413,39
1659962156.92351,1281519.8230473,2
1659962156.92351,1281519.8230522,-23
1659962156.92351,1281519.8230578,-25
1659962156.92351,1281519.8230612,-18
1659962156.92351,1281519.823066,-9
1659962157.49858,1281519.8230717,6
1659962157.49858,1281519.8230752,4
1659962157.49858,1281519.823079,-11
1659962157.49858,1281519.8230856,-13
1659962157.49858,1281519.82309,2
1659962157.49858,1281519.8230948,18
1659962157.49858,1281519.8230986,27
1659962157.49858,1281519.8231018,34
1659962157.49858,1281519.8231075,41
1659962157.49858,1281519.8231139,46
1659962157.49858,1281519.8231204,46
1659962157.49858,1281519.8231277,48
1659962157.49858,1281519.8231338,51
1659962157.49858,1281519.82314,48
1659962157.49858,1281519.8231464,46
1659962157.49858,1281519.8231529,37
1659962157.49858,1281519.8231598,25
1659962157.49858,1281519.8231642,41
1659962157.49858,1281519.8231698,62
1659962157.49858,1281519.8231745,53
1659962157.49858,1281519.8231781,48
1659962157.49858,1281519.8231836,71
1659962157.49858,1281519.8231896,71
1659962157.49858,1281519.8231948,46
1659962157.49858,1281519.8231986,46
1659962157.49858,1281519.8232026,48
1659962157.49858,1281519.8232056,20
1659962157.49858,1281519.8232087,4
1659962157.49858,1281519.8232115,20
1659962157.49858,1281519.8232143,23
1659962157.49858,1281519.8232173,-2
1659962157.49858,1281519.8232207,97
1659962157.49858,1281519.8232273,442
1659962157.49858,1281519.8232327,651
1659962157.49858,1281519.8232379,282
1659962157.49858,1281519.8232411,-190
1659962157.49858,1281519.8232468,-129
1659962157.49858,1281519.8232522,115
1659962157.49858,1281519.8232575,97
1659962157.49858,1281519.8232664,30
1659962157.49858,1281519.8232762,69
1659962157.49858,1281519.823281,74
1659962157.49858,1281519.823285,55
1659962157.49858,1281519.8232881,83
1659962157.49858,1281519.8232911,97
1659962157.49858,1281519.8232941,83
1659962157.49858,1281519.8232971,88
1659962157.49858,1281519.8232999,109
1659962157.49858,1281519.8233041,120
1659962157.49858,1281519.823308,134
1659962157.51055,1281519.8233132,143
1659962157.51055,1281520.4062109,141
1659962157.51055,1281520.4062285,148
1659962157.51055,1281520.4062389,173
1659962157.51055,1281520.4062492,187
1659962157.51055,1281520.4062613,194
1659962157.51055,1281520.4062728,201
1659962157.51055,1281520.4062837,192
1659962157.51055,1281520.4062972,173
1659962157.51055,1281520.4063124,171
1659962157.51055,1281520.4063268,185
1659962157.51055,1281520.4063394,197
1659962157.51055,1281520.406354,190
1659962157.51055,1281520.4063671,164
1659962157.51055,1281520.4063825,118
1659962157.51055,1281520.4063966,64
1659962157.51055,1281520.4064067,41
1659962157.51055,1281520.4064094,32
1659962157.51055,1281520.4064115,13
1659962157.51055,1281520.4064137,-4
1659962157.51055,1281520.4064158,-9
1659962157.51055,1281520.4064179,-16
1659962157.51055,1281520.4064207,-18
1659962157.51055,1281520.4064311,-4
1659962158.12962,1281520.406439,9
1659962158.12962,1281520.4064414,13
1659962158.12962,1281520.4064434,18
1659962158.12962,1281520.4064454,25
1659962158.12962,1281520.4064474,32
1659962158.12962,1281520.4064493,48
1659962158.12962,1281520.4064512,57
1659962158.12962,1281520.4064531,60
1659962158.12962,1281520.4064558,64
1659962158.12962,1281520.406464,67
1659962158.12962,1281520.406472,62
1659962158.12962,1281520.4064854,53
1659962158.12962,1281520.4064992,46
1659962158.12962,1281520.406513,44
1659962158.12962,1281520.4065224,55
1659962158.12962,1281520.4065255,57
1659962158.12962,1281520.4065385,34
1659962158.12962,1281520.4065454,30
1659962158.12962,1281520.4065479,44
1659962158.12962,1281520.4065501,27
1659962158.12962,1281520.4065523,13
1659962158.12962,1281520.4065548,30
1659962158.12962,1281520.4065607,32
1659962158.12962,1281520.4065719,16
1659962158.12962,1281520.4065752,20
1659962158.12962,1281520.4065773,34
1659962158.12962,1281520.4065795,16
1659962158.12962,1281520.4065818,4
1659962158.12962,1281520.4065895,187
1659962158.12962,1281520.4066002,554
1659962158.12962,1281520.4066037,575
1659962158.12962,1281520.4066073,71
1659962158.12962,1281520.4066101,-224
1659962158.12962,1281520.4066201,-2
1659962158.12962,1281520.406629,150
1659962158.12962,1281520.4066316,53
1659962158.12962,1281520.406634,44
1659962158.12962,1281520.4066418,99
1659962158.12962,1281520.4066524,81
1659962158.12962,1281520.4066559,71
1659962158.12962,1281520.4066596,97
1659962158.12962,1281520.4066629,95
1659962158.12962,1281520.4066758,88
1659962158.12962,1281520.4066816,102
1659962158.12962,1281520.4066841,113
1659962158.12962,1281520.4066862,120
1659962158.12962,1281520.4066883,125
1659962158.12962,1281520.4066903,127
1659962158.12962,1281520.4066964,134
1659962158.12962,1281520.4067078,146
1659962158.14059,1281521.0399851,160
1659962158.14059,1281521.0399978,178
1659962158.14059,1281521.0400064,192
1659962158.14059,1281521.0400164,199
1659962158.14059,1281521.0400248,201
1659962158.14059,1281521.0400307,201
1659962158.14059,1281521.0400352,201
1659962158.14059,1281521.0400395,208
1659962158.14059,1281521.0400466,213
1659962158.14059,1281521.0400508,192
1659962158.14059,1281521.0400548,143
1659962158.14059,1281521.0400589,90
1659962158.14059,1281521.040063,60
1659962158.14059,1281521.0400671,44
1659962158.14059,1281521.040071,27
1659962158.14059,1281521.0400764,18
1659962158.14059,1281521.0400805,0
1659962158.14059,1281521.0400859,-25
1659962158.14059,1281521.04009,-23
1659962158.14059,1281521.0400938,-4
1659962158.14059,1281521.0400977,2
1659962158.14059,1281521.0401015,6
1659962158.14059,1281521.0401067,9
1659962158.14059,1281521.0401104,11
1659962158.66613,1281521.0401155,20
1659962158.66613,1281521.0401192,32
1659962158.66613,1281521.0401229,41
1659962158.66613,1281521.0401264,53
1659962158.66613,1281521.0401301,53
1659962158.66613,1281521.0401338,39
1659962158.66613,1281521.0401374,37
1659962158.66613,1281521.0401409,39
1659962158.66613,1281521.0401446,27
1659962158.66613,1281521.0401483,6
1659962158.66613,1281521.0401519,13
1659962158.66613,1281521.0401555,27
1659962158.66613,1281521.0401591,16
1659962158.66613,1281521.0401627,18
1659962158.66613,1281521.0401665,46
1659962158.66613,1281521.0401702,37
1659962158.66613,1281521.0401738,11
1659962158.66613,1281521.0401776,20
1659962158.66613,1281521.0401814,30
1659962158.66613,1281521.0401851,18
1659962158.66613,1281521.0401905,23
1659962158.66613,1281521.0401941,37
1659962158.66613,1281521.0401979,32
1659962158.66613,1281521.0402029,11
1659962158.66613,1281521.0402066,136
1659962158.66613,1281521.0402104,489
1659962158.66613,1281521.0402141,623
1659962158.66613,1281521.0402179,176
1659962158.66613,1281521.040223,-241
1659962158.66613,1281521.0402268,-76
1659962158.66613,1281521.040232,150
1659962158.66613,1281521.0402357,76
1659962158.66613,1281521.0402394,32
1659962158.66613,1281521.0402431,97
1659962158.66613,1281521.0402486,97
1659962158.66613,1281521.0402532,74
1659962158.66613,1281521.0402582,88
1659962158.66613,1281521.0402625,92
1659962158.66613,1281521.0402661,85
1659962158.66613,1281521.0402697,95
1659962158.66613,1281521.0402733,109
1659962158.66613,1281521.040277,113
1659962158.66613,1281521.0402806,118
1659962158.66613,1281521.0402841,132
1659962158.66613,1281521.0402877,143
1659962158.66613,1281521.0402913,155
1659962158.66613,1281521.0402948,173
1659962158.66613,1281521.0402983,190
1659962158.66613,1281521.0403019,197
1659962158.66613,1281521.5762992,204
1659962158.6771,1281521.5763183,213
1659962158.6771,1281521.5763236,213
1659962158.6771,1281521.5763284,218
1659962158.6771,1281521.5763329,227
1659962158.6771,1281521.5763373,224
1659962158.6771,1281521.5763419,201
1659962158.6771,1281521.5763466,155
1659962158.6771,1281521.5763511,109
1659962158.6771,1281521.5763554,78
1659962158.6771,1281521.5763601,53
1659962158.6771,1281521.5763646,32
1659962158.6771,1281521.5763693,18
1659962158.6771,1281521.5763728,-4
1659962158.6771,1281521.5763763,-27
1659962158.6771,1281521.5763799,-20
1659962158.6771,1281521.5763837,-9
1659962158.6771,1281521.5763899,-6
1659962158.6771,1281521.5763961,2
1659962158.6771,1281521.5763998,11
1659962158.6771,1281521.5764031,6
1659962158.6771,1281521.5764061,6
1659962158.6771,1281521.5764093,20
1659962158.6771,1281521.5764124,34
1659962158.6771,1281521.5764154,41
1659962159.20963,1281521.5764184,37
1659962159.20963,1281521.5764215,27
1659962159.20963,1281521.5764246,18
1659962159.20963,1281521.5764275,11
1659962159.20963,1281521.5764306,20
1659962159.20963,1281521.5764341,46
1659962159.20963,1281521.576438,48
1659962159.20963,1281521.5764417,25
1659962159.20963,1281521.5764457,32
1659962159.20963,1281521.5764492,51
1659962159.20963,1281521.5764527,30
1659962159.20963,1281521.5764575,13
1659962159.20963,1281521.5764611,32
1659962159.20963,1281521.5764646,41
1659962159.20963,1281521.5764685,32
1659962159.20963,1281521.5764716,25
1659962159.20963,1281521.5764753,34
1659962159.20963,1281521.576479,30
1659962159.20963,1281521.5764828,13
1659962159.20963,1281521.5764861,178
1659962159.20963,1281521.5764905,526
1659962159.20963,1281521.576494,500
1659962159.20963,1281521.5764978,-27
1659962159.20963,1281521.5765014,-278
1659962159.20963,1281521.5765054,2
1659962159.20963,1281521.5765093,155
1659962159.20963,1281521.576528,41
1659962159.20963,1281521.5765459,27
1659962159.20963,1281521.5765513,78
1659962159.20963,1281521.5765552,67
1659962159.20963,1281521.5765601,62
1659962159.20963,1281521.5765636,85
1659962159.20963,1281521.5765671,85
1659962159.20963,1281521.5765705,76
1659962159.20963,1281521.5765737,83
1659962159.20963,1281521.576577,99
1659962159.20963,1281521.5765804,111
1659962159.20963,1281521.5765837,132
1659962159.20963,1281521.5765871,150
1659962159.20963,1281521.5765903,146
1659962159.20963,1281521.5765937,148
1659962159.20963,1281521.576597,171
1659962159.20963,1281521.576601,194
1659962159.20963,1281521.5766045,206
1659962159.20963,1281521.5766108,215
1659962159.20963,1281521.5766145,222
1659962159.20963,1281521.5766199,227
1659962159.20963,1281521.5766243,227
1659962159.20963,1281522.1133244,229
1659962159.20963,1281522.1133459,224
1659962159.22159,1281522.1133613,199
1659962159.22159,1281522.1133767,162
1659962159.22159,1281522.1133913,125
1659962159.22159,1281522.1134054,92
1659962159.22159,1281522.1134195,62
1659962159.22159,1281522.1134338,46
1659962159.22159,1281522.1134433,44
1659962159.22159,1281522.1134486,39
1659962159.22159,1281522.1134509,32
1659962159.22159,1281522.113453,34
1659962159.22159,1281522.1134551,41
1659962159.22159,1281522.1134572,44
1659962159.22159,1281522.1134593,44
1659962159.22159,1281522.1134614,44
1659962159.22159,1281522.1134635,32
1659962159.22159,1281522.1134656,6
1659962159.22159,1281522.1134679,0
1659962159.22159,1281522.1134715,13
1659962159.22159,1281522.1134832,18
1659962159.22159,1281522.1134884,25
1659962159.22159,1281522.1134949,16
1659962159.22159,1281522.1134992,-16
1659962159.22159,1281522.1135031,-20
1659962159.22159,1281522.1135088,13
1659962159.74294,1281522.1135126,20
1659962159.74294,1281522.1135161,-4
1659962159.74294,1281522.1135199,11
1659962159.74294,1281522.1135237,37
1659962159.74294,1281522.1135273,6
1659962159.74294,1281522.1135309,-11
1659962159.74294,1281522.1135346,2
1659962159.74294,1281522.1135381,6
1659962159.74294,1281522.1135419,4
1659962159.74294,1281522.1135455,11
1659962159.74294,1281522.1135491,13
1659962159.74294,1281522.1135526,2
1659962159.74294,1281522.1135564,2
1659962159.74294,1281522.113562,185
1659962159.74294,1281522.113567,528
1659962159.74294,1281522.1135712,503
1659962159.74294,1281522.1135765,-16
1659962159.74294,1281522.1135812,-271
1659962159.74294,1281522.1135865,-16
1659962159.74294,1281522.113591,118
1659962159.74294,1281522.1135964,18
1659962159.74294,1281522.1136012,25
1659962159.74294,1281522.1136069,76
1659962159.74294,1281522.113611,53
1659962159.74294,1281522.113616,51
1659962159.74294,1281522.1136216,74
1659962159.74294,1281522.1136262,71
1659962159.74294,1281522.1136317,69
1659962159.74294,1281522.1136354,83
1659962159.74294,1281522.1136407,92
1659962159.74294,1281522.1136448,99
1659962159.74294,1281522.1136491,113
1659962159.74294,1281522.1136549,125
1659962159.74294,1281522.1136604,134
1659962159.74294,1281522.1136658,150
1659962159.74294,1281522.1136697,166
1659962159.74294,1281522.1136747,178
1659962159.74294,1281522.1136793,185
1659962159.74294,1281522.1136848,194
1659962159.74294,1281522.1136906,208
1659962159.74294,1281522.113696,215
1659962159.74294,1281522.113701,213
1659962159.74294,1281522.1137055,213
1659962159.74294,1281522.1137154,208
1659962159.74294,1281522.1137239,185
1659962159.74294,1281522.1137265,155
1659962159.74294,1281522.1137294,127
1659962159.74294,1281522.6486677,99
1659962159.74294,1281522.6486817,71
1659962159.74294,1281522.6486864,41
1659962159.75491,1281522.6486903,23
1659962159.75491,1281522.6486929,25
1659962159.75491,1281522.6486955,32
1659962159.75491,1281522.6486979,32
1659962159.75491,1281522.6487009,34
1659962159.75491,1281522.6487032,37
1659962159.75491,1281522.6487056,39
1659962159.75491,1281522.6487079,41
1659962159.75491,1281522.6487103,39
1659962159.75491,1281522.6487126,34
1659962159.75491,1281522.648715,20
1659962159.75491,1281522.6487173,6
1659962159.75491,1281522.6487197,13
1659962159.75491,1281522.6487221,30
1659962159.75491,1281522.6487245,32
1659962159.75491,1281522.6487269,32
1659962159.75491,1281522.6487292,34
1659962159.75491,1281522.6487315,20
1659962159.75491,1281522.6487339,4
1659962159.75491,1281522.6487365,9
1659962159.75491,1281522.6487388,32
1659962159.75491,1281522.6487412,25
1659962159.75491,1281522.6487435,0
1659962159.75491,1281522.6487458,-2
1659962160.27628,1281522.6487481,6
1659962160.27628,1281522.6487504,6

1659962160.27628,1281522.6487526,0
1659962160.27628,1281522.6487548,6
1659962160.27628,1281522.6487569,13
1659962160.27628,1281522.648759,-13
1659962160.27628,1281522.6487612,48
1659962160.27628,1281522.6487633,368
1659962160.27628,1281522.6487655,589
1659962160.27628,1281522.6487676,227
1659962160.27628,1281522.6487697,-245
1659962160.27628,1281522.6487717,-164
1659962160.27628,1281522.6487738,92
1659962160.27628,1281522.6487759,60
1659962160.27628,1281522.648778,2
1659962160.27628,1281522.6487801,55
1659962160.27628,1281522.6487821,57
1659962160.27628,1281522.6487842,30
1659962160.27628,1281522.6487887,46
1659962160.27628,1281522.6487909,60
1659962160.27628,1281522.6487931,62
1659962160.27628,1281522.6487954,74
1659962160.27628,1281522.6487977,83
1659962160.27628,1281522.6487998,85
1659962160.27628,1281522.648802,92
1659962160.27628,1281522.6488042,104
1659962160.27628,1281522.6488064,118
1659962160.27628,1281522.6488086,134
1659962160.27628,1281522.6488108,153
1659962160.27628,1281522.6488129,164
1659962160.27628,1281522.6488151,169
1659962160.27628,1281522.6488174,178
1659962160.27628,1281522.6488196,194
1659962160.27628,1281522.648822,201
1659962160.27628,1281522.6488243,197
1659962160.27628,1281522.6488264,199
1659962160.27628,1281522.6488286,204
1659962160.27628,1281522.6488308,192
1659962160.27628,1281522.6488331,162
1659962160.27628,1281522.6488353,132
1659962160.27628,1281522.6488376,95
1659962160.27628,1281522.6488398,57
1659962160.27628,1281522.648842,34
1659962160.27628,1281522.6488506,25
1659962160.27628,1281522.6488528,20
1659962160.27628,1281522.6488556,20
1659962160.27628,1281523.1850181,25
1659962160.27628,1281523.1850383,27
1659962160.27628,1281523.1850439,30
1659962160.27628,1281523.1850481,18
1659962160.28626,1281523.1850525,6
1659962160.28626,1281523.1850571,20
1659962160.28626,1281523.1850608,39
1659962160.28626,1281523.1850651,46
1659962160.28626,1281523.1850692,48
1659962160.28626,1281523.185073,44
1659962160.28626,1281523.1850774,27
1659962160.28626,1281523.1850813,13
1659962160.28626,1281523.1850859,20
1659962160.28626,1281523.1850902,34
1659962160.28626,1281523.1850945,46
1659962160.28626,1281523.1850989,41
1659962160.28626,1281523.1851023,20
1659962160.28626,1281523.1851058,18
1659962160.28626,1281523.1851093,20
1659962160.28626,1281523.1851129,-9
1659962160.28626,1281523.1851164,-13
1659962160.28626,1281523.1851201,9
1659962160.28626,1281523.1851238,9
1659962160.28626,1281523.1851274,-6
1659962160.28626,1281523.1851325,-4
1659962160.28626,1281523.185139,0
1659962160.28626,1281523.1851448,-18
1659962160.28626,1281523.18515,11
1659962160.91565,1281523.1851534,269
1659962160.91565,1281523.1851567,552
1659962160.91565,1281523.1851599,315
1659962160.91565,1281523.1851629,-206
1659962160.91565,1281523.1851661,-236
1659962160.91565,1281523.1851694,69
1659962160.91565,1281523.185173,102
1659962160.91565,1281523.1851787,4
1659962160.91565,1281523.1851844,44
1659962160.91565,1281523.1851884,69
1659962160.91565,1281523.1851936,41
1659962160.91565,1281523.1851996,55
1659962160.91565,1281523.185205,81
1659962160.91565,1281523.1852153,74
1659962160.91565,1281523.1852249,69
1659962160.91565,1281523.1852384,78
1659962160.91565,1281523.1852514,92
1659962160.91565,1281523.1852644,102
1659962160.91565,1281523.1852775,115
1659962160.91565,1281523.1852904,125
1659962160.91565,1281523.1853036,132
1659962160.91565,1281523.1853156,146
1659962160.91565,1281523.1853257,162
1659962160.91565,1281523.1853328,180
1659962160.91565,1281523.1853433,192
1659962160.91565,1281523.185354,206
1659962160.91565,1281523.1853624,208
1659962160.91565,1281523.1853713,199
1659962160.91565,1281523.1853844,197
1659962160.91565,1281523.1853975,197
1659962160.91565,1281523.1854099,180
1659962160.91565,1281523.1854186,162
1659962160.91565,1281523.1854234,139
1659962160.91565,1281523.1854339,102
1659962160.91565,1281523.185445,69
1659962160.91565,1281523.185455,53
1659962160.91565,1281523.1854679,46
1659962160.91565,1281523.1854799,41
1659962160.91565,1281523.1854943,34
1659962160.91565,1281523.185507,27
1659962160.91565,1281523.1855202,27
1659962160.91565,1281523.1855328,23
1659962160.91565,1281523.1855396,23
1659962160.91565,1281523.1855439,27
1659962160.91565,1281523.1855505,32
1659962160.91565,1281523.8186711,37
1659962160.91565,1281523.8186864,39
1659962160.91565,1281523.8186926,48
1659962160.91565,1281523.8186981,62
1659962160.91565,1281523.8187019,69
1659962160.92762,1281523.8187068,67
1659962160.92762,1281523.8187103,55
1659962160.92762,1281523.818714,44
1659962160.92762,1281523.8187176,51
1659962160.92762,1281523.8187226,57
1659962160.92762,1281523.8187279,37
1659962160.92762,1281523.8187317,41
1659962160.92762,1281523.8187366,53
1659962160.92762,1281523.8187401,9
1659962160.92762,1281523.8187438,-23
1659962160.92762,1281523.8187475,0
1659962160.92762,1281523.8187527,6
1659962160.92762,1281523.8187564,-16
1659962160.92762,1281523.81876,-13
1659962160.92762,1281523.8187652,-2
1659962160.92762,1281523.8187687,-18
1659962160.92762,1281523.8187722,-9
1659962160.92762,1281523.8187771,215
1659962160.92762,1281523.8187806,547
1659962160.92762,1281523.8187841,415
1659962160.92762,1281523.8187876,-132
1659962160.92762,1281523.8187912,-285
1659962160.92762,1281523.8187946,16
1659962160.92762,1281523.8187996,113
1659962161.49724,1281523.8188029,11
1659962161.49724,1281523.8188063,32
1659962161.49724,1281523.8188098,74
1659962161.49724,1281523.8188131,51
1659962161.49724,1281523.8188166,51
1659962161.49724,1281523.8188199,78
1659962161.49724,1281523.8188232,74
1659962161.49724,1281523.8188266,64
1659962161.49724,1281523.81883,81
1659962161.49724,1281523.8188335,92
1659962161.49724,1281523.8188368,95
1659962161.49724,1281523.8188402,106
1659962161.49724,1281523.8188435,120
1659962161.49724,1281523.8188469,127
1659962161.49724,1281523.8188504,141
1659962161.49724,1281523.8188538,160
1659962161.49724,1281523.8188573,169
1659962161.49724,1281523.8188609,180
1659962161.49724,1281523.8188644,190
1659962161.49724,1281523.8188679,183
1659962161.49724,1281523.8188714,173
1659962161.49724,1281523.8188748,187
1659962161.49724,1281523.8188782,199
1659962161.49724,1281523.8188816,190
1659962161.49724,1281523.8188865,173
1659962161.49724,1281523.8188912,146
1659962161.49724,1281523.8188948,113
1659962161.49724,1281523.8188982,88
1659962161.49724,1281523.8189016,67
1659962161.49724,1281523.8189051,53
1659962161.49724,1281523.8189085,44
1659962161.49724,1281523.8189125,32
1659962161.49724,1281523.818916,25
1659962161.49724,1281523.8189195,23
1659962161.49724,1281523.8189229,27
1659962161.49724,1281523.8189264,27
1659962161.49724,1281523.8189298,20
1659962161.49724,1281523.8189333,25
1659962161.49724,1281523.8189367,34
1659962161.49724,1281523.8189402,46
1659962161.49724,1281523.8189437,60
1659962161.49724,1281523.8189471,67
1659962161.49724,1281523.8189505,69
1659962161.49724,1281523.8189539,71
1659962161.49724,1281524.4036678,71
1659962161.49724,1281524.4036824,78
1659962161.49724,1281524.403687,97
1659962161.49724,1281524.4036925,97
1659962161.49724,1281524.4036961,74
1659962161.49724,1281524.4036996,76
1659962161.50821,1281524.4037031,92
1659962161.50821,1281524.4037083,64
1659962161.50821,1281524.4037118,34
1659962161.50821,1281524.4037154,39
1659962161.50821,1281524.4037209,25
1659962161.50821,1281524.4037245,-2
1659962161.50821,1281524.403728,4
1659962161.50821,1281524.4037315,25
1659962161.50821,1281524.4037351,13
1659962161.50821,1281524.4037385,0
1659962161.50821,1281524.4037419,153
1659962161.50821,1281524.4037453,480
1659962161.50821,1281524.4037488,468
1659962161.50821,1281524.4037523,-57
1659962161.50821,1281524.4037573,-327
1659962161.50821,1281524.4037607,-46
1659962161.50821,1281524.4037642,113
1659962161.50821,1281524.4037677,0
1659962161.50821,1281524.4037711,0
1659962161.50821,1281524.4037744,62
1659962161.50821,1281524.4037778,44
1659962161.50821,1281524.4037813,37
1659962161.50821,1281524.4037864,62
1659962161.50821,1281524.4037897,53
1659962161.93083,1281524.4037931,44
1659962161.93083,1281524.4037965,64
1659962161.93083,1281524.4037999,83
1659962161.93083,1281524.4038033,88
1659962161.93083,1281524.4038068,95
1659962161.93083,1281524.4038101,109
1659962161.93083,1281524.4038134,118
1659962161.93083,1281524.4038167,129
1659962161.93083,1281524.40382,146
1659962161.93083,1281524.4038234,155
1659962161.93083,1281524.4038267,155
1659962161.93083,1281524.4038301,160
1659962161.93083,1281524.4038334,171
1659962161.93083,1281524.4038368,180
1659962161.93083,1281524.4038415,183
1659962161.93083,1281524.4038466,187
1659962161.93083,1281524.4038499,190
1659962161.93083,1281524.4038534,169
1659962161.93083,1281524.4038582,134
1659962161.93083,1281524.4038617,104
1659962161.93083,1281524.4038665,78
1659962161.93083,1281524.4038698,57
1659962161.93083,1281524.4038745,48
1659962161.93083,1281524.4038779,34
1659962161.93083,1281524.4038826,13
1659962161.93083,1281524.4038866,4
1659962161.93083,1281524.4038914,16
1659962161.93083,1281524.4038957,30
1659962161.93083,1281524.4039004,32
1659962161.93083,1281524.4039045,25
1659962161.93083,1281524.4039093,30
1659962161.93083,1281524.4039127,44
1659962161.93083,1281524.4039175,55
1659962161.93083,1281524.403921,62
1659962161.93083,1281524.4039256,67
1659962161.93083,1281524.4039292,69
1659962161.93083,1281524.4039339,69
1659962161.93083,1281524.4039373,69
1659962161.93083,1281524.4039421,78
1659962161.93083,1281524.4039456,90
1659962161.93083,1281524.4039504,83
1659962161.93083,1281524.4039538,76
1659962161.93083,1281524.4039587,90
1659962161.93083,1281524.8434,88
1659962161.93083,1281524.8434189,55
1659962161.93083,1281524.8434264,44
1659962161.93083,1281524.8434348,57
1659962161.93083,1281524.8434423,55
1659962161.93083,1281524.843451,46
1659962161.93083,1281524.8434567,41
1659962161.94379,1281524.843462,30
1659962161.94379,1281524.8434692,4
1659962161.94379,1281524.8434738,34
1659962161.94379,1281524.8434804,282
1659962161.94379,1281524.8434868,556
1659962161.94379,1281524.8434948,308
1659962161.94379,1281524.8434998,-229
1659962161.94379,1281524.843503,-262
1659962161.94379,1281524.8435084,46
1659962161.94379,1281524.843513,71
1659962161.94379,1281524.8435179,-20
1659962161.94379,1281524.8435214,30
1659962161.94379,1281524.8435245,51
1659962161.94379,1281524.8435274,20
1659962161.94379,1281524.8435304,37
1659962161.94379,1281524.8435335,51
1659962161.94379,1281524.8435365,41
1659962161.94379,1281524.8435409,51
1659962161.94379,1281524.843545,64
1659962161.94379,1281524.8435512,67
1659962161.94379,1281524.8435582,76
1659962161.94379,1281524.8435708,90
1659962161.94379,1281524.8435829,99
1659962161.94379,1281524.8435917,111
1659962162.62007,1281524.8436022,120
1659962162.62007,1281524.8436077,129
1659962162.62007,1281524.8436101,141
1659962162.62007,1281524.8436125,155
1659962162.62007,1281524.8436199,166
1659962162.62007,1281524.8436312,173
1659962162.62007,1281524.8436417,180
1659962162.62007,1281524.8436479,187
1659962162.62007,1281524.8436531,185
1659962162.62007,1281524.8436587,171
1659962162.62007,1281524.8436636,153
1659962162.62007,1281524.8436712,125
1659962162.62007,1281524.8436771,97
1659962162.62007,1281524.8436899,67
1659962162.62007,1281524.8437038,39
1659962162.62007,1281524.8437177,20
1659962162.62007,1281524.8437257,13
1659962162.62007,1281524.8437283,4
1659962162.62007,1281524.8437305,4
1659962162.62007,1281524.8437326,20
1659962162.62007,1281524.8437347,25
1659962162.62007,1281524.8437368,13
1659962162.62007,1281524.843739,9
1659962162.62007,1281524.8437412,32
1659962162.62007,1281524.8437433,51
1659962162.62007,1281524.8437453,51
1659962162.62007,1281524.8437474,57
1659962162.62007,1281524.8437494,67
1659962162.62007,1281524.8437515,67
1659962162.62007,1281524.8437536,71
1659962162.62007,1281524.8437562,81
1659962162.62007,1281524.8437585,95
1659962162.62007,1281524.8437607,88
1659962162.62007,1281524.8437627,74
1659962162.62007,1281524.8437649,90
1659962162.62007,1281524.8437671,99
1659962162.62007,1281524.8437691,69
1659962162.62007,1281524.8437712,53
1659962162.62007,1281524.8437733,64
1659962162.62007,1281524.8437754,60
1659962162.62007,1281524.8437775,41
1659962162.62007,1281524.8437799,46
1659962162.62007,1281525.5255525,67
1659962162.62007,1281525.5255717,57
1659962162.62007,1281525.5255791,41
1659962162.62007,1281525.5255859,201
1659962162.62007,1281525.525598,524
1659962162.62007,1281525.5256041,491
1659962162.62007,1281525.5256128,-25
1659962162.62007,1281525.5256184,-271
1659962162.63004,1281525.5256219,-6
1659962162.63004,1281525.5256256,120
1659962162.63004,1281525.5256308,-6
1659962162.63004,1281525.5256343,-11
1659962162.63004,1281525.5256379,55
1659962162.63004,1281525.5256435,34
1659962162.63004,1281525.5256516,20
1659962162.63004,1281525.5256682,46
1659962162.63004,1281525.5256775,46
1659962162.63004,1281525.5256802,39
1659962162.63004,1281525.5256835,62
1659962162.63004,1281525.5256922,81
1659962162.63004,1281525.5257046,81
1659962162.63004,1281525.5257121,83
1659962162.63004,1281525.5257151,90
1659962162.63004,1281525.5257234,104
1659962162.63004,1281525.525736,127
1659962162.63004,1281525.5257421,146
1659962162.63004,1281525.5257444,160
1659962162.63004,1281525.5257509,166
1659962162.63004,1281525.5257641,173
1659962162.63004,1281525.5257718,183
1659962162.63004,1281525.5257742,190
1659962162.63004,1281525.5257763,199
1659962163.10407,1281525.5257785,204
1659962163.10407,1281525.5257807,199
1659962163.10407,1281525.5257842,178
1659962163.10407,1281525.5257957,146
1659962163.10407,1281525.5258053,113
1659962163.10407,1281525.5258108,92
1659962163.10407,1281525.525815,78
1659962163.10407,1281525.5258193,69
1659962163.10407,1281525.5258252,60
1659962163.10407,1281525.5258326,44
1659962163.10407,1281525.5258444,30
1659962163.10407,1281525.525857,32
1659962163.10407,1281525.5258689,41
1659962163.10407,1281525.5258826,53
1659962163.10407,1281525.5258932,60
1659962163.10407,1281525.5258979,55
1659962163.10407,1281525.5259,60
1659962163.10407,1281525.5259022,74
1659962163.10407,1281525.5259045,76
1659962163.10407,1281525.5259065,76
1659962163.10407,1281525.5259086,85
1659962163.10407,1281525.5259107,85
1659962163.10407,1281525.5259128,85
1659962163.10407,1281525.5259148,106
1659962163.10407,1281525.525917,115
1659962163.10407,1281525.5259191,102
1659962163.10407,1281525.5259212,106
1659962163.10407,1281525.5259233,106
1659962163.10407,1281525.5259255,78
1659962163.10407,1281525.5259275,67
1659962163.10407,1281525.5259296,81
1659962163.10407,1281525.5259317,76
1659962163.10407,1281525.5259338,64
1659962163.10407,1281525.525936,76
1659962163.10407,1281525.525938,95
1659962163.10407,1281525.5259401,88
1659962163.10407,1281525.5259422,99
1659962163.10407,1281525.5259443,303
1659962163.10407,1281525.5259463,600
1659962163.10407,1281525.5259484,440
1659962163.10407,1281525.5259505,-113
1659962163.10407,1281526.0137899,-224
1659962163.10407,1281526.0138113,104
1659962163.10407,1281526.0138196,164
1659962163.10407,1281526.0138254,48
1659962163.10407,1281526.0138318,102
1659962163.10407,1281526.0138385,143
1659962163.10407,1281526.0138451,97
1659962163.10407,1281526.013852,95
1659962163.10407,1281526.0138587,115
1659962163.11504,1281526.0138646,111
1659962163.11504,1281526.0138678,118
1659962163.11504,1281526.0138732,134
1659962163.11504,1281526.0138805,136
1659962163.11504,1281526.0138878,141
1659962163.11504,1281526.0138969,146
1659962163.11504,1281526.0139014,160
1659962163.11504,1281526.0139086,180
1659962163.11504,1281526.0139181,197
1659962163.11504,1281526.0139258,218
1659962163.11504,1281526.0139321,222
1659962163.11504,1281526.0139428,190
1659962163.11504,1281526.0139483,180
1659962163.11504,1281526.013951,211
1659962163.11504,1281526.0139532,215
1659962163.11504,1281526.0139554,206
1659962163.11504,1281526.0139575,199
1659962163.11504,1281526.0139634,169
1659962163.11504,1281526.0139748,129
1659962163.11504,1281526.01398,113
1659962163.11504,1281526.0139822,97
1659962163.11504,1281526.0139844,69
1659962163.11504,1281526.0139866,48
1659962163.11504,1281526.0140157,30
1659962163.69354,1281526.0140301,13
1659962163.69354,1281526.0140369,2
1659962163.69354,1281526.0140394,2
1659962163.69354,1281526.0140418,11
1659962163.69354,1281526.0140484,20
1659962163.69354,1281526.0140549,25
1659962163.69354,1281526.0140591,25
1659962163.69354,1281526.0140623,27
1659962163.69354,1281526.0140675,39
1659962163.69354,1281526.014072,51
1659962163.69354,1281526.0140766,60
1659962163.69354,1281526.0140855,64
1659962163.69354,1281526.0140927,64
1659962163.69354,1281526.0141039,62
1659962163.69354,1281526.0141109,81
1659962163.69354,1281526.0141145,104
1659962163.69354,1281526.0141236,102
1659962163.69354,1281526.0141358,85
1659962163.69354,1281526.0141415,95
1659962163.69354,1281526.0141437,99
1659962163.69354,1281526.0141465,76
1659962163.69354,1281526.0141486,69
1659962163.69354,1281526.0141506,81
1659962163.69354,1281526.0141527,78
1659962163.69354,1281526.0141548,64
1659962163.69354,1281526.014157,62
1659962163.69354,1281526.014159,83
1659962163.69354,1281526.0141612,85
1659962163.69354,1281526.0141632,85
1659962163.69354,1281526.0141653,269
1659962163.69354,1281526.0141673,591
1659962163.69354,1281526.0141694,510
1659962163.69354,1281526.0141715,-20
1659962163.69354,1281526.0141736,-220
1659962163.69354,1281526.0141756,53
1659962163.69354,1281526.0141778,150
1659962163.69354,1281526.0141798,32
1659962163.69354,1281526.0141821,34
1659962163.69354,1281526.0141841,76
1659962163.69354,1281526.0141861,57
1659962163.69354,1281526.5980138,64
1659962163.69354,1281526.5980344,90
1659962163.69354,1281526.5980394,92
1659962163.69354,1281526.5980428,104
1659962163.69354,1281526.5980481,139
1659962163.69354,1281526.5980515,148
1659962163.69354,1281526.5980549,113
1659962163.69354,1281526.5980585,81
1659962163.69354,1281526.598062,78
1659962163.69354,1281526.5980663,97
1659962163.70351,1281526.5980729,111
1659962163.70351,1281526.5980771,127
1659962163.70351,1281526.598081,164
1659962163.70351,1281526.5980859,199
1659962163.70351,1281526.5980894,190
1659962163.70351,1281526.5980929,153
1659962163.70351,1281526.5980964,143
1659962163.70351,1281526.5981007,136
1659962163.70351,1281526.5981063,125
1659962163.70351,1281526.5981123,113
1659962163.70351,1281526.598117,99
1659962163.70351,1281526.5981212,76
1659962163.70351,1281526.5981246,30
1659962163.70351,1281526.5981286,-11
1659962163.70351,1281526.5981346,-6
1659962163.70351,1281526.5981394,0
1659962163.70351,1281526.598143,-39
1659962163.70351,1281526.5981466,-60
1659962163.70351,1281526.5981502,-37
1659962163.70351,1281526.5981583,-27
1659962163.70351,1281526.5981664,-34
1659962163.70351,1281526.598171,-20
1659962163.70351,1281526.5981751,0
1659962163.70351,1281526.5981789,2
1659962164.28104,1281526.5981822,4
1659962164.28104,1281526.5981858,25
1659962164.28104,1281526.5981896,32
1659962164.28104,1281526.5981934,18
1659962164.28104,1281526.5981974,25
1659962164.28104,1281526.5982012,41
1659962164.28104,1281526.5982057,48
1659962164.28104,1281526.5982098,55
1659962164.28104,1281526.5982132,62
1659962164.28104,1281526.5982166,57
1659962164.28104,1281526.5982202,74
1659962164.28104,1281526.5982236,88
1659962164.28104,1281526.5982288,60
1659962164.28104,1281526.5982327,39
1659962164.28104,1281526.5982371,44
1659962164.28104,1281526.5982441,41
1659962164.28104,1281526.5982541,37
1659962164.28104,1281526.5982581,44
1659962164.28104,1281526.5982614,60
1659962164.28104,1281526.5982647,76
1659962164.28104,1281526.5982681,60
1659962164.28104,1281526.5982713,125
1659962164.28104,1281526.5982747,436
1659962164.28104,1281526.5982784,591
1659962164.28104,1281526.598283,139
1659962164.28104,1281526.5982872,-292
1659962164.28104,1281526.5982935,-104
1659962164.28104,1281526.5982971,150
1659962164.28104,1281526.5983002,109
1659962164.28104,1281526.5983031,78
1659962164.28104,1281526.598306,115
1659962164.28104,1281526.5983094,122
1659962164.28104,1281526.5983129,139
1659962164.28104,1281526.598316,127
1659962164.28104,1281526.5983192,85
1659962164.28104,1281526.5983222,99
1659962164.28104,1281526.5983252,150
1659962164.28104,1281526.5983365,166
1659962164.28104,1281526.5983398,153
1659962164.28104,1281527.1844096,166
1659962164.28104,1281527.1844273,206
1659962164.28104,1281527.184432,190
1659962164.28104,1281527.1844378,153
1659962164.28104,1281527.1844413,173
1659962164.28104,1281527.1844448,204
1659962164.28104,1281527.1844481,197
1659962164.28104,1281527.1844515,194
1659962164.28104,1281527.1844572,220
1659962164.28104,1281527.1844609,204
1659962164.28104,1281527.1844654,164
1659962164.29308,1281527.1844695,199
1659962164.29308,1281527.1844731,241
1659962164.29308,1281527.1844765,164
1659962164.29308,1281527.1844799,53
1659962164.29308,1281527.1844833,23
1659962164.29308,1281527.184488,27
1659962164.29308,1281527.1844927,18
1659962164.29308,1281527.184496,13
1659962164.29308,1281527.1845036,-4
1659962164.29308,1281527.184507,-25
1659962164.29308,1281527.1845116,-9
1659962164.29308,1281527.1845159,-20
1659962164.29308,1281527.1845225,-48
1659962164.29308,1281527.1845262,-27
1659962164.29308,1281527.1845305,-34
1659962164.29308,1281527.1845344,-60
1659962164.29308,1281527.1845378,-13
1659962164.29308,1281527.1845413,44
1659962164.29308,1281527.1845448,27
1659962164.29308,1281527.1845481,-13
1659962164.29308,1281527.1845515,13
1659962164.29308,1281527.1845556,55
1659962164.29308,1281527.1845594,60
1659962164.29308,1281527.1845624,44
1659962164.85958,1281527.1845658,34
1659962164.85958,1281527.1845725,57
1659962164.85958,1281527.1845794,67
1659962164.85958,1281527.1845863,74
1659962164.85958,1281527.1845933,102
1659962164.85958,1281527.1845975,74
1659962164.85958,1281527.1846031,34
1659962164.85958,1281527.1846085,74
1659962164.85958,1281527.1846124,92
1659962164.85958,1281527.1846157,44
1659962164.85958,1281527.1846193,51
1659962164.85958,1281527.1846228,99
1659962164.85958,1281527.1846272,74
1659962164.85958,1281527.1846326,4
1659962164.85958,1281527.1846401,78
1659962164.85958,1281527.1846442,433
1659962164.85958,1281527.1846506,665
1659962164.85958,1281527.1846543,276
1659962164.85958,1281527.1846574,-227
1659962164.85958,1281527.1846637,-134
1659962164.85958,1281527.1846769,132
1659962164.85958,1281527.1846901,85
1659962164.85958,1281527.1847032,27
1659962164.85958,1281527.1847166,90
1659962164.85958,1281527.1847239,88
1659962164.85958,1281527.1847284,51
1659962164.85958,1281527.1847325,55
1659962164.85958,1281527.1847379,85
1659962164.85958,1281527.1847427,125
1659962164.85958,1281527.1847489,134
1659962164.85958,1281527.184758,111
1659962164.85958,1281527.1847679,104
1659962164.85958,1281527.1847753,129
1659962164.85958,1281527.1847804,160
1659962164.85958,1281527.1847847,157
1659962164.85958,1281527.1847881,129
1659962164.85958,1281527.1847948,141
1659962164.85958,1281527.1848009,164
1659962164.85958,1281527.769886,164
1659962164.85958,1281527.7699085,199
1659962164.85958,1281527.7699238,227
1659962164.85958,1281527.7699372,250
1659962164.85958,1281527.7699487,292
1659962164.85958,1281527.7699611,218
1659962164.85958,1281527.7699668,102
1659962164.85958,1281527.7701234,129
1659962164.85958,1281527.7701356,166
1659962164.85958,1281527.7701414,106
1659962164.85958,1281527.7701509,60
1659962164.85958,1281527.7701596,51
1659962164.86955,1281527.7702514,51
1659962164.86955,1281527.7702578,64
1659962164.86955,1281527.7702628,18
1659962164.86955,1281527.7702682,-69
1659962164.86955,1281527.7702756,-67
1659962164.86955,1281527.7702859,-16
1659962164.86955,1281527.7702899,-16
1659962164.86955,1281527.7702962,-37
1659962164.86955,1281527.7703025,-32
1659962164.86955,1281527.7703073,4
1659962164.86955,1281527.7703128,27
1659962164.86955,1281527.77032,-13
1659962164.86955,1281527.7703305,-23
1659962164.86955,1281527.7703372,41
1659962164.86955,1281527.7703483,39
1659962164.86955,1281527.770357,-2
1659962164.86955,1281527.7703638,2
1659962164.86955,1281527.7703707,18
1659962164.86955,1281527.7703754,13
1659962164.86955,1281527.7703838,-2
1659962164.86955,1281527.7703903,-4
1659962164.86955,1281527.7703976,-2
1659962164.86955,1281527.7704033,16
1659962164.86955,1281527.7704136,64
1659962165.30235,1281527.7704205,64
1659962165.30235,1281527.770423,-9
1659962165.30235,1281527.7704305,-23
1659962165.30235,1281527.7704391,27
1659962165.30235,1281527.7704448,9
1659962165.30235,1281527.770452,-39
1659962165.30235,1281527.7704598,-4
1659962165.30235,1281527.7704653,55
1659962165.30235,1281527.7704711,23
1659962165.30235,1281527.7704768,9
1659962165.30235,1281527.7704864,310
1659962165.30235,1281527.7704945,647
1659962165.30235,1281527.7705011,357
1659962165.30235,1281527.7705116,-227
1659962165.30235,1281527.7705148,-250
1659962165.30235,1281527.7705176,88
1659962165.30235,1281527.7705266,139
1659962165.30235,1281527.7705412,6
1659962165.30235,1281527.7705519,-4
1659962165.30235,1281527.7705591,41
1659962165.30235,1281527.7705652,57
1659962165.30235,1281527.7705732,69
1659962165.30235,1281527.7705816,71
1659962165.30235,1281527.7705929,64
1659962165.30235,1281527.7706072,109
1659962165.30235,1281527.7706202,155
1659962165.30235,1281527.7706333,88
1659962165.30235,1281527.7706464,20
1659962165.30235,1281527.7706596,92
1659962165.30235,1281527.7706731,176
1659962165.30235,1281527.7706861,176
1659962165.30235,1281527.7706991,141
1659962165.30235,1281527.7707123,157
1659962165.30235,1281527.7707252,204
1659962165.30235,1281527.7707384,183
1659962165.30235,1281527.7707508,157
1659962165.30235,1281527.7707633,185
1659962165.30235,1281528.2065384,218
1659962165.30235,1281528.2065582,229
1659962165.30235,1281528.2065634,208
1659962165.30235,1281528.2065693,173
1659962165.30235,1281528.2065732,155
1659962165.30235,1281528.2065769,90
1659962165.30235,1281528.2065805,2
1659962165.30235,1281528.2065845,-2
1659962165.30235,1281528.2065883,23
1659962165.30235,1281528.2065924,-6
1659962165.30235,1281528.2065986,-27
1659962165.30235,1281528.2066027,-11
1659962165.30235,1281528.2066071,-34
1659962165.31432,1281528.2066131,-51
1659962165.31432,1281528.2066172,-16
1659962165.31432,1281528.2066244,-25
1659962165.31432,1281528.2066314,-74
1659962165.31432,1281528.2066402,-55
1659962165.31432,1281528.2066455,-18
1659962165.31432,1281528.2066543,-23
1659962165.31432,1281528.2066629,-6
1659962165.31432,1281528.206667,23
1659962165.31432,1281528.2066746,11
1659962165.31432,1281528.2066788,25
1659962165.31432,1281528.2066843,51
1659962165.31432,1281528.2066879,-18
1659962165.31432,1281528.2066937,-88
1659962165.31432,1281528.2066973,-46
1659962165.31432,1281528.2067022,-4
1659962165.31432,1281528.2067069,-6
1659962165.31432,1281528.2067102,4
1659962165.31432,1281528.2067149,-9
1659962165.31432,1281528.2067223,-20
1659962165.31432,1281528.2067276,16
1659962165.31432,1281528.2067341,-6
1659962165.31432,1281528.2067412,-71
1659962165.31432,1281528.2067451,-44
1659962165.93006,1281528.2067501,6
1659962165.93006,1281528.2067753,-39
1659962165.93006,1281528.2067891,-85
1659962165.93006,1281528.2067934,-55
1659962165.93006,1281528.2067963,-39
1659962165.93006,1281528.2067991,-71
1659962165.93006,1281528.2068019,-13
1659962165.93006,1281528.2068048,289
1659962165.93006,1281528.2068361,570
1659962165.93006,1281528.2068468,329
1659962165.93006,1281528.2068549,-180
1659962165.93006,1281528.2068619,-248
1659962165.93006,1281528.2068688,2
1659962165.93006,1281528.2068761,34
1659962165.93006,1281528.2068829,-37
1659962165.93006,1281528.2068882,16
1659962165.93006,1281528.206895,41
1659962165.93006,1281528.2068991,30
1659962165.93006,1281528.206908,85
1659962165.93006,1281528.2069158,102
1659962165.93006,1281528.2069208,18
1659962165.93006,1281528.2069256,-4
1659962165.93006,1281528.2069299,51
1659962165.93006,1281528.2069349,92
1659962165.93006,1281528.2069393,97
1659962165.93006,1281528.2069434,83
1659962165.93006,1281528.2069469,85
1659962165.93006,1281528.2069515,132
1659962165.93006,1281528.2069559,171
1659962165.93006,1281528.2069598,171
1659962165.93006,1281528.2069636,164
1659962165.93006,1281528.2069694,180
1659962165.93006,1281528.2069731,218
1659962165.93006,1281528.2069785,218
1659962165.93006,1281528.2069823,201
1659962165.93006,1281528.206987,187
1659962165.93006,1281528.8405736,150
1659962165.93006,1281528.8405917,132
1659962165.93006,1281528.8405972,136
1659962165.93006,1281528.8406017,67
1659962165.93006,1281528.840606,-11
1659962165.93006,1281528.840612,-2
1659962165.93006,1281528.840616,9
1659962165.93006,1281528.8406209,-30
1659962165.93006,1281528.8406256,-41
1659962165.93006,1281528.840631,-39
1659962165.93006,1281528.8406364,-85
1659962165.93006,1281528.8406402,-118
1659962165.93006,1281528.8406436,-67
1659962165.93006,1281528.8406474,-9
1659962165.94103,1281528.840651,2
1659962165.94103,1281528.8406547,4
1659962165.94103,1281528.8406591,-9
1659962165.94103,1281528.840663,-48
1659962165.94103,1281528.8406668,-32
1659962165.94103,1281528.8406704,71
1659962165.94103,1281528.8406737,109
1659962165.94103,1281528.840677,41
1659962165.94103,1281528.8406805,37
1659962165.94103,1281528.8406839,57
1659962165.94103,1281528.840689,-27
1659962165.94103,1281528.8406923,-81
1659962165.94103,1281528.8406955,18
1659962165.94103,1281528.8406987,104
1659962165.94103,1281528.840702,9
1659962165.94103,1281528.8407053,-92
1659962165.94103,1281528.8407085,-6
1659962165.94103,1281528.8407116,64
1659962165.94103,1281528.8407151,-18
1659962165.94103,1281528.8407183,-41
1659962165.94103,1281528.8407218,41
1659962165.94103,1281528.840725,69
1659962165.94103,1281528.8407282,76
1659962165.94103,1281528.8407314,76
1659962166.47881,1281528.8407347,-2
1659962166.47881,1281528.840738,-11
1659962166.47881,1281528.8407413,67
1659962166.47881,1281528.8407446,69
1659962166.47881,1281528.8407478,16
1659962166.47881,1281528.8407513,27
1659962166.47881,1281528.8407547,139
1659962166.47881,1281528.8407577,394
1659962166.47881,1281528.8407622,640
1659962166.47881,1281528.8407657,487
1659962166.47881,1281528.8407691,20
1659962166.47881,1281528.8407725,-143
1659962166.47881,1281528.8407758,41
1659962166.47881,1281528.8407789,129
1659962166.47881,1281528.8407819,109
1659962166.47881,1281528.8407852,104
1659962166.47881,1281528.8407885,25
1659962166.47881,1281528.8407917,18
1659962166.47881,1281528.8407948,111
1659962166.47881,1281528.840798,106
1659962166.47881,1281528.8408014,97
1659962166.47881,1281528.8408046,171
1659962166.47881,1281528.8408077,183
1659962166.47881,1281528.840812,139
1659962166.47881,1281528.8408163,162
1659962166.47881,1281528.8408195,178
1659962166.47881,1281528.8408229,139
1659962166.47881,1281528.8408262,127
1659962166.47881,1281528.8408298,150
1659962166.47881,1281528.8408332,183
1659962166.47881,1281528.8408365,231
1659962166.47881,1281528.8408405,236
1659962166.47881,1281528.8408451,227
1659962166.47881,1281528.8408493,310
1659962166.47881,1281528.8408537,320
1659962166.47881,1281529.3782802,178
1659962166.47881,1281529.3783067,162
1659962166.47881,1281529.3783247,255
1659962166.47881,1281529.3783271,199
1659962166.47881,1281529.3783292,120
1659962166.47881,1281529.3783312,153
1659962166.47881,1281529.3783335,125
1659962166.47881,1281529.3783357,62
1659962166.47881,1281529.3783389,90
1659962166.47881,1281529.378345,97
1659962166.47881,1281529.3783553,48
1659962166.47881,1281529.3783606,67
1659962166.47881,1281529.3783679,74
1659962166.47881,1281529.3783742,-11
1659962166.47881,1281529.3783824,-23
1659962166.4866,1281529.3783915,39
1659962166.4866,1281529.3783977,41
1659962166.4866,1281529.3783999,53
1659962166.4866,1281529.3784021,69
1659962166.4866,1281529.3784041,39
1659962166.4866,1281529.3784062,6
1659962166.4866,1281529.3784083,16
1659962166.4866,1281529.3784104,67
1659962166.4866,1281529.3784125,76
1659962166.4866,1281529.3784153,23
1659962166.4866,1281529.3784175,0
1659962166.4866,1281529.3784195,9
1659962166.4866,1281529.3784216,-4
1659962166.4866,1281529.3784238,-4
1659962166.4866,1281529.3784258,27
1659962166.4866,1281529.3784279,44
1659962166.4866,1281529.3784308,71
1659962166.4866,1281529.3784328,62
1659962166.4866,1281529.378435,11
1659962166.4866,1281529.3784371,30
1659962166.4866,1281529.3784391,0
1659962166.4866,1281529.3784412,-44
1659962166.4866,1281529.3784434,53
1659962166.4866,1281529.3784455,95
1659962167.00485,1281529.3784475,55
1659962167.00485,1281529.3784496,99
1659962167.00485,1281529.3784516,122
1659962167.00485,1281529.3784536,62
1659962167.00485,1281529.3784555,39
1659962167.00485,1281529.3784708,39
1659962167.00485,1281529.3784743,37
1659962167.00485,1281529.3784975,104
1659962167.00485,1281529.3785026,350
1659962167.00485,1281529.3785081,628
1659962167.00485,1281529.3785135,452
1659962167.00485,1281529.3785182,-32
1659962167.00485,1281529.3785261,-132
1659962167.00485,1281529.37855,88
1659962167.00485,1281529.3785719,111
1659962167.00485,1281529.3785754,39
1659962167.00485,1281529.3785789,99
1659962167.00485,1281529.3785846,120
1659962167.00485,1281529.378588,76
1659962167.00485,1281529.3785948,90
1659962167.00485,1281529.3785981,88
1659962167.00485,1281529.3786019,62
1659962167.00485,1281529.3786068,109
1659962167.00485,1281529.3786121,141
1659962167.00485,1281529.3786173,120
1659962167.00485,1281529.3786208,109
1659962167.00485,1281529.3786243,118
1659962167.00485,1281529.3786279,160
1659962167.00485,1281529.3786314,201
1659962167.00485,1281529.3786351,199
1659962167.00485,1281529.3786386,204
1659962167.00485,1281529.3786421,250
1659962167.00485,1281529.3786455,257
1659962167.00485,1281529.3786489,227
1659962167.00485,1281529.9125872,276
1659962167.00485,1281529.9126184,320
1659962167.00485,1281529.9126322,276
1659962167.00485,1281529.9126457,231
1659962167.00485,1281529.9126563,231
1659962167.00485,1281529.9126609,231
1659962167.00485,1281529.9126631,164
1659962167.00485,1281529.9126653,92
1659962167.00485,1281529.9126673,102
1659962167.00485,1281529.9126695,95
1659962167.00485,1281529.9126716,20
1659962167.00485,1281529.9126737,-23
1659962167.00485,1281529.9126762,6
1659962167.00485,1281529.9126831,23
1659962167.00485,1281529.9126941,-27
1659962167.00485,1281529.9126983,-53
1659962167.01582,1281529.9127022,-34
1659962167.01582,1281529.9127063,-23
1659962167.01582,1281529.9127092,13
1659962167.01582,1281529.9127189,11
1659962167.01582,1281529.9127283,-69
1659962167.01582,1281529.9127309,-57
1659962167.01582,1281529.9127331,30
1659962167.01582,1281529.9127352,13
1659962167.01582,1281529.9127385,-13
1659962167.01582,1281529.9127516,0
1659962167.01582,1281529.9127576,-6
1659962167.01582,1281529.91276,-4
1659962167.01582,1281529.9127621,16
1659962167.01582,1281529.9127642,2
1659962167.01582,1281529.9127664,-16
1659962167.01582,1281529.9127742,0
1659962167.01582,1281529.912785,11
1659962167.01582,1281529.9127885,-2
1659962167.01582,1281529.9127921,-9
1659962167.01582,1281529.9127942,11
1659962167.01582,1281529.9128015,9
1659962167.01582,1281529.9128125,6
1659962167.01582,1281529.9128156,57
1659962167.01582,1281529.9128179,71
1659962167.69111,1281529.9128199,18
1659962167.69111,1281529.912822,13
1659962167.69111,1281529.9128239,53
1659962167.69111,1281529.912826,67
1659962167.69111,1281529.9128328,27
1659962167.69111,1281529.9128447,16
1659962167.69111,1281529.9128529,64
1659962167.69111,1281529.9128575,41
1659962167.69111,1281529.9128624,-25
1659962167.69111,1281529.9128684,190
1659962167.69111,1281529.9128766,649
1659962167.69111,1281529.9128917,670
1659962167.69111,1281529.9129032,134
1659962167.69111,1281529.9129173,-192
1659962167.69111,1281529.9129264,-39
1659962167.69111,1281529.9129425,104
1659962167.69111,1281529.9129472,34
1659962167.69111,1281529.9129686,13
1659962167.69111,1281529.9129745,69
1659962167.69111,1281529.9129815,30
1659962167.69111,1281529.9129919,2
1659962167.69111,1281529.912997,57
1659962167.69111,1281529.9130017,92
1659962167.69111,1281529.9130052,90
1659962167.69111,1281529.9130088,81
1659962167.69111,1281529.9130144,88
1659962167.69111,1281529.9130196,92
1659962167.69111,1281529.9130228,83
1659962167.69111,1281529.9130263,132
1659962167.69111,1281529.9130316,162
1659962167.69111,1281529.913035,129
1659962167.69111,1281529.9130385,166
1659962167.69111,1281529.9130421,248
1659962167.69111,1281530.5960546,252
1659962167.69111,1281530.5960677,243
1659962167.69111,1281530.5960702,259
1659962167.69111,1281530.5960725,231
1659962167.69111,1281530.5960747,218
1659962167.69111,1281530.596077,241
1659962167.69111,1281530.5960792,173

1659962167.69111,1281530.5960814,85
1659962167.69111,1281530.5960836,106
1659962167.69111,1281530.5960869,106
1659962167.69111,1281530.596089,74
1659962167.69111,1281530.5960911,76
1659962167.69111,1281530.5960933,-9
1659962167.69111,1281530.5960954,-111
1659962167.69111,1281530.5960975,-76
1659962167.69111,1281530.5960996,-51
1659962167.69111,1281530.5961016,-90
1659962167.70109,1281530.5961038,-67
1659962167.70109,1281530.596106,-34
1659962167.70109,1281530.5961081,-48
1659962167.70109,1281530.5961102,-30
1659962167.70109,1281530.5961123,11
1659962167.70109,1281530.5961144,2
1659962167.70109,1281530.5961165,-4
1659962167.70109,1281530.5961186,39
1659962167.70109,1281530.5961207,57
1659962167.70109,1281530.5961228,23
1659962167.70109,1281530.5961249,20
1659962167.70109,1281530.596127,48
1659962167.70109,1281530.5961291,32
1659962167.70109,1281530.5961311,13
1659962167.70109,1281530.5961331,27
1659962167.70109,1281530.5961353,46
1659962167.70109,1281530.5961374,51
1659962167.70109,1281530.5961395,9
1659962167.70109,1281530.5961415,-6
1659962167.70109,1281530.5961436,34
1659962167.70109,1281530.5961457,41
1659962167.70109,1281530.5961478,25
1659962167.70109,1281530.5961499,20
1659962167.70109,1281530.596152,27
1659962168.22463,1281530.596154,37
1659962168.22463,1281530.5961561,41
1659962168.22463,1281530.596158,62
1659962168.22463,1281530.5961599,41
1659962168.22463,1281530.5961619,-27
1659962168.22463,1281530.5961639,-16
1659962168.22463,1281530.5961658,51
1659962168.22463,1281530.5961678,53
1659962168.22463,1281530.5961698,23
1659962168.22463,1281530.5961717,41
1659962168.22463,1281530.5961737,81
1659962168.22463,1281530.5961756,85
1659962168.22463,1281530.5961776,157
1659962168.22463,1281530.5961795,484
1659962168.22463,1281530.5961814,800
1659962168.22463,1281530.5961835,521
1659962168.22463,1281530.5961856,-88
1659962168.22463,1281530.5961876,-197
1659962168.22463,1281530.5961902,76
1659962168.22463,1281530.596199,104
1659962168.22463,1281530.5962067,16
1659962168.22463,1281530.5962127,99
1659962168.22463,1281530.5962193,143
1659962168.22463,1281530.5962231,64
1659962168.22463,1281530.5962262,62
1659962168.22463,1281530.5962297,143
1659962168.22463,1281530.5962333,176
1659962168.22463,1281530.5962362,157
1659962168.22463,1281530.5962392,125
1659962168.22463,1281530.5962421,85
1659962168.22463,1281530.596245,90
1659962168.22463,1281530.5962548,146
1659962168.22463,1281531.1325234,185
1659962168.22463,1281531.1325405,192
1659962168.22463,1281531.132545,201
1659962168.22463,1281531.132549,234
1659962168.22463,1281531.1325528,264
1659962168.22463,1281531.1325566,262
1659962168.22463,1281531.1325605,250
1659962168.22463,1281531.1325642,257
1659962168.22463,1281531.132568,292
1659962168.22463,1281531.1325717,315
1659962168.22463,1281531.1325755,282
1659962168.22463,1281531.1325792,241
1659962168.22463,1281531.1325829,213
1659962168.22463,1281531.1325866,190
1659962168.22463,1281531.1325903,173
1659962168.22463,1281531.132594,143
1659962168.22463,1281531.1325977,78
1659962168.22463,1281531.1326014,46
1659962168.2356,1281531.1326052,67
1659962168.2356,1281531.1326089,71
1659962168.2356,1281531.1326126,46
1659962168.2356,1281531.1326161,53
1659962168.2356,1281531.1326199,71
1659962168.2356,1281531.1326236,44
1659962168.2356,1281531.1326273,32
1659962168.2356,1281531.1326309,81
1659962168.2356,1281531.1326345,104
1659962168.2356,1281531.1326381,55
1659962168.2356,1281531.1326417,30
1659962168.2356,1281531.1326453,60
1659962168.2356,1281531.1326489,64
1659962168.2356,1281531.1326525,57
1659962168.2356,1281531.1326561,76
1659962168.2356,1281531.1326598,67
1659962168.2356,1281531.1326633,37
1659962168.2356,1281531.1326676,46
1659962168.2356,1281531.1326712,74
1659962168.2356,1281531.1326748,39
1659962168.2356,1281531.1326786,-30
1659962168.2356,1281531.1326823,-30
1659962168.2356,1281531.1326861,2
1659962168.2356,1281531.1326898,2
1659962168.80658,1281531.1326935,13
1659962168.80658,1281531.1326972,32
1659962168.80658,1281531.1327009,37
1659962168.80658,1281531.1327045,62
1659962168.80658,1281531.1327081,64
1659962168.80658,1281531.1327117,34
1659962168.80658,1281531.1327154,55
1659962168.80658,1281531.1327192,64
1659962168.80658,1281531.1327229,20
1659962168.80658,1281531.1327265,18
1659962168.80658,1281531.1327301,53
1659962168.80658,1281531.1327337,48
1659962168.80658,1281531.1327382,34
1659962168.80658,1281531.132742,118
1659962168.80658,1281531.1327455,424
1659962168.80658,1281531.132749,751
1659962168.80658,1281531.1327527,545
1659962168.80658,1281531.1327563,-62
1659962168.80658,1281531.13276,-222
1659962168.80658,1281531.1327637,62
1659962168.80658,1281531.1327673,125
1659962168.80658,1281531.1327709,27
1659962168.80658,1281531.1327745,67
1659962168.80658,1281531.1327782,102
1659962168.80658,1281531.1327818,69
1659962168.80658,1281531.1327855,78
1659962168.80658,1281531.132789,106
1659962168.80658,1281531.1327926,106
1659962168.80658,1281531.1327964,111
1659962168.80658,1281531.1327999,125
1659962168.80658,1281531.1328037,132
1659962168.80658,1281531.7174531,141
1659962168.80658,1281531.7174746,155
1659962168.80658,1281531.7174854,169
1659962168.80658,1281531.7174932,183
1659962168.80658,1281531.7175026,194
1659962168.80658,1281531.7175109,204
1659962168.80658,1281531.7175163,208
1659962168.80658,1281531.7175243,204
1659962168.80658,1281531.7175288,215
1659962168.80658,1281531.7175421,229
1659962168.80658,1281531.7175567,231
1659962168.80658,1281531.7175703,231
1659962168.80658,1281531.7175848,218
1659962168.80658,1281531.7175987,187
1659962168.80658,1281531.7176127,162
1659962168.80658,1281531.7176268,139
1659962168.80658,1281531.71764,102
1659962168.80658,1281531.7176521,62
1659962168.80658,1281531.7176575,41
1659962168.81655,1281531.7176612,23
1659962168.81655,1281531.717672,9
1659962168.81655,1281531.7176838,4
1659962168.81655,1281531.7176958,4
1659962168.81655,1281531.7177083,9
1659962168.81655,1281531.7177137,20
1659962168.81655,1281531.7177177,25
1659962168.81655,1281531.7177267,16
1659962168.81655,1281531.7177395,16
1659962168.81655,1281531.717745,25
1659962168.81655,1281531.7177472,34
1659962168.81655,1281531.7177493,44
1659962168.81655,1281531.7177521,48
1659962168.81655,1281531.7177604,39
1659962168.81655,1281531.7177731,44
1659962168.81655,1281531.7177804,57
1659962168.81655,1281531.7177834,53
1659962168.81655,1281531.7177856,44
1659962168.81655,1281531.7177888,51
1659962168.81655,1281531.7178009,46
1659962168.81655,1281531.7178152,27
1659962168.81655,1281531.7178297,16
1659962168.81655,1281531.7178426,20
1659962168.81655,1281531.7178577,44
1659962169.34539,1281531.7178714,55
1659962169.34539,1281531.7178846,44
1659962169.34539,1281531.7178921,57
1659962169.34539,1281531.7178991,83
1659962169.34539,1281531.7179084,71
1659962169.34539,1281531.7179174,48
1659962169.34539,1281531.7179279,53
1659962169.34539,1281531.7179346,57
1659962169.34539,1281531.7179565,53
1659962169.34539,1281531.7179649,44
1659962169.34539,1281531.7180323,37
1659962169.34539,1281531.7180442,32
1659962169.34539,1281531.7180657,39
1659962169.34539,1281531.7180735,176
1659962169.34539,1281531.7180777,512
1659962169.34539,1281531.7180814,661
1659962169.34539,1281531.7180849,248
1659962169.34539,1281531.7180887,-192
1659962169.34539,1281531.7180924,-76
1659962169.34539,1281531.7180961,162
1659962169.34539,1281531.7181017,90
1659962169.34539,1281531.7181054,9
1659962169.34539,1281531.7181092,67
1659962169.34539,1281531.7181146,88
1659962169.34539,1281531.718119,83
1659962169.34539,1281531.7181227,104
1659962169.34539,1281531.7181264,95
1659962169.34539,1281531.7181338,71
1659962169.34539,1281531.7181373,88
1659962169.34539,1281531.7181407,143
1659962169.34539,1281532.2527263,162
1659962169.34539,1281532.2527389,120
1659962169.34539,1281532.2527428,102
1659962169.34539,1281532.2527457,129
1659962169.34539,1281532.2527482,160
1659962169.34539,1281532.2527506,187
1659962169.34539,1281532.2527529,204
1659962169.34539,1281532.2527552,215
1659962169.34539,1281532.2527575,236
1659962169.34539,1281532.2527598,252
1659962169.34539,1281532.2527621,250
1659962169.34539,1281532.2527644,236
1659962169.34539,1281532.2527667,236
1659962169.34539,1281532.252769,241
1659962169.34539,1281532.2527712,213
1659962169.34539,1281532.2527741,166
1659962169.34539,1281532.2527843,125
1659962169.34539,1281532.2527939,85
1659962169.34539,1281532.2527998,41
1659962169.34539,1281532.2528056,0
1659962169.35636,1281532.2528105,-18
1659962169.35636,1281532.2528149,-27
1659962169.35636,1281532.2528194,-53
1659962169.35636,1281532.2528244,-60
1659962169.35636,1281532.2528289,-37
1659962169.35636,1281532.2528324,-25
1659962169.35636,1281532.252836,-25
1659962169.35636,1281532.2528395,-20
1659962169.35636,1281532.2528455,-27
1659962169.35636,1281532.252851,-39
1659962169.35636,1281532.2528546,-34
1659962169.35636,1281532.2528584,-20
1659962169.35636,1281532.2528638,-4
1659962169.35636,1281532.2528689,9
1659962169.35636,1281532.2528738,11
1659962169.35636,1281532.2528791,-2
1659962169.35636,1281532.2528827,-9
1659962169.35636,1281532.2528863,-4
1659962169.35636,1281532.2528923,0
1659962169.35636,1281532.2528969,-6
1659962169.35636,1281532.2529024,-11
1659962169.35636,1281532.2529084,4
1659962169.35636,1281532.2529131,18
1659962169.35636,1281532.2529205,11
1659962169.8832,1281532.2529269,11
1659962169.8832,1281532.2529326,30
1659962169.8832,1281532.2529372,27
1659962169.8832,1281532.2529414,16
1659962169.8832,1281532.2529453,18
1659962169.8832,1281532.2529498,23
1659962169.8832,1281532.2529544,18
1659962169.8832,1281532.2529607,16
1659962169.8832,1281532.252966,25
1659962169.8832,1281532.2529722,23
1659962169.8832,1281532.2529763,9
1659962169.8832,1281532.252981,150
1659962169.8832,1281532.2529871,507
1659962169.8832,1281532.2529926,630
1659962169.8832,1281532.2529982,183
1659962169.8832,1281532.2530037,-243
1659962169.8832,1281532.2530109,-104
1659962169.8832,1281532.2530155,132
1659962169.8832,1281532.2530196,78
1659962169.8832,1281532.2530256,34
1659962169.8832,1281532.2530303,95
1659962169.8832,1281532.2530364,92
1659962169.8832,1281532.2530431,64
1659962169.8832,1281532.2530478,85
1659962169.8832,1281532.2530531,106
1659962169.8832,1281532.2530577,99
1659962169.8832,1281532.2530614,104
1659962169.8832,1281532.2530652,120
1659962169.8832,1281532.2530688,127
1659962169.8832,1281532.7920437,132
1659962169.8832,1281532.7920671,141
1659962169.8832,1281532.7920753,146
1659962169.8832,1281532.7920807,160
1659962169.8832,1281532.7920869,187
1659962169.8832,1281532.7920931,204
1659962169.8832,1281532.7920994,206
1659962169.8832,1281532.7921055,208
1659962169.8832,1281532.7921119,222
1659962169.8832,1281532.7921185,224
1659962169.8832,1281532.7921249,222
1659962169.8832,1281532.7921283,234
1659962169.8832,1281532.7921327,231
1659962169.8832,1281532.7921358,187
1659962169.8832,1281532.792139,148
1659962169.8832,1281532.7921419,127
1659962169.8832,1281532.7921449,102
1659962169.8832,1281532.7921479,62
1659962169.8832,1281532.7921509,25
1659962169.8832,1281532.792154,-2
1659962169.8832,1281532.792157,-16
1659962169.89317,1281532.7921599,-4
1659962169.89317,1281532.7921629,2
1659962169.89317,1281532.7921693,2
1659962169.89317,1281532.7921724,11
1659962169.89317,1281532.7921779,-2
1659962169.89317,1281532.792183,-18
1659962169.89317,1281532.792194,-6
1659962169.89317,1281532.7921998,16
1659962169.89317,1281532.7922051,25
