Time,TimeLsl,Value
1659969584.88311,1288946.3785725,-23
1659969584.88311,1288946.378591,-2
1659969584.88311,1288946.3785954,2
1659969584.88311,1288946.3786011,-2
1659969584.88311,1288946.378605,-2
1659969584.88311,1288946.3786105,-20
1659969584.88311,1288946.3786206,-41
1659969584.88311,1288946.378627,-44
1659969584.88311,1288946.3786307,-41
1659969584.88311,1288946.378636,-32
1659969584.88311,1288946.3786399,-18
1659969584.88311,1288946.3786434,-30
1659969584.88311,1288946.378647,-57
1659969584.88311,1288946.3786505,-81
1659969584.88311,1288946.378654,-97
1659969584.88311,1288946.3786577,-104
1659969584.88311,1288946.3786615,-97
1659969584.88311,1288946.3786672,-95
1659969584.88311,1288946.3786721,-115
1659969584.88311,1288946.378679,-141
1659969584.88311,1288946.3786825,-134
1659969584.88311,1288946.3786918,-69
1659969584.88311,1288946.378703,157
1659969584.88311,1288946.3787138,542
1659969584.88311,1288946.3787267,760
1659969584.88311,1288946.3787415,442
1659969584.88311,1288946.3787506,-208
1659969584.88311,1288946.3787533,-442
1659969584.88311,1288946.3787555,-183
1659969584.88311,1288946.3787591,-83
1659969584.88311,1288946.3787709,-187
1659969584.88311,1288946.3787805,-162
1659969584.88311,1288946.378787,-109
1659969584.88311,1288946.3787955,-132
1659969584.88311,1288946.3788099,-127
1659969584.88311,1288946.3788207,-97
1659969584.88311,1288946.37883,-99
1659969584.88311,1288946.3788363,-104
1659969584.88311,1288946.3788487,-92
1659969584.88311,1288946.378859,-78
1659969584.88311,1288946.3788649,-62
1659969584.88311,1288946.3788749,-55
1659969584.88311,1288946.3788836,-48
1659969584.88311,1288946.378888,-37
1659969584.88311,1288946.3788942,-18
1659969584.88311,1288946.3789001,-2
1659969584.88311,1288946.3789135,9
1659969584.88311,1288946.3789238,20
1659969584.88311,1288946.3789356,37
1659969584.88311,1288946.3789483,55
1659969585.0239,1288946.3789632,69
1659969585.0239,1288946.3789761,78
1659969585.0239,1288946.3789858,85
1659969585.0239,1288946.3789994,97
1659969585.0239,1288946.3790132,111
1659969585.0239,1288946.379029,118
1659969585.0239,1288946.3790364,111
1659969585.0239,1288946.379043,85
1659969585.0239,1288946.3790489,41
1659969585.0239,1288946.3790527,-9
1659969585.0239,1288946.3790597,-44
1659969585.0239,1288946.3790632,-60
1659969585.0239,1288946.3790762,-62
1659969585.0239,1288946.3790861,-57
1659969585.0239,1288946.3791,-48
1659969585.0239,1288946.3791133,-41
1659969585.0239,1288946.3791259,-39
1659969585.0239,1288946.3791373,-34
1659969585.0239,1288946.3791516,-27
1659969585.0239,1288946.3791594,-32
1659969585.0239,1288946.3791681,-39
1659969585.0239,1288946.3791775,-32
1659969585.0239,1288946.3791869,-34
1659969585.0239,1288946.9629504,-37
1659969585.0239,1288946.9629762,-27
1659969585.0239,1288946.9629846,-23
1659969585.0239,1288946.9629915,-34
1659969585.0239,1288946.9629963,-48
1659969585.0239,1288946.9630017,-62
1659969585.0239,1288946.963006,-64
1659969585.0239,1288946.96301,-57
1659969585.0239,1288946.9630215,-62
1659969585.0239,1288946.9630334,-76
1659969585.0239,1288946.9630706,-78
1659969585.0239,1288946.9630749,-74
1659969585.0239,1288946.9630789,-76
1659969585.0239,1288946.9630831,-78
1659969585.0239,1288946.9630874,-74
1659969585.0239,1288946.9630912,-74
1659969585.0239,1288946.9630942,-71
1659969585.0239,1288946.963098,-55
1659969585.0239,1288946.9631036,-53
1659969585.0239,1288946.9631085,-71
1659969585.0239,1288946.9631117,-85
1659969585.0239,1288946.9631148,-97
1659969585.0239,1288946.9631192,-115
1659969585.0239,1288946.9631238,-118
1659969585.0239,1288946.9631269,-99
1659969585.0239,1288946.9631299,-92
1659969585.0239,1288946.963138,-74
1659969585.07192,1288946.9631431,81
1659969585.07192,1288946.9631487,410
1659969585.07192,1288946.9632064,693
1659969585.07192,1288946.9632163,556
1659969585.07192,1288946.9632222,-37
1659969585.07192,1288946.9632281,-442
1659969585.07192,1288946.9632321,-257
1659969585.07192,1288946.9632381,-48
1659969585.07192,1288946.963245,-127
1659969585.07192,1288946.9632517,-139
1659969585.07192,1288946.9632587,-57
1659969585.07192,1288946.9632668,-64
1659969585.07192,1288946.9632736,-83
1659969585.07192,1288946.9632804,-55
1659969585.07192,1288946.9632872,-44
1659969585.07192,1288946.9632953,-51
1659969585.07192,1288946.9633032,-37
1659969585.07192,1288946.9633098,-16
1659969585.07192,1288946.9633164,-2
1659969585.07192,1288946.9633229,6
1659969585.07192,1288946.9633283,16
1659969585.07192,1288946.9633336,20
1659969585.07192,1288946.963341,34
1659969585.07192,1288946.9633471,67
1659969585.07192,1288946.9633532,83
1659969585.07192,1288946.9633596,85
1659969585.07192,1288946.9633656,102
1659969585.07192,1288946.9633724,122
1659969585.07192,1288946.9633789,134
1659969585.07192,1288946.9633884,148
1659969585.07192,1288946.963395,162
1659969585.07192,1288946.9634017,171
1659969585.07192,1288946.9634088,178
1659969585.07192,1288946.963416,183
1659969585.07192,1288946.9634211,173
1659969585.07192,1288946.9634274,150
1659969585.07192,1288946.9634324,115
1659969585.07192,1288946.9634393,71
1659969585.07192,1288946.963445,32
1659969585.07192,1288946.9634519,9
1659969585.07192,1288946.9634578,2
1659969585.07192,1288946.9634615,4
1659969585.07192,1288946.9634652,13
1659969585.07192,1288946.9634684,18
1659969585.07192,1288946.9634747,4
1659969585.07192,1288946.9634812,-2
1659969585.07192,1288947.4506874,4
1659969585.07192,1288947.450705,16
1659969585.09486,1288947.4507101,18
1659969585.09486,1288947.4507141,18
1659969585.09486,1288947.4507178,23
1659969585.09486,1288947.4507216,23
1659969585.09486,1288947.4507259,16
1659969585.09486,1288947.4507304,16
1659969585.09486,1288947.4507346,13
1659969585.09486,1288947.4507408,16
1659969585.09486,1288947.4507479,20
1659969585.09486,1288947.4507516,11
1659969585.09486,1288947.4507563,-9
1659969585.09486,1288947.4507631,-16
1659969585.09486,1288947.4507689,-6
1659969585.09486,1288947.450773,0
1659969585.09486,1288947.4507775,6
1659969585.09486,1288947.450784,20
1659969585.09486,1288947.4507899,27
1659969585.09486,1288947.4507966,27
1659969585.09486,1288947.4508019,18
1659969585.09486,1288947.450808,0
1659969585.09486,1288947.4508125,-18
1659969585.09486,1288947.4508188,-23
1659969585.09486,1288947.4508249,-25
1659969585.09486,1288947.4508334,-41
1659969585.09486,1288947.4508432,-41
1659969585.09486,1288947.4508512,-39
1659969585.09486,1288947.450861,-34
1659969585.09486,1288947.4508723,102
1659969585.09486,1288947.4508864,438
1659969585.09486,1288947.4508944,758
1659969585.09486,1288947.4509027,688
1659969585.09486,1288947.4509131,134
1659969585.09486,1288947.4509211,-331
1659969585.09486,1288947.4509303,-213
1659969585.09486,1288947.4509388,11
1659969585.09486,1288947.4509474,-44
1659969585.09486,1288947.4509519,-74
1659969585.09486,1288947.4509563,-6
1659969585.09486,1288947.4509694,-13
1659969585.09486,1288947.4509831,-32
1659969585.09486,1288947.4509953,0
1659969585.09486,1288947.451004,13
1659969585.09486,1288947.4510068,11
1659969585.09486,1288947.4510099,25
1659969585.09486,1288947.4510197,37
1659969585.09486,1288947.4510609,39
1659969585.09486,1288947.451072,57
1659969585.09486,1288947.4510827,78
1659969585.09486,1288947.4510956,83
1659969585.09486,1288947.4511076,78
1659969585.10882,1288947.451117,85
1659969585.10882,1288947.4511246,106
1659969585.10882,1288947.4511315,127
1659969585.10882,1288947.4511368,143
1659969585.10882,1288947.4511749,160
1659969585.10882,1288947.4511872,171
1659969585.10882,1288947.4511985,178
1659969585.10882,1288947.4512111,190
1659969585.10882,1288947.4512271,201
1659969585.10882,1288947.4512391,215
1659969585.10882,1288947.4512483,227
1659969585.10882,1288947.4512558,218
1659969585.10882,1288947.4512628,178
1659969585.10882,1288947.4512693,141
1659969585.10882,1288947.4512785,113
1659969585.10882,1288947.4512881,78
1659969585.10882,1288947.4513028,53
1659969585.10882,1288947.4513158,46
1659969585.10882,1288947.451329,44
1659969585.10882,1288947.4513411,51
1659969585.10882,1288947.4513498,67
1659969585.10882,1288947.9866904,81
1659969585.10882,1288947.986711,85
1659969585.10882,1288947.9867186,88
1659969585.62698,1288947.9867283,88
1659969585.62698,1288947.9867324,90
1659969585.62698,1288947.9867362,97
1659969585.62698,1288947.9867399,104
1659969585.62698,1288947.9867436,99
1659969585.62698,1288947.9867472,90
1659969585.62698,1288947.9867508,71
1659969585.62698,1288947.9867544,51
1659969585.62698,1288947.9867579,46
1659969585.62698,1288947.9867615,51
1659969585.62698,1288947.9867653,55
1659969585.62698,1288947.9867689,60
1659969585.62698,1288947.9867725,62
1659969585.62698,1288947.9867767,74
1659969585.62698,1288947.9867807,92
1659969585.62698,1288947.9867847,109
1659969585.62698,1288947.9867885,109
1659969585.62698,1288947.986796,88
1659969585.62698,1288947.9868001,55
1659969585.62698,1288947.986804,23
1659969585.62698,1288947.9868078,18
1659969585.62698,1288947.9868116,32
1659969585.62698,1288947.9868174,32
1659969585.62698,1288947.9868212,25
1659969585.62698,1288947.9868263,18
1659969585.62698,1288947.98683,71
1659969585.62698,1288947.9868338,317
1659969585.62698,1288947.9868395,677
1659969585.62698,1288947.9868435,807
1659969585.62698,1288947.9868471,429
1659969585.62698,1288947.9868509,-143
1659969585.62698,1288947.9868549,-234
1659969585.62698,1288947.9868608,20
1659969585.62698,1288947.9868646,48
1659969585.62698,1288947.9868702,-27
1659969585.62698,1288947.9868744,20
1659969585.62698,1288947.986884,46
1659969585.62698,1288947.9868897,20
1659969585.62698,1288947.9868936,32
1659969585.62698,1288947.9868989,44
1659969585.62698,1288947.9869027,37
1659969585.62698,1288947.9869082,46
1659969585.62698,1288947.9869119,60
1659969585.62698,1288947.9869171,62
1659969585.62698,1288947.986921,69
1659969585.62698,1288947.9869263,81
1659969585.62698,1288947.9869305,90
1659969585.62698,1288947.9869359,104
1659969585.62698,1288947.9869442,122
1659969585.62698,1288947.98695,136
1659969585.63795,1288947.9869538,148
1659969585.63795,1288947.9869592,162
1659969585.63795,1288947.9869632,171
1659969585.63795,1288947.9869685,176
1659969585.63795,1288947.9869722,176
1659969585.63795,1288947.9869774,180
1659969585.63795,1288947.9869811,199
1659969585.63795,1288947.9869868,211
1659969585.63795,1288947.9869907,215
1659969585.63795,1288947.9869959,222
1659969585.63795,1288947.9870005,213
1659969585.63795,1288947.9870062,173
1659969585.63795,1288947.9870117,132
1659969585.63795,1288947.9870182,102
1659969585.63795,1288947.987077,76
1659969585.63795,1288947.9870859,69
1659969585.63795,1288947.98709,78
1659969585.63795,1288947.9870938,85
1659969585.63795,1288947.987098,88
1659969585.63795,1288947.9871016,97
1659969585.63795,1288948.5254223,104
1659969585.63795,1288948.5254381,97
1659969585.63795,1288948.5254429,85
1659969585.63795,1288948.5254486,90
1659969586.2081,1288948.5254535,102
1659969586.2081,1288948.5254574,102
1659969586.2081,1288948.5254611,104
1659969586.2081,1288948.5254648,109
1659969586.2081,1288948.5254685,102
1659969586.2081,1288948.5254722,90
1659969586.2081,1288948.5254758,88
1659969586.2081,1288948.5254795,81
1659969586.2081,1288948.525483,62
1659969586.2081,1288948.5254867,64
1659969586.2081,1288948.5254904,88
1659969586.2081,1288948.5254941,102
1659969586.2081,1288948.5254978,109
1659969586.2081,1288948.5255015,115
1659969586.2081,1288948.5255087,92
1659969586.2081,1288948.5255124,37
1659969586.2081,1288948.5255179,20
1659969586.2081,1288948.5255236,39
1659969586.2081,1288948.5255288,41
1659969586.2081,1288948.5255326,37
1659969586.2081,1288948.5255363,34
1659969586.2081,1288948.5255415,16
1659969586.2081,1288948.5255452,57
1659969586.2081,1288948.525549,287
1659969586.2081,1288948.5255542,651
1659969586.2081,1288948.5255594,830
1659969586.2081,1288948.5255632,503
1659969586.2081,1288948.5255669,-90
1659969586.2081,1288948.5255721,-245
1659969586.2081,1288948.525576,-2
1659969586.2081,1288948.5255811,44
1659969586.2081,1288948.5255848,-44
1659969586.2081,1288948.5255885,-2
1659969586.2081,1288948.5255924,34
1659969586.2081,1288948.5255972,4
1659969586.2081,1288948.525601,6
1659969586.2081,1288948.5256061,34
1659969586.2081,1288948.5256098,41
1659969586.2081,1288948.5256135,51
1659969586.2081,1288948.5256171,60
1659969586.2081,1288948.5256231,62
1659969586.2081,1288948.5256278,74
1659969586.2081,1288948.5256314,88
1659969586.2081,1288948.5256351,102
1659969586.2081,1288948.5256402,113
1659969586.2081,1288948.5256439,111
1659969586.2081,1288948.5256476,111
1659969586.2081,1288948.5256512,132
1659969586.2081,1288948.525655,153
1659969586.2081,1288948.5256588,157
1659969586.22053,1288948.5256635,171
1659969586.22053,1288948.5256673,190
1659969586.22053,1288948.525671,197
1659969586.22053,1288948.5256746,201
1659969586.22053,1288948.5256797,218
1659969586.22053,1288948.5256832,231
1659969586.22053,1288948.5256886,236
1659969586.22053,1288948.5257591,222
1659969586.22053,1288948.5257682,180
1659969586.22053,1288948.5257726,132
1659969586.22053,1288948.5257795,102
1659969586.22053,1288948.525783,81
1659969586.22053,1288948.5257871,64
1659969586.22053,1288948.5257914,64
1659969586.22053,1288948.5257974,74
1659969586.22053,1288948.5258027,76
1659969586.22053,1288948.5258089,81
1659969586.22053,1288948.5258136,90
1659969586.22053,1288948.5258199,92
1659969586.22053,1288949.1087718,95
1659969586.22053,1288949.1087934,97
1659969586.22053,1288949.1088013,90
1659969586.22053,1288949.1088089,90
1659969586.22053,1288949.1088169,99
1659969586.79573,1288949.1088248,106
1659969586.79573,1288949.1088312,102
1659969586.79573,1288949.1088386,92
1659969586.79573,1288949.1088464,76
1659969586.79573,1288949.1088517,60
1659969586.79573,1288949.1088572,57
1659969586.79573,1288949.1088615,83
1659969586.79573,1288949.1088681,102
1659969586.79573,1288949.1088761,102
1659969586.79573,1288949.1088848,104
1659969586.79573,1288949.1088947,95
1659969586.79573,1288949.1089002,57
1659969586.79573,1288949.1089098,39
1659969586.79573,1288949.1089177,41
1659969586.79573,1288949.1089252,41
1659969586.79573,1288949.1089342,32
1659969586.79573,1288949.1089413,30
1659969586.79573,1288949.1089483,18
1659969586.79573,1288949.1089518,13
1659969586.79573,1288949.1089645,136
1659969586.79573,1288949.108973,456
1659969586.79573,1288949.1089803,763
1659969586.79573,1288949.1089886,672
1659969586.79573,1288949.1089938,97
1659969586.79573,1288949.1090016,-340
1659969586.79573,1288949.1090094,-173
1659969586.79573,1288949.1090157,60
1659969586.79573,1288949.109022,-2
1659969586.79573,1288949.1090307,-27
1659969586.79573,1288949.1090356,41
1659969586.79573,1288949.1090413,32
1659969586.79573,1288949.1090451,16
1659969586.79573,1288949.1090503,48
1659969586.79573,1288949.1090551,60
1659969586.79573,1288949.1090605,57
1659969586.79573,1288949.1090643,69
1659969586.79573,1288949.109069,76
1659969586.79573,1288949.1090779,71
1659969586.79573,1288949.1090849,81
1659969586.79573,1288949.1090904,99
1659969586.79573,1288949.1090985,111
1659969586.79573,1288949.109107,125
1659969586.79573,1288949.1091143,136
1659969586.79573,1288949.1091201,148
1659969586.79573,1288949.1091295,166
1659969586.79573,1288949.1091341,187
1659969586.79573,1288949.1091404,201
1659969586.79573,1288949.1091436,206
1659969586.79573,1288949.1091553,211
1659969586.79573,1288949.1091644,222
1659969586.8067,1288949.1091738,231
1659969586.8067,1288949.1091796,236
1659969586.8067,1288949.1091895,238
1659969586.8067,1288949.1092014,231
1659969586.8067,1288949.1092123,206
1659969586.8067,1288949.1092211,162
1659969586.8067,1288949.1092263,118
1659969586.8067,1288949.1092374,95
1659969586.8067,1288949.1092418,88
1659969586.8067,1288949.1092483,90
1659969586.8067,1288949.1092547,97
1659969586.8067,1288949.1092594,97
1659969586.8067,1288949.1092653,97
1659969586.8067,1288949.1092689,106
1659969586.8067,1288949.1092731,113
1659969586.8067,1288949.1092777,118
1659969586.8067,1288949.1092809,127
1659969586.8067,1288949.1092856,127
1659969586.8067,1288949.6944455,120
1659969586.8067,1288949.6944663,127
1659969586.8067,1288949.694476,136
1659969586.8067,1288949.6944819,134
1659969586.8067,1288949.6944854,134
1659969586.8067,1288949.6944903,122
1659969587.38697,1288949.6944937,111
1659969587.38697,1288949.694497,125
1659969587.38697,1288949.6945004,146
1659969587.38697,1288949.6945037,157
1659969587.38697,1288949.694507,169
1659969587.38697,1288949.6945105,160
1659969587.38697,1288949.6945139,113
1659969587.38697,1288949.6945181,85
1659969587.38697,1288949.6945242,92
1659969587.38697,1288949.6945299,90
1659969587.38697,1288949.6945408,76
1659969587.38697,1288949.69455,67
1659969587.38697,1288949.694558,32
1659969587.38697,1288949.6945646,2
1659969587.38697,1288949.6945705,111
1659969587.38697,1288949.6945782,426
1659969587.38697,1288949.6945844,788
1659969587.38697,1288949.6945923,811
1659969587.38697,1288949.6945983,280
1659969587.38697,1288949.6946062,-259
1659969587.38697,1288949.694614,-176
1659969587.38697,1288949.6946229,81
1659969587.38697,1288949.694629,20
1659969587.38697,1288949.694637,-30
1659969587.38697,1288949.6946431,37
1659969587.38697,1288949.6946509,30
1659969587.38697,1288949.6946572,9
1659969587.38697,1288949.6946648,34
1659969587.38697,1288949.694671,37
1659969587.38697,1288949.6946801,25
1659969587.38697,1288949.6946874,44
1659969587.38697,1288949.6946931,60
1659969587.38697,1288949.6947,64
1659969587.38697,1288949.6947074,83
1659969587.38697,1288949.6947133,99
1659969587.38697,1288949.6947192,106
1659969587.38697,1288949.6947251,120
1659969587.38697,1288949.6947328,134
1659969587.38697,1288949.694739,139
1659969587.38697,1288949.694745,155
1659969587.38697,1288949.6947509,176
1659969587.38697,1288949.6947584,180
1659969587.38697,1288949.6947644,176
1659969587.38697,1288949.6947738,180
1659969587.38697,1288949.6947796,192
1659969587.38697,1288949.6947856,197
1659969587.38697,1288949.6947932,206
1659969587.38697,1288949.694799,222
1659969587.38697,1288949.694807,218
1659969587.38697,1288949.6948139,187
1659969587.40492,1288949.6948217,150
1659969587.40492,1288949.6948308,118
1659969587.40492,1288949.6948387,104
1659969587.40492,1288949.6948427,95
1659969587.40492,1288949.6948465,85
1659969587.40492,1288949.6948501,97
1659969587.40492,1288949.6948537,111
1659969587.40492,1288949.6948575,113
1659969587.40492,1288949.694865,115
1659969587.40492,1288949.6948689,122
1659969587.40492,1288949.6948732,125
1659969587.40492,1288949.6948838,127
1659969587.40492,1288949.694887,129
1659969587.40492,1288949.69489,125
1659969587.40492,1288949.6948932,127
1659969587.40492,1288949.6948962,132
1659969587.40492,1288949.6948995,134
1659969587.40492,1288950.2799583,129
1659969587.40492,1288950.2799783,122
1659969587.40492,1288950.2799863,120
1659969587.40492,1288950.2799944,132
1659969587.40492,1288950.2799985,146
1659969587.40492,1288950.2800037,148
1659969587.40492,1288950.2800072,153
1659969587.91103,1288950.2800108,155
1659969587.91103,1288950.2800147,132
1659969587.91103,1288950.2800183,102
1659969587.91103,1288950.2800218,95
1659969587.91103,1288950.2800253,95
1659969587.91103,1288950.2800288,88
1659969587.91103,1288950.2800324,85
1659969587.91103,1288950.280036,74
1659969587.91103,1288950.2800395,44
1659969587.91103,1288950.2800431,81
1659969587.91103,1288950.2800472,320
1659969587.91103,1288950.2800509,677
1659969587.91103,1288950.2800545,809
1659969587.91103,1288950.2800582,424
1659969587.91103,1288950.2800619,-160
1659969587.91103,1288950.2800655,-248
1659969587.91103,1288950.2800692,18
1659969587.91103,1288950.2800728,48
1659969587.91103,1288950.2800764,-41
1659969587.91103,1288950.2800801,-2
1659969587.91103,1288950.2800836,18
1659969587.91103,1288950.2800873,-27
1659969587.91103,1288950.280091,-23
1659969587.91103,1288950.2800946,9
1659969587.91103,1288950.2800983,13
1659969587.91103,1288950.2802011,20
1659969587.91103,1288950.2802096,37
1659969587.91103,1288950.2802141,39
1659969587.91103,1288950.280218,41
1659969587.91103,1288950.2802218,62
1659969587.91103,1288950.2802256,83
1659969587.91103,1288950.2802294,88
1659969587.91103,1288950.2802478,83
1659969587.91103,1288950.2802518,92
1659969587.91103,1288950.2802555,113
1659969587.91103,1288950.2802592,132
1659969587.91103,1288950.2802629,139
1659969587.91103,1288950.2802666,146
1659969587.91103,1288950.2802703,162
1659969587.91103,1288950.280274,169
1659969587.91103,1288950.2802777,162
1659969587.91103,1288950.2802815,173
1659969587.91103,1288950.2802853,204
1659969587.91103,1288950.2802889,211
1659969587.91103,1288950.2802925,187
1659969587.91103,1288950.2802962,155
1659969587.91103,1288950.2802998,113
1659969587.91103,1288950.2803037,81
1659969587.91103,1288950.2803091,74
1659969587.91103,1288950.2803129,74
1659969587.92898,1288950.2803165,78
1659969587.92898,1288950.28032,81
1659969587.92898,1288950.2803236,76
1659969587.92898,1288950.2803273,78
1659969587.92898,1288950.280331,92
1659969587.92898,1288950.2803353,102
1659969587.92898,1288950.280339,111
1659969587.92898,1288950.2803426,111
1659969587.92898,1288950.2803464,102
1659969587.92898,1288950.2803501,102
1659969587.92898,1288950.2803559,104
1659969587.92898,1288950.2803597,106
1659969587.92898,1288950.2803649,104
1659969587.92898,1288950.2803691,97
1659969587.92898,1288950.2803744,83
1659969587.92898,1288950.2803782,74
1659969587.92898,1288950.8143465,83
1659969587.92898,1288950.814405,106
1659969587.92898,1288950.8144138,127
1659969587.92898,1288950.8144183,127
1659969587.92898,1288950.8144568,125
1659969587.92898,1288950.8144619,111
1659969587.92898,1288950.8144652,78
1659969587.92898,1288950.8144692,64
1659969588.50394,1288950.8144724,69
1659969588.50394,1288950.8144755,67
1659969588.50394,1288950.8144788,60
1659969588.50394,1288950.8144829,51
1659969588.50394,1288950.8144864,13
1659969588.50394,1288950.8144897,23
1659969588.50394,1288950.8144929,220
1659969588.50394,1288950.814496,552
1659969588.50394,1288950.8144993,749
1659969588.50394,1288950.814503,503
1659969588.50394,1288950.8145067,-71
1659969588.50394,1288950.8145101,-296
1659969588.50394,1288950.8145142,-53
1659969588.50394,1288950.8145177,51
1659969588.50394,1288950.8145231,-37
1659969588.50394,1288950.8145265,-13
1659969588.50394,1288950.8145298,32
1659969588.50394,1288950.8145331,2
1659969588.50394,1288950.8145367,6
1659969588.50394,1288950.81454,39
1659969588.50394,1288950.8145435,32
1659969588.50394,1288950.8145474,27
1659969588.50394,1288950.814551,34
1659969588.50394,1288950.8145547,25
1659969588.50394,1288950.8145585,27
1659969588.50394,1288950.814564,46
1659969588.50394,1288950.8146024,55
1659969588.50394,1288950.8146069,69
1659969588.50394,1288950.8146108,88
1659969588.50394,1288950.8146148,92
1659969588.50394,1288950.8146188,99
1659969588.50394,1288950.8146227,118
1659969588.50394,1288950.8146261,129
1659969588.50394,1288950.8146296,136
1659969588.50394,1288950.8146335,148
1659969588.50394,1288950.8146374,160
1659969588.50394,1288950.8146414,166
1659969588.50394,1288950.8146448,178
1659969588.50394,1288950.8146483,192
1659969588.50394,1288950.8146519,199
1659969588.50394,1288950.8146556,187
1659969588.50394,1288950.8146593,150
1659969588.50394,1288950.8146629,111
1659969588.50394,1288950.8146666,81
1659969588.50394,1288950.8146704,60
1659969588.50394,1288950.8146741,53
1659969588.50394,1288950.8146779,57
1659969588.50394,1288950.814682,69
1659969588.50394,1288950.8146861,74
1659969588.50394,1288950.8146897,76
1659969588.51691,1288950.8146934,76
1659969588.51691,1288950.8146968,83
1659969588.51691,1288950.8147005,92
1659969588.51691,1288950.8147048,92
1659969588.51691,1288950.8147084,83
1659969588.51691,1288950.8147125,71
1659969588.51691,1288950.8147158,71
1659969588.51691,1288950.8147193,76
1659969588.51691,1288950.8147226,81
1659969588.51691,1288950.8147258,81
1659969588.51691,1288950.8147291,74
1659969588.51691,1288950.8147324,67
1659969588.51691,1288950.814736,69
1659969588.51691,1288950.8147392,74
1659969588.51691,1288950.8147427,74
1659969588.51691,1288951.4009401,90
1659969588.51691,1288951.400958,115
1659969588.51691,1288951.4009661,120
1659969588.51691,1288951.40097,115
1659969588.51691,1288951.4009763,111
1659969588.51691,1288951.4009799,92
1659969588.51691,1288951.4009862,74
1659969588.51691,1288951.4009909,62
1659969588.51691,1288951.4009964,46
1659969588.98366,1288951.4010009,27
1659969588.98366,1288951.4010047,27
1659969588.98366,1288951.401009,23
1659969588.98366,1288951.4010134,13
1659969588.98366,1288951.4010171,125
1659969588.98366,1288951.4010226,433
1659969588.98366,1288951.4010262,714
1659969588.98366,1288951.4010294,605
1659969588.98366,1288951.4010326,74
1659969588.98366,1288951.4010361,-331
1659969588.98366,1288951.4010399,-192
1659969588.98366,1288951.401065,25
1659969588.98366,1288951.4010701,-41
1659969588.98366,1288951.4010745,-81
1659969588.98366,1288951.4010782,-4
1659969588.98366,1288951.4011022,-2
1659969588.98366,1288951.4011073,-23
1659969588.98366,1288951.4011108,6
1659969588.98366,1288951.4011142,13
1659969588.98366,1288951.4011175,4
1659969588.98366,1288951.4011208,23
1659969588.98366,1288951.4011242,41
1659969588.98366,1288951.4011274,44
1659969588.98366,1288951.4011319,55
1659969588.98366,1288951.4011362,69
1659969588.98366,1288951.4011451,78
1659969588.98366,1288951.4011519,90
1659969588.98366,1288951.4011602,109
1659969588.98366,1288951.4011689,125
1659969588.98366,1288951.4011741,136
1659969588.98366,1288951.401182,148
1659969588.98366,1288951.4011886,157
1659969588.98366,1288951.4011937,166
1659969588.98366,1288951.4011987,176
1659969588.98366,1288951.4012024,183
1659969588.98366,1288951.4012073,192
1659969588.98366,1288951.4012115,206
1659969588.98366,1288951.4012169,218
1659969588.98366,1288951.4012229,211
1659969588.98366,1288951.4012265,185
1659969588.98366,1288951.4012301,148
1659969588.98366,1288951.4012336,109
1659969588.98366,1288951.401237,85
1659969588.98366,1288951.4012407,76
1659969588.98366,1288951.4012462,71
1659969588.98366,1288951.4012497,69
1659969588.98366,1288951.4012549,76
1659969588.98366,1288951.4012592,85
1659969588.98366,1288951.4012657,90
1659969588.98366,1288951.4012707,92
1659969588.99363,1288951.4012755,95
1659969588.99363,1288951.4012802,97
1659969588.99363,1288951.4012835,102
1659969588.99363,1288951.4012866,102
1659969588.99363,1288951.4012895,99
1659969588.99363,1288951.4012924,102
1659969588.99363,1288951.4012954,106
1659969588.99363,1288951.4012983,99
1659969588.99363,1288951.4013011,90
1659969588.99363,1288951.4013041,90
1659969588.99363,1288951.4013071,92
1659969588.99363,1288951.4013115,90
1659969588.99363,1288951.401316,90
1659969588.99363,1288951.4013227,92
1659969588.99363,1288951.8874521,106
1659969588.99363,1288951.8874739,125
1659969588.99363,1288951.8874882,132
1659969588.99363,1288951.8874984,132
1659969588.99363,1288951.887508,120
1659969588.99363,1288951.8875146,76
1659969588.99363,1288951.8875273,37
1659969588.99363,1288951.8875383,37
1659969588.99363,1288951.8875463,46
1659969588.99363,1288951.8875514,44
1659969589.67129,1288951.8875572,46
1659969589.67129,1288951.8875611,37
1659969589.67129,1288951.8875649,34
1659969589.67129,1288951.8875687,178
1659969589.67129,1288951.8875725,514
1659969589.67129,1288951.8875763,811
1659969589.67129,1288951.8875801,688
1659969589.67129,1288951.8875842,104
1659969589.67129,1288951.8875891,-303
1659969589.67129,1288951.887592,-153
1659969589.67129,1288951.8875951,30
1659969589.67129,1288951.8875982,-44
1659969589.67129,1288951.8876014,-60
1659969589.67129,1288951.8876045,2
1659969589.67129,1288951.8876095,-16
1659969589.67129,1288951.8876125,-37
1659969589.67129,1288951.8876155,-16
1659969589.67129,1288951.8876193,-2
1659969589.67129,1288951.8876223,4
1659969589.67129,1288951.8876254,23
1659969589.67129,1288951.8876284,27
1659969589.67129,1288951.8876314,18
1659969589.67129,1288951.8876344,20
1659969589.67129,1288951.8876374,37
1659969589.67129,1288951.8876404,53
1659969589.67129,1288951.8876433,74
1659969589.67129,1288951.8876463,92
1659969589.67129,1288951.8876492,102
1659969589.67129,1288951.8876522,109
1659969589.67129,1288951.8876553,125
1659969589.67129,1288951.8876583,146
1659969589.67129,1288951.8876612,157
1659969589.67129,1288951.8876646,162
1659969589.67129,1288951.8876751,169
1659969589.67129,1288951.8876797,173
1659969589.67129,1288951.8876885,180
1659969589.67129,1288951.8876962,197
1659969589.67129,1288951.887702,199
1659969589.67129,1288951.8877068,173
1659969589.67129,1288951.8877121,129
1659969589.67129,1288951.8877166,90
1659969589.67129,1288951.8877217,69
1659969589.67129,1288951.8877276,62
1659969589.67129,1288951.8877327,64
1659969589.67129,1288951.8877366,74
1659969589.67129,1288951.8877419,81
1659969589.67129,1288951.8877469,81
1659969589.67129,1288951.8877515,85
1659969589.67129,1288951.8877573,92
1659969589.67129,1288951.8877609,97
1659969589.68227,1288951.887765,99
1659969589.68227,1288951.8877703,102
1659969589.68227,1288951.8877742,97
1659969589.68227,1288951.8877834,95
1659969589.68227,1288951.8877904,95
1659969589.68227,1288951.8877993,97
1659969589.68227,1288951.8878031,95
1659969589.68227,1288951.8878067,85
1659969589.68227,1288951.8878103,74
1659969589.68227,1288951.8878139,76
1659969589.68227,1288951.8878174,78
1659969589.68227,1288951.8878212,71
1659969589.68227,1288951.8878249,60
1659969589.68227,1288952.5703753,69
1659969589.68227,1288952.5703889,90
1659969589.68227,1288952.5703945,102
1659969589.68227,1288952.5704044,99
1659969589.68227,1288952.5704137,95
1659969589.68227,1288952.570427,78
1659969589.68227,1288952.570442,51
1659969589.68227,1288952.5704541,30
1659969589.68227,1288952.570462,23
1659969589.68227,1288952.5704686,6
1659969589.68227,1288952.5704751,4
1659969590.1017,1288952.5704818,13
1659969590.1017,1288952.5704891,6
1659969590.1017,1288952.5704982,44
1659969590.1017,1288952.5705054,257
1659969590.1017,1288952.5705127,586
1659969590.1017,1288952.5705182,744
1659969590.1017,1288952.5705237,438
1659969590.1017,1288952.5705313,-129
1659969590.1017,1288952.5705371,-285
1659969590.1017,1288952.5705466,-37
1659969590.1017,1288952.5705599,18
1659969590.1017,1288952.5705702,-74
1659969590.1017,1288952.5705784,-34
1659969590.1017,1288952.5705865,6
1659969590.1017,1288952.5705938,-16
1659969590.1017,1288952.5705977,-4
1659969590.1017,1288952.5706116,18
1659969590.1017,1288952.5706248,16
1659969590.1017,1288952.5706356,25
1659969590.1017,1288952.5706397,41
1659969590.1017,1288952.5706418,51
1659969590.1017,1288952.5706439,60
1659969590.1017,1288952.570646,71
1659969590.1017,1288952.5706537,81
1659969590.1017,1288952.5706645,88
1659969590.1017,1288952.5706694,92
1659969590.1017,1288952.5706714,102
1659969590.1017,1288952.5706737,120
1659969590.1017,1288952.5706767,134
1659969590.1017,1288952.5706895,146
1659969590.1017,1288952.5706954,157
1659969590.1017,1288952.5706976,169
1659969590.1017,1288952.5706997,173
1659969590.1017,1288952.5707017,180
1659969590.1017,1288952.5707042,197
1659969590.1017,1288952.5707143,208
1659969590.1017,1288952.5707228,208
1659969590.1017,1288952.5707254,199
1659969590.1017,1288952.5707275,171
1659969590.1017,1288952.5707296,127
1659969590.1017,1288952.5707355,97
1659969590.1017,1288952.5707469,81
1659969590.1017,1288952.5707522,64
1659969590.1017,1288952.5707545,62
1659969590.1017,1288952.5707567,69
1659969590.1017,1288952.5707587,76
1659969590.1017,1288952.570761,85
1659969590.1017,1288952.5707707,97
1659969590.1017,1288952.5707795,92
1659969590.1017,1288952.5707822,88
1659969590.11168,1288952.5707843,95
1659969590.11168,1288952.5707864,102
1659969590.11168,1288952.5707923,97
1659969590.11168,1288952.5708035,85
1659969590.11168,1288952.5708085,71
1659969590.11168,1288952.5708107,64
1659969590.11168,1288952.5708128,60
1659969590.11168,1288952.570815,51
1659969590.11168,1288952.5708171,53
1659969590.11168,1288952.5708247,60
1659969590.11168,1288952.5708353,60
1659969590.11168,1288952.5708389,60
1659969590.11168,1288953.0095412,67
1659969590.11168,1288953.0095597,71
1659969590.11168,1288953.0095679,76
1659969590.11168,1288953.0095751,97
1659969590.11168,1288953.0095799,113
1659969590.11168,1288953.0095848,104
1659969590.11168,1288953.0095898,92
1659969590.11168,1288953.0095947,74
1659969590.11168,1288953.0095993,53
1659969590.11168,1288953.0096034,48
1659969590.11168,1288953.0096093,53
1659969590.11168,1288953.0096154,46
1659969590.65206,1288953.0096197,39
1659969590.65206,1288953.0096238,39
1659969590.65206,1288953.0096277,32
1659969590.65206,1288953.0096319,104
1659969590.65206,1288953.0096363,366
1659969590.65206,1288953.0096407,714
1659969590.65206,1288953.0096451,795
1659969590.65206,1288953.0096491,366
1659969590.65206,1288953.0096534,-206
1659969590.65206,1288953.0096576,-259
1659969590.65206,1288953.0096617,6
1659969590.65206,1288953.0096656,32
1659969590.65206,1288953.0096699,-51
1659969590.65206,1288953.0096745,-6
1659969590.65206,1288953.0096786,11
1659969590.65206,1288953.009683,-18
1659969590.65206,1288953.0096878,-6
1659969590.65206,1288953.0096965,16
1659969590.65206,1288953.0097032,4
1659969590.65206,1288953.009708,-11
1659969590.65206,1288953.0097148,-2
1659969590.65206,1288953.0097215,18
1659969590.65206,1288953.0097264,30
1659969590.65206,1288953.0097329,37
1659969590.65206,1288953.0097376,46
1659969590.65206,1288953.0097443,46
1659969590.65206,1288953.0097509,53
1659969590.65206,1288953.0097554,76
1659969590.65206,1288953.0097602,90
1659969590.65206,1288953.0097656,104
1659969590.65206,1288953.0097722,125
1659969590.65206,1288953.0097768,136
1659969590.65206,1288953.0097817,146
1659969590.65206,1288953.0097881,160
1659969590.65206,1288953.0097948,171
1659969590.65206,1288953.0098006,180
1659969590.65206,1288953.0098072,190
1659969590.65206,1288953.0098216,192
1659969590.65206,1288953.0098284,183
1659969590.65206,1288953.0098329,150
1659969590.65206,1288953.0098376,106
1659969590.65206,1288953.0098422,76
1659969590.65206,1288953.0098469,62
1659969590.65206,1288953.0098517,55
1659969590.65206,1288953.0098564,48
1659969590.65206,1288953.0098617,44
1659969590.65206,1288953.0098686,39
1659969590.65206,1288953.0098735,44
1659969590.65206,1288953.0098785,48
1659969590.65206,1288953.0098833,53
1659969590.66801,1288953.0098881,64
1659969590.66801,1288953.0098932,67
1659969590.66801,1288953.0099,64
1659969590.66801,1288953.0099052,69
1659969590.66801,1288953.0099121,74
1659969590.66801,1288953.0099185,71
1659969590.66801,1288953.0099254,69
1659969590.66801,1288953.0099302,71
1659969590.66801,1288953.0099351,74
1659969590.66801,1288953.0099421,71
1659969590.66801,1288953.009949,71
1659969590.66801,1288953.5448772,71
1659969590.66801,1288953.5449364,81
1659969590.66801,1288953.5449511,92
1659969590.66801,1288953.5449585,90
1659969590.66801,1288953.5449649,85
1659969590.66801,1288953.5449702,99
1659969590.66801,1288953.5449758,113
1659969590.66801,1288953.5449794,122
1659969590.66801,1288953.5449829,111
1659969590.66801,1288953.544987,81
1659969590.66801,1288953.5449928,62
1659969590.66801,1288953.5449976,55
1659969590.66801,1288953.5450033,55
1659969591.27531,1288953.5450069,67
1659969591.27531,1288953.5450108,69
1659969591.27531,1288953.5450148,60
1659969591.27531,1288953.5450189,44
1659969591.27531,1288953.5450261,83
1659969591.27531,1288953.5450327,296
1659969591.27531,1288953.545039,658
1659969591.27531,1288953.5450473,892
1659969591.27531,1288953.5450538,616
1659969591.27531,1288953.5452163,-53
1659969591.27531,1288953.5452335,-315
1659969591.27531,1288953.5452392,-37
1659969591.27531,1288953.5452435,83
1659969591.27531,1288953.5452477,-18
1659969591.27531,1288953.5452516,4
1659969591.27531,1288953.5452555,55
1659969591.27531,1288953.5452592,34
1659969591.27531,1288953.5452629,34
1659969591.27531,1288953.5452668,67
1659969591.27531,1288953.5452719,81
1659969591.27531,1288953.5452756,83
1659969591.27531,1288953.5452794,95
1659969591.27531,1288953.545283,106
1659969591.27531,1288953.5452873,113
1659969591.27531,1288953.5452913,129
1659969591.27531,1288953.5452945,155
1659969591.27531,1288953.545298,166
1659969591.27531,1288953.5453045,169
1659969591.27531,1288953.5453075,185
1659969591.27531,1288953.5453104,204
1659969591.27531,1288953.5453144,220
1659969591.27531,1288953.545318,229
1659969591.27531,1288953.5453211,241
1659969591.27531,1288953.5453297,250
1659969591.27531,1288953.5453404,248
1659969591.27531,1288953.5453483,252
1659969591.27531,1288953.5453538,257
1659969591.27531,1288953.5453601,252

1659969591.27531,1288953.5453635,238
1659969591.27531,1288953.5453714,218
1659969591.27531,1288953.5453771,187
1659969591.27531,1288953.5453829,150
1659969591.27531,1288953.5453917,115
1659969591.27531,1288953.5453964,85
1659969591.27531,1288953.5454013,74
1659969591.27531,1288953.5454077,83
1659969591.27531,1288953.5454145,83
1659969591.27531,1288953.54542,78
1659969591.27531,1288953.5454255,95
1659969591.27531,1288953.5454339,111
1659969591.29226,1288953.5454393,109
1659969591.29226,1288953.545444,111
1659969591.29226,1288953.5454505,111
1659969591.29226,1288953.5454554,106
1659969591.29226,1288953.5454605,118
1659969591.29226,1288953.545464,122
1659969591.29226,1288953.5454693,115
1659969591.29226,1288953.545473,120
1659969591.29226,1288953.5454796,115
1659969591.29226,1288953.5454838,99
1659969591.29226,1288954.1797228,95
1659969591.29226,1288954.1797425,99
1659969591.29226,1288954.1797516,102
1659969591.29226,1288954.1797648,97
1659969591.29226,1288954.179772,95
1659969591.29226,1288954.1797773,83
1659969591.29226,1288954.1797845,60
1659969591.29226,1288954.1797965,69
1659969591.29226,1288954.1798096,99
1659969591.29226,1288954.1798198,97
1659969591.29226,1288954.1798272,83
1659969591.29226,1288954.1798409,57
1659969591.29226,1288954.1798497,4
1659969591.29226,1288954.1798629,-13
1659969591.85641,1288954.1798772,9
1659969591.85641,1288954.1798869,16
1659969591.85641,1288954.1798925,6
1659969591.85641,1288954.1798979,2
1659969591.85641,1288954.1799035,-4
1659969591.85641,1288954.1799105,11
1659969591.85641,1288954.1799161,164
1659969591.85641,1288954.1799226,496
1659969591.85641,1288954.1799281,793
1659969591.85641,1288954.1799368,693
1659969591.85641,1288954.1799482,127
1659969591.85641,1288954.1799608,-294
1659969591.85641,1288954.1799739,-141
1659969591.85641,1288954.1799834,55
1659969591.85641,1288954.1799901,-20
1659969591.85641,1288954.1799969,-39
1659969591.85641,1288954.1800055,25
1659969591.85641,1288954.18001,18
1659969591.85641,1288954.1800163,4
1659969591.85641,1288954.1800195,32
1659969591.85641,1288954.1800266,44
1659969591.85641,1288954.1800331,48
1659969591.85641,1288954.1800396,62
1659969591.85641,1288954.1800461,69
1659969591.85641,1288954.1800519,71
1659969591.85641,1288954.1800588,88
1659969591.85641,1288954.1800669,97
1659969591.85641,1288954.1800713,102
1659969591.85641,1288954.1800852,111
1659969591.85641,1288954.1800958,111
1659969591.85641,1288954.1801032,109
1659969591.85641,1288954.1801099,139
1659969591.85641,1288954.1801188,166
1659969591.85641,1288954.1801245,171
1659969591.85641,1288954.1801335,178
1659969591.85641,1288954.1801394,197
1659969591.85641,1288954.1801532,206
1659969591.85641,1288954.1801641,201
1659969591.85641,1288954.1801702,213
1659969591.85641,1288954.1801841,238
1659969591.85641,1288954.1801985,236
1659969591.85641,1288954.1802122,204
1659969591.85641,1288954.1802254,160
1659969591.85641,1288954.1802391,122
1659969591.85641,1288954.1802531,95
1659969591.85641,1288954.1802658,76
1659969591.85641,1288954.1802754,78
1659969591.85641,1288954.1802833,92
1659969591.85641,1288954.1802908,92
1659969591.85641,1288954.1802971,85
1659969591.86638,1288954.1803064,85
1659969591.86638,1288954.1803112,97
1659969591.86638,1288954.180318,104
1659969591.86638,1288954.1803313,111
1659969591.86638,1288954.1803382,109
1659969591.86638,1288954.1803525,92
1659969591.86638,1288954.1803655,90
1659969591.86638,1288954.1803797,102
1659969591.86638,1288954.1803938,95
1659969591.86638,1288954.7641175,76
1659969591.86638,1288954.7641351,67
1659969591.86638,1288954.7641421,67
1659969591.86638,1288954.7641464,67
1659969591.86638,1288954.7641517,64
1659969591.86638,1288954.7641553,64
1659969591.86638,1288954.76416,71
1659969591.86638,1288954.7641658,71
1659969591.86638,1288954.7641697,71
1659969591.86638,1288954.7641751,76
1659969591.86638,1288954.7641789,74
1659969591.86638,1288954.7641841,74
1659969591.86638,1288954.7641891,69
1659969591.86638,1288954.7641937,57
1659969591.86638,1288954.7641994,62
1659969592.39581,1288954.764203,62
1659969592.39581,1288954.7642081,57
1659969592.39581,1288954.7642119,69
1659969592.39581,1288954.7642159,60
1659969592.39581,1288954.7642195,25
1659969592.39581,1288954.764223,13
1659969592.39581,1288954.7642269,6
1659969592.39581,1288954.764231,0
1659969592.39581,1288954.7642348,11
1659969592.39581,1288954.7642388,16
1659969592.39581,1288954.7642425,9
1659969592.39581,1288954.7642461,69
1659969592.39581,1288954.7642498,280
1659969592.39581,1288954.7642536,579
1659969592.39581,1288954.7642572,718
1659969592.39581,1288954.7642609,401
1659969592.39581,1288954.7642646,-176
1659969592.39581,1288954.7642682,-331
1659969592.39581,1288954.7642717,-76
1659969592.39581,1288954.7642752,-9
1659969592.39581,1288954.7642791,-99
1659969592.39581,1288954.7642829,-71
1659969592.39581,1288954.7642864,-30
1659969592.39581,1288954.76429,-51
1659969592.39581,1288954.7642941,-51
1659969592.39581,1288954.7643113,-32
1659969592.39581,1288954.7643218,-20
1659969592.39581,1288954.7643265,-6
1659969592.39581,1288954.7643299,6
1659969592.39581,1288954.764333,16
1659969592.39581,1288954.764339,23
1659969592.39581,1288954.7643422,23
1659969592.39581,1288954.7643453,32
1659969592.39581,1288954.7643482,55
1659969592.39581,1288954.7643514,71
1659969592.39581,1288954.7643545,81
1659969592.39581,1288954.7643576,97
1659969592.39581,1288954.7643608,109
1659969592.39581,1288954.7643638,115
1659969592.39581,1288954.764367,132
1659969592.39581,1288954.7643703,153
1659969592.39581,1288954.7643735,157
1659969592.39581,1288954.7643767,160
1659969592.39581,1288954.76438,180
1659969592.39581,1288954.7643831,194
1659969592.39581,1288954.7643865,187
1659969592.39581,1288954.7643896,176
1659969592.39581,1288954.7643929,160
1659969592.39581,1288954.7643962,120
1659969592.39581,1288954.7643995,62
1659969592.40478,1288954.7644026,27
1659969592.40478,1288954.7644059,27
1659969592.40478,1288954.7644095,20
1659969592.40478,1288954.764415,4
1659969592.40478,1288954.764418,13
1659969592.40478,1288954.7644211,32
1659969592.40478,1288954.7644241,30
1659969592.40478,1288954.7644288,27
1659969592.40478,1288955.2998897,37
1659969592.40478,1288955.2999121,48
1659969592.40478,1288955.2999295,53
1659969592.40478,1288955.2999422,53
1659969592.40478,1288955.2999528,48
1659969592.40478,1288955.2999593,51
1659969592.40478,1288955.2999643,55
1659969592.40478,1288955.2999688,44
1659969592.40478,1288955.2999734,34
1659969592.40478,1288955.299978,39
1659969592.40478,1288955.2999827,44
1659969592.40478,1288955.2999873,27
1659969592.40478,1288955.2999933,6
1659969592.40478,1288955.3000022,11
1659969592.40478,1288955.3000078,23
1659969592.40478,1288955.3000147,27
1659969592.9322,1288955.3000195,27
1659969592.9322,1288955.3000244,13
1659969592.9322,1288955.3000294,-11
1659969592.9322,1288955.3000337,-20
1659969592.9322,1288955.3000385,-16
1659969592.9322,1288955.3000428,-16
1659969592.9322,1288955.3000466,-6
1659969592.9322,1288955.3000505,4
1659969592.9322,1288955.3000546,9
1659969592.9322,1288955.3000588,4
1659969592.9322,1288955.3000627,-6
1659969592.9322,1288955.3000686,-25
1659969592.9322,1288955.3000969,-41
1659969592.9322,1288955.3001076,-53
1659969592.9322,1288955.300121,-51
1659969592.9322,1288955.3001273,-44
1659969592.9322,1288955.3001304,-39
1659969592.9322,1288955.3001337,-32
1659969592.9322,1288955.3001473,53
1659969592.9322,1288955.3001538,317
1659969592.9322,1288955.300156,651
1659969592.9322,1288955.3001581,730
1659969592.9322,1288955.300164,313
1659969592.9322,1288955.3001755,-266
1659969592.9322,1288955.3001808,-331
1659969592.9322,1288955.3001833,-39
1659969592.9322,1288955.3001864,11
1659969592.9322,1288955.3001969,-71
1659969592.9322,1288955.3002047,-25
1659969592.9322,1288955.3002072,11
1659969592.9322,1288955.3002094,-6
1659969592.9322,1288955.300212,4
1659969592.9322,1288955.3002219,25
1659969592.9322,1288955.3002311,30
1659969592.9322,1288955.3002337,32
1659969592.9322,1288955.3002357,39
1659969592.9322,1288955.3002389,46
1659969592.9322,1288955.3002515,64
1659969592.9322,1288955.3002576,83
1659969592.9322,1288955.3002598,74
1659969592.9322,1288955.3002621,71
1659969592.9322,1288955.3002683,92
1659969592.9322,1288955.3002798,111
1659969592.9322,1288955.3002854,120
1659969592.9322,1288955.3002884,146
1659969592.9322,1288955.3002913,169
1659969592.9322,1288955.3003017,169
1659969592.9322,1288955.3003096,173
1659969592.9322,1288955.3003127,192
1659969592.9322,1288955.3003149,199
1659969592.94416,1288955.3003198,204
1659969592.94416,1288955.3003315,220
1659969592.94416,1288955.300337,227
1659969592.94416,1288955.3003402,211
1659969592.94416,1288955.3003485,183
1659969592.94416,1288955.3003611,141
1659969592.94416,1288955.3003755,99
1659969592.94416,1288955.8361135,67
1659969592.94416,1288955.8361268,55
1659969592.94416,1288955.8361311,55
1659969592.94416,1288955.8361351,51
1659969592.94416,1288955.8361374,53
1659969592.94416,1288955.8361399,69
1659969592.94416,1288955.8361422,81
1659969592.94416,1288955.8361446,76
1659969592.94416,1288955.836147,57
1659969592.94416,1288955.8361541,46
1659969592.94416,1288955.8361656,51
1659969592.94416,1288955.8361706,57
1659969592.94416,1288955.8361729,55
1659969592.94416,1288955.8361749,48
1659969592.94416,1288955.836177,32
1659969592.94416,1288955.8361791,2
1659969592.94416,1288955.8361812,-6
1659969593.46313,1288955.8361833,2
1659969593.46313,1288955.8361854,4
1659969593.46313,1288955.8361873,2
1659969593.46313,1288955.8361893,6
1659969593.46313,1288955.8361913,2
1659969593.46313,1288955.8361932,-6
1659969593.46313,1288955.8361952,9
1659969593.46313,1288955.8361971,16
1659969593.46313,1288955.8361992,4
1659969593.46313,1288955.8362013,6
1659969593.46313,1288955.8362032,20
1659969593.46313,1288955.8362052,27
1659969593.46313,1288955.836207,37
1659969593.46313,1288955.836209,46
1659969593.46313,1288955.8362109,32
1659969593.46313,1288955.8362128,9
1659969593.46313,1288955.8362147,2
1659969593.46313,1288955.8362226,2
1659969593.46313,1288955.8362247,6
1659969593.46313,1288955.836227,13
1659969593.46313,1288955.8362292,13
1659969593.46313,1288955.8362317,9
1659969593.46313,1288955.8362337,76
1659969593.46313,1288955.8362358,322
1659969593.46313,1288955.8362378,684
1659969593.46313,1288955.8362399,860
1659969593.46313,1288955.836242,524
1659969593.46313,1288955.8362441,-127
1659969593.46313,1288955.8362461,-333
1659969593.46313,1288955.8362482,-53
1659969593.46313,1288955.8362503,41
1659969593.46313,1288955.8362523,-51
1659969593.46313,1288955.8362545,-13
1659969593.46313,1288955.8362567,34
1659969593.46313,1288955.8362587,9
1659969593.46313,1288955.8362607,11
1659969593.46313,1288955.8362628,37
1659969593.46313,1288955.8362649,41
1659969593.46313,1288955.836267,46
1659969593.46313,1288955.8362691,57
1659969593.46313,1288955.8362711,69
1659969593.46313,1288955.8362733,81
1659969593.46313,1288955.8362754,85
1659969593.46313,1288955.8362776,88
1659969593.46313,1288955.8362796,106
1659969593.46313,1288955.8362816,122
1659969593.46313,1288955.8362836,132
1659969593.46313,1288955.8362857,146
1659969593.46313,1288955.8362877,164
1659969593.46313,1288955.8362898,178
1659969593.47309,1288955.8362918,187
1659969593.47309,1288955.8362939,199
1659969593.47309,1288955.836296,211
1659969593.47309,1288955.8362981,215
1659969593.47309,1288955.8363001,224
1659969593.47309,1288955.8363022,231
1659969593.47309,1288956.3720879,231
1659969593.47309,1288956.3721015,224
1659969593.47309,1288956.3721055,199
1659969593.47309,1288956.3721101,157
1659969593.47309,1288956.3721134,113
1659969593.47309,1288956.3721162,74
1659969593.47309,1288956.3721187,46
1659969593.47309,1288956.3721217,44
1659969593.47309,1288956.3721247,51
1659969593.47309,1288956.3721276,62
1659969593.47309,1288956.3721307,71
1659969593.47309,1288956.3721337,57
1659969593.47309,1288956.3721367,37
1659969593.47309,1288956.3721397,34
1659969593.47309,1288956.3721427,30
1659969593.47309,1288956.3721457,25
1659969593.47309,1288956.3721487,34
1659969593.47309,1288956.3721517,27
1659969594.10651,1288956.3721548,-2
1659969594.10651,1288956.3721578,-13
1659969594.10651,1288956.3721606,-2
1659969594.10651,1288956.3721635,-4
1659969594.10651,1288956.3721663,0
1659969594.10651,1288956.3721692,4
1659969594.10651,1288956.372172,-6
1659969594.10651,1288956.3721749,-13
1659969594.10651,1288956.3721779,2
1659969594.10651,1288956.3721808,9
1659969594.10651,1288956.3721835,6
1659969594.10651,1288956.3721858,11
1659969594.10651,1288956.3721881,18
1659969594.10651,1288956.3721904,27
1659969594.10651,1288956.3721927,46
1659969594.10651,1288956.3721949,60
1659969594.10651,1288956.3721972,48
1659969594.10651,1288956.3721994,18
1659969594.10651,1288956.3722016,0
1659969594.10651,1288956.3722036,0
1659969594.10651,1288956.3722057,0
1659969594.10651,1288956.3722077,4
1659969594.10651,1288956.3722097,11
1659969594.10651,1288956.3722118,4
1659969594.10651,1288956.3722139,18
1659969594.10651,1288956.3722161,153
1659969594.10651,1288956.37222,477
1659969594.10651,1288956.3722223,821
1659969594.10651,1288956.3722248,802
1659969594.10651,1288956.3722299,243
1659969594.10651,1288956.3722406,-299
1659969594.10651,1288956.3722465,-220
1659969594.10651,1288956.3722512,34
1659969594.10651,1288956.3722564,-11
1659969594.10651,1288956.3722625,-62
1659969594.10651,1288956.3722696,4
1659969594.10651,1288956.3722786,9
1659969594.10651,1288956.3722871,-13
1659969594.10651,1288956.3722909,9
1659969594.10651,1288956.3722944,30
1659969594.10651,1288956.3722977,30
1659969594.10651,1288956.3723011,41
1659969594.10651,1288956.3723047,53
1659969594.10651,1288956.3723083,53
1659969594.10651,1288956.3723135,55
1659969594.10651,1288956.3723175,67
1659969594.10651,1288956.3723225,83
1659969594.10651,1288956.3723262,99
1659969594.10651,1288956.3723297,106
1659969594.10651,1288956.3723347,118
1659969594.11549,1288956.3723382,134
1659969594.11549,1288956.3723434,143
1659969594.11549,1288956.3723481,153
1659969594.11549,1288956.3723518,166
1659969594.11549,1288956.3723586,173
1659969594.11549,1288957.0076714,176
1659969594.11549,1288957.0076925,185
1659969594.11549,1288957.0077072,192
1659969594.11549,1288957.0077176,204
1659969594.11549,1288957.0077271,208
1659969594.11549,1288957.0077322,180
1659969594.11549,1288957.0077395,134
1659969594.11549,1288957.007747,83
1659969594.11549,1288957.0077561,23
1659969594.11549,1288957.0077637,-16
1659969594.11549,1288957.007768,-13
1659969594.11549,1288957.0077711,-4
1659969594.11549,1288957.007774,-2
1659969594.11549,1288957.0077769,11
1659969594.11549,1288957.0077799,16
1659969594.11549,1288957.0077828,-2
1659969594.11549,1288957.0077858,-6
1659969594.11549,1288957.0077928,6
1659969594.11549,1288957.0078064,13
1659969594.78772,1288957.0078191,13
1659969594.78772,1288957.0078281,16
1659969594.78772,1288957.0078362,18
1659969594.78772,1288957.0078416,18
1659969594.78772,1288957.007846,18
1659969594.78772,1288957.0078501,16
1659969594.78772,1288957.0078545,18
1659969594.78772,1288957.0078586,23
1659969594.78772,1288957.0078626,27
1659969594.78772,1288957.0078665,23
1659969594.78772,1288957.0078704,18
1659969594.78772,1288957.0078744,23
1659969594.78772,1288957.0078823,32
1659969594.78772,1288957.007887,37
1659969594.78772,1288957.007891,32
1659969594.78772,1288957.0078931,27
1659969594.78772,1288957.0078961,25
1659969594.78772,1288957.0078987,23
1659969594.78772,1288957.007909,32
1659969594.78772,1288957.0079175,51
1659969594.78772,1288957.0079201,64
1659969594.78772,1288957.0079222,69
1659969594.78772,1288957.0079243,57
1659969594.78772,1288957.0079267,34
1659969594.78772,1288957.0079368,23
1659969594.78772,1288957.0079451,25
1659969594.78772,1288957.0079478,30
1659969594.78772,1288957.0079498,32
1659969594.78772,1288957.0079526,32
1659969594.78772,1288957.0079555,30
1659969594.78772,1288957.0079666,62
1659969594.78772,1288957.0079794,224
1659969594.78772,1288957.0079935,554
1659969594.78772,1288957.0080066,839
1659969594.78772,1288957.00802,712
1659969594.78772,1288957.0080334,118
1659969594.78772,1288957.0080473,-296
1659969594.78772,1288957.0080557,-120
1659969594.78772,1288957.0080582,81
1659969594.78772,1288957.0080603,2
1659969594.78772,1288957.0080624,-30
1659969594.78772,1288957.0080645,27
1659969594.78772,1288957.0080665,13
1659969594.78772,1288957.0080685,0
1659969594.78772,1288957.0080705,32
1659969594.78772,1288957.0080725,44
1659969594.78772,1288957.0080745,32
1659969594.78772,1288957.0080772,41
1659969594.78772,1288957.0080793,55
1659969594.78772,1288957.0080813,60
1659969594.79969,1288957.0080833,71
1659969594.79969,1288957.0080854,83
1659969594.79969,1288957.0080874,88
1659969594.79969,1288957.0080894,88
1659969594.79969,1288957.6887552,88
1659969594.79969,1288957.6887758,99
1659969594.79969,1288957.6887863,122
1659969594.79969,1288957.6887968,136
1659969594.79969,1288957.6888015,143
1659969594.79969,1288957.6888131,143
1659969594.79969,1288957.6888211,146
1659969594.79969,1288957.6888282,157
1659969594.79969,1288957.6888331,173
1659969594.79969,1288957.6888452,183
1659969594.79969,1288957.6888584,187
1659969594.79969,1288957.6888686,190
1659969594.79969,1288957.6888756,169
1659969594.79969,1288957.6888826,129
1659969594.79969,1288957.6888885,83
1659969594.79969,1288957.6888938,51
1659969594.79969,1288957.6888999,30
1659969594.79969,1288957.6889063,23
1659969594.79969,1288957.6889104,23
1659969594.79969,1288957.6889167,18
1659969595.18927,1288957.6889217,18
1659969595.18927,1288957.6889251,27
1659969595.18927,1288957.688929,32
1659969595.18927,1288957.6889329,23
1659969595.18927,1288957.6889365,11
1659969595.18927,1288957.6889405,6
1659969595.18927,1288957.6889459,16
1659969595.18927,1288957.6889521,18
1659969595.18927,1288957.6889578,13
1659969595.18927,1288957.6889651,13
1659969595.18927,1288957.6889734,-2
1659969595.18927,1288957.6889799,-25
1659969595.18927,1288957.6889936,-23
1659969595.18927,1288957.6890056,-13
1659969595.18927,1288957.6890145,-11
1659969595.18927,1288957.689022,-9
1659969595.18927,1288957.689029,0
1659969595.18927,1288957.6890349,2
1659969595.18927,1288957.6890424,0
1659969595.18927,1288957.6890474,2
1659969595.18927,1288957.6890534,6
1659969595.18927,1288957.6890608,4
1659969595.18927,1288957.6890659,2
1659969595.18927,1288957.6890722,-4
1659969595.18927,1288957.6890809,-9
1659969595.18927,1288957.6890858,-6
1659969595.18927,1288957.6890993,-9
1659969595.18927,1288957.6891083,-6
1659969595.18927,1288957.6891165,6
1659969595.18927,1288957.6891269,16
1659969595.18927,1288957.6891333,25
1659969595.18927,1288957.6891371,41
1659969595.18927,1288957.6891408,25
1659969595.18927,1288957.6891444,-2
1659969595.18927,1288957.6891481,-4
1659969595.18927,1288957.6891535,-2
1659969595.18927,1288957.6891587,-4
1659969595.18927,1288957.6891641,6
1659969595.18927,1288957.689168,13
1659969595.18927,1288957.6891731,9
1659969595.18927,1288957.6891779,83
1659969595.18927,1288957.6891815,343
1659969595.18927,1288957.6891864,709
1659969595.18927,1288957.6891937,876
1659969595.18927,1288957.6892066,517
1659969595.18927,1288957.6892205,-157
1659969595.18927,1288957.6892348,-357
1659969595.18927,1288957.6892472,-48
1659969595.18927,1288957.6892574,46
1659969595.18927,1288957.6892735,-62
1659969595.20024,1288957.6892799,-23
1659969595.20024,1288957.6892937,32
1659969595.20024,1288957.6893057,9
1659969595.20024,1288958.078116,20
1659969595.20024,1288958.0781328,48
1659969595.20024,1288958.0781386,41
1659969595.20024,1288958.0781466,44
1659969595.20024,1288958.0781514,69
1659969595.20024,1288958.0781561,81
1659969595.20024,1288958.0781624,90
1659969595.20024,1288958.0781669,106
1659969595.20024,1288958.0781714,113
1659969595.20024,1288958.0781759,111
1659969595.20024,1288958.0781805,118
1659969595.20024,1288958.0781848,134
1659969595.20024,1288958.0781894,150
1659969595.20024,1288958.078194,169
1659969595.20024,1288958.0782004,176
1659969595.20024,1288958.0782065,166
1659969595.20024,1288958.0782113,173
1659969595.20024,1288958.0782201,199
1659969595.20024,1288958.078226,211
1659969595.20024,1288958.0782303,213
1659969595.20024,1288958.0782358,218
1659969595.71025,1288958.0782401,213
1659969595.71025,1288958.0782443,201
1659969595.71025,1288958.0782483,185
1659969595.71025,1288958.0782524,148
1659969595.71025,1288958.0782565,104
1659969595.71025,1288958.0782608,76
1659969595.71025,1288958.0782653,55
1659969595.71025,1288958.0782697,51
1659969595.71025,1288958.0782742,62
1659969595.71025,1288958.0782787,71
1659969595.71025,1288958.0782851,78
1659969595.71025,1288958.0782895,83
1659969595.71025,1288958.0782943,85
1659969595.71025,1288958.0783011,85
1659969595.71025,1288958.0783057,88
1659969595.71025,1288958.0783101,90
1659969595.71025,1288958.0783147,97
1659969595.71025,1288958.0783192,102
1659969595.71025,1288958.0783239,97
1659969595.71025,1288958.0783304,85
1659969595.71025,1288958.0783349,85
1659969595.71025,1288958.0783394,83
1659969595.71025,1288958.0783439,76
1659969595.71025,1288958.0783491,71
1659969595.71025,1288958.0783554,69
1659969595.71025,1288958.078362,67
1659969595.71025,1288958.0783668,71
1659969595.71025,1288958.0783715,83
1659969595.71025,1288958.0783759,90
1659969595.71025,1288958.0783804,90
1659969595.71025,1288958.0783851,92
1659969595.71025,1288958.0783911,83
1659969595.71025,1288958.0784194,71
1659969595.71025,1288958.0784337,78
1659969595.71025,1288958.0784407,95
1659969595.71025,1288958.0786806,99
1659969595.71025,1288958.0786859,88
1659969595.71025,1288958.0786898,67
1659969595.71025,1288958.0786934,51
1659969595.71025,1288958.0786979,41
1659969595.71025,1288958.0787013,39
1659969595.71025,1288958.0787068,44
1659969595.71025,1288958.078713,44
1659969595.71025,1288958.0787169,48
1659969595.71025,1288958.0787207,55
1659969595.71025,1288958.0787244,74
1659969595.71025,1288958.078728,224
1659969595.71025,1288958.0787329,577
1659969595.71025,1288958.0787364,897
1659969595.71025,1288958.0787403,760
1659969595.72023,1288958.0787442,115
1659969595.72023,1288958.078748,-336
1659969595.72023,1288958.6165542,-148
1659969595.72023,1288958.6165709,76
1659969595.72023,1288958.616586,-13
1659969595.72023,1288958.6165985,-44
1659969595.72023,1288958.6166059,30
1659969595.72023,1288958.61661,16
1659969595.72023,1288958.6166155,-4
1659969595.72023,1288958.6166215,30
1659969595.72023,1288958.6166266,39
1659969595.72023,1288958.6166334,30
1659969595.72023,1288958.6166373,37
1659969595.72023,1288958.6166425,30
1659969595.72023,1288958.6166479,16
1659969595.72023,1288958.6166547,25
1659969595.72023,1288958.6166628,34
1659969595.72023,1288958.6166769,46
1659969595.72023,1288958.6166873,60
1659969595.72023,1288958.6166947,60
1659969595.72023,1288958.6167025,57
1659969595.72023,1288958.61671,67
1659969595.72023,1288958.6167184,81
1659969595.72023,1288958.6167273,95
1659969596.29825,1288958.6167317,111
1659969596.29825,1288958.6167368,120
1659969596.29825,1288958.6167438,120
1659969596.29825,1288958.6167509,127
1659969596.29825,1288958.6167608,132
1659969596.29825,1288958.6167694,139
1659969596.29825,1288958.616779,143
1659969596.29825,1288958.616787,129
1659969596.29825,1288958.616793,92
1659969596.29825,1288958.6168044,53
1659969596.29825,1288958.6168152,23
1659969596.29825,1288958.6168262,13
1659969596.29825,1288958.6168354,16
1659969596.29825,1288958.6168449,18
1659969596.29825,1288958.616857,23
1659969596.29825,1288958.6168683,27
1659969596.29825,1288958.6168774,32
1659969596.29825,1288958.6168875,37
1659969596.29825,1288958.6168933,39
1659969596.29825,1288958.6168957,46
1659969596.29825,1288958.6168978,55
1659969596.29825,1288958.6168998,51
1659969596.29825,1288958.6169019,48
1659969596.29825,1288958.616904,53
1659969596.29825,1288958.616906,57
1659969596.29825,1288958.6169081,55
1659969596.29825,1288958.6169101,53
1659969596.29825,1288958.6169121,46
1659969596.29825,1288958.6169151,32
1659969596.29825,1288958.6169171,27
1659969596.29825,1288958.6169198,41
1659969596.29825,1288958.6169219,48
1659969596.29825,1288958.6169241,46
1659969596.29825,1288958.6169262,46
1659969596.29825,1288958.6169283,44
1659969596.29825,1288958.6169303,39
1659969596.29825,1288958.6169323,37
1659969596.29825,1288958.6169343,46
1659969596.29825,1288958.6169365,57
1659969596.29825,1288958.6169385,55
1659969596.29825,1288958.6169405,64
1659969596.29825,1288958.6169433,64
1659969596.29825,1288958.6169453,39
1659969596.29825,1288958.616948,20
1659969596.29825,1288958.6169506,13
1659969596.29825,1288958.6169528,13
1659969596.29825,1288958.616955,20
1659969596.29825,1288958.616957,23
1659969596.29825,1288958.6169591,11
1659969596.29825,1288958.6169611,55
1659969596.31021,1288958.6169631,280
1659969596.31021,1288959.2000752,663
1659969596.31021,1288959.2000985,885
1659969596.31021,1288959.2001081,575
1659969596.31021,1288959.2001162,-90
1659969596.31021,1288959.2001207,-340
1659969596.31021,1288959.200126,-62
1659969596.31021,1288959.2001301,74
1659969596.31021,1288959.2001355,-30
1659969596.31021,1288959.2001418,-37
1659969596.31021,1288959.2001476,2
1659969596.31021,1288959.2001531,-11
1659969596.31021,1288959.2001591,-9
1659969596.31021,1288959.2001631,4
1659969596.31021,1288959.2001667,-2
1659969596.31021,1288959.2001704,-9
1659969596.31021,1288959.2001739,-6
1659969596.31021,1288959.2001774,-4
1659969596.31021,1288959.200181,-2
1659969596.31021,1288959.2001865,9
1659969596.31021,1288959.2001919,34
1659969596.31021,1288959.2001967,51
1659969596.31021,1288959.2002021,46
1659969596.31021,1288959.2002076,53
1659969596.8314,1288959.2002128,97
1659969596.8314,1288959.2002176,136
1659969596.8314,1288959.2002219,132
1659969596.8314,1288959.2002257,113
1659969596.8314,1288959.2002294,125
1659969596.8314,1288959.200233,146
1659969596.8314,1288959.2002367,143
1659969596.8314,1288959.2002405,146
1659969596.8314,1288959.2002442,180
1659969596.8314,1288959.2002478,204
1659969596.8314,1288959.2002516,185
1659969596.8314,1288959.2002554,155
1659969596.8314,1288959.2002592,132
1659969596.8314,1288959.2002626,99
1659969596.8314,1288959.2002659,76
1659969596.8314,1288959.2002693,64
1659969596.8314,1288959.2002737,51
1659969596.8314,1288959.2002776,46
1659969596.8314,1288959.2002811,48
1659969596.8314,1288959.2002846,44
1659969596.8314,1288959.2002881,41
1659969596.8314,1288959.2002924,46
1659969596.8314,1288959.2002961,37
1659969596.8314,1288959.2002998,25
1659969596.8314,1288959.2003033,48
1659969596.8314,1288959.2003071,55
1659969596.8314,1288959.2003133,39
1659969596.8314,1288959.2003379,55
1659969596.8314,1288959.2003502,76
1659969596.8314,1288959.2003565,57
1659969596.8314,1288959.2003632,41
1659969596.8314,1288959.2003698,51
1659969596.8314,1288959.2003789,44
1659969596.8314,1288959.2003852,25
1659969596.8314,1288959.2003911,30
1659969596.8314,1288959.2003966,44
1659969596.8314,1288959.2004017,37
1659969596.8314,1288959.2004062,32
1659969596.8314,1288959.2004109,51
1659969596.8314,1288959.2004158,67
1659969596.8314,1288959.200421,48
1659969596.8314,1288959.2004262,46
1659969596.8314,1288959.2004332,69
1659969596.8314,1288959.2004446,67
1659969596.8314,1288959.2004526,51
1659969596.8314,1288959.2004577,48
1659969596.8314,1288959.2004624,30
1659969596.8314,1288959.2004687,2
1659969596.8314,1288959.2004724,16
1659969596.8314,1288959.2004761,41
1659969596.84237,1288959.7356704,25
1659969596.84237,1288959.7356875,16
1659969596.84237,1288959.735694,32
1659969596.84237,1288959.7357007,34
1659969596.84237,1288959.7357066,57
1659969596.84237,1288959.7357121,201
1659969596.84237,1288959.7357179,482
1659969596.84237,1288959.7357233,691
1659969596.84237,1288959.7357291,487
1659969596.84237,1288959.7357345,-62
1659969596.84237,1288959.7357408,-327
1659969596.84237,1288959.7357454,-146
1659969596.84237,1288959.7357513,2
1659969596.84237,1288959.7357557,-6
1659969596.84237,1288959.7357613,0
1659969596.84237,1288959.7357653,20
1659969596.84237,1288959.7357708,11
1659969596.84237,1288959.7357754,-6
1659969596.84237,1288959.7357795,-23
1659969596.84237,1288959.7357833,-13
1659969596.84237,1288959.7357874,2
1659969596.84237,1288959.7357928,-4
1659969596.84237,1288959.7357974,-13
1659969596.84237,1288959.7358029,0
1659969597.41962,1288959.7358075,44
1659969597.41962,1288959.7358115,64
1659969597.41962,1288959.7358153,51
1659969597.41962,1288959.7358192,62
1659969597.41962,1288959.735823,104
1659969597.41962,1288959.7358268,120
1659969597.41962,1288959.7358305,118
1659969597.41962,1288959.7358341,150
1659969597.41962,1288959.7358381,180
1659969597.41962,1288959.7358479,178
1659969597.41962,1288959.7358552,169
1659969597.41962,1288959.7358639,178
1659969597.41962,1288959.7358737,229
1659969597.41962,1288959.7358818,287
1659969597.41962,1288959.735887,306
1659969597.41962,1288959.7358927,308
1659969597.41962,1288959.7358962,296
1659969597.41962,1288959.7359068,248
1659969597.41962,1288959.7359114,173
1659969597.41962,1288959.7359232,141
1659969597.41962,1288959.7359299,162
1659969597.41962,1288959.7359375,183
1659969597.41962,1288959.7359459,183
1659969597.41962,1288959.7359549,162
1659969597.41962,1288959.735962,120
1659969597.41962,1288959.7359659,118
1659969597.41962,1288959.7359713,173
1659969597.41962,1288959.7359846,192
1659969597.41962,1288959.7359929,143
1659969597.41962,1288959.7359991,120
1659969597.41962,1288959.7360042,136
1659969597.41962,1288959.7360102,157
1659969597.41962,1288959.736017,173
1659969597.41962,1288959.7360674,162
1659969597.41962,1288959.7360798,141
1659969597.41962,1288959.7360877,129
1659969597.41962,1288959.7360918,125
1659969597.41962,1288959.7360984,125
1659969597.41962,1288959.7361053,129
1659969597.41962,1288959.7361135,132
1659969597.41962,1288959.7361209,125
1659969597.41962,1288959.7361284,125
1659969597.41962,1288959.7361353,132
1659969597.41962,1288959.7361398,129
1659969597.41962,1288959.736145,125
1659969597.41962,1288959.7361484,134
1659969597.41962,1288959.736152,146
1659969597.41962,1288959.7361573,153
1659969597.41962,1288959.7361633,155
1659969597.41962,1288960.321385,136
1659969597.42959,1288960.321402,109
1659969597.42959,1288960.3214074,97
1659969597.42959,1288960.3214139,102
1659969597.42959,1288960.3214181,99
1659969597.42959,1288960.3214231,88
1659969597.42959,1288960.3214279,81
1659969597.42959,1288960.3214336,83
1659969597.42959,1288960.3214387,148
1659969597.42959,1288960.3214426,373
1659969597.42959,1288960.3214465,679
1659969597.42959,1288960.3214517,725
1659969597.42959,1288960.3214553,278
1659969597.42959,1288960.3214591,-262
1659969597.42959,1288960.3214644,-296
1659969597.42959,1288960.3214681,-41
1659969597.42959,1288960.3214731,2
1659969597.42959,1288960.321477,-62
1659969597.42959,1288960.3214825,-30
1659969597.42959,1288960.3214865,9
1659969597.42959,1288960.3214904,-6
1659969597.42959,1288960.3214941,-9
1659969597.42959,1288960.321498,9
1659969597.42959,1288960.3215033,11
1659969597.42959,1288960.3215069,11
1659969598.09824,1288960.3215118,27
1659969598.09824,1288960.3215156,34
1659969598.09824,1288960.3215191,25
1659969598.09824,1288960.3215227,23
1659969598.09824,1288960.3215263,39
1659969598.09824,1288960.3215298,53
1659969598.09824,1288960.3215335,64
1659969598.09824,1288960.3215391,76
1659969598.09824,1288960.3215429,83
1659969598.09824,1288960.3215465,71
1659969598.09824,1288960.32155,71
1659969598.09824,1288960.3215538,97
1659969598.09824,1288960.3215574,118
1659969598.09824,1288960.3215614,113
1659969598.09824,1288960.3215672,104
1659969598.09824,1288960.3215712,109
1659969598.09824,1288960.3215767,127
1659969598.09824,1288960.3215814,136
1659969598.09824,1288960.3215852,122
1659969598.09824,1288960.3215889,99
1659969598.09824,1288960.3215926,74
1659969598.09824,1288960.3215978,32
1659969598.09824,1288960.3216019,-6
1659969598.09824,1288960.3216069,-13
1659969598.09824,1288960.3216106,-6
1659969598.09824,1288960.3216143,-9
1659969598.09824,1288960.3216182,0
1659969598.09824,1288960.3216237,13
1659969598.09824,1288960.3216281,13
1659969598.09824,1288960.3216333,20
1659969598.09824,1288960.3216372,34
1659969598.09824,1288960.3216426,27
1659969598.09824,1288960.3216463,18
1659969598.09824,1288960.3216513,27
1659969598.09824,1288960.3216551,27
1659969598.09824,1288960.3216602,18
1659969598.09824,1288960.3216638,20
1659969598.09824,1288960.3216688,18
1659969598.09824,1288960.3216727,13
1659969598.09824,1288960.321678,16
1659969598.09824,1288960.3216819,13
1659969598.09824,1288960.321687,9
1659969598.09824,1288960.321691,13
1659969598.09824,1288960.3216964,13
1659969598.09824,1288960.3217002,20
1659969598.09824,1288960.3217054,34
1659969598.09824,1288960.3217093,30
1659969598.09824,1288960.3217145,20
1659969598.09824,1288961.0035015,13
1659969598.09824,1288961.0035242,-6
1659969598.11519,1288961.00353,-32
1659969598.11519,1288961.0035343,-39
1659969598.11519,1288961.0035381,-51
1659969598.11519,1288961.0035431,-81
1659969598.11519,1288961.0035496,-95
1659969598.11519,1288961.0035537,-95
1659969598.11519,1288961.0035576,-74
1659969598.11519,1288961.0035622,62
1659969598.11519,1288961.0035681,357
1659969598.11519,1288961.0035743,633
1659969598.11519,1288961.0035786,563
1659969598.11519,1288961.0035849,48
1659969598.11519,1288961.0035886,-396
1659969598.11519,1288961.0035923,-285
1659969598.11519,1288961.003596,-55
1659969598.11519,1288961.0035999,-99
1659969598.11519,1288961.0036064,-136
1659969598.11519,1288961.0036107,-74
1659969598.11519,1288961.0036164,-76
1659969598.11519,1288961.0036206,-106
1659969598.11519,1288961.0036245,-81
1659969598.11519,1288961.0036302,-57
1659969598.11519,1288961.0036344,-64
1659969598.11519,1288961.00364,-57
1659969598.54128,1288961.0036441,-37
1659969598.54128,1288961.003648,-25
1659969598.54128,1288961.0036519,-16
1659969598.54128,1288961.0036557,-2
1659969598.54128,1288961.0036596,0
1659969598.54128,1288961.0036641,9
1659969598.54128,1288961.0036679,32
1659969598.54128,1288961.003672,57
1659969598.54128,1288961.0036758,67
1659969598.54128,1288961.0036796,74
1659969598.54128,1288961.0036836,90
1659969598.54128,1288961.0036876,111
1659969598.54128,1288961.0036933,127
1659969598.54128,1288961.003697,134
1659969598.54128,1288961.0037011,134
1659969598.54128,1288961.0037069,148
1659969598.54128,1288961.0037117,164
1659969598.54128,1288961.0037176,160
1659969598.54128,1288961.0037231,136
1659969598.54128,1288961.0037274,111
1659969598.54128,1288961.0037315,71
1659969598.54128,1288961.0037371,39
1659969598.54128,1288961.003742,32
1659969598.54128,1288961.0037475,30
1659969598.54128,1288961.0037513,23
1659969598.54128,1288961.0037551,25
1659969598.54128,1288961.0037591,34
1659969598.54128,1288961.0037649,39
1659969598.54128,1288961.0037689,41
1659969598.54128,1288961.0037731,46
1659969598.54128,1288961.003779,48
1659969598.54128,1288961.003783,53
1659969598.54128,1288961.0037889,55
1659969598.54128,1288961.0037942,57
1659969598.54128,1288961.0038,57
1659969598.54128,1288961.0038039,51
1659969598.54128,1288961.0038081,41
1659969598.54128,1288961.0038123,34
1659969598.54128,1288961.0038179,34
1659969598.54128,1288961.0038218,34
1659969598.54128,1288961.0038256,34
1659969598.54128,1288961.0038311,44
1659969598.54128,1288961.0038357,55
1659969598.54128,1288961.0038397,62
1659969598.54128,1288961.0038453,76
1659969598.54128,1288961.0038492,92
1659969598.54128,1288961.0038549,92
1659969598.54128,1288961.442109,71
1659969598.54128,1288961.4421224,44
1659969598.54128,1288961.4421263,25
1659969598.55225,1288961.4421286,23
1659969598.55225,1288961.4421308,25
1659969598.55225,1288961.4421329,27
1659969598.55225,1288961.442135,20
1659969598.55225,1288961.4421371,11
1659969598.55225,1288961.4421391,55
1659969598.55225,1288961.4421412,262
1659969598.55225,1288961.4421433,596
1659969598.55225,1288961.4421454,795
1659969598.55225,1288961.4421494,538
1659969598.55225,1288961.4421612,-64
1659969598.55225,1288961.4421669,-324
1659969598.55225,1288961.4421767,-102
1659969598.55225,1288961.4421878,0
1659969598.55225,1288961.4422011,-85
1659969598.55225,1288961.4422099,-57
1659969598.55225,1288961.4422139,-6
1659969598.55225,1288961.442216,-34
1659969598.55225,1288961.442225,-46
1659969598.55225,1288961.4422356,-20
1659969598.55225,1288961.4422392,-11
1659969598.55225,1288961.4422428,-9
1659969598.55225,1288961.4422449,6
1659969598.55225,1288961.4422474,6
1659969599.11921,1288961.4422579,-9
1659969599.11921,1288961.4422643,-6

1659969599.11921,1288961.4422744,11
1659969599.11921,1288961.4422849,30
1659969599.11921,1288961.4422968,44
1659969599.11921,1288961.4423055,51
1659969599.11921,1288961.4423134,48
1659969599.11921,1288961.4423204,53
1659969599.11921,1288961.4423294,71
1659969599.11921,1288961.442338,90
1659969599.11921,1288961.4423458,102
1659969599.11921,1288961.4423528,115
1659969599.11921,1288961.4423612,120
1659969599.11921,1288961.4423661,118
1659969599.11921,1288961.4423697,134
1659969599.11921,1288961.4423833,153
1659969599.11921,1288961.4423957,143
1659969599.11921,1288961.4424056,113
1659969599.11921,1288961.442418,76
1659969599.11921,1288961.4424236,39
1659969599.11921,1288961.4424356,18
1659969599.11921,1288961.4424403,6
1659969599.11921,1288961.4424449,11
1659969599.11921,1288961.4424498,20
1659969599.11921,1288961.4424543,27
1659969599.11921,1288961.442459,32
1659969599.11921,1288961.4424637,34
1659969599.11921,1288961.4424699,37
1659969599.11921,1288961.4424737,41
1659969599.11921,1288961.4424777,44
1659969599.11921,1288961.4424837,51
1659969599.11921,1288961.4424877,57
1659969599.11921,1288961.4424932,51
1659969599.11921,1288961.442497,41
1659969599.11921,1288961.4425024,48
1659969599.11921,1288961.4425062,57
1659969599.11921,1288961.44251,48
1659969599.11921,1288961.4425155,53
1659969599.11921,1288961.4425214,69
1659969599.11921,1288961.4425255,55
1659969599.11921,1288961.442531,41
1659969599.11921,1288961.4425345,76
1659969599.11921,1288961.4425392,113
1659969599.11921,1288961.4425614,109
1659969599.11921,1288961.4425746,99
1659969599.11921,1288961.4425881,99
1659969599.11921,1288962.0270849,88
1659969599.11921,1288962.0271022,57
1659969599.11921,1288962.027107,46
1659969599.11921,1288962.0271128,69
1659969599.13018,1288962.0271184,81
1659969599.13018,1288962.0271247,57
1659969599.13018,1288962.0271296,51
1659969599.13018,1288962.0271372,148
1659969599.13018,1288962.0271434,403
1659969599.13018,1288962.0271502,735
1659969599.13018,1288962.0271554,853
1659969599.13018,1288962.0271623,433
1659969599.13018,1288962.0271677,-169
1659969599.13018,1288962.0271808,-220
1659969599.13018,1288962.027193,48
1659969599.13018,1288962.0272029,62
1659969599.13018,1288962.0272114,-4
1659969599.13018,1288962.0272231,27
1659969599.13018,1288962.027235,27
1659969599.13018,1288962.0272449,9
1659969599.13018,1288962.027252,30
1659969599.13018,1288962.0272653,30
1659969599.13018,1288962.0272761,20
1659969599.13018,1288962.0272861,46
1659969599.13018,1288962.0273,78
1659969599.13018,1288962.0273097,76
1659969599.13018,1288962.0273158,74
1659969599.13018,1288962.0273301,88
1659969599.66907,1288962.0273347,99
1659969599.66907,1288962.0273383,111
1659969599.66907,1288962.0273419,125
1659969599.66907,1288962.0273454,132
1659969599.66907,1288962.027349,150
1659969599.66907,1288962.0273527,171
1659969599.66907,1288962.0273562,180
1659969599.66907,1288962.0273595,204
1659969599.66907,1288962.0273631,213
1659969599.66907,1288962.0273666,201
1659969599.66907,1288962.0273704,197
1659969599.66907,1288962.027374,194
1659969599.66907,1288962.0273775,218
1659969599.66907,1288962.0273811,245
1659969599.66907,1288962.0273845,218
1659969599.66907,1288962.0273877,148
1659969599.66907,1288962.0273911,69
1659969599.66907,1288962.0273944,37
1659969599.66907,1288962.0273976,51
1659969599.66907,1288962.0274009,46
1659969599.66907,1288962.0274042,37
1659969599.66907,1288962.0274077,39
1659969599.66907,1288962.0274111,30
1659969599.66907,1288962.0274143,25
1659969599.66907,1288962.0274177,32
1659969599.66907,1288962.027421,71
1659969599.66907,1288962.0274244,104
1659969599.66907,1288962.0274278,67
1659969599.66907,1288962.0274311,34
1659969599.66907,1288962.0274344,44
1659969599.66907,1288962.0274377,39
1659969599.66907,1288962.027441,30
1659969599.66907,1288962.0274444,30
1659969599.66907,1288962.0274476,27
1659969599.66907,1288962.0274508,2
1659969599.66907,1288962.027454,13
1659969599.66907,1288962.0274575,48
1659969599.66907,1288962.027461,32
1659969599.66907,1288962.0274644,30
1659969599.66907,1288962.0274678,62
1659969599.66907,1288962.0274713,64
1659969599.66907,1288962.0274746,48
1659969599.66907,1288962.0274781,51
1659969599.66907,1288962.0274814,62
1659969599.66907,1288962.0274847,34
1659969599.66907,1288962.5638018,-18
1659969599.66907,1288962.5638214,-18
1659969599.66907,1288962.5638354,9
1659969599.66907,1288962.5638487,-18
1659969599.66907,1288962.5638574,-41
1659969599.68431,1288962.5638601,-6
1659969599.68431,1288962.5638623,-4
1659969599.68431,1288962.5638645,11
1659969599.68431,1288962.5638665,231
1659969599.68431,1288962.5638686,603
1659969599.68431,1288962.5638706,767
1659969599.68431,1288962.5638726,391
1659969599.68431,1288962.5638746,-224
1659969599.68431,1288962.5638766,-343
1659969599.68431,1288962.5638787,-88
1659969599.68431,1288962.5638811,-67
1659969599.68431,1288962.5638912,-150
1659969599.68431,1288962.5639049,-90
1659969599.68431,1288962.5639182,-37
1659969599.68431,1288962.5639315,-55
1659969599.68431,1288962.5639446,-78
1659969599.68431,1288962.5639572,-95
1659969599.68431,1288962.5639667,-97
1659969599.68431,1288962.5639717,-85
1659969599.68431,1288962.5639818,-46
1659969599.68431,1288962.5639877,-4
1659969599.68431,1288962.5639898,-18
1659969599.68431,1288962.5639919,-32
1659969599.68431,1288962.563994,4
1659969600.19756,1288962.563996,37
1659969600.19756,1288962.563998,55
1659969600.19756,1288962.5639999,71
1659969600.19756,1288962.5640018,60
1659969600.19756,1288962.5640043,51
1659969600.19756,1288962.5640143,92
1659969600.19756,1288962.5640211,134
1659969600.19756,1288962.5640253,111
1659969600.19756,1288962.5640273,95
1659969600.19756,1288962.5640311,127
1659969600.19756,1288962.56404,134
1659969600.19756,1288962.5640529,129
1659969600.19756,1288962.5640624,146
1659969600.19756,1288962.5640695,120
1659969600.19756,1288962.5640746,60
1659969600.19756,1288962.5640837,18
1659969600.19756,1288962.5640892,-6
1659969600.19756,1288962.5640958,-30
1659969600.19756,1288962.5641011,-37
1659969600.19756,1288962.5641075,-37
1659969600.19756,1288962.5641127,-34
1659969600.19756,1288962.5641173,-4
1659969600.19756,1288962.5641192,6
1659969600.19756,1288962.5641217,-32
1659969600.19756,1288962.5641238,-37
1659969600.19756,1288962.5641259,25
1659969600.19756,1288962.5641286,44
1659969600.19756,1288962.5641307,-13
1659969600.19756,1288962.5641328,-48
1659969600.19756,1288962.5641349,-18
1659969600.19756,1288962.564137,2
1659969600.19756,1288962.5641392,-13
1659969600.19756,1288962.5641412,-34
1659969600.19756,1288962.5641433,-30
1659969600.19756,1288962.5641452,11
1659969600.19756,1288962.5641472,46
1659969600.19756,1288962.5641492,13
1659969600.19756,1288962.5641512,-18
1659969600.19756,1288962.5641539,11
1659969600.19756,1288962.564156,23
1659969600.19756,1288962.5641586,11
1659969600.19756,1288962.5641607,25
1659969600.19756,1288962.5641627,4
1659969600.19756,1288962.5641648,-27
1659969600.19756,1288963.1025609,-4
1659969600.19756,1288963.1025846,9
1659969600.19756,1288963.1025943,-11
1659969600.19756,1288963.1026012,-11
1659969600.19756,1288963.1026099,-9
1659969600.19756,1288963.102614,9
1659969600.20753,1288963.1026172,180
1659969600.20753,1288963.1026221,531
1659969600.20753,1288963.1026282,807
1659969600.20753,1288963.1026315,658
1659969600.20753,1288963.1026378,44
1659969600.20753,1288963.1026424,-385
1659969600.20753,1288963.1026465,-173
1659969600.20753,1288963.1026516,57
1659969600.20753,1288963.1026552,-46
1659969600.20753,1288963.1026615,-74
1659969600.20753,1288963.1026735,0
1659969600.20753,1288963.1026864,-30
1659969600.20753,1288963.1026959,-67
1659969600.20753,1288963.1027018,-32
1659969600.20753,1288963.1027063,-18
1659969600.20753,1288963.102714,-13
1659969600.20753,1288963.1027198,20
1659969600.20753,1288963.102724,30
1659969600.20753,1288963.1027306,2
1659969600.20753,1288963.1027366,0
1659969600.20753,1288963.1027425,27
1659969600.20753,1288963.1027485,62
1659969600.20753,1288963.1027551,90
1659969600.20753,1288963.1027588,97
1659969600.73014,1288963.1027623,102
1659969600.73014,1288963.1027657,118
1659969600.73014,1288963.1027689,127
1659969600.73014,1288963.1027725,129
1659969600.73014,1288963.1027784,150
1659969600.73014,1288963.1027816,176
1659969600.73014,1288963.1027865,176
1659969600.73014,1288963.1027911,173
1659969600.73014,1288963.1027979,183
1659969600.73014,1288963.1028047,197
1659969600.73014,1288963.1028115,199
1659969600.73014,1288963.1028155,160
1659969600.73014,1288963.1028205,111
1659969600.73014,1288963.1028254,97
1659969600.73014,1288963.1028307,69
1659969600.73014,1288963.102838,6
1659969600.73014,1288963.1028475,11
1659969600.73014,1288963.1028545,74
1659969600.73014,1288963.1028595,74
1659969600.73014,1288963.1028645,39
1659969600.73014,1288963.1028695,55
1659969600.73014,1288963.1028754,85
1659969600.73014,1288963.1028827,88
1659969600.73014,1288963.1028871,95
1659969600.73014,1288963.1028916,99
1659969600.73014,1288963.1028964,92
1659969600.73014,1288963.1029021,88
1659969600.73014,1288963.1029089,85
1659969600.73014,1288963.1029137,60
1659969600.73014,1288963.1029201,41
1659969600.73014,1288963.1029269,51
1659969600.73014,1288963.1029318,64
1659969600.73014,1288963.1029383,62
1659969600.73014,1288963.1029428,71
1659969600.73014,1288963.1029476,95
1659969600.73014,1288963.1029544,104
1659969600.73014,1288963.1029594,109
1659969600.73014,1288963.102966,104
1659969600.73014,1288963.1029716,71
1659969600.73014,1288963.102977,48
1659969600.73014,1288963.1029819,51
1659969600.73014,1288963.1029883,51
1659969600.73014,1288963.1029933,51
1659969600.73014,1288963.6384787,62
1659969600.73014,1288963.6384937,41
1659969600.73014,1288963.6384991,41
1659969600.73014,1288963.6385041,220
1659969600.73014,1288963.6385097,582
1659969600.73014,1288963.6385144,841
1659969600.73014,1288963.6385191,630
1659969600.74011,1288963.6385239,-11
1659969600.74011,1288963.6385291,-364
1659969600.74011,1288963.6385338,-106
1659969600.74011,1288963.6385385,88
1659969600.74011,1288963.6385433,-20
1659969600.74011,1288963.638548,-44
1659969600.74011,1288963.6385527,23
1659969600.74011,1288963.6385575,13
1659969600.74011,1288963.6385626,0
1659969600.74011,1288963.6385674,23
1659969600.74011,1288963.6385721,37
1659969600.74011,1288963.6385767,30
1659969600.74011,1288963.6385813,13
1659969600.74011,1288963.6385859,20
1659969600.74011,1288963.6385908,37
1659969600.74011,1288963.6385952,30
1659969600.74011,1288963.6385996,32
1659969600.74011,1288963.6386041,67
1659969600.74011,1288963.6386085,85
1659969600.74011,1288963.638613,81
1659969600.74011,1288963.6386175,90
1659969600.74011,1288963.638622,106
1659969600.74011,1288963.6386282,120
1659969600.74011,1288963.6386327,139
1659969601.3184,1288963.6386371,150
1659969601.3184,1288963.6386417,155
1659969601.3184,1288963.6386462,166
1659969601.3184,1288963.6386506,190
1659969601.3184,1288963.6386549,197
1659969601.3184,1288963.6386593,187
1659969601.3184,1288963.6386638,185
1659969601.3184,1288963.6386683,164
1659969601.3184,1288963.6386726,113
1659969601.3184,1288963.6386772,67
1659969601.3184,1288963.6386832,53
1659969601.3184,1288963.6386876,64
1659969601.3184,1288963.6386922,71
1659969601.3184,1288963.6386982,74
1659969601.3184,1288963.6387026,76
1659969601.3184,1288963.6387072,67
1659969601.3184,1288963.6387135,57
1659969601.3184,1288963.638718,74
1659969601.3184,1288963.638724,85
1659969601.3184,1288963.6387285,60
1659969601.3184,1288963.6387343,39
1659969601.3184,1288963.6387387,46
1659969601.3184,1288963.6387432,51
1659969601.3184,1288963.6387476,44
1659969601.3184,1288963.6387535,44
1659969601.3184,1288963.6387595,44
1659969601.3184,1288963.6387655,41
1659969601.3184,1288963.6387699,37
1659969601.3184,1288963.6387743,46
1659969601.3184,1288963.6387788,69
1659969601.3184,1288963.6387846,76
1659969601.3184,1288963.6387889,74
1659969601.3184,1288963.6387946,83
1659969601.3184,1288963.6387989,71
1659969601.3184,1288963.6388046,57
1659969601.3184,1288963.63881,76
1659969601.3184,1288963.6388158,69
1659969601.3184,1288963.6388201,46
1659969601.3184,1288963.6388246,57
1659969601.3184,1288963.6388303,60
1659969601.3184,1288963.6388357,20
1659969601.3184,1288963.6388416,34
1659969601.3184,1288964.2229274,215
1659969601.3184,1288964.2229462,531
1659969601.3184,1288964.222952,744
1659969601.3184,1288964.2229575,545
1659969601.3184,1288964.2229633,-30
1659969601.3184,1288964.2229679,-340
1659969601.3184,1288964.222972,-92
1659969601.3184,1288964.2229751,104
1659969601.32937,1288964.222978,-2
1659969601.32937,1288964.2229837,-20
1659969601.32937,1288964.2229893,25
1659969601.32937,1288964.2229934,-67
1659969601.32937,1288964.2229971,-74
1659969601.32937,1288964.2230007,34
1659969601.32937,1288964.2230042,0
1659969601.32937,1288964.223008,-64
1659969601.32937,1288964.2230125,-11
1659969601.32937,1288964.2230158,16
1659969601.32937,1288964.2230189,-6
1659969601.32937,1288964.2230262,13
1659969601.32937,1288964.2230324,27
1659969601.32937,1288964.2230385,9
1659969601.32937,1288964.2230447,30
1659969601.32937,1288964.2230509,57
1659969601.32937,1288964.2230575,44
1659969601.32937,1288964.2230644,37
1659969601.32937,1288964.22307,78
1659969601.32937,1288964.2230749,113
1659969601.32937,1288964.2230836,102
1659969601.32937,1288964.223091,104
1659969601.32937,1288964.2230973,132
1659969601.32937,1288964.2231061,141
1659969601.9061,1288964.2231148,150
1659969601.9061,1288964.2231205,178
1659969601.9061,1288964.2231264,160
1659969601.9061,1288964.22313,95
1659969601.9061,1288964.2231348,46
1659969601.9061,1288964.2231438,39
1659969601.9061,1288964.2231529,37
1659969601.9061,1288964.2231612,9
1659969601.9061,1288964.2231686,4
1659969601.9061,1288964.2231748,27
1659969601.9061,1288964.2231813,30
1659969601.9061,1288964.2231879,18
1659969601.9061,1288964.2231948,25
1659969601.9061,1288964.2232004,48
1659969601.9061,1288964.2232072,62
1659969601.9061,1288964.2232106,55
1659969601.9061,1288964.2232158,53
1659969601.9061,1288964.2232193,69
1659969601.9061,1288964.2232223,88
1659969601.9061,1288964.2232253,106
1659969601.9061,1288964.2232282,102
1659969601.9061,1288964.2232312,92
1659969601.9061,1288964.223234,97
1659969601.9061,1288964.2232369,102
1659969601.9061,1288964.2232398,104
1659969601.9061,1288964.2232427,113
1659969601.9061,1288964.2232456,139
1659969601.9061,1288964.2232486,160
1659969601.9061,1288964.2232515,153
1659969601.9061,1288964.2232545,146
1659969601.9061,1288964.2232574,143
1659969601.9061,1288964.2232604,113
1659969601.9061,1288964.2232633,95
1659969601.9061,1288964.2232662,106
1659969601.9061,1288964.2232691,111
1659969601.9061,1288964.2232722,106
1659969601.9061,1288964.2232752,104
1659969601.9061,1288964.2232781,81
1659969601.9061,1288964.2232811,92
1659969601.9061,1288964.2232841,259
1659969601.9061,1288964.223287,575
1659969601.9061,1288964.8059765,800
1659969601.9061,1288964.8059895,609
1659969601.9061,1288964.8059935,55
1659969601.9061,1288964.8059983,-224
1659969601.9061,1288964.8060005,-13
1659969601.9061,1288964.8060027,118
1659969601.9061,1288964.8060049,30
1659969601.9061,1288964.8060071,32
1659969601.9061,1288964.8060092,44
1659969601.91807,1288964.8060113,-9
1659969601.91807,1288964.8060133,11
1659969601.91807,1288964.8060155,62
1659969601.91807,1288964.8060174,46
1659969601.91807,1288964.8060194,30
1659969601.91807,1288964.8060221,48
1659969601.91807,1288964.8060657,53
1659969601.91807,1288964.8060802,60
1659969601.91807,1288964.8060864,85
1659969601.91807,1288964.8060889,88
1659969601.91807,1288964.806091,90
1659969601.91807,1288964.8060936,113
1659969601.91807,1288964.8060966,111
1659969601.91807,1288964.8061075,113
1659969601.91807,1288964.8061149,127
1659969601.91807,1288964.8061253,134
1659969601.91807,1288964.8061336,150
1659969601.91807,1288964.8061362,169
1659969601.91807,1288964.8061384,187
1659969601.91807,1288964.8061404,199
1659969601.91807,1288964.8061428,192
1659969601.91807,1288964.8061532,190
1659969601.91807,1288964.8061612,211
1659969601.91807,1288964.8061637,204
1659969602.48713,1288964.8061659,148
1659969602.48713,1288964.8061679,120
1659969602.48713,1288964.806171,132
1659969602.48713,1288964.8061827,106
1659969602.48713,1288964.8061876,74
1659969602.48713,1288964.8061903,57
1659969602.48713,1288964.8061991,39
1659969602.48713,1288964.8062124,53
1659969602.48713,1288964.806224,95
1659969602.48713,1288964.8062349,95
1659969602.48713,1288964.8062846,67
1659969602.48713,1288964.8063111,81
1659969602.48713,1288964.8063212,122
1659969602.48713,1288964.8063265,125
1659969602.48713,1288964.8063328,95
1659969602.48713,1288964.8063381,95
1659969602.48713,1288964.8063454,118
1659969602.48713,1288964.8063511,115
1659969602.48713,1288964.8063595,92
1659969602.48713,1288964.8063682,83
1659969602.48713,1288964.8063879,74
1659969602.48713,1288964.806396,81
1659969602.48713,1288964.8064118,104
1659969602.48713,1288964.806421,109
1659969602.48713,1288964.8064285,113
1659969602.48713,1288964.8064321,129
1659969602.48713,1288964.8064354,127
1659969602.48713,1288964.8064392,125
1659969602.48713,1288964.8064426,129
1659969602.48713,1288964.8064469,113
1659969602.48713,1288964.8064572,99
1659969602.48713,1288964.8064653,97
1659969602.48713,1288964.8064722,71
1659969602.48713,1288964.8064819,64
1659969602.48713,1288964.8064891,69
1659969602.48713,1288964.8064924,46
1659969602.48713,1288964.8064954,55
1659969602.48713,1288964.8064985,183
1659969602.48713,1288964.8065048,489
1659969602.48713,1288964.8065103,816
1659969602.48713,1288965.3918991,786
1659969602.48713,1288965.3919182,257
1659969602.48713,1288965.391927,-236
1659969602.48713,1288965.3919316,-160
1659969602.48713,1288965.3919385,55
1659969602.48713,1288965.3919461,-11
1659969602.48713,1288965.3919573,-27
1659969602.48713,1288965.3919661,51
1659969602.48713,1288965.3919755,16
1659969602.48713,1288965.3919841,-4
1659969602.4971,1288965.3919903,11
1659969602.4971,1288965.3919942,-34
1659969602.4971,1288965.3919982,-20
1659969602.4971,1288965.3920022,20
1659969602.4971,1288965.3920076,-16
1659969602.4971,1288965.392012,-34
1659969602.4971,1288965.3920173,27
1659969602.4971,1288965.3920213,55
1659969602.4971,1288965.3920252,4
1659969602.4971,1288965.3920289,-16
1659969602.4971,1288965.3920352,51
1659969602.4971,1288965.3920424,104
1659969602.4971,1288965.3920513,85
1659969602.4971,1288965.3920584,85
1659969602.4971,1288965.3920674,109
1659969602.4971,1288965.3920759,111
1659969602.4971,1288965.3920843,106
1659969602.4971,1288965.39209,102
1659969602.4971,1288965.3920985,129
1659969602.4971,1288965.3921055,173
1659969602.4971,1288965.392114,150
1659969602.4971,1288965.3921182,104
1659969602.4971,1288965.3921235,88
1659969602.4971,1288965.3921277,55
1659969603.02819,1288965.3921332,0
1659969603.02819,1288965.3921378,9
1659969603.02819,1288965.3921448,51
1659969603.02819,1288965.392152,18
1659969603.02819,1288965.3921555,-16
1659969603.02819,1288965.3921599,13
1659969603.02819,1288965.3921664,34
1659969603.02819,1288965.3921735,27
1659969603.02819,1288965.3921791,32
1659969603.02819,1288965.3921827,44
1659969603.02819,1288965.392186,46
1659969603.02819,1288965.3921911,39
1659969603.02819,1288965.3921957,39
1659969603.02819,1288965.392199,44
1659969603.02819,1288965.3922022,41
1659969603.02819,1288965.3922099,37
1659969603.02819,1288965.3922174,27
1659969603.02819,1288965.392224,25
1659969603.02819,1288965.3922305,34
1659969603.02819,1288965.3922336,39
1659969603.02819,1288965.3922366,51
1659969603.02819,1288965.3922395,60
1659969603.02819,1288965.3922424,62
1659969603.02819,1288965.3922453,74
1659969603.02819,1288965.3922508,76
1659969603.02819,1288965.392281,62
1659969603.02819,1288965.3922972,48
1659969603.02819,1288965.3923058,37
1659969603.02819,1288965.3923132,34
1659969603.02819,1288965.3923181,41
1659969603.02819,1288965.3923228,32
1659969603.02819,1288965.3923271,18
1659969603.02819,1288965.3923314,23
1659969603.02819,1288965.3923355,127
1659969603.02819,1288965.3923398,403
1659969603.02819,1288965.392344,705
1659969603.02819,1288965.3923616,705
1659969603.02819,1288965.3923798,241
1659969603.02819,1288965.3923876,-243
1659969603.02819,1288965.9276467,-204
1659969603.02819,1288965.9276687,25
1659969603.02819,1288965.9276763,0
1659969603.02819,1288965.9276801,-41
1659969603.02819,1288965.9276876,20
1659969603.02819,1288965.927696,32
1659969603.02819,1288965.9277022,9
1659969603.02819,1288965.9277081,9
1659969603.02819,1288965.9277117,4
1659969603.02819,1288965.9277152,4
1659969603.02819,1288965.9277228,16
1659969603.03916,1288965.9277297,20
1659969603.03916,1288965.9277409,27
1659969603.03916,1288965.9277489,39
1659969603.03916,1288965.9277515,44
1659969603.03916,1288965.9277537,51
1659969603.03916,1288965.9277571,57
1659969603.03916,1288965.9277662,71
1659969603.03916,1288965.927774,85
1659969603.03916,1288965.9277784,97
1659969603.03916,1288965.9277835,92
1659969603.03916,1288965.9277884,81
1659969603.03916,1288965.9277984,92
1659969603.03916,1288965.9278037,109
1659969603.03916,1288965.9278058,109
1659969603.03916,1288965.9278079,104
1659969603.03916,1288965.92781,104
1659969603.03916,1288965.927812,102
1659969603.03916,1288965.9278141,99
1659969603.03916,1288965.9278162,85
1659969603.03916,1288965.9278182,44
1659969603.03916,1288965.9278202,-11
1659969603.03916,1288965.9278223,-37
1659969603.03916,1288965.9278244,-34
1659969603.03916,1288965.9278264,-34
1659969603.60634,1288965.9278285,-30
1659969603.60634,1288965.9278305,-20
1659969603.60634,1288965.9278324,-11
1659969603.60634,1288965.9278344,2
1659969603.60634,1288965.9278365,2
1659969603.60634,1288965.9278384,-9
1659969603.60634,1288965.9278403,9
1659969603.60634,1288965.927844,23
1659969603.60634,1288965.9278528,18
1659969603.60634,1288965.9278583,20
1659969603.60634,1288965.9278628,20
1659969603.60634,1288965.9278691,20
1659969603.60634,1288965.927875,27
1659969603.60634,1288965.9278798,23
1659969603.60634,1288965.9278871,23
1659969603.60634,1288965.9278982,34
1659969603.60634,1288965.9279115,39
1659969603.60634,1288965.9279177,44
1659969603.60634,1288965.92792,62
1659969603.60634,1288965.927922,67
1659969603.60634,1288965.9279242,57
1659969603.60634,1288965.9279337,62
1659969603.60634,1288965.9279428,57
1659969603.60634,1288965.9279455,41
1659969603.60634,1288965.9279476,32
1659969603.60634,1288965.9279497,25
1659969603.60634,1288965.9279517,16
1659969603.60634,1288965.9279595,20
1659969603.60634,1288965.9279702,37
1659969603.60634,1288965.9279737,32
1659969603.60634,1288965.9279777,102
1659969603.60634,1288965.9279805,354
1659969603.60634,1288965.9279921,649
1659969603.60634,1288965.928,670
1659969603.60634,1288965.9280103,255
1659969603.60634,1288965.9280194,-220
1659969603.60634,1288965.9280288,-220
1659969603.60634,1288965.9280405,13
1659969603.60634,1288966.512663,13
1659969603.60634,1288966.5126807,-46
1659969603.60634,1288966.5126858,13
1659969603.60634,1288966.51269,30
1659969603.60634,1288966.5126947,4
1659969603.60634,1288966.5126988,27
1659969603.60634,1288966.5127022,51
1659969603.60634,1288966.5127071,55
1659969603.60634,1288966.5127106,57
1659969603.60634,1288966.5127139,39
1659969603.60634,1288966.5127172,23
1659969603.60634,1288966.5127225,25
1659969603.61831,1288966.512736,30
1659969603.61831,1288966.512748,48
1659969603.61831,1288966.5127571,74
1659969603.61831,1288966.5127644,69
1659969603.61831,1288966.5127735,57
1659969603.61831,1288966.5127797,64
1659969603.61831,1288966.5127918,76
1659969603.61831,1288966.5128025,90
1659969603.61831,1288966.5128117,106
1659969603.61831,1288966.5128188,115
1659969603.61831,1288966.5128314,125
1659969603.61831,1288966.5128415,148
1659969603.61831,1288966.512851,169
1659969603.61831,1288966.5128611,153
1659969603.61831,1288966.5128713,125
1659969603.61831,1288966.5128799,109
1659969603.61831,1288966.5128903,92
1659969603.61831,1288966.5129006,67
1659969603.61831,1288966.5129077,41
1659969603.61831,1288966.512919,37
1659969603.61831,1288966.5129296,44
1659969603.61831,1288966.512937,39
1659969603.61831,1288966.512943,39
1659969603.61831,1288966.5129521,46
1659969604.19376,1288966.5129571,55
1659969604.19376,1288966.512963,60
1659969604.19376,1288966.5129682,67
1659969604.19376,1288966.5129735,76
1659969604.19376,1288966.5129789,78
1659969604.19376,1288966.512984,83
1659969604.19376,1288966.5129895,85
1659969604.19376,1288966.5129962,81
1659969604.19376,1288966.5130015,81
1659969604.19376,1288966.5130087,85
1659969604.19376,1288966.5130156,83
1659969604.19376,1288966.5130217,78
1659969604.19376,1288966.5130262,62
1659969604.19376,1288966.5130295,60
1659969604.19376,1288966.5130347,76
1659969604.19376,1288966.5130475,85
1659969604.19376,1288966.5130612,85
1659969604.19376,1288966.5130735,81
1659969604.19376,1288966.5130835,78
1659969604.19376,1288966.5130972,88
1659969604.19376,1288966.5131096,102
1659969604.19376,1288966.513119,120
1659969604.19376,1288966.5131284,125
1659969604.19376,1288966.5131356,92
1659969604.19376,1288966.5131445,48
1659969604.19376,1288966.5131488,32
1659969604.19376,1288966.5131528,32
1659969604.19376,1288966.513157,30
1659969604.19376,1288966.5131615,30
1659969604.19376,1288966.5131704,46
1659969604.19376,1288966.5131832,62
1659969604.19376,1288966.5131926,120
1659969604.19376,1288966.5132057,350
1659969604.19376,1288966.5132193,707
1659969604.19376,1288966.5132328,848
1659969604.19376,1288966.5132463,459
1659969604.19376,1288966.5132588,-141
1659969604.19376,1288967.0986492,-241
1659969604.19376,1288967.0986708,20
1659969604.19376,1288967.0986855,34
1659969604.19376,1288967.0986956,-60
1659969604.19376,1288967.0987046,-6
1659969604.19376,1288967.0987124,25
1659969604.19376,1288967.0987198,-2
1659969604.19376,1288967.0987242,13
1659969604.19376,1288967.0987276,37
1659969604.19376,1288967.0987328,25
1659969604.19376,1288967.0987454,20
1659969604.19376,1288967.0987583,34
1659969604.19376,1288967.0987665,53
1659969604.20274,1288967.098776,55
1659969604.20274,1288967.0987872,39
1659969604.20274,1288967.0988008,32
1659969604.20274,1288967.0988062,57
1659969604.20274,1288967.0988096,102
1659969604.20274,1288967.0988148,139
1659969604.20274,1288967.0988195,139
1659969604.20274,1288967.0988226,95
1659969604.20274,1288967.0988257,71
1659969604.20274,1288967.0988289,118
1659969604.20274,1288967.098832,150
1659969604.20274,1288967.0988349,129
1659969604.20274,1288967.0988377,150
1659969604.20274,1288967.0988408,201
1659969604.20274,1288967.0988439,199
1659969604.20274,1288967.0988469,139
1659969604.20274,1288967.09885,90
1659969604.20274,1288967.0988529,76
1659969604.20274,1288967.0988559,34
1659969604.20274,1288967.0988588,-18
1659969604.20274,1288967.0988619,-32
1659969604.20274,1288967.0988649,-30
1659969604.20274,1288967.0988678,-46
1659969604.20274,1288967.098871,-62
1659969604.7269,1288967.098879,-60
1659969604.7269,1288967.0988853,-23
1659969604.7269,1288967.0988885,16
1659969604.7269,1288967.0988914,-11
1659969604.7269,1288967.0988942,-62
1659969604.7269,1288967.0988979,-30
1659969604.7269,1288967.0989015,48
1659969604.7269,1288967.0989047,60
1659969604.7269,1288967.0989095,37
1659969604.7269,1288967.0989139,27
1659969604.7269,1288967.0989172,27
1659969604.7269,1288967.0989208,27
1659969604.7269,1288967.0989249,18
1659969604.7269,1288967.0989297,13
1659969604.7269,1288967.0989334,34
1659969604.7269,1288967.0989371,37
1659969604.7269,1288967.0989409,18
1659969604.7269,1288967.098945,18
1659969604.7269,1288967.0989511,34
1659969604.7269,1288967.0989552,41
1659969604.7269,1288967.0989609,39
1659969604.7269,1288967.0989649,34
1659969604.7269,1288967.0989688,23
1659969604.7269,1288967.0989727,18
1659969604.7269,1288967.0989765,9
1659969604.7269,1288967.0989805,-2
1659969604.7269,1288967.0989861,30
1659969604.7269,1288967.0989906,60
1659969604.7269,1288967.098996,27
1659969604.7269,1288967.0989997,-13
1659969604.7269,1288967.099005,-23
1659969604.7269,1288967.099009,-25
1659969604.7269,1288967.0990141,-6
1659969604.7269,1288967.0990179,34
1659969604.7269,1288967.0990228,23
1659969604.7269,1288967.0990263,-34
1659969604.7269,1288967.6345696,-9
1659969604.7269,1288967.6345864,183
1659969604.7269,1288967.6345913,461
1659969604.7269,1288967.6345973,667
1659969604.7269,1288967.6346015,528
1659969604.7269,1288967.6346079,-2
1659969604.7269,1288967.634614,-345
1659969604.7269,1288967.634621,-166
1659969604.7269,1288967.6346264,18
1659969604.7269,1288967.6346326,-46
1659969604.7269,1288967.6346371,-71
1659969604.7269,1288967.634643,-23
1659969604.7269,1288967.6346482,-37
1659969604.7269,1288967.634654,-37
1659969604.73887,1288967.6346594,16
1659969604.73887,1288967.6346649,39
1659969604.73887,1288967.6346689,11
1659969604.73887,1288967.6346744,-6
1659969604.73887,1288967.6346797,9
1659969604.73887,1288967.6346836,32
1659969604.73887,1288967.6346876,27
1659969604.73887,1288967.6346928,39
1659969604.73887,1288967.6346974,69
1659969604.73887,1288967.6347012,64
1659969604.73887,1288967.6347065,27
1659969604.73887,1288967.6347104,44
1659969604.73887,1288967.6347157,106
1659969604.73887,1288967.6347194,141
1659969604.73887,1288967.6347233,150
1659969604.73887,1288967.6347287,155
1659969604.73887,1288967.6347324,146
1659969604.73887,1288967.6347362,153
1659969604.73887,1288967.6347414,197
1659969604.73887,1288967.6347454,211
1659969604.73887,1288967.6347505,173
1659969604.73887,1288967.6347544,155
1659969604.73887,1288967.6347595,141
1659969604.73887,1288967.6347634,92
1659969605.3163,1288967.6347685,67
1659969605.3163,1288967.6347722,48
1659969605.3163,1288967.634776,27
1659969605.3163,1288967.6347796,25
1659969605.3163,1288967.6347834,34
1659969605.3163,1288967.6347871,55
1659969605.3163,1288967.6347909,62
1659969605.3163,1288967.6347946,30
1659969605.3163,1288967.6347983,37
1659969605.3163,1288967.6348058,85
1659969605.3163,1288967.634818,83
1659969605.3163,1288967.6348309,69
1659969605.3163,1288967.6348433,85
1659969605.3163,1288967.6348496,69
1659969605.3163,1288967.6348519,30
1659969605.3163,1288967.634854,37
1659969605.3163,1288967.6348561,90
1659969605.3163,1288967.6348582,106
1659969605.3163,1288967.6348602,67
1659969605.3163,1288967.6348623,57
1659969605.3163,1288967.6348643,64
1659969605.3163,1288967.6348663,44
1659969605.3163,1288967.6348684,55
1659969605.3163,1288967.6348706,102
1659969605.3163,1288967.6348727,95
1659969605.3163,1288967.6348747,71
1659969605.3163,1288967.6348767,62
1659969605.3163,1288967.6348788,57
1659969605.3163,1288967.6348809,102
1659969605.3163,1288967.6348829,104
1659969605.3163,1288967.6348851,18
1659969605.3163,1288967.6348871,-2
1659969605.3163,1288967.6348892,46
1659969605.3163,1288967.6348911,90
1659969605.3163,1288967.6348931,113
1659969605.3163,1288968.2196021,76
1659969605.3163,1288968.2196155,44
1659969605.3163,1288968.2196193,41
1659969605.3163,1288968.2196245,13
1659969605.3163,1288968.2196276,25
1659969605.3163,1288968.2196305,46
1659969605.3163,1288968.2196332,23
1659969605.3163,1288968.2196361,39
1659969605.3163,1288968.2196389,34
1659969605.3163,1288968.2196418,6
1659969605.3163,1288968.2196447,132
1659969605.3163,1288968.2196474,447
1659969605.3163,1288968.21965,763
1659969605.3163,1288968.2196526,716
1659969605.3163,1288968.2196549,157
1659969605.32627,1288968.2196572,-313
1659969605.32627,1288968.2196596,-178
1659969605.32627,1288968.2196622,46
1659969605.32627,1288968.2196649,-41
1659969605.32627,1288968.2196676,-95
1659969605.32627,1288968.2196702,-25
1659969605.32627,1288968.2196729,-23
1659969605.32627,1288968.2196756,-34
1659969605.32627,1288968.2196783,0
1659969605.32627,1288968.219681,16
1659969605.32627,1288968.2196836,-6
1659969605.32627,1288968.2196862,-25
1659969605.32627,1288968.2196889,-11
1659969605.32627,1288968.2196915,18
1659969605.32627,1288968.2196939,25
1659969605.32627,1288968.2196963,27
1659969605.32627,1288968.2196985,69
1659969605.32627,1288968.2197008,88
1659969605.32627,1288968.219703,57
1659969605.32627,1288968.2197051,81
1659969605.32627,1288968.2197072,134
1659969605.32627,1288968.2197094,141
1659969605.32627,1288968.2197116,155
1659969605.32627,1288968.2197138,187
1659969605.85028,1288968.219716,192
1659969605.85028,1288968.2197181,192
1659969605.85028,1288968.2197201,220
1659969605.85028,1288968.2197222,218
1659969605.85028,1288968.2197243,187
1659969605.85028,1288968.2197264,178
1659969605.85028,1288968.2197286,164
1659969605.85028,1288968.2197307,118
1659969605.85028,1288968.2197328,78
1659969605.85028,1288968.219735,48
1659969605.85028,1288968.2197375,18
1659969605.85028,1288968.2197448,13
1659969605.85028,1288968.2197559,27
1659969605.85028,1288968.2197605,27
1659969605.85028,1288968.2197626,20
1659969605.85028,1288968.2197648,18
1659969605.85028,1288968.2197669,30
1659969605.85028,1288968.219769,64
1659969605.85028,1288968.2197711,76
1659969605.85028,1288968.2197732,57
1659969605.85028,1288968.2197753,55
1659969605.85028,1288968.2197775,60
1659969605.85028,1288968.2197796,44
1659969605.85028,1288968.2197817,30
1659969605.85028,1288968.2197839,39
1659969605.85028,1288968.2197859,48
1659969605.85028,1288968.219788,39
1659969605.85028,1288968.2197901,30
1659969605.85028,1288968.2197921,53
1659969605.85028,1288968.2197943,71
1659969605.85028,1288968.2197965,60
1659969605.85028,1288968.2197985,55
1659969605.85028,1288968.2198006,71
1659969605.85028,1288968.2198028,76
1659969605.85028,1288968.7552019,64
1659969605.85028,1288968.7552198,55
1659969605.85028,1288968.7552283,44
1659969605.85028,1288968.755233,37
1659969605.85028,1288968.7552385,39
1659969605.85028,1288968.7552429,53
1659969605.85028,1288968.7552488,60
1659969605.85028,1288968.7552534,57
1659969605.85028,1288968.7552594,48
1659969605.85028,1288968.7552636,32
1659969605.85028,1288968.7552696,9
1659969605.85028,1288968.755274,-2
1659969605.85028,1288968.7552798,11
1659969605.85028,1288968.7552842,16
1659969605.85028,1288968.75529,18
1659969605.85028,1288968.7552942,30
1659969605.86025,1288968.7552999,37
1659969605.86025,1288968.7553044,129
1659969605.86025,1288968.7553102,415
1659969605.86025,1288968.7553146,749
1659969605.86025,1288968.7553202,739
1659969605.86025,1288968.7553254,213
1659969605.86025,1288968.7553312,-257
1659969605.86025,1288968.7553363,-160
1659969605.86025,1288968.755342,41
1659969605.86025,1288968.7553473,-11
1659969605.86025,1288968.7553529,-34
1659969605.86025,1288968.755358,27
1659969605.86025,1288968.7553635,23
1659969605.86025,1288968.7553685,9
1659969605.86025,1288968.7553742,27
1659969605.86025,1288968.7553785,32
1659969605.86025,1288968.7553841,37
1659969605.86025,1288968.755401,55
1659969605.86025,1288968.755407,60
1659969605.86025,1288968.7554111,62
1659969605.86025,1288968.7554153,81
1659969605.86025,1288968.7554194,88
1659969605.86025,1288968.7554234,97
1659969605.86025,1288968.7554277,120
1659969606.38632,1288968.7554319,136
1659969606.38632,1288968.755436,146
1659969606.38632,1288968.7554401,173
1659969606.38632,1288968.7554443,213
1659969606.38632,1288968.7554486,236
1659969606.38632,1288968.7554527,257
1659969606.38632,1288968.7554569,282
1659969606.38632,1288968.7554611,289
1659969606.38632,1288968.7554652,285
1659969606.38632,1288968.7554694,299
1659969606.38632,1288968.7554735,303
1659969606.38632,1288968.7554778,273
1659969606.38632,1288968.7554817,241
1659969606.38632,1288968.7554857,197
1659969606.38632,1288968.7554906,125
1659969606.38632,1288968.7554948,78
1659969606.38632,1288968.7554985,78
1659969606.38632,1288968.7555481,81
1659969606.38632,1288968.7555547,76
1659969606.38632,1288968.7555603,90
1659969606.38632,1288968.7555647,97
1659969606.38632,1288968.755569,83
1659969606.38632,1288968.7555746,64
1659969606.38632,1288968.7555792,67
1659969606.38632,1288968.7555837,95
1659969606.38632,1288968.7555881,102
1659969606.38632,1288968.7555923,76
1659969606.38632,1288968.7555962,71
1659969606.38632,1288968.7556002,69
1659969606.38632,1288968.7556044,55
1659969606.38632,1288968.7556087,71
1659969606.38632,1288968.7556132,102
1659969606.38632,1288968.755618,90
1659969606.38632,1288969.2917431,60
1659969606.38632,1288969.2917621,44
1659969606.38632,1288969.291768,37
1659969606.38632,1288969.2917733,62
1659969606.38632,1288969.2917788,97
1659969606.38632,1288969.2917838,92
1659969606.38632,1288969.2917889,74

1659969606.38632,1288969.2917939,78
1659969606.38632,1288969.2917992,85
1659969606.38632,1288969.2918044,69
1659969606.38632,1288969.2918083,53
1659969606.38632,1288969.2918122,53
1659969606.38632,1288969.2918162,60
1659969606.38632,1288969.2918197,53
1659969606.38632,1288969.2918235,41
1659969606.38632,1288969.2918271,53
1659969606.38632,1288969.2918308,69
1659969606.3943,1288969.2918344,69
1659969606.3943,1288969.2918381,81
1659969606.3943,1288969.2918418,95
1659969606.3943,1288969.291846,44
1659969606.3943,1288969.2918498,-23
1659969606.3943,1288969.2918537,-11
1659969606.3943,1288969.29186,46
1659969606.3943,1288969.2918654,55
1659969606.3943,1288969.291871,13
1659969606.3943,1288969.2918745,-20
1659969606.3943,1288969.2918798,-18
1659969606.3943,1288969.2918835,41
1659969606.3943,1288969.2918887,266
1659969606.3943,1288969.2918923,612
1659969606.3943,1288969.291898,767
1659969606.3943,1288969.2919032,426
1659969606.3943,1288969.2919084,-166
1659969606.3943,1288969.2919139,-317
1659969606.3943,1288969.2919189,-53
1659969606.3943,1288969.2919226,4
1659969606.3943,1288969.291928,-69
1659969606.3943,1288969.2919315,9
1659969606.3943,1288969.291935,34
1659969606.3943,1288969.2919404,-30
1659969606.97495,1288969.2919451,-4
1659969606.97495,1288969.2919487,57
1659969606.97495,1288969.2919526,55
1659969606.97495,1288969.2919564,34
1659969606.97495,1288969.2919602,41
1659969606.97495,1288969.2919642,41
1659969606.97495,1288969.2919681,13
1659969606.97495,1288969.291972,11
1659969606.97495,1288969.2919763,69
1659969606.97495,1288969.2919823,109
1659969606.97495,1288969.2919858,92
1659969606.97495,1288969.2919891,85
1659969606.97495,1288969.2919942,97
1659969606.97495,1288969.2919979,99
1659969606.97495,1288969.2920014,127
1659969606.97495,1288969.2920048,173
1659969606.97495,1288969.2920083,197
1659969606.97495,1288969.2920118,204
1659969606.97495,1288969.2920157,194
1659969606.97495,1288969.2920214,187
1659969606.97495,1288969.2920248,211
1659969606.97495,1288969.2920278,238
1659969606.97495,1288969.2920329,220
1659969606.97495,1288969.292038,155
1659969606.97495,1288969.2920432,113
1659969606.97495,1288969.2920469,97
1659969606.97495,1288969.2920516,39
1659969606.97495,1288969.2920573,-9
1659969606.97495,1288969.2920626,27
1659969606.97495,1288969.2920664,57
1659969606.97495,1288969.2920715,27
1659969606.97495,1288969.2920839,25
1659969606.97495,1288969.876747,44
1659969606.97495,1288969.8767651,53
1659969606.97495,1288969.8767707,67
1659969606.97495,1288969.8767756,76
1659969606.97495,1288969.8767801,74
1659969606.97495,1288969.8767844,64
1659969606.97495,1288969.8767886,71
1659969606.97495,1288969.8767926,95
1659969606.97495,1288969.8767968,92
1659969606.97495,1288969.8768009,71
1659969606.97495,1288969.8768049,53
1659969606.97495,1288969.876809,27
1659969606.97495,1288969.8768132,25
1659969606.97495,1288969.8768178,39
1659969606.97495,1288969.8768223,30
1659969606.97495,1288969.8768287,39
1659969606.97495,1288969.8768331,57
1659969606.97495,1288969.8768375,23
1659969606.98891,1288969.8768417,-18
1659969606.98891,1288969.8768458,-6
1659969606.98891,1288969.8768497,11
1659969606.98891,1288969.8768535,-11
1659969606.98891,1288969.8768579,-23
1659969606.98891,1288969.8768641,2
1659969606.98891,1288969.8768683,0
1659969606.98891,1288969.8768742,-18
1659969606.98891,1288969.8768785,20
1659969606.98891,1288969.876884,51
1659969606.98891,1288969.8768879,37
1659969606.98891,1288969.8768918,41
1659969606.98891,1288969.8768969,41
1659969606.98891,1288969.8769008,-2
1659969606.98891,1288969.8769064,-30
1659969606.98891,1288969.8769113,11
1659969606.98891,1288969.8769175,51
1659969606.98891,1288969.8769263,23
1659969606.98891,1288969.8769315,13
1659969606.98891,1288969.8769337,16
1659969606.98891,1288969.8769359,-2
1659969606.98891,1288969.8769381,109
1659969606.98891,1288969.8769407,424
1659969606.98891,1288969.8769433,705
1659969607.50373,1288969.8769454,600
1659969607.50373,1288969.8769474,78
1659969607.50373,1288969.8769496,-280
1659969607.50373,1288969.8769515,-143
1659969607.50373,1288969.8769534,16
1659969607.50373,1288969.8769565,-53
1659969607.50373,1288969.8769647,-95
1659969607.50373,1288969.8769728,-34
1659969607.50373,1288969.8769864,-16
1659969607.50373,1288969.8769978,-46
1659969607.50373,1288969.8770072,-32
1659969607.50373,1288969.8770164,4
1659969607.50373,1288969.8770317,-9
1659969607.50373,1288969.8770808,-48
1659969607.50373,1288969.8770896,-25
1659969607.50373,1288969.8770959,34
1659969607.50373,1288969.8771042,51
1659969607.50373,1288969.8771096,27
1659969607.50373,1288969.8771233,27
1659969607.50373,1288969.8771365,76
1659969607.50373,1288969.8771513,120
1659969607.50373,1288969.8771594,115
1659969607.50373,1288969.8771645,125
1659969607.50373,1288969.8771762,148
1659969607.50373,1288969.8771825,139
1659969607.50373,1288969.8771865,153
1659969607.50373,1288969.8771917,206
1659969607.50373,1288969.8771961,222
1659969607.50373,1288969.8771996,213
1659969607.50373,1288969.8772047,227
1659969607.50373,1288969.8772081,229
1659969607.50373,1288970.4130089,222
1659969607.50373,1288970.4130332,208
1659969607.50373,1288970.4130507,141
1659969607.50373,1288970.4130645,78
1659969607.50373,1288970.4130767,64
1659969607.50373,1288970.413087,25
1659969607.50373,1288970.4130979,-27
1659969607.50373,1288970.4131041,-6
1659969607.50373,1288970.4131142,57
1659969607.50373,1288970.4131286,57
1659969607.50373,1288970.4131392,34
1659969607.50373,1288970.4131488,41
1659969607.50373,1288970.4131596,53
1659969607.50373,1288970.4131704,46
1659969607.50373,1288970.4131801,34
1659969607.50373,1288970.413191,46
1659969607.50373,1288970.4131999,57
1659969607.50373,1288970.4132046,53
1659969607.50373,1288970.4132118,53
1659969607.5157,1288970.4132209,57
1659969607.5157,1288970.4132325,32
1659969607.5157,1288970.413248,6
1659969607.5157,1288970.4132565,11
1659969607.5157,1288970.4132591,23
1659969607.5157,1288970.4132613,27
1659969607.5157,1288970.4132635,41
1659969607.5157,1288970.4132656,41
1659969607.5157,1288970.4132677,39
1659969607.5157,1288970.4132698,55
1659969607.5157,1288970.4132771,44
1659969607.5157,1288970.413292,34
1659969607.5157,1288970.4133053,37
1659969607.5157,1288970.4133138,-4
1659969607.5157,1288970.4133164,-27
1659969607.5157,1288970.4133186,-2
1659969607.5157,1288970.4133207,16
1659969607.5157,1288970.4133228,23
1659969607.5157,1288970.413325,34
1659969607.5157,1288970.4133272,23
1659969607.5157,1288970.4133293,2
1659969607.5157,1288970.4133369,27
1659969607.5157,1288970.4133481,74
1659969607.5157,1288970.4133561,69
1659969608.05026,1288970.4133645,44
1659969608.05026,1288970.4133685,30
1659969608.05026,1288970.4133706,32
1659969608.05026,1288970.4133726,64
1659969608.05026,1288970.4133746,81
1659969608.05026,1288970.4133765,39
1659969608.05026,1288970.4133794,32
1659969608.05026,1288970.4133815,57
1659969608.05026,1288970.4133835,64
1659969608.05026,1288970.4133875,160
1659969608.05026,1288970.4133923,438
1659969608.05026,1288970.4133973,746
1659969608.05026,1288970.4134015,753
1659969608.05026,1288970.4134038,280
1659969608.05026,1288970.4134061,-194
1659969608.05026,1288970.4134083,-139
1659969608.05026,1288970.4134103,69
1659969608.05026,1288970.4134125,16
1659969608.05026,1288970.4134149,-51
1659969608.05026,1288970.413417,11
1659969608.05026,1288970.4134191,32
1659969608.05026,1288970.4134212,2
1659969608.05026,1288970.4134233,20
1659969608.05026,1288970.4134254,62
1659969608.05026,1288970.4134275,57
1659969608.05026,1288970.4134356,34
1659969608.05026,1288970.4134464,53
1659969608.05026,1288970.413455,81
1659969608.05026,1288970.4134639,69
1659969608.05026,1288970.4134679,60
1659969608.05026,1288970.9485109,83
1659969608.05026,1288970.948534,102
1659969608.05026,1288970.9485452,106
1659969608.05026,1288970.9485527,141
1659969608.05026,1288970.9485935,183
1659969608.05026,1288970.9486064,162
1659969608.05026,1288970.9486189,122
1659969608.05026,1288970.9486306,157
1659969608.05026,1288970.9486409,215
1659969608.05026,1288970.9486493,218
1659969608.05026,1288970.9486552,213
1659969608.05026,1288970.9486638,208
1659969608.05026,1288970.9486706,199
1659969608.05026,1288970.9486825,215
1659969608.05026,1288970.9486964,215
1659969608.05026,1288970.9487101,164
1659969608.05026,1288970.9487246,113
1659969608.05026,1288970.9487379,64
1659969608.05026,1288970.9487516,37
1659969608.05026,1288970.9487654,41
1659969608.06621,1288970.9487785,48
1659969608.06621,1288970.9487919,53
1659969608.06621,1288970.9488066,60
1659969608.06621,1288970.9488202,51
1659969608.06621,1288970.9488334,27
1659969608.06621,1288970.9488477,27
1659969608.06621,1288970.948861,39
1659969608.06621,1288970.9488738,34
1659969608.06621,1288970.9488878,48
1659969608.06621,1288970.9489012,90
1659969608.06621,1288970.9489133,81
1659969608.06621,1288970.9489225,48
1659969608.06621,1288970.9489314,53
1659969608.06621,1288970.9489445,51
1659969608.06621,1288970.9489569,39
1659969608.06621,1288970.9489657,62
1659969608.06621,1288970.948975,55
1659969608.06621,1288970.9489868,37
1659969608.06621,1288970.9489961,71
1659969608.06621,1288970.9490012,85
1659969608.06621,1288970.9490158,37
1659969608.06621,1288970.9490278,9
1659969608.06621,1288970.9490343,55
1659969608.06621,1288970.9490413,99
1659969608.68788,1288970.9490458,90
1659969608.68788,1288970.9490495,81
1659969608.68788,1288970.9490535,69
1659969608.68788,1288970.9490576,41
1659969608.68788,1288970.9490617,34
1659969608.68788,1288970.9490657,20
1659969608.68788,1288970.9490697,2
1659969608.68788,1288970.949074,46
1659969608.68788,1288970.9490809,104
1659969608.68788,1288970.9490889,92
1659969608.68788,1288970.9490996,78
1659969608.68788,1288970.9491103,106
1659969608.68788,1288970.9491198,104
1659969608.68788,1288970.9491305,71
1659969608.68788,1288970.9491403,46
1659969608.68788,1288970.9491514,41
1659969608.68788,1288970.9491623,55
1659969608.68788,1288970.9491701,60
1659969608.68788,1288970.9491751,55
1659969608.68788,1288970.9491788,44
1659969608.68788,1288970.949183,41
1659969608.68788,1288970.9491893,102
1659969608.68788,1288970.9491931,296
1659969608.68788,1288970.9491965,593
1659969608.68788,1288970.9492027,767
1659969608.68788,1288970.9492062,521
1659969608.68788,1288970.9492118,-30
1659969608.68788,1288970.9492165,-231
1659969608.68788,1288970.94922,0
1659969608.68788,1288971.5842185,76
1659969608.68788,1288971.5842451,-25
1659969608.68788,1288971.5842616,-6
1659969608.68788,1288971.5842768,32
1659969608.68788,1288971.5842916,16
1659969608.68788,1288971.5843046,20
1659969608.68788,1288971.5843134,25
1659969608.68788,1288971.5843218,27
1659969608.68788,1288971.5843316,32
1659969608.68788,1288971.5843446,25
1659969608.68788,1288971.5843555,30
1659969608.68788,1288971.5843598,51
1659969608.68788,1288971.5843636,51
1659969608.68788,1288971.5843658,39
1659969608.68788,1288971.584368,27
1659969608.68788,1288971.5843701,39
1659969608.68788,1288971.5843722,85
1659969608.68788,1288971.5843743,104
1659969608.68788,1288971.5843765,88
1659969608.68788,1288971.5843785,109
1659969608.68788,1288971.5843807,146
1659969608.70384,1288971.5843828,139
1659969608.70384,1288971.584385,136
1659969608.70384,1288971.584387,169
1659969608.70384,1288971.5843897,173
1659969608.70384,1288971.5843975,150
1659969608.70384,1288971.5844068,164
1659969608.70384,1288971.5844119,178
1659969608.70384,1288971.5844175,132
1659969608.70384,1288971.5844209,62
1659969608.70384,1288971.5844257,6
1659969608.70384,1288971.5844332,-2
1659969608.70384,1288971.5844403,2
1659969608.70384,1288971.5844429,-16
1659969608.70384,1288971.584445,-32
1659969608.70384,1288971.5844479,-13
1659969608.70384,1288971.5844566,16
