Time,TimeLsl,Value
1659968895.45756,1288256.8871652,-44
1659968895.45756,1288256.8871818,41
1659968895.45756,1288256.887189,71
1659968895.45756,1288256.8871954,23
1659968895.45756,1288256.8871999,46
1659968895.45756,1288256.8872045,81
1659968895.45756,1288256.8872088,76
1659968895.45756,1288256.8872137,64
1659968895.45756,1288256.8872176,9
1659968895.45756,1288256.8872206,-41
1659968895.45756,1288256.8872236,30
1659968895.45756,1288256.8872283,88
1659968895.45756,1288256.8872345,81
1659968895.45756,1288256.8872387,127
1659968895.45756,1288256.8872426,141
1659968895.45756,1288256.8872488,104
1659968895.45756,1288256.887253,125
1659968895.45756,1288256.8872561,148
1659968895.45756,1288256.8872591,146
1659968895.45756,1288256.887262,185
1659968895.45756,1288256.8872651,201
1659968895.45756,1288256.887269,180
1659968895.45756,1288256.8872777,211
1659968895.45756,1288256.8872859,245
1659968895.45756,1288256.8872931,227
1659968895.45756,1288256.8872976,199
1659968895.45756,1288256.887304,166
1659968895.45756,1288256.8873075,141
1659968895.45756,1288256.8873105,134
1659968895.45756,1288256.8873135,118
1659968895.45756,1288256.8873198,109
1659968895.45756,1288256.8873229,118
1659968895.45756,1288256.8873291,125
1659968895.45756,1288256.8873352,122
1659968895.45756,1288256.8873418,120
1659968895.45756,1288256.8873509,120
1659968895.45756,1288256.8873591,120
1659968895.45756,1288256.8873669,127
1659968895.45756,1288256.8873729,136
1659968895.45756,1288256.8873826,134
1659968895.45756,1288256.8873912,129
1659968895.45756,1288256.8873987,132
1659968895.45756,1288256.8874062,136
1659968895.45756,1288256.8874125,143
1659968895.45756,1288256.8874198,153
1659968895.45756,1288256.8874278,150
1659968895.45756,1288256.8874324,143
1659968895.45756,1288256.887441,162
1659968895.45756,1288256.8874466,169
1659968895.45756,1288256.8874522,132
1659968895.59419,1288256.8874555,109
1659968895.59419,1288256.8874586,122
1659968895.59419,1288256.8874615,122
1659968895.59419,1288256.8874644,90
1659968895.59419,1288256.8874673,71
1659968895.59419,1288256.8874702,78
1659968895.59419,1288256.8874731,71
1659968895.59419,1288256.887476,132
1659968895.59419,1288256.8874789,398
1659968895.59419,1288256.8874819,751
1659968895.59419,1288256.8874869,832
1659968895.59419,1288256.8874932,389
1659968895.59419,1288256.8875,-187
1659968895.59419,1288256.8875067,-206
1659968895.59419,1288256.8875134,67
1659968895.59419,1288256.8875185,55
1659968895.59419,1288256.8875217,-16
1659968895.59419,1288256.8875268,53
1659968895.59419,1288256.8875392,62
1659968895.59419,1288256.887547,23
1659968895.59419,1288256.8875504,34
1659968895.59419,1288256.887557,48
1659968895.59419,1288256.8875606,53
1659968895.59419,1288257.4712856,67
1659968895.59419,1288257.4713056,78
1659968895.59419,1288257.471314,78
1659968895.59419,1288257.4713219,83
1659968895.59419,1288257.4713278,69
1659968895.59419,1288257.4713338,53
1659968895.59419,1288257.4713405,74
1659968895.59419,1288257.471348,95
1659968895.59419,1288257.4713536,95
1659968895.59419,1288257.471363,106
1659968895.59419,1288257.4713697,122
1659968895.59419,1288257.4713818,109
1659968895.59419,1288257.4713883,95
1659968895.59419,1288257.4713932,109
1659968895.59419,1288257.4713976,125
1659968895.59419,1288257.4714039,132
1659968895.59419,1288257.4714089,141
1659968895.59419,1288257.4714147,139
1659968895.59419,1288257.471419,111
1659968895.59419,1288257.4714251,69
1659968895.59419,1288257.4714295,37
1659968895.59419,1288257.471436,18
1659968895.59419,1288257.4714445,2
1659968895.59419,1288257.4714508,-16
1659968895.59419,1288257.4714569,-30
1659968895.59419,1288257.4714638,-18
1659968895.59419,1288257.4714704,0
1659968895.66002,1288257.4714794,0
1659968895.66002,1288257.4714845,4
1659968895.66002,1288257.4714909,6
1659968895.66002,1288257.4714951,2
1659968895.66002,1288257.4715008,9
1659968895.66002,1288257.4715055,20
1659968895.66002,1288257.4715155,18
1659968895.66002,1288257.4715203,16
1659968895.66002,1288257.4715249,23
1659968895.66002,1288257.4715311,20
1659968895.66002,1288257.4715358,27
1659968895.66002,1288257.4715421,60
1659968895.66002,1288257.4715479,78
1659968895.66002,1288257.4715651,53
1659968895.66002,1288257.4715697,37
1659968895.66002,1288257.4715759,37
1659968895.66002,1288257.4715804,27
1659968895.66002,1288257.4715853,30
1659968895.66002,1288257.4715955,41
1659968895.66002,1288257.4716005,32
1659968895.66002,1288257.471637,23
1659968895.66002,1288257.4716451,9
1659968895.66002,1288257.4716511,13
1659968895.66002,1288257.4716564,201
1659968895.66002,1288257.4716633,584
1659968895.66002,1288257.4716703,823
1659968895.66002,1288257.4716766,547
1659968895.66002,1288257.471681,-76
1659968895.66002,1288257.4716872,-292
1659968895.66002,1288257.471693,-32
1659968895.66002,1288257.4716974,53
1659968895.66002,1288257.471701,-46
1659968895.66002,1288257.4717047,-13
1659968895.66002,1288257.4717101,32
1659968895.66002,1288257.471716,4
1659968895.66002,1288257.4717219,0
1659968895.66002,1288257.4717257,23
1659968895.66002,1288257.4717297,30
1659968895.66002,1288257.4717331,34
1659968895.66002,1288257.4717363,41
1659968895.66002,1288257.4717406,44
1659968895.66002,1288257.4717464,62
1659968895.66002,1288257.4717497,83
1659968895.66002,1288257.4717535,81
1659968895.66002,1288257.4717589,78
1659968895.66002,1288257.4717628,97
1659968895.66002,1288258.0074177,109
1659968895.66002,1288258.0074362,118
1659968895.66002,1288258.0074418,132
1659968895.66002,1288258.0074493,143
1659968895.68645,1288258.0074564,155
1659968895.68645,1288258.0074634,162
1659968895.68645,1288258.0074699,176
1659968895.68645,1288258.007478,185
1659968895.68645,1288258.0074849,180
1659968895.68645,1288258.0074932,173
1659968895.68645,1288258.0074972,166
1659968895.68645,1288258.0075013,141
1659968895.68645,1288258.007505,104
1659968895.68645,1288258.0075106,81
1659968895.68645,1288258.0075166,48
1659968895.68645,1288258.0075211,16
1659968895.68645,1288258.0075277,11
1659968895.68645,1288258.0075314,23
1659968895.68645,1288258.0075345,32
1659968895.68645,1288258.0075375,34
1659968895.68645,1288258.0075421,11
1659968895.68645,1288258.0075481,-16
1659968895.68645,1288258.0075533,-16
1659968895.68645,1288258.0075565,-2
1659968895.68645,1288258.0075622,0
1659968895.68645,1288258.0075761,4
1659968895.68645,1288258.0075889,4
1659968895.68645,1288258.0076044,-9
1659968895.68645,1288258.0076204,-13
1659968895.68645,1288258.0076342,4
1659968895.68645,1288258.0076416,25
1659968895.68645,1288258.0076518,30
1659968895.68645,1288258.007661,23
1659968895.68645,1288258.0076662,13
1659968895.68645,1288258.0076702,2
1659968895.68645,1288258.0076831,-6
1659968895.68645,1288258.007697,-2
1659968895.68645,1288258.007707,9
1659968895.68645,1288258.0077217,11
1659968895.68645,1288258.0077335,2
1659968895.68645,1288258.0077416,-18
1659968895.68645,1288258.0077502,-13
1659968895.68645,1288258.00776,153
1659968895.68645,1288258.0077646,496
1659968895.68645,1288258.0077688,739
1659968895.68645,1288258.007775,514
1659968895.68645,1288258.0077805,-64
1659968895.68645,1288258.0077835,-303
1659968895.68645,1288258.0077868,-69
1659968895.68645,1288258.007792,32
1659968895.68645,1288258.0077958,-55
1659968895.68645,1288258.0077988,-34
1659968895.68645,1288258.0078017,16
1659968895.68645,1288258.0078052,-2
1659968895.69842,1288258.0078111,-2
1659968895.69842,1288258.0078537,16
1659968895.69842,1288258.0078634,25
1659968895.69842,1288258.0078694,39
1659968895.69842,1288258.0078749,41
1659968895.69842,1288258.0078801,39
1659968895.69842,1288258.0078857,55
1659968895.69842,1288258.0078889,76
1659968895.69842,1288258.0078945,81
1659968895.69842,1288258.0078998,83
1659968895.69842,1288258.0079039,97
1659968895.69842,1288258.0079079,115
1659968895.69842,1288258.0079125,129
1659968895.69842,1288258.0079173,150
1659968895.69842,1288258.0079214,164
1659968895.69842,1288258.0079253,169
1659968895.69842,1288258.0079293,173
1659968895.69842,1288258.0079327,185
1659968895.69842,1288258.0079372,197
1659968895.69842,1288258.5453021,208
1659968895.69842,1288258.5453173,213
1659968895.69842,1288258.5453225,185
1659968896.22095,1288258.545327,150
1659968896.22095,1288258.5453311,115
1659968896.22095,1288258.545335,85
1659968896.22095,1288258.5453393,69
1659968896.22095,1288258.5453433,67
1659968896.22095,1288258.5453473,62
1659968896.22095,1288258.5453512,57
1659968896.22095,1288258.5453551,51
1659968896.22095,1288258.5453592,30
1659968896.22095,1288258.5453629,25
1659968896.22095,1288258.5453667,39
1659968896.22095,1288258.5453703,39
1659968896.22095,1288258.5453743,32
1659968896.22095,1288258.5453782,37
1659968896.22095,1288258.5453822,27
1659968896.22095,1288258.5453861,9
1659968896.22095,1288258.5453899,13
1659968896.22095,1288258.545394,25
1659968896.22095,1288258.5453984,32
1659968896.22095,1288258.5454023,27
1659968896.22095,1288258.5454062,23
1659968896.22095,1288258.5454101,30
1659968896.22095,1288258.5454143,30
1659968896.22095,1288258.5454182,6
1659968896.22095,1288258.5454223,0
1659968896.22095,1288258.5454263,13
1659968896.22095,1288258.5454301,20
1659968896.22095,1288258.5454362,13
1659968896.22095,1288258.5454836,6
1659968896.22095,1288258.5454919,-4
1659968896.22095,1288258.5454958,53
1659968896.22095,1288258.5454993,308
1659968896.22095,1288258.5455028,647
1659968896.22095,1288258.5455063,702
1659968896.22095,1288258.54551,250
1659968896.22095,1288258.5455139,-278
1659968896.22095,1288258.5455176,-245
1659968896.22095,1288258.5455212,32
1659968896.22095,1288258.5455248,20
1659968896.22095,1288258.5455293,-41
1659968896.22095,1288258.5455331,23
1659968896.22095,1288258.5455369,32
1659968896.22095,1288258.5455404,4
1659968896.22095,1288258.545544,25
1659968896.22095,1288258.5455478,48
1659968896.22095,1288258.5455515,44
1659968896.22095,1288258.5455551,48
1659968896.22095,1288258.5455588,60
1659968896.22095,1288258.5455625,71
1659968896.22095,1288258.5455661,78
1659968896.23392,1288258.5455696,88
1659968896.23392,1288258.5455731,97
1659968896.23392,1288258.545577,102
1659968896.23392,1288258.5455806,113
1659968896.23392,1288258.5455842,134
1659968896.23392,1288258.5455877,155
1659968896.23392,1288258.5455915,166
1659968896.23392,1288258.5455954,176
1659968896.23392,1288258.5455991,183
1659968896.23392,1288258.5456027,187
1659968896.23392,1288258.5456101,197
1659968896.23392,1288258.5456138,204
1659968896.23392,1288258.5456174,208
1659968896.23392,1288258.5456212,211
1659968896.23392,1288258.5456249,180
1659968896.23392,1288258.5456285,129
1659968896.23392,1288258.545632,97
1659968896.23392,1288258.5456355,78
1659968896.23392,1288258.5456392,64
1659968896.23392,1288258.5456428,64
1659968896.23392,1288259.1297753,67
1659968896.23392,1288259.1297938,62
1659968896.23392,1288259.1297983,55
1659968896.23392,1288259.1298035,51
1659968896.76453,1288259.1298083,57
1659968896.76453,1288259.1298121,69
1659968896.76453,1288259.1298156,67
1659968896.76453,1288259.1298193,51
1659968896.76453,1288259.1298229,34
1659968896.76453,1288259.1298265,34
1659968896.76453,1288259.1298299,39
1659968896.76453,1288259.1298341,46
1659968896.76453,1288259.1298375,55
1659968896.76453,1288259.1298411,44
1659968896.76453,1288259.1298451,27
1659968896.76453,1288259.1298527,27
1659968896.76453,1288259.1298586,20
1659968896.76453,1288259.1298635,9
1659968896.76453,1288259.1298722,4
1659968896.76453,1288259.1298811,4
1659968896.76453,1288259.12989,-2
1659968896.76453,1288259.1298971,-6
1659968896.76453,1288259.1299065,-11
1659968896.76453,1288259.1299149,-27
1659968896.76453,1288259.1299214,37
1659968896.76453,1288259.1299277,324
1659968896.76453,1288259.1299343,693
1659968896.76453,1288259.129941,739
1659968896.76453,1288259.1299473,245
1659968896.76453,1288259.1299542,-292
1659968896.76453,1288259.1299604,-236
1659968896.76453,1288259.1299642,23
1659968896.76453,1288259.1299677,-25
1659968896.76453,1288259.1299734,-95
1659968896.76453,1288259.1299823,-25
1659968896.76453,1288259.1299912,-9
1659968896.76453,1288259.1299969,-32
1659968896.76453,1288259.1300044,-18
1659968896.76453,1288259.1300115,2
1659968896.76453,1288259.1300206,4
1659968896.76453,1288259.1300703,4
1659968896.76453,1288259.1300864,16
1659968896.76453,1288259.1300956,30
1659968896.76453,1288259.1301031,39
1659968896.76453,1288259.1301138,46
1659968896.76453,1288259.130122,55
1659968896.76453,1288259.130132,64
1659968896.76453,1288259.1301435,78
1659968896.76453,1288259.1301515,97
1659968896.76453,1288259.1301631,111
1659968896.76453,1288259.1301736,125
1659968896.76453,1288259.1301819,136
1659968896.76453,1288259.1301929,139
1659968896.76453,1288259.1302015,141
1659968896.7755,1288259.1302116,153
1659968896.7755,1288259.1302224,166
1659968896.7755,1288259.130231,169
1659968896.7755,1288259.1302416,160
1659968896.7755,1288259.1302515,129
1659968896.7755,1288259.1302602,88
1659968896.7755,1288259.1302716,60
1659968896.7755,1288259.1302798,48
1659968896.7755,1288259.1302912,44
1659968896.7755,1288259.1303054,46
1659968896.7755,1288259.1303111,51
1659968896.7755,1288259.1303316,53
1659968896.7755,1288259.1303388,48
1659968896.7755,1288259.1303454,55
1659968896.7755,1288259.1303509,127
1659968896.7755,1288259.1303579,213
1659968896.7755,1288259.1303636,208
1659968896.7755,1288259.1303688,171
1659968896.7755,1288259.1303726,141
1659968896.7755,1288259.6648526,90
1659968896.7755,1288259.6648729,62
1659968896.7755,1288259.6648878,74
1659968896.7755,1288259.6649023,74
1659968896.7755,1288259.6649132,53
1659968897.30165,1288259.6649211,41
1659968897.30165,1288259.6649302,46
1659968897.30165,1288259.664939,51
1659968897.30165,1288259.6649453,62
1659968897.30165,1288259.6649502,78
1659968897.30165,1288259.6649553,78
1659968897.30165,1288259.6649639,69
1659968897.30165,1288259.6649697,71
1659968897.30165,1288259.6649737,69
1659968897.30165,1288259.6649772,46
1659968897.30165,1288259.6649822,92
1659968897.30165,1288259.6649875,331
1659968897.30165,1288259.6649928,656
1659968897.30165,1288259.6650031,661
1659968897.30165,1288259.6650095,136
1659968897.30165,1288259.6650138,-366
1659968897.30165,1288259.6650179,-276
1659968897.30165,1288259.6650762,-48
1659968897.30165,1288259.6650839,-125
1659968897.30165,1288259.6650884,-185
1659968897.30165,1288259.6650918,-115
1659968897.30165,1288259.6650977,-113
1659968897.30165,1288259.6651009,-136
1659968897.30165,1288259.6651061,-109
1659968897.30165,1288259.6651091,-92
1659968897.30165,1288259.665112,-92
1659968897.30165,1288259.665115,-74
1659968897.30165,1288259.6651179,-60
1659968897.30165,1288259.6651209,-48
1659968897.30165,1288259.6651238,-27
1659968897.30165,1288259.6651283,-23
1659968897.30165,1288259.665134,-27
1659968897.30165,1288259.6651795,-13
1659968897.30165,1288259.6651921,16
1659968897.30165,1288259.6651996,37
1659968897.30165,1288259.6652131,53
1659968897.30165,1288259.6652231,67
1659968897.30165,1288259.6652315,74
1659968897.30165,1288259.6652374,83
1659968897.30165,1288259.6652438,92
1659968897.30165,1288259.6652471,102
1659968897.30165,1288259.665252,118
1659968897.30165,1288259.6652566,129
1659968897.30165,1288259.6652697,115
1659968897.30165,1288259.6652776,85
1659968897.30165,1288259.6652905,53
1659968897.30165,1288259.6652982,23
1659968897.30165,1288259.6653044,6
1659968897.30165,1288259.6653136,9
1659968897.30165,1288259.6653219,11
1659968897.31761,1288259.6653282,9
1659968897.31761,1288259.6653362,16
1659968897.31761,1288259.6653426,30
1659968897.31761,1288259.6653509,32
1659968897.31761,1288259.6653573,20
1659968897.31761,1288259.6653636,4
1659968897.31761,1288259.6653701,6
1659968897.31761,1288259.6653784,20
1659968897.31761,1288259.6653852,20
1659968897.31761,1288259.6653906,18
1659968897.31761,1288259.665397,27
1659968897.31761,1288259.6654021,25
1659968897.31761,1288259.6654067,23
1659968897.31761,1288259.66541,39
1659968897.31761,1288259.665416,53
1659968897.31761,1288259.6654216,48
1659968897.31761,1288259.6654269,46
1659968897.31761,1288259.66543,39
1659968897.31761,1288260.2007508,20
1659968897.31761,1288260.2007788,9
1659968897.31761,1288260.2007895,6
1659968897.31761,1288260.2007958,13
1659968897.31761,1288260.2008019,20
1659968897.31761,1288260.200808,13
1659968897.87881,1288260.2008152,-18
1659968897.87881,1288260.2008213,16
1659968897.87881,1288260.2008272,262
1659968897.87881,1288260.2008334,630
1659968897.87881,1288260.2008391,732
1659968897.87881,1288260.200845,280
1659968897.87881,1288260.200851,-271
1659968897.87881,1288260.200857,-269
1659968897.87881,1288260.200863,-34
1659968897.87881,1288260.200869,-74
1659968897.87881,1288260.2008752,-132
1659968897.87881,1288260.2008813,-67
1659968897.87881,1288260.2008873,-57
1659968897.87881,1288260.2008931,-76
1659968897.87881,1288260.200899,-60
1659968897.87881,1288260.2009049,-48
1659968897.87881,1288260.2009105,-48
1659968897.87881,1288260.2009144,-32
1659968897.87881,1288260.2009184,-18
1659968897.87881,1288260.2009242,-11
1659968897.87881,1288260.200928,-4
1659968897.87881,1288260.2009318,9
1659968897.87881,1288260.2009372,13
1659968897.87881,1288260.2009419,20
1659968897.87881,1288260.2009456,41
1659968897.87881,1288260.2009509,81
1659968897.87881,1288260.2009548,127
1659968897.87881,1288260.2009583,169
1659968897.87881,1288260.2009619,199
1659968897.87881,1288260.2009662,218
1659968897.87881,1288260.2009719,236
1659968897.87881,1288260.2009758,262
1659968897.87881,1288260.2009813,271
1659968897.87881,1288260.2009848,238
1659968897.87881,1288260.2009902,213
1659968897.87881,1288260.2009939,197
1659968897.87881,1288260.2009974,125
1659968897.87881,1288260.2010026,44
1659968897.87881,1288260.2010062,32
1659968897.87881,1288260.2010095,27
1659968897.87881,1288260.201013,9
1659968897.87881,1288260.2010165,11
1659968897.87881,1288260.2010199,25
1659968897.87881,1288260.2010235,32
1659968897.87881,1288260.2010269,39
1659968897.87881,1288260.2010329,46
1659968897.87881,1288260.2010365,37
1659968897.87881,1288260.201041,23
1659968897.87881,1288260.2010442,27
1659968897.87881,1288260.2010472,39
1659968897.89377,1288260.2010504,41
1659968897.89377,1288260.2010535,41
1659968897.89377,1288260.2010568,39
1659968897.89377,1288260.20106,20
1659968897.89377,1288260.2010634,11
1659968897.89377,1288260.2010668,25
1659968897.89377,1288260.20107,34
1659968897.89377,1288260.2010731,39
1659968897.89377,1288260.2010763,53
1659968897.89377,1288260.2010796,64
1659968897.89377,1288260.2010829,74
1659968897.89377,1288260.2010869,90
1659968897.89377,1288260.2010928,76
1659968897.89377,1288260.201096,44
1659968897.89377,1288260.2010994,34
1659968897.89377,1288260.2011026,32
1659968897.89377,1288260.2011057,30
1659968897.89377,1288260.7860911,32
1659968897.89377,1288260.7861081,20
1659968897.89377,1288260.7861126,6
1659968897.89377,1288260.786116,106
1659968897.89377,1288260.7861193,408
1659968897.89377,1288260.7861227,746
1659968897.89377,1288260.7861259,742
1659968898.66565,1288260.786129,218
1659968898.66565,1288260.7861346,-269
1659968898.66565,1288260.7861378,-180
1659968898.66565,1288260.7861417,9
1659968898.66565,1288260.7861446,-81
1659968898.66565,1288260.7861475,-118
1659968898.66565,1288260.7861508,-39
1659968898.66565,1288260.7861537,-39
1659968898.66565,1288260.7861601,-60
1659968898.66565,1288260.7861647,-37
1659968898.66565,1288260.7861728,-27
1659968898.66565,1288260.7861785,-37
1659968898.66565,1288260.7862122,-32
1659968898.66565,1288260.7862234,-13
1659968898.66565,1288260.7862302,2
1659968898.66565,1288260.7862373,6
1659968898.66565,1288260.7862436,11
1659968898.66565,1288260.7862495,30
1659968898.66565,1288260.7862674,53
1659968898.66565,1288260.7862738,69
1659968898.66565,1288260.7862799,85
1659968898.66565,1288260.7862866,102
1659968898.66565,1288260.7862961,115
1659968898.66565,1288260.786303,129
1659968898.66565,1288260.7863115,143
1659968898.66565,1288260.7863181,150
1659968898.66565,1288260.7863241,157
1659968898.66565,1288260.7863297,173
1659968898.66565,1288260.7863352,187
1659968898.66565,1288260.7863397,183
1659968898.66565,1288260.7863463,169
1659968898.66565,1288260.7863561,141
1659968898.66565,1288260.7863632,99
1659968898.66565,1288260.7863687,69
1659968898.66565,1288260.7863832,62
1659968898.66565,1288260.7863872,57
1659968898.66565,1288260.7863928,53
1659968898.66565,1288260.7863976,55
1659968898.66565,1288260.7864017,46
1659968898.66565,1288260.7864054,30
1659968898.66565,1288260.7864092,39
1659968898.66565,1288260.786413,53
1659968898.66565,1288260.7864178,46
1659968898.66565,1288260.7864218,37
1659968898.66565,1288260.7864263,32
1659968898.66565,1288260.7864317,30
1659968898.66565,1288260.7864357,39
1659968898.66565,1288260.7864395,37
1659968898.66565,1288260.7864467,30
1659968898.66565,1288260.7864523,32
1659968898.67662,1288260.7864585,39
1659968898.67662,1288260.7864628,44
1659968898.67662,1288260.7864687,46
1659968898.67662,1288260.7864732,53
1659968898.67662,1288260.7864796,60
1659968898.67662,1288260.7864853,62
1659968898.67662,1288260.7864894,71
1659968898.67662,1288260.7864954,67
1659968898.67662,1288260.7865001,51
1659968898.67662,1288260.7865048,69
1659968898.67662,1288260.7865087,95
1659968898.67662,1288260.7865127,90
1659968898.67662,1288260.7865168,90
1659968898.67662,1288260.7865212,83
1659968898.67662,1288260.7865253,55
1659968898.67662,1288260.7865292,48
1659968898.67662,1288261.5661449,57
1659968898.67662,1288261.5661704,55
1659968898.67662,1288261.5661853,60
1659968898.67662,1288261.5661993,60
1659968898.67662,1288261.5662089,71
1659968898.67662,1288261.566218,215
1659968898.67662,1288261.5662262,563
1659968898.67662,1288261.5662314,897
1659968899.00017,1288261.566239,793
1659968899.00017,1288261.5662459,178
1659968899.00017,1288261.5662524,-292
1659968899.00017,1288261.5662618,-150
1659968899.00017,1288261.56627,57
1659968899.00017,1288261.5662762,-23
1659968899.00017,1288261.5662854,-64
1659968899.00017,1288261.5662926,-4
1659968899.00017,1288261.566297,-6
1659968899.00017,1288261.5663006,-23
1659968899.00017,1288261.5663039,4
1659968899.00017,1288261.5663172,16
1659968899.00017,1288261.5663289,9
1659968899.00017,1288261.5663416,23
1659968899.00017,1288261.5663496,39
1659968899.00017,1288261.5663599,46
1659968899.00017,1288261.5663721,62
1659968899.00017,1288261.5663836,81
1659968899.00017,1288261.566395,95
1659968899.00017,1288261.566401,111
1659968899.00017,1288261.5664032,122
1659968899.00017,1288261.5664088,139
1659968899.00017,1288261.5664202,166
1659968899.00017,1288261.5664281,190
1659968899.00017,1288261.5664356,194
1659968899.00017,1288261.5664431,194
1659968899.00017,1288261.5664483,204
1659968899.00017,1288261.5664571,220
1659968899.00017,1288261.5664623,241
1659968899.00017,1288261.5664768,257
1659968899.00017,1288261.566486,250
1659968899.00017,1288261.5664885,215
1659968899.00017,1288261.5664924,178
1659968899.00017,1288261.5665092,143
1659968899.00017,1288261.5665141,99
1659968899.00017,1288261.5665172,74
1659968899.00017,1288261.5665271,74
1659968899.00017,1288261.5665367,74
1659968899.00017,1288261.5665395,76
1659968899.00017,1288261.5665417,90
1659968899.00017,1288261.5665484,97
1659968899.00017,1288261.5665628,95
1659968899.00017,1288261.5665759,99
1659968899.00017,1288261.5665883,102
1659968899.00017,1288261.5665971,97
1659968899.00017,1288261.5666029,99
1659968899.00017,1288261.5666116,109
1659968899.00017,1288261.5666184,115
1659968899.00017,1288261.5666251,113
1659968899.00017,1288261.5666339,106
1659968899.01612,1288261.5666425,99
1659968899.01612,1288261.5666512,92
1659968899.01612,1288261.5666629,92
1659968899.01612,1288261.5666776,104
1659968899.01612,1288261.5666904,111
1659968899.01612,1288261.5667033,99
1659968899.01612,1288261.5667154,88
1659968899.01612,1288261.5667242,95
1659968899.01612,1288261.566729,99
1659968899.01612,1288261.5667395,88
1659968899.01612,1288261.5667427,95
1659968899.01612,1288261.566746,115
1659968899.01612,1288261.5667552,118
1659968899.01612,1288261.5667709,120
1659968899.01612,1288261.566783,118
1659968899.01612,1288261.9083059,88
1659968899.01612,1288261.9083251,55
1659968899.01612,1288261.9083331,55
1659968899.01612,1288261.9083403,60
1659968899.01612,1288261.9083449,55
1659968899.01612,1288261.9083484,55
1659968899.01612,1288261.9083539,60
1659968899.01612,1288261.9083581,164
1659968899.01612,1288261.9083622,494
1659968899.63694,1288261.9083651,888
1659968899.63694,1288261.9083681,932
1659968899.63694,1288261.9083728,391
1659968899.63694,1288261.9083784,-227
1659968899.63694,1288261.9083826,-222
1659968899.63694,1288261.9083879,55
1659968899.63694,1288261.9083948,30
1659968899.63694,1288261.9084017,-41
1659968899.63694,1288261.9084088,23
1659968899.63694,1288261.908416,34
1659968899.63694,1288261.9084221,4
1659968899.63694,1288261.9084262,25
1659968899.63694,1288261.9084292,39
1659968899.63694,1288261.9084326,37
1659968899.63694,1288261.9084359,44
1659968899.63694,1288261.9084405,53
1659968899.63694,1288261.9084451,51
1659968899.63694,1288261.9084488,55
1659968899.63694,1288261.908455,76
1659968899.63694,1288261.9084601,97
1659968899.63694,1288261.9084634,104
1659968899.63694,1288261.9084666,102
1659968899.63694,1288261.9084699,97
1659968899.63694,1288261.9084747,97
1659968899.63694,1288261.9084811,109
1659968899.63694,1288261.9084862,136
1659968899.63694,1288261.9084953,146
1659968899.63694,1288261.9085037,115
1659968899.63694,1288261.9085078,99
1659968899.63694,1288261.9085151,125
1659968899.63694,1288261.9085262,148
1659968899.63694,1288261.9085562,150
1659968899.63694,1288261.9085628,146
1659968899.63694,1288261.9085679,104
1659968899.63694,1288261.9085729,44
1659968899.63694,1288261.9085792,11
1659968899.63694,1288261.9085836,-2
1659968899.63694,1288261.9086665,-11
1659968899.63694,1288261.9086722,-4
1659968899.63694,1288261.9086762,-4
1659968899.63694,1288261.9086799,-4
1659968899.63694,1288261.9086874,4
1659968899.63694,1288261.908691,11
1659968899.63694,1288261.9086949,20
1659968899.63694,1288261.9086986,27
1659968899.63694,1288261.9087025,25
1659968899.63694,1288261.9087062,23
1659968899.63694,1288261.9087098,20
1659968899.63694,1288261.9087134,25
1659968899.63694,1288261.908717,32
1659968899.64791,1288261.9087206,27
1659968899.64791,1288261.9087244,27
1659968899.64791,1288261.908728,37
1659968899.64791,1288261.9087315,30
1659968899.64791,1288261.9087351,27
1659968899.64791,1288261.9087388,34
1659968899.64791,1288261.9087426,30
1659968899.64791,1288261.9087462,32
1659968899.64791,1288261.9087504,39
1659968899.64791,1288261.9087547,32
1659968899.64791,1288261.9087594,25
1659968899.64791,1288261.9087641,34
1659968899.64791,1288261.9087673,57
1659968899.64791,1288261.9087715,76
1659968899.64791,1288262.5419189,78
1659968899.64791,1288262.541936,69
1659968899.64791,1288262.5419445,51
1659968899.64791,1288262.5419491,37
1659968899.64791,1288262.5419557,34
1659968899.64791,1288262.5419592,44
1659968899.64791,1288262.5419657,48
1659968899.64791,1288262.5419712,32
1659968899.64791,1288262.5419748,-4
1659968899.64791,1288262.5419815,4
1659968900.17598,1288262.5419857,162
1659968900.17598,1288262.5419926,496
1659968900.17598,1288262.5419995,816
1659968900.17598,1288262.5420066,732
1659968900.17598,1288262.5420138,136
1659968900.17598,1288262.5420208,-327
1659968900.17598,1288262.5420247,-183
1659968900.17598,1288262.5420298,25
1659968900.17598,1288262.542036,-41
1659968900.17598,1288262.5420421,-67
1659968900.17598,1288262.5420484,-11
1659968900.17598,1288262.5420543,-16
1659968900.17598,1288262.5420603,-25
1659968900.17598,1288262.5420647,-9
1659968900.17598,1288262.5420718,-20
1659968900.17598,1288262.5420783,-27
1659968900.17598,1288262.5420844,-4
1659968900.17598,1288262.542094,4
1659968900.17598,1288262.5421005,13
1659968900.17598,1288262.5421148,37
1659968900.17598,1288262.542123,51
1659968900.17598,1288262.5421257,55
1659968900.17598,1288262.5421292,69
1659968900.17598,1288262.5421412,83
1659968900.17598,1288262.5421535,102
1659968900.17598,1288262.5421651,127
1659968900.17598,1288262.5421785,150
1659968900.17598,1288262.5421847,162
1659968900.17598,1288262.542187,169
1659968900.17598,1288262.5421892,178
1659968900.17598,1288262.5421913,185
1659968900.17598,1288262.5421938,197
1659968900.17598,1288262.5422038,213
1659968900.17598,1288262.5422123,229
1659968900.17598,1288262.542215,229
1659968900.17598,1288262.5422172,206
1659968900.17598,1288262.5422193,176
1659968900.17598,1288262.5422246,153
1659968900.17598,1288262.5422358,129
1659968900.17598,1288262.5422411,113
1659968900.17598,1288262.5422433,109
1659968900.17598,1288262.5422455,118
1659968900.17598,1288262.5422481,127
1659968900.17598,1288262.5422513,127
1659968900.17598,1288262.5422629,127
1659968900.17598,1288262.5422705,132
1659968900.17598,1288262.5422731,129
1659968900.17598,1288262.5422753,118
1659968900.17598,1288262.542278,115
1659968900.17598,1288262.5422882,118
1659968900.19194,1288262.5422966,122
1659968900.19194,1288262.5422991,111
1659968900.19194,1288262.5423014,99
1659968900.19194,1288262.5423059,102
1659968900.19194,1288262.5423122,106
1659968900.19194,1288262.542322,104
1659968900.19194,1288262.5423267,109
1659968900.19194,1288262.5423303,106
1659968900.19194,1288262.542337,102
1659968900.19194,1288262.542343,109
1659968900.19194,1288262.5423489,115
1659968900.19194,1288262.5423543,106
1659968900.19194,1288262.5423587,104
1659968900.19194,1288263.0775251,102
1659968900.19194,1288263.077542,92
1659968900.19194,1288263.0775466,85
1659968900.19194,1288263.0775519,83
1659968900.19194,1288263.0775554,88
1659968900.19194,1288263.0775603,83
1659968900.19194,1288263.077567,74
1659968900.19194,1288263.0775732,81
1659968900.19194,1288263.0775794,104
1659968900.19194,1288263.0775858,125
1659968900.19194,1288263.0775926,111
1659968900.90374,1288263.0775989,85
1659968900.90374,1288263.0776055,83
1659968900.90374,1288263.0776126,69
1659968900.90374,1288263.0776191,44
1659968900.90374,1288263.077623,44
1659968900.90374,1288263.0776267,44
1659968900.90374,1288263.0776302,25
1659968900.90374,1288263.0776337,27
1659968900.90374,1288263.0776372,44
1659968900.90374,1288263.0776406,113
1659968900.90374,1288263.0776441,336
1659968900.90374,1288263.0776476,640
1659968900.90374,1288263.077651,746
1659968900.90374,1288263.0776544,382
1659968900.90374,1288263.0776579,-173
1659968900.90374,1288263.0776614,-266
1659968900.90374,1288263.0776659,-20
1659968900.90374,1288263.0776694,27
1659968900.90374,1288263.0776728,-41
1659968900.90374,1288263.0776769,-6
1659968900.90374,1288263.0776813,16
1659968900.90374,1288263.0776848,0
1659968900.90374,1288263.0776883,20
1659968900.90374,1288263.0776917,37
1659968900.90374,1288263.0776951,34
1659968900.90374,1288263.0776985,41
1659968900.90374,1288263.0777019,53
1659968900.90374,1288263.0777053,64
1659968900.90374,1288263.0777088,83
1659968900.90374,1288263.0777122,95
1659968900.90374,1288263.0777163,104
1659968900.90374,1288263.0777202,113
1659968900.90374,1288263.0777236,125
1659968900.90374,1288263.077727,141
1659968900.90374,1288263.0777304,164
1659968900.90374,1288263.077734,180
1659968900.90374,1288263.0777375,183
1659968900.90374,1288263.077741,183
1659968900.90374,1288263.0777445,192
1659968900.90374,1288263.077748,208
1659968900.90374,1288263.0777515,222
1659968900.90374,1288263.0777555,234
1659968900.90374,1288263.077759,243
1659968900.90374,1288263.0777624,252
1659968900.90374,1288263.0777659,255
1659968900.90374,1288263.07777,236
1659968900.90374,1288263.0777758,190
1659968900.90374,1288263.0777798,148
1659968900.90374,1288263.077786,127
1659968900.90374,1288263.0777896,118
1659968900.91472,1288263.0777946,109
1659968900.91472,1288263.0777985,106
1659968900.91472,1288263.0778019,109
1659968900.91472,1288263.0778054,111
1659968900.91472,1288263.0778089,115
1659968900.91472,1288263.0778125,109
1659968900.91472,1288263.077816,99
1659968900.91472,1288263.0778214,95
1659968900.91472,1288263.0778249,97
1659968900.91472,1288263.0778301,97
1659968900.91472,1288263.0778338,92
1659968900.91472,1288263.0778387,85
1659968900.91472,1288263.8095401,83
1659968900.91472,1288263.8095529,81
1659968900.91472,1288263.8095576,76
1659968900.91472,1288263.80956,74
1659968900.91472,1288263.8095621,78
1659968900.91472,1288263.8095642,78
1659968900.91472,1288263.8095663,69
1659968900.91472,1288263.8095683,53
1659968900.91472,1288263.8095703,37
1659968900.91472,1288263.8095724,23
1659968900.91472,1288263.8095743,13
1659968900.91472,1288263.8095764,11
1659968901.29362,1288263.8095784,9
1659968901.29362,1288263.8095809,2
1659968901.29362,1288263.8095875,0
1659968901.29362,1288263.8095951,-2
1659968901.29362,1288263.8095994,-2
1659968901.29362,1288263.8096047,-6
1659968901.29362,1288263.8096109,4
1659968901.29362,1288263.8096167,25
1659968901.29362,1288263.8096239,20
1659968901.29362,1288263.8096272,11
1659968901.29362,1288263.8096302,18
1659968901.29362,1288263.8096332,4
1659968901.29362,1288263.8096361,-18
1659968901.29362,1288263.809639,-9
1659968901.29362,1288263.809642,0
1659968901.29362,1288263.809645,-4
1659968901.29362,1288263.809648,6
1659968901.29362,1288263.809651,16
1659968901.29362,1288263.8096538,104
1659968901.29362,1288263.8096568,398
1659968901.29362,1288263.8096597,749
1659968901.29362,1288263.8096626,800
1659968901.29362,1288263.8096654,338
1659968901.29362,1288263.8096803,-252
1659968901.29362,1288263.8096934,-285
1659968901.29362,1288263.8097088,9
1659968901.29362,1288263.8097185,23
1659968901.29362,1288263.8097258,-64
1659968901.29362,1288263.809736,-9
1659968901.29362,1288263.8097421,30
1659968901.29362,1288263.8097496,9
1659968901.29362,1288263.8097604,25
1659968901.29362,1288263.8097742,46
1659968901.29362,1288263.8097873,46
1659968901.29362,1288263.8098003,67
1659968901.29362,1288263.8098127,88
1659968901.29362,1288263.8098215,83
1659968901.29362,1288263.8098328,69
1659968901.29362,1288263.8098418,60
1659968901.29362,1288263.8098445,74
1659968901.29362,1288263.8098479,102
1659968901.29362,1288263.8098621,122
1659968901.29362,1288263.8098775,139
1659968901.29362,1288263.8098891,164
1659968901.29362,1288263.8099033,185
1659968901.29362,1288263.8099163,197
1659968901.29362,1288263.809929,213
1659968901.29362,1288263.8099393,231
1659968901.29362,1288263.8099476,243
1659968901.29362,1288263.8099549,243
1659968901.30459,1288263.8099681,250
1659968901.30459,1288263.8099814,269
1659968901.30459,1288263.8099937,273
1659968901.30459,1288263.8100042,266
1659968901.30459,1288263.8100112,245
1659968901.30459,1288263.810018,208
1659968901.30459,1288263.8100218,180
1659968901.30459,1288263.8100344,157
1659968901.30459,1288263.8100426,125
1659968901.30459,1288263.8100555,106
1659968901.30459,1288263.8100672,115
1659968901.30459,1288264.1997277,122
1659968901.30459,1288264.1997468,115
1659968901.30459,1288264.199754,106
1659968901.30459,1288264.199761,102
1659968901.30459,1288264.1997676,97
1659968901.30459,1288264.1997719,88
1659968901.30459,1288264.199777,95
1659968901.30459,1288264.1997838,102
1659968901.30459,1288264.1997908,90
1659968901.30459,1288264.1997998,78
1659968901.30459,1288264.1998065,69
1659968901.30459,1288264.1998155,64
1659968901.30459,1288264.199822,74
1659968901.92352,1288264.1998289,78
1659968901.92352,1288264.1998343,71
1659968901.92352,1288264.1998403,71
1659968901.92352,1288264.199849,69
1659968901.92352,1288264.1998586,67
1659968901.92352,1288264.1998646,71
1659968901.92352,1288264.1998693,74
1659968901.92352,1288264.1998747,67
1659968901.92352,1288264.1998804,57
1659968901.92352,1288264.1998852,62
1659968901.92352,1288264.1998924,57
1659968901.92352,1288264.1998974,48
1659968901.92352,1288264.1999081,53
1659968901.92352,1288264.199917,44
1659968901.92352,1288264.1999261,16
1659968901.92352,1288264.1999309,2
1659968901.92352,1288264.1999412,4
1659968901.92352,1288264.1999449,6
1659968901.92352,1288264.1999471,11
1659968901.92352,1288264.19995,16
1659968901.92352,1288264.1999585,11
1659968901.92352,1288264.1999707,76
1659968901.92352,1288264.2001241,343
1659968901.92352,1288264.2001433,723
1659968901.92352,1288264.2001517,881
1659968901.92352,1288264.2001587,489
1659968901.92352,1288264.2001657,-183
1659968901.92352,1288264.2001722,-336
1659968901.92352,1288264.200179,-32
1659968901.92352,1288264.2001862,16
1659968901.92352,1288264.200193,-104
1659968901.92352,1288264.2001997,-46
1659968901.92352,1288264.2002063,9
1659968901.92352,1288264.200213,-27
1659968901.92352,1288264.2002183,-25
1659968901.92352,1288264.2002217,9
1659968901.92352,1288264.2002254,6
1659968901.92352,1288264.2002291,0

1659968901.92352,1288264.2002328,13
1659968901.92352,1288264.2002366,27
1659968901.92352,1288264.2002403,34
1659968901.92352,1288264.2002442,48
1659968901.92352,1288264.200248,60
1659968901.92352,1288264.2002518,74
1659968901.92352,1288264.2002556,92
1659968901.92352,1288264.2002592,113
1659968901.92352,1288264.200263,134
1659968901.92352,1288264.2002669,157
1659968901.92352,1288264.2002706,169
1659968901.92352,1288264.2002744,171
1659968901.93549,1288264.200278,185
1659968901.93549,1288264.2002818,208
1659968901.93549,1288264.2002855,224
1659968901.93549,1288264.2002893,227
1659968901.93549,1288264.2002929,224
1659968901.93549,1288264.2002966,222
1659968901.93549,1288264.2003003,218
1659968901.93549,1288264.200304,192
1659968901.93549,1288264.2003078,146
1659968901.93549,1288264.2003116,113
1659968901.93549,1288264.8331122,102
1659968901.93549,1288264.8331313,85
1659968901.93549,1288264.8331411,74
1659968901.93549,1288264.8331483,76
1659968901.93549,1288264.8331538,85
1659968901.93549,1288264.8331597,85
1659968901.93549,1288264.8331691,81
1659968901.93549,1288264.8331799,76
1659968901.93549,1288264.8331868,64
1659968901.93549,1288264.8331913,62
1659968901.93549,1288264.8331954,74
1659968901.93549,1288264.8331996,71
1659968901.93549,1288264.8332041,67
1659968901.93549,1288264.8332084,51
1659968902.37183,1288264.8332124,18
1659968902.37183,1288264.8332174,13
1659968902.37183,1288264.8332283,27
1659968902.37183,1288264.833239,25
1659968902.37183,1288264.8332462,30
1659968902.37183,1288264.8332513,41
1659968902.37183,1288264.833256,37
1659968902.37183,1288264.8332603,30
1659968902.37183,1288264.8332645,34
1659968902.37183,1288264.8332687,37
1659968902.37183,1288264.833273,39
1659968902.37183,1288264.8332771,30
1659968902.37183,1288264.8332814,0
1659968902.37183,1288264.8332857,-16
1659968902.37183,1288264.8332919,9
1659968902.37183,1288264.8332962,37
1659968902.37183,1288264.8333018,46
1659968902.37183,1288264.8333065,53
1659968902.37183,1288264.8333105,41
1659968902.37183,1288264.8333145,23
1659968902.37183,1288264.8333183,18
1659968902.37183,1288264.8333236,25
1659968902.37183,1288264.8333271,30
1659968902.37183,1288264.8333307,37
1659968902.37183,1288264.8333362,39
1659968902.37183,1288264.8333397,25
1659968902.37183,1288264.8333432,74
1659968902.37183,1288264.8333468,310
1659968902.37183,1288264.8333504,672
1659968902.37183,1288264.833354,872
1659968902.37183,1288264.8333576,586
1659968902.37183,1288264.8333631,-46
1659968902.37183,1288264.8333676,-292
1659968902.37183,1288264.8333726,-27
1659968902.37183,1288264.8333762,83
1659968902.37183,1288264.8333799,-20
1659968902.37183,1288264.8333849,9
1659968902.37183,1288264.8333885,71
1659968902.37183,1288264.833392,39
1659968902.37183,1288264.8333956,25
1659968902.37183,1288264.8333992,57
1659968902.37183,1288264.8334039,60
1659968902.37183,1288264.8334074,51
1659968902.37183,1288264.8334122,69
1659968902.37183,1288264.8334157,81
1659968902.37183,1288264.8334193,76
1659968902.37183,1288264.833423,76
1659968902.37183,1288264.8334278,83
1659968902.37183,1288264.8334313,99
1659968902.37183,1288264.8334363,118
1659968902.3828,1288264.8334397,129
1659968902.3828,1288264.8334434,136
1659968902.3828,1288264.8334483,155
1659968902.3828,1288264.8334519,183
1659968902.3828,1288264.8334554,199
1659968902.3828,1288264.833459,206
1659968902.3828,1288264.8334625,211
1659968902.3828,1288264.8334677,218
1659968902.3828,1288264.8334725,227
1659968902.3828,1288265.2711642,243
1659968902.3828,1288265.2711854,259
1659968902.3828,1288265.2711934,248
1659968902.3828,1288265.2711961,224
1659968902.3828,1288265.2711982,197
1659968902.3828,1288265.2712002,164
1659968902.3828,1288265.2712022,139
1659968902.3828,1288265.2712042,125
1659968902.3828,1288265.2712063,113
1659968902.3828,1288265.2712082,106
1659968902.3828,1288265.2712101,115
1659968902.3828,1288265.2712121,115
1659968902.3828,1288265.2712141,97
1659968902.3828,1288265.2712161,92
1659968902.3828,1288265.2712179,104
1659968902.95716,1288265.2712199,102
1659968902.95716,1288265.2712228,90
1659968902.95716,1288265.2712333,81
1659968902.95716,1288265.2712419,81
1659968902.95716,1288265.2712443,81
1659968902.95716,1288265.2712464,74
1659968902.95716,1288265.2712484,69
1659968902.95716,1288265.2712504,67
1659968902.95716,1288265.2712525,51
1659968902.95716,1288265.2712544,34
1659968902.95716,1288265.2712617,41
1659968902.95716,1288265.2712711,46
1659968902.95716,1288265.2712745,46
1659968902.95716,1288265.2712766,46
1659968902.95716,1288265.2712786,27
1659968902.95716,1288265.2712805,6
1659968902.95716,1288265.2712824,11
1659968902.95716,1288265.27129,13
1659968902.95716,1288265.271299,6
1659968902.95716,1288265.2713022,6
1659968902.95716,1288265.2713043,2
1659968902.95716,1288265.2713101,-9
1659968902.95716,1288265.271318,-2
1659968902.95716,1288265.2713232,6
1659968902.95716,1288265.2713288,4
1659968902.95716,1288265.2713348,0
1659968902.95716,1288265.2713409,16
1659968902.95716,1288265.2713573,34
1659968902.95716,1288265.2713601,37
1659968902.95716,1288265.2713623,39
1659968902.95716,1288265.2713644,39
1659968902.95716,1288265.2713672,20
1659968902.95716,1288265.2713693,6
1659968902.95716,1288265.2713713,2
1659968902.95716,1288265.2713735,6
1659968902.95716,1288265.2713755,13
1659968902.95716,1288265.2713776,18
1659968902.95716,1288265.2713796,9
1659968902.95716,1288265.2713816,34
1659968902.95716,1288265.2713837,222
1659968902.95716,1288265.2713858,545
1659968902.95716,1288265.271393,749
1659968902.95716,1288265.2714041,526
1659968902.95716,1288265.271409,-44
1659968902.95716,1288265.2714123,-301
1659968902.95716,1288265.2714147,-74
1659968902.95716,1288265.2714197,34
1659968902.95716,1288265.2714312,-60
1659968902.95716,1288265.2714364,-39
1659968902.95716,1288265.2714387,18
1659968902.97114,1288265.2714408,4
1659968902.97114,1288265.2714429,6
1659968902.97114,1288265.2714452,23
1659968902.97114,1288265.2714557,20
1659968902.97114,1288265.2714633,25
1659968902.97114,1288265.2714663,44
1659968902.97114,1288265.2714691,51
1659968902.97114,1288265.2714797,55
1659968902.97114,1288265.8561638,64
1659968902.97114,1288265.8561823,74
1659968902.97114,1288265.8561879,78
1659968902.97114,1288265.8561912,90
1659968902.97114,1288265.8561943,109
1659968902.97114,1288265.8561973,125
1659968902.97114,1288265.8562005,127
1659968902.97114,1288265.8562035,120
1659968902.97114,1288265.8562065,122
1659968902.97114,1288265.8562095,146
1659968902.97114,1288265.8562126,164
1659968902.97114,1288265.8562538,166
1659968902.97114,1288265.8562663,171
1659968902.97114,1288265.8562756,173
1659968902.97114,1288265.8562859,162
1659968902.97114,1288265.8562933,162
1659968903.53748,1288265.8563003,169
1659968903.53748,1288265.8563049,150
1659968903.53748,1288265.8563114,111
1659968903.53748,1288265.8563157,76
1659968903.53748,1288265.8563197,53
1659968903.53748,1288265.8563243,46
1659968903.53748,1288265.8563293,53
1659968903.53748,1288265.8563337,53
1659968903.53748,1288265.856338,53
1659968903.53748,1288265.856341,55
1659968903.53748,1288265.8563442,55
1659968903.53748,1288265.8563482,57
1659968903.53748,1288265.8563552,62
1659968903.53748,1288265.8563622,55
1659968903.53748,1288265.8563689,53
1659968903.53748,1288265.8563749,60
1659968903.53748,1288265.8563789,53
1659968903.53748,1288265.8563838,46
1659968903.53748,1288265.8563893,48
1659968903.53748,1288265.8563928,41
1659968903.53748,1288265.8563994,39
1659968903.53748,1288265.8564048,46
1659968903.53748,1288265.856414,44
1659968903.53748,1288265.8564215,32
1659968903.53748,1288265.8564258,37
1659968903.53748,1288265.856429,53
1659968903.53748,1288265.8564319,48
1659968903.53748,1288265.8564349,39
1659968903.53748,1288265.8564381,37
1659968903.53748,1288265.8564411,23
1659968903.53748,1288265.856444,13
1659968903.53748,1288265.8564468,25
1659968903.53748,1288265.8564498,25
1659968903.53748,1288265.8564527,18
1659968903.53748,1288265.8564555,27
1659968903.53748,1288265.8564596,32
1659968903.53748,1288265.8564727,27
1659968903.53748,1288265.8564857,30
1659968903.53748,1288265.8564998,32
1659968903.53748,1288265.856513,30
1659968903.53748,1288265.8565261,37
1659968903.53748,1288265.8565385,44
1659968903.53748,1288265.8565788,41
1659968903.53748,1288265.8565922,41
1659968903.53748,1288265.8565987,46
1659968903.53748,1288265.8566043,46
1659968903.53748,1288265.8566129,48
1659968903.53748,1288265.8566163,69
1659968903.53748,1288265.8566194,85
1659968903.53748,1288265.8566228,90
1659968903.54646,1288265.856626,95
1659968903.54646,1288265.8566294,69
1659968903.54646,1288265.8566331,41
1659968903.54646,1288265.8566365,41
1659968903.54646,1288265.85664,48
1659968903.54646,1288265.8566457,51
1659968903.54646,1288265.8566511,55
1659968903.54646,1288266.4416377,51
1659968903.54646,1288266.4416573,69
1659968903.54646,1288266.4416729,231
1659968903.54646,1288266.4416821,561
1659968903.54646,1288266.4416882,834
1659968903.54646,1288266.4416917,714
1659968903.54646,1288266.4416977,136
1659968903.54646,1288266.441701,-280
1659968903.54646,1288266.4417071,-120
1659968903.54646,1288266.4417103,81
1659968903.54646,1288266.441716,-11
1659968903.54646,1288266.4417193,-55
1659968903.54646,1288266.4417253,9
1659968903.54646,1288266.4417285,11
1659968903.54646,1288266.4417349,4
1659968903.54646,1288266.4417389,30
1659968903.54646,1288266.4417421,23
1659968904.12336,1288266.4417481,-2
1659968904.12336,1288266.4417535,6
1659968904.12336,1288266.4417602,25
1659968904.12336,1288266.441767,27
1659968904.12336,1288266.4417739,37
1659968904.12336,1288266.4417802,60
1659968904.12336,1288266.4417844,71
1659968904.12336,1288266.4417894,74
1659968904.12336,1288266.4417928,83
1659968904.12336,1288266.4417969,97
1659968904.12336,1288266.4418008,115
1659968904.12336,1288266.4418056,134
1659968904.12336,1288266.4418102,148
1659968904.12336,1288266.4418159,157
1659968904.12336,1288266.4418232,169
1659968904.12336,1288266.4418287,185
1659968904.12336,1288266.4418331,199
1659968904.12336,1288266.4418363,208
1659968904.12336,1288266.4418433,215
1659968904.12336,1288266.4418513,215
1659968904.12336,1288266.4418974,206
1659968904.12336,1288266.4419014,183
1659968904.12336,1288266.4419047,150
1659968904.12336,1288266.4419078,115
1659968904.12336,1288266.4419113,85
1659968904.12336,1288266.4419165,62
1659968904.12336,1288266.4419201,51
1659968904.12336,1288266.4419236,51
1659968904.12336,1288266.4419275,55
1659968904.12336,1288266.4419314,60
1659968904.12336,1288266.4419359,64
1659968904.12336,1288266.441941,57
1659968904.12336,1288266.4419444,48
1659968904.12336,1288266.4419495,51
1659968904.12336,1288266.4419525,60
1659968904.12336,1288266.4419555,64
1659968904.12336,1288266.4419585,57
1659968904.12336,1288266.4419616,44
1659968904.12336,1288266.4419649,41
1659968904.12336,1288266.4419681,51
1659968904.12336,1288266.4419713,44
1659968904.12336,1288266.4419747,30
1659968904.12336,1288266.4419785,30
1659968904.12336,1288266.4419825,39
1659968904.12336,1288266.4419869,37
1659968904.12336,1288266.4419932,34
1659968904.12336,1288266.4419987,37
1659968904.12336,1288266.4420024,37
1659968904.12336,1288266.4420085,37
1659968904.12336,1288266.4420117,30
1659968904.13533,1288266.442018,23
1659968904.13533,1288266.4420212,20
1659968904.13533,1288266.442026,23
1659968904.13533,1288266.4420288,27
1659968904.13533,1288266.4420326,30
1659968904.13533,1288266.442036,27
1659968904.13533,1288267.0274497,27
1659968904.13533,1288267.0274686,23
1659968904.13533,1288267.0274735,32
1659968904.13533,1288267.0274774,60
1659968904.13533,1288267.0274821,71
1659968904.13533,1288267.0274868,69
1659968904.13533,1288267.0274917,64
1659968904.13533,1288267.0274971,32
1659968904.13533,1288267.027516,0
1659968904.13533,1288267.0275245,4
1659968904.13533,1288267.027532,18
1659968904.13533,1288267.0275389,13
1659968904.13533,1288267.0275433,11
1659968904.13533,1288267.0275477,0
1659968904.13533,1288267.027552,39
1659968904.13533,1288267.0275564,266
1659968904.13533,1288267.027561,633
1659968904.13533,1288267.0275671,825
1659968904.60695,1288267.0275708,512
1659968904.60695,1288267.0275746,-146
1659968904.60695,1288267.0275781,-385
1659968904.60695,1288267.0275817,-97
1659968904.60695,1288267.0275853,18
1659968904.60695,1288267.0275888,-85
1659968904.60695,1288267.0275924,-51
1659968904.60695,1288267.0275959,9
1659968904.60695,1288267.0275994,-20
1659968904.60695,1288267.027603,-23
1659968904.60695,1288267.0276065,9
1659968904.60695,1288267.0276099,6
1659968904.60695,1288267.0276176,-2
1659968904.60695,1288267.0276243,4
1659968904.60695,1288267.0276294,16
1659968904.60695,1288267.0276345,20
1659968904.60695,1288267.0276397,34
1659968904.60695,1288267.0276446,51
1659968904.60695,1288267.0276495,64
1659968904.60695,1288267.0276543,85
1659968904.60695,1288267.027659,102
1659968904.60695,1288267.0276633,118
1659968904.60695,1288267.0276677,136
1659968904.60695,1288267.0276726,155
1659968904.60695,1288267.0276777,169
1659968904.60695,1288267.0276828,187
1659968904.60695,1288267.0276878,197
1659968904.60695,1288267.0276926,201
1659968904.60695,1288267.0276973,206
1659968904.60695,1288267.0277019,215
1659968904.60695,1288267.0277065,220
1659968904.60695,1288267.0277112,222
1659968904.60695,1288267.0277161,208
1659968904.60695,1288267.0277206,173
1659968904.60695,1288267.0277274,139
1659968904.60695,1288267.0277537,111
1659968904.60695,1288267.0278107,99
1659968904.60695,1288267.0278197,95
1659968904.60695,1288267.0278246,92
1659968904.60695,1288267.0278459,90
1659968904.60695,1288267.0278558,90
1659968904.60695,1288267.0278604,85
1659968904.60695,1288267.0278647,83
1659968904.60695,1288267.0278689,83
1659968904.60695,1288267.027873,85
1659968904.60695,1288267.0278769,90
1659968904.60695,1288267.027881,88
1659968904.60695,1288267.0278853,78
1659968904.60695,1288267.02789,71
1659968904.60695,1288267.0278944,71
1659968904.61692,1288267.0278989,74
1659968904.61692,1288267.0279033,78
1659968904.61692,1288267.0279077,76
1659968904.61692,1288267.027912,71
1659968904.61692,1288267.0279164,76
1659968904.61692,1288267.5137386,83
1659968904.61692,1288267.5137583,88
1659968904.61692,1288267.5137653,92
1659968904.61692,1288267.5137748,78
1659968904.61692,1288267.5137813,62
1659968904.61692,1288267.5137863,67
1659968904.61692,1288267.5137914,69
1659968904.61692,1288267.5137963,60
1659968904.61692,1288267.5138012,51
1659968904.61692,1288267.5138083,46
1659968904.61692,1288267.5138131,34
1659968904.61692,1288267.5138195,25
1659968904.61692,1288267.5138242,32
1659968904.61692,1288267.513829,37
1659968904.61692,1288267.5138339,39
1659968904.61692,1288267.5138387,46
1659968904.61692,1288267.5138454,23
1659968904.61692,1288267.5138518,0
1659968904.61692,1288267.513859,23
1659968905.18934,1288267.5138638,48
1659968905.18934,1288267.5138689,55
1659968905.18934,1288267.5138733,64
1659968905.18934,1288267.513878,46
1659968905.18934,1288267.5138827,6
1659968905.18934,1288267.5138874,2
1659968905.18934,1288267.5139115,23
1659968905.18934,1288267.5139207,27
1659968905.18934,1288267.5139261,27
1659968905.18934,1288267.5139296,20
1659968905.18934,1288267.5139328,25
1659968905.18934,1288267.5139361,164
1659968905.18934,1288267.5139392,500
1659968905.18934,1288267.5139423,818
1659968905.18934,1288267.5139454,725
1659968905.18934,1288267.5139484,132
1659968905.18934,1288267.5139513,-324
1659968905.18934,1288267.5139543,-169
1659968905.18934,1288267.5139577,53
1659968905.18934,1288267.5139608,-18
1659968905.18934,1288267.5139637,-44
1659968905.18934,1288267.5139668,16
1659968905.18934,1288267.51397,0
1659968905.18934,1288267.513973,-11
1659968905.18934,1288267.5139759,20
1659968905.18934,1288267.5139788,34
1659968905.18934,1288267.5139818,34
1659968905.18934,1288267.5139847,39
1659968905.18934,1288267.5139877,46
1659968905.18934,1288267.5139908,53
1659968905.18934,1288267.5139939,64
1659968905.18934,1288267.5139967,78
1659968905.18934,1288267.5139998,90
1659968905.18934,1288267.5140026,104
1659968905.18934,1288267.514007,120
1659968905.18934,1288267.5140108,134
1659968905.18934,1288267.5140182,148
1659968905.18934,1288267.5140271,166
1659968905.18934,1288267.5140338,176
1659968905.18934,1288267.514041,183
1659968905.18934,1288267.5140463,199
1659968905.18934,1288267.5140506,206
1659968905.18934,1288267.514056,204
1659968905.18934,1288267.5140607,215
1659968905.18934,1288267.514064,231
1659968905.18934,1288267.5140704,241
1659968905.18934,1288267.5140741,241
1659968905.18934,1288267.5140794,222
1659968905.18934,1288267.5140827,180
1659968905.18934,1288267.5140882,139
1659968905.20031,1288267.5140918,118
1659968905.20031,1288267.5140969,106
1659968905.20031,1288267.5141022,97
1659968905.20031,1288267.5141058,85
1659968905.20031,1288268.0990591,78
1659968905.20031,1288268.0990762,81
1659968905.20031,1288268.0990804,81
1659968905.20031,1288268.099084,76
1659968905.20031,1288268.0990876,81
1659968905.20031,1288268.0990909,88
1659968905.20031,1288268.0990945,76
1659968905.20031,1288268.099098,46
1659968905.20031,1288268.0991013,27
1659968905.20031,1288268.0991048,32
1659968905.20031,1288268.0991081,41
1659968905.20031,1288268.0991115,37
1659968905.20031,1288268.099115,32
1659968905.20031,1288268.0991192,27
1659968905.20031,1288268.0991232,6
1659968905.20031,1288268.0991261,-11
1659968905.20031,1288268.0991287,-13
1659968905.20031,1288268.0991314,-11
1659968905.20031,1288268.099134,-9
1659968905.20031,1288268.0991368,-9
1659968905.78108,1288268.0991394,-13
1659968905.78108,1288268.0991425,-20
1659968905.78108,1288268.0991452,-20
1659968905.78108,1288268.0991478,-13
1659968905.78108,1288268.0991505,-9
1659968905.78108,1288268.0991531,-9
1659968905.78108,1288268.0991557,-13
1659968905.78108,1288268.0991584,-9
1659968905.78108,1288268.099161,-6
1659968905.78108,1288268.0991636,-2
1659968905.78108,1288268.0991662,4
1659968905.78108,1288268.0991689,-2
1659968905.78108,1288268.0991715,-13
1659968905.78108,1288268.0991741,2
1659968905.78108,1288268.0991768,30
1659968905.78108,1288268.0991795,41
1659968905.78108,1288268.099182,53
1659968905.78108,1288268.0991847,48
1659968905.78108,1288268.0991874,25
1659968905.78108,1288268.09919,11
1659968905.78108,1288268.0991927,11
1659968905.78108,1288268.0991954,23
1659968905.78108,1288268.099198,34
1659968905.78108,1288268.0992006,34
1659968905.78108,1288268.0992033,30
1659968905.78108,1288268.0992072,99
1659968905.78108,1288268.0992108,345
1659968905.78108,1288268.0992143,700
1659968905.78108,1288268.0992188,830
1659968905.78108,1288268.0992253,438
1659968905.78108,1288268.0992322,-164
1659968905.78108,1288268.0992382,-266
1659968905.78108,1288268.0992433,4
1659968905.78108,1288268.0992464,48
1659968905.78108,1288268.0992498,-34
1659968905.78108,1288268.0992532,13
1659968905.78108,1288268.0992565,44
1659968905.78108,1288268.0992595,13
1659968905.78108,1288268.0992626,23
1659968905.78108,1288268.0992658,55
1659968905.78108,1288268.0992691,55
1659968905.78108,1288268.0992723,46
1659968905.78108,1288268.0992754,53
1659968905.78108,1288268.0992783,62
1659968905.78108,1288268.0992814,60
1659968905.78108,1288268.0992846,62
1659968905.78108,1288268.0992877,81
1659968905.78108,1288268.0992909,99
1659968905.78108,1288268.0992942,113
1659968905.78108,1288268.0992973,125
1659968905.79404,1288268.0993007,136
1659968905.79404,1288268.0993042,153
1659968905.79404,1288268.0993077,169
1659968905.79404,1288268.6834786,185
1659968905.79404,1288268.683499,197
1659968905.79404,1288268.6835085,201
1659968905.79404,1288268.6835135,211
1659968905.79404,1288268.683517,222
1659968905.79404,1288268.6835202,236
1659968905.79404,1288268.6835232,252
1659968905.79404,1288268.6835262,255
1659968905.79404,1288268.683529,222
1659968905.79404,1288268.6835331,171
1659968905.79404,1288268.683537,120
1659968905.79404,1288268.6835428,78
1659968905.79404,1288268.6835482,53
1659968905.79404,1288268.6835535,48
1659968905.79404,1288268.6835572,44
1659968905.79404,1288268.6835604,41
1659968905.79404,1288268.6835635,30
1659968905.79404,1288268.6835668,9
1659968905.79404,1288268.6835701,9
1659968905.79404,1288268.6835732,20
1659968905.79404,1288268.6835761,16
1659968906.32309,1288268.6835794,13
1659968906.32309,1288268.6835844,11
1659968906.32309,1288268.6835883,0
1659968906.32309,1288268.6835931,-4
1659968906.32309,1288268.6835981,0
1659968906.32309,1288268.6836021,4
1659968906.32309,1288268.6836065,9
1659968906.32309,1288268.6836132,6
1659968906.32309,1288268.6836202,6
1659968906.32309,1288268.6836272,11
1659968906.32309,1288268.6836313,16
1659968906.32309,1288268.6836357,23
1659968906.32309,1288268.6836391,30
1659968906.32309,1288268.6836427,25
1659968906.32309,1288268.6836463,20
1659968906.32309,1288268.6836502,18
1659968906.32309,1288268.6836547,13
1659968906.32309,1288268.6836584,11
1659968906.32309,1288268.6836628,13
1659968906.32309,1288268.6836665,16
1659968906.32309,1288268.6836711,20
1659968906.32309,1288268.6836752,25
1659968906.32309,1288268.6836796,25
1659968906.32309,1288268.6836862,16
1659968906.32309,1288268.6836907,13
1659968906.32309,1288268.6836961,30
1659968906.32309,1288268.683701,51
1659968906.32309,1288268.6837052,60
1659968906.32309,1288268.6837131,69
1659968906.32309,1288268.683717,69
1659968906.32309,1288268.6837216,46
1659968906.32309,1288268.6837295,32
1659968906.32309,1288268.6837341,34
1659968906.32309,1288268.6837395,34
1659968906.32309,1288268.683744,37
1659968906.32309,1288268.6837486,41
1659968906.32309,1288268.6837539,44
1659968906.32309,1288268.6837585,111
1659968906.32309,1288268.6837646,361
1659968906.32309,1288268.6837699,723
1659968906.32309,1288268.683775,855
1659968906.32309,1288268.6837796,452
1659968906.32309,1288268.6837857,-173
1659968906.32309,1288268.6837903,-289
1659968906.32309,1288268.6837949,0
1659968906.32309,1288268.6838009,60
1659968906.32309,1288268.6838054,-25
1659968906.32309,1288268.6838108,18
1659968906.32309,1288268.6838153,53
1659968906.32309,1288268.683819,27
1659968906.33207,1288268.6838242,41
1659968906.33207,1288268.683828,67
1659968906.33207,1288269.2207463,62
1659968906.33207,1288269.220764,57
1659968906.33207,1288269.2207705,60
1659968906.33207,1288269.2207758,62
1659968906.33207,1288269.2207822,74
1659968906.33207,1288269.2207892,92
1659968906.33207,1288269.2207953,97
1659968906.33207,1288269.2208023,83
1659968906.33207,1288269.2208075,76
1659968906.33207,1288269.2208136,102
1659968906.33207,1288269.2208216,129
1659968906.33207,1288269.2208271,141
1659968906.33207,1288269.2208343,155
1659968906.33207,1288269.2208393,166
1659968906.33207,1288269.2208445,173
1659968906.33207,1288269.2208516,187
1659968906.33207,1288269.220858,204
1659968906.33207,1288269.2208635,215
1659968906.33207,1288269.2208745,229
1659968906.33207,1288269.2208886,236
1659968906.33207,1288269.2209007,211
1659968906.33207,1288269.2209114,176
1659968906.84767,1288269.2209228,148
1659968906.84767,1288269.2209306,113
1659968906.84767,1288269.2209377,78
1659968906.84767,1288269.2209449,57
1659968906.84767,1288269.2209511,46
1659968906.84767,1288269.2209566,39
1659968906.84767,1288269.220962,44
1659968906.84767,1288269.220966,46
1659968906.84767,1288269.2209705,44
1659968906.84767,1288269.2209745,41
1659968906.84767,1288269.2209881,41
1659968906.84767,1288269.2210007,39
1659968906.84767,1288269.2210131,39
1659968906.84767,1288269.2210244,41
1659968906.84767,1288269.2210374,41
1659968906.84767,1288269.221053,34
1659968906.84767,1288269.2210625,27
1659968906.84767,1288269.2210719,25
1659968906.84767,1288269.2210839,30
1659968906.84767,1288269.2210892,37
1659968906.84767,1288269.2210992,37
1659968906.84767,1288269.2211172,32
1659968906.84767,1288269.2211286,37
1659968906.84767,1288269.2211372,37
1659968906.84767,1288269.2211451,27
1659968906.84767,1288269.2211525,27
1659968906.84767,1288269.221161,30
1659968906.84767,1288269.2211699,27
1659968906.84767,1288269.2211772,20
1659968906.84767,1288269.221182,11
1659968906.84767,1288269.2211884,6
1659968906.84767,1288269.2211928,18
1659968906.84767,1288269.2211988,30
1659968906.84767,1288269.2212032,37
1659968906.84767,1288269.2212091,44
1659968906.84767,1288269.2212145,44
1659968906.84767,1288269.2212206,27
1659968906.84767,1288269.2212252,9
1659968906.84767,1288269.2212314,4
1659968906.84767,1288269.2212368,9
1659968906.84767,1288269.2212429,16
1659968906.84767,1288269.2212494,18
1659968906.84767,1288269.2212587,2
1659968906.84767,1288269.2212683,20
1659968906.84767,1288269.2212761,190
1659968906.84767,1288269.2212838,526
1659968906.84767,1288269.2212901,807
1659968906.84767,1288269.2212949,672
1659968906.84767,1288269.2212992,48
1659968906.84767,1288269.2213024,-396
1659968906.85764,1288269.2213085,-206
1659968906.85764,1288269.7561472,13
1659968906.85764,1288269.7561641,-69
1659968906.85764,1288269.7561727,-83
1659968906.85764,1288269.7561804,-11
1659968906.85764,1288269.7561855,-30
1659968906.85764,1288269.7561911,-57
1659968906.85764,1288269.7561963,-30
1659968906.85764,1288269.7562015,-20
1659968906.85764,1288269.7562069,-23
1659968906.85764,1288269.7562118,-13
1659968906.85764,1288269.756217,-18
1659968906.85764,1288269.7562221,-32
1659968906.85764,1288269.756227,-20
1659968906.85764,1288269.7562319,0
1659968906.85764,1288269.7562364,11
1659968906.85764,1288269.7562411,16
1659968906.85764,1288269.7562478,18
1659968906.85764,1288269.756253,16
1659968906.85764,1288269.7562598,34
1659968906.85764,1288269.7562664,60
1659968906.85764,1288269.7562724,74
1659968906.85764,1288269.7562787,88
1659968906.85764,1288269.7562853,97
1659968907.44283,1288269.7562903,90
1659968907.44283,1288269.7562949,92
1659968907.44283,1288269.756299,120
1659968907.44283,1288269.7563037,139
1659968907.44283,1288269.7563079,141
1659968907.44283,1288269.7563125,125
1659968907.44283,1288269.7563171,88
1659968907.44283,1288269.7563212,46
1659968907.44283,1288269.7563258,18
1659968907.44283,1288269.7563305,11
1659968907.44283,1288269.7563352,11
1659968907.44283,1288269.7563399,11
1659968907.44283,1288269.7563442,6
1659968907.44283,1288269.7563496,-4
1659968907.44283,1288269.7563556,-9
1659968907.44283,1288269.7563604,2
1659968907.44283,1288269.7563642,2
1659968907.44283,1288269.7563678,-2
1659968907.44283,1288269.7563715,2
1659968907.44283,1288269.7563752,0
1659968907.44283,1288269.756379,-6
1659968907.44283,1288269.7563829,-2
1659968907.44283,1288269.7563869,-2
1659968907.44283,1288269.7563928,-4
1659968907.44283,1288269.7563992,-4
1659968907.44283,1288269.7564054,-6
1659968907.44283,1288269.7564107,-11
1659968907.44283,1288269.7564149,-4
1659968907.44283,1288269.7564197,0
1659968907.44283,1288269.756427,2
1659968907.44283,1288269.7564328,-2
1659968907.44283,1288269.7564363,-11
1659968907.44283,1288269.7564395,-11
1659968907.44283,1288269.7564425,0
1659968907.44283,1288269.7564456,0
1659968907.44283,1288269.7564487,-6
1659968907.44283,1288269.7564517,-13
1659968907.44283,1288269.7564548,-23
1659968907.44283,1288269.7564604,-27
1659968907.44283,1288269.7564729,-9
1659968907.44283,1288269.7564836,9
1659968907.44283,1288269.7564921,6
1659968907.44283,1288269.7564992,-11
1659968907.44283,1288269.7565113,-32
1659968907.44283,1288269.7565216,-39
1659968907.44283,1288269.7565281,-41
1659968907.44283,1288269.7565405,-44
1659968907.44283,1288269.7565511,-41
1659968907.44283,1288269.7565596,-39
1659968907.44283,1288269.7565699,-13
1659968907.4538,1288270.3415515,150
1659968907.4538,1288270.3415723,498
1659968907.4538,1288270.3415825,786
1659968907.4538,1288270.3415889,621
1659968907.4538,1288270.3415987,4
1659968907.4538,1288270.3416087,-378
1659968907.4538,1288270.3416152,-192
1659968907.4538,1288270.3416203,-30
1659968907.4538,1288270.3416287,-122
1659968907.4538,1288270.3416377,-120
1659968907.4538,1288270.3416495,-55
1659968907.4538,1288270.3416628,-78
1659968907.4538,1288270.3416699,-88
1659968907.4538,1288270.3416723,-76
1659968907.4538,1288270.3416746,-88
1659968907.4538,1288270.3416767,-74
1659968907.4538,1288270.3416788,-44
1659968907.4538,1288270.3416808,-39
1659968907.4538,1288270.3416831,-34
1659968907.4538,1288270.3416908,-18
1659968907.4538,1288270.3417015,-4
1659968907.4538,1288270.3417052,9
1659968907.4538,1288270.3417081,23
1659968907.4538,1288270.341711,37
1659968908.16812,1288270.3417192,57
1659968908.16812,1288270.3417287,76
1659968908.16812,1288270.341734,81
1659968908.16812,1288270.3417388,92
1659968908.16812,1288270.3417434,104
1659968908.16812,1288270.3417484,109
1659968908.16812,1288270.3417532,120
1659968908.16812,1288270.3417578,139
1659968908.16812,1288270.3417622,150
1659968908.16812,1288270.3417663,164
1659968908.16812,1288270.3417708,171
1659968908.16812,1288270.3417761,153
1659968908.16812,1288270.3417832,115
1659968908.16812,1288270.3417882,85
1659968908.16812,1288270.3417946,57
1659968908.16812,1288270.3418016,37
1659968908.16812,1288270.3418083,34
1659968908.16812,1288270.3418139,37
1659968908.16812,1288270.3418202,34
1659968908.16812,1288270.3418251,37
1659968908.16812,1288270.3418317,37
1659968908.16812,1288270.3418374,32
1659968908.16812,1288270.3418439,30
1659968908.16812,1288270.3418489,34
1659968908.16812,1288270.3418553,41
1659968908.16812,1288270.3418606,46
1659968908.16812,1288270.3418671,46
1659968908.16812,1288270.3418721,37
1659968908.16812,1288270.3418789,20
1659968908.16812,1288270.3418828,11
1659968908.16812,1288270.3418869,13
1659968908.16812,1288270.3418889,16
1659968908.16812,1288270.341891,18
1659968908.16812,1288270.3418932,23
1659968908.16812,1288270.3418984,20
1659968908.16812,1288270.3419098,9
1659968908.16812,1288270.3419153,11
1659968908.16812,1288270.3419182,20
1659968908.16812,1288270.3419204,23
1659968908.16812,1288270.341928,18
1659968908.16812,1288270.3419415,13
1659968908.16812,1288270.3419557,6
1659968908.16812,1288270.3419685,6
1659968908.16812,1288270.3419817,18
1659968908.16812,1288270.3419937,34
1659968908.16812,1288270.3420037,48
1659968908.16812,1288270.3420113,57
1659968908.16812,1288270.3420206,55
1659968908.16812,1288270.3420312,34
1659968908.16812,1288271.0743675,20
1659968908.17809,1288271.0743864,27
1659968908.17809,1288271.0743956,27
1659968908.17809,1288271.0744042,16
1659968908.17809,1288271.0744124,4
1659968908.17809,1288271.0744198,-9
1659968908.17809,1288271.0744271,-11
1659968908.17809,1288271.0744344,113
1659968908.17809,1288271.0744413,445
1659968908.17809,1288271.074446,790
1659968908.17809,1288271.0744496,746
1659968908.17809,1288271.0744533,178
1659968908.17809,1288271.0744596,-315
1659968908.17809,1288271.0744647,-201
1659968908.17809,1288271.0744713,37
1659968908.17809,1288271.0744833,-18
1659968908.17809,1288271.0745324,-71
1659968908.17809,1288271.0745403,-23
1659968908.17809,1288271.0745539,-25
1659968908.17809,1288271.0745639,-44
1659968908.17809,1288271.0745722,-20
1659968908.17809,1288271.0745776,-2
1659968908.17809,1288271.0745832,-4
1659968908.17809,1288271.0745887,0
1659968908.17809,1288271.074594,13
1659968908.55494,1288271.0745991,27
1659968908.55494,1288271.0746041,41
1659968908.55494,1288271.0746092,57
1659968908.55494,1288271.0746141,69
1659968908.55494,1288271.074619,76
1659968908.55494,1288271.0746239,92
1659968908.55494,1288271.0746286,115
1659968908.55494,1288271.0746338,139
1659968908.55494,1288271.0746391,157
1659968908.55494,1288271.0746444,166
1659968908.55494,1288271.0746496,176
1659968908.55494,1288271.0746549,192
1659968908.55494,1288271.0746597,208
1659968908.55494,1288271.0746647,220
1659968908.55494,1288271.0746695,231
1659968908.55494,1288271.0746745,245
1659968908.55494,1288271.0746796,250
1659968908.55494,1288271.0746844,227
1659968908.55494,1288271.0746899,187
1659968908.55494,1288271.0746948,155
1659968908.55494,1288271.0747039,122
1659968908.55494,1288271.0747092,83
1659968908.55494,1288271.0747137,67
1659968908.55494,1288271.0747182,69
1659968908.55494,1288271.0747228,62
1659968908.55494,1288271.0747271,62
1659968908.55494,1288271.0747316,64
1659968908.55494,1288271.0747361,55
1659968908.55494,1288271.0747416,55
1659968908.55494,1288271.074746,64
1659968908.55494,1288271.0747503,64
1659968908.55494,1288271.0747545,62
1659968908.55494,1288271.0747591,64
1659968908.55494,1288271.0747634,69
1659968908.55494,1288271.0747674,69
1659968908.55494,1288271.0747718,64
1659968908.55494,1288271.0747761,64
1659968908.55494,1288271.0747803,67
1659968908.55494,1288271.0747845,64
1659968908.55494,1288271.0747886,69
1659968908.55494,1288271.0747932,76
1659968908.55494,1288271.0747975,78
1659968908.55494,1288271.0748017,78
1659968908.55494,1288271.0748058,78
1659968908.55494,1288271.07481,69
1659968908.55494,1288271.0748142,69
1659968908.55494,1288271.0748185,76
1659968908.55494,1288271.0748229,71
1659968908.55494,1288271.4641033,60
1659968908.55494,1288271.4641303,62
1659968908.56467,1288271.4641455,81
1659968908.56467,1288271.4641588,88
1659968908.56467,1288271.4641678,92
1659968908.56467,1288271.4641744,99
1659968908.56467,1288271.4641827,74
1659968908.56467,1288271.4641896,30
1659968908.56467,1288271.4641964,16
1659968908.56467,1288271.4642027,20
1659968908.56467,1288271.4642072,18
1659968908.56467,1288271.4642111,18
1659968908.56467,1288271.464215,18
1659968908.56467,1288271.464228,41
1659968908.56467,1288271.4642378,201
1659968908.56467,1288271.4642496,540
1659968908.56467,1288271.4642573,830
1659968908.56467,1288271.4642659,700
1659968908.56467,1288271.4642733,88
1659968908.56467,1288271.4642825,-350
1659968908.56467,1288271.4643034,-169
1659968908.56467,1288271.4643145,48
1659968908.56467,1288271.4643217,-32
1659968908.56467,1288271.4643274,-51
1659968908.56467,1288271.4643312,27
1659968908.56467,1288271.4643348,20
1659968909.24397,1288271.4643384,-6
1659968909.24397,1288271.4643429,20
1659968909.24397,1288271.4643466,39
1659968909.24397,1288271.4643504,34
1659968909.24397,1288271.4643545,46
1659968909.24397,1288271.4643588,64
1659968909.24397,1288271.4643634,60
1659968909.24397,1288271.4643681,57
1659968909.24397,1288271.4643722,76
1659968909.24397,1288271.4643763,97
1659968909.24397,1288271.4643806,109
1659968909.24397,1288271.4643853,125
1659968909.24397,1288271.4643899,132
1659968909.24397,1288271.4643968,132
1659968909.24397,1288271.4644038,146
1659968909.24397,1288271.4644111,160
1659968909.24397,1288271.4644158,164
1659968909.24397,1288271.4644206,171
1659968909.24397,1288271.4644247,176
1659968909.24397,1288271.4644284,162
1659968909.24397,1288271.4644324,164
1659968909.24397,1288271.464436,194
1659968909.24397,1288271.4644422,201
1659968909.24397,1288271.4644461,169
1659968909.24397,1288271.4644517,127
1659968909.24397,1288271.4644572,90
1659968909.24397,1288271.4644651,64
1659968909.24397,1288271.464472,60
1659968909.24397,1288271.464479,55
1659968909.24397,1288271.4644876,60
1659968909.24397,1288271.4644922,69
1659968909.24397,1288271.4645047,64
1659968909.24397,1288271.464518,55
1659968909.24397,1288271.464527,64
1659968909.24397,1288271.4645363,71
1659968909.24397,1288271.4645421,64
1659968909.24397,1288271.464548,67
1659968909.24397,1288271.4645514,62
1659968909.24397,1288271.4645628,57
1659968909.24397,1288271.4645723,62
1659968909.24397,1288271.464579,60
1659968909.24397,1288271.4645927,57
1659968909.24397,1288271.4646041,57
1659968909.24397,1288271.4646104,55
1659968909.24397,1288271.4646166,55
1659968909.24397,1288271.4646232,57
1659968909.24397,1288271.4646315,64
1659968909.24397,1288272.1448486,64
1659968909.24397,1288272.1448665,57
1659968909.24397,1288272.1448742,46
1659968909.25495,1288272.1448779,41
1659968909.25495,1288272.144883,39
1659968909.25495,1288272.1448862,41
1659968909.25495,1288272.1448895,41
1659968909.25495,1288272.1448945,39
1659968909.25495,1288272.1448996,44
1659968909.25495,1288272.1449044,46
1659968909.25495,1288272.1449096,34
1659968909.25495,1288272.1449156,30
1659968909.25495,1288272.1449194,48
1659968909.25495,1288272.1449249,41
1659968909.25495,1288272.1449289,13
1659968909.25495,1288272.1449344,11
1659968909.25495,1288272.1449383,2
1659968909.25495,1288272.1449436,-16
1659968909.25495,1288272.1449471,-6
1659968909.25495,1288272.1449508,4
1659968909.25495,1288272.1449557,4
1659968909.25495,1288272.144959,111
1659968909.25495,1288272.1449625,410
1659968909.25495,1288272.1449675,742
1659968909.25495,1288272.1449729,753
1659968909.25495,1288272.1449783,250
1659968909.25495,1288272.1449821,-282
1659968909.77706,1288272.1449872,-229
1659968909.77706,1288272.1449905,34

1659968909.77706,1288272.144994,4
1659968909.77706,1288272.1449976,-57
1659968909.77706,1288272.1450007,-4
1659968909.77706,1288272.145004,-4
1659968909.77706,1288272.1450077,-37
1659968909.77706,1288272.1450113,-6
1659968909.77706,1288272.1450166,16
1659968909.77706,1288272.1450225,6
1659968909.77706,1288272.1450254,16
1659968909.77706,1288272.1450288,32
1659968909.77706,1288272.1450344,39
1659968909.77706,1288272.1450413,51
1659968909.77706,1288272.1450473,62
1659968909.77706,1288272.1450545,74
1659968909.77706,1288272.1450685,88
1659968909.77706,1288272.145079,99
1659968909.77706,1288272.1450874,120
1659968909.77706,1288272.1450961,143
1659968909.77706,1288272.1451058,160
1659968909.77706,1288272.1451104,171
1659968909.77706,1288272.1451168,183
1659968909.77706,1288272.1451218,192
1659968909.77706,1288272.1451274,204
1659968909.77706,1288272.1451311,215
1659968909.77706,1288272.1451365,229
1659968909.77706,1288272.1451413,245
1659968909.77706,1288272.1451449,245
1659968909.77706,1288272.1451483,224
1659968909.77706,1288272.1451516,192
1659968909.77706,1288272.145155,160
1659968909.77706,1288272.1451585,136
1659968909.77706,1288272.1451623,118
1659968909.77706,1288272.1451658,102
1659968909.77706,1288272.1451707,97
1659968909.77706,1288272.1451764,102
1659968909.77706,1288272.1451811,104
1659968909.77706,1288272.1451866,99
1659968909.77706,1288272.1451902,92
1659968909.77706,1288272.1451939,88
1659968909.77706,1288272.1451992,90
1659968909.77706,1288272.1452035,95
1659968909.77706,1288272.1452091,95
1659968909.77706,1288272.1452136,95
1659968909.77706,1288272.1452199,92
1659968909.77706,1288272.6815159,78
1659968909.77706,1288272.6815391,71
1659968909.77706,1288272.6815471,81
1659968909.77706,1288272.6815524,83
1659968909.78803,1288272.6815588,78
1659968909.78803,1288272.6815641,88
1659968909.78803,1288272.6815707,95
1659968909.78803,1288272.6815825,83
1659968909.78803,1288272.6815964,88
1659968909.78803,1288272.6816084,102
1659968909.78803,1288272.6816161,90
1659968909.78803,1288272.6816232,78
1659968909.78803,1288272.68163,78
1659968909.78803,1288272.6816352,64
1659968909.78803,1288272.681639,55
1659968909.78803,1288272.6816427,62
1659968909.78803,1288272.681647,69
1659968909.78803,1288272.6816513,78
1659968909.78803,1288272.6816567,95
1659968909.78803,1288272.6816608,97
1659968909.78803,1288272.6816669,92
1659968909.78803,1288272.6816706,83
1659968909.78803,1288272.6816744,62
1659968909.78803,1288272.6816785,46
1659968909.78803,1288272.6816841,37
1659968909.78803,1288272.6816886,9
1659968909.78803,1288272.6816923,-13
1659968909.78803,1288272.6816963,-6
1659968910.2135,1288272.6817004,11
1659968910.2135,1288272.6817045,99
1659968910.2135,1288272.6817092,359
1659968910.2135,1288272.6817146,693
1659968910.2135,1288272.6817195,758
1659968910.2135,1288272.6817258,308
1659968910.2135,1288272.6817309,-264
1659968910.2135,1288272.6817354,-296
1659968910.2135,1288272.6817408,-23
1659968910.2135,1288272.6817451,-6
1659968910.2135,1288272.6817519,-76
1659968910.2135,1288272.6817618,-18
1659968910.2135,1288272.6817707,4
1659968910.2135,1288272.6817807,-18
1659968910.2135,1288272.6817879,4
1659968910.2135,1288272.6817957,27
1659968910.2135,1288272.6818075,23
1659968910.2135,1288272.6818359,30
1659968910.2135,1288272.6818467,46
1659968910.2135,1288272.6818531,62
1659968910.2135,1288272.6818605,76
1659968910.2135,1288272.6818676,81
1659968910.2135,1288272.6818728,90
1659968910.2135,1288272.6818799,111
1659968910.2135,1288272.6818848,132
1659968910.2135,1288272.6818898,148
1659968910.2135,1288272.6818967,160
1659968910.2135,1288272.6819042,169
1659968910.2135,1288272.6819094,180
1659968910.2135,1288272.6819159,187
1659968910.2135,1288272.6819208,199
1659968910.2135,1288272.6819275,220
1659968910.2135,1288272.6819327,227
1659968910.2135,1288272.681937,231
1659968910.2135,1288272.6819414,255
1659968910.2135,1288272.6819486,266
1659968910.2135,1288272.6819549,241
1659968910.2135,1288272.6819598,206
1659968910.2135,1288272.6819646,166
1659968910.2135,1288272.6819698,127
1659968910.2135,1288272.6819766,109
1659968910.2135,1288272.6819814,109
1659968910.2135,1288272.6819879,99
1659968910.2135,1288272.6819926,88
1659968910.2135,1288272.6819981,95
1659968910.2135,1288273.1221745,97
1659968910.2135,1288273.1221953,95
1659968910.2135,1288273.122205,97
1659968910.2135,1288273.1222099,97
1659968910.2135,1288273.1222147,92
1659968910.22646,1288273.12222,88
1659968910.22646,1288273.1222267,85
1659968910.22646,1288273.1222331,81
1659968910.22646,1288273.1222397,78
1659968910.22646,1288273.1222465,62
1659968910.22646,1288273.1222515,39
1659968910.22646,1288273.1222556,23
1659968910.22646,1288273.1222586,25
1659968910.22646,1288273.1222614,30
1659968910.22646,1288273.1222643,34
1659968910.22646,1288273.1222681,32
1659968910.22646,1288273.122273,18
1659968910.22646,1288273.1222783,4
1659968910.22646,1288273.1222818,2
1659968910.22646,1288273.1222858,2
1659968910.22646,1288273.1222891,4
1659968910.22646,1288273.1222922,4
1659968910.22646,1288273.1222953,-2
1659968910.22646,1288273.1223001,-13
1659968910.22646,1288273.1223055,-9
1659968910.22646,1288273.1223119,11
1659968910.22646,1288273.1223209,32
1659968910.22646,1288273.1223286,44
1659968910.22646,1288273.1223356,39
1659968910.79691,1288273.1223423,-2
1659968910.79691,1288273.1223489,-41
1659968910.79691,1288273.1223554,-32
1659968910.79691,1288273.1223625,-11
1659968910.79691,1288273.1223697,-11
1659968910.79691,1288273.1223748,-16
1659968910.79691,1288273.1223812,-18
1659968910.79691,1288273.1223859,-2
1659968910.79691,1288273.1223931,136
1659968910.79691,1288273.1223993,468
1659968910.79691,1288273.1224118,795
1659968910.79691,1288273.1224232,732
1659968910.79691,1288273.1224311,143
1659968910.79691,1288273.1224374,-371
1659968910.79691,1288273.1224465,-243
1659968910.79691,1288273.1224657,25
1659968910.79691,1288273.1224779,-25
1659968910.79691,1288273.122488,-74
1659968910.79691,1288273.1225008,-9
1659968910.79691,1288273.1225098,-16
1659968910.79691,1288273.1225191,-34
1659968910.79691,1288273.1225242,2
1659968910.79691,1288273.1225379,20
1659968910.79691,1288273.1225511,18
1659968910.79691,1288273.1225644,25
1659968910.79691,1288273.1225774,34
1659968910.79691,1288273.1225895,39
1659968910.79691,1288273.1226006,48
1659968910.79691,1288273.1226045,67
1659968910.79691,1288273.1226075,83
1659968910.79691,1288273.1226162,95
1659968910.79691,1288273.122631,106
1659968910.79691,1288273.1226459,120
1659968910.79691,1288273.1226572,143
1659968910.79691,1288273.1226648,162
1659968910.79691,1288273.1226718,176
1659968910.79691,1288273.1226811,187
1659968910.79691,1288273.1226864,192
1659968910.79691,1288273.122694,199
1659968910.79691,1288273.1227011,206
1659968910.79691,1288273.1227112,215
1659968910.79691,1288273.1227226,229
1659968910.79691,1288273.1227356,234
1659968910.79691,1288273.122745,206
1659968910.79691,1288273.7054253,160
1659968910.79691,1288273.7054444,127
1659968910.79691,1288273.7054595,104
1659968910.79691,1288273.705475,88
1659968910.79691,1288273.7054846,78
1659968910.79691,1288273.7054933,74
1659968910.80888,1288273.7055041,67
1659968910.80888,1288273.7055141,55
1659968910.80888,1288273.7055247,53
1659968910.80888,1288273.7055372,44
1659968910.80888,1288273.7055466,27
1659968910.80888,1288273.7055599,27
1659968910.80888,1288273.7055675,32
1659968910.80888,1288273.7055714,11
1659968910.80888,1288273.7055763,-4
1659968910.80888,1288273.70558,4
1659968910.80888,1288273.7055853,4
1659968910.80888,1288273.7055905,-2
1659968910.80888,1288273.705596,2
1659968910.80888,1288273.7056001,-9
1659968910.80888,1288273.7056053,-27
1659968910.80888,1288273.7056098,-18
1659968910.80888,1288273.7056154,-2
1659968910.80888,1288273.7056192,-2
1659968910.80888,1288273.7056242,-2
1659968910.80888,1288273.7056279,4
1659968910.80888,1288273.705633,4
1659968910.80888,1288273.7056375,0
1659968910.80888,1288273.7056425,-2
1659968910.80888,1288273.7056475,9
1659968911.39255,1288273.7056512,30
1659968911.39255,1288273.7056547,37
1659968911.39255,1288273.7056588,37
1659968911.39255,1288273.705666,23
1659968911.39255,1288273.7056734,0
1659968911.39255,1288273.7056883,-4
1659968911.39255,1288273.705694,2
1659968911.39255,1288273.7057066,4
1659968911.39255,1288273.7057115,4
1659968911.39255,1288273.7057258,4
1659968911.39255,1288273.7057381,4
1659968911.39255,1288273.705747,95
1659968911.39255,1288273.7057545,389
1659968911.39255,1288273.7057628,763
1659968911.39255,1288273.7057693,834
1659968911.39255,1288273.705778,340
1659968911.39255,1288273.705784,-278
1659968911.39255,1288273.7057919,-292
1659968911.39255,1288273.7058057,9
1659968911.39255,1288273.705819,11
1659968911.39255,1288273.7058322,-64
1659968911.39255,1288273.7058451,-2
1659968911.39255,1288273.705855,20
1659968911.39255,1288273.7058617,-6
1659968911.39255,1288273.7058681,11
1659968911.39255,1288273.7058773,37
1659968911.39255,1288273.7058849,37
1659968911.39255,1288273.7058931,41
1659968911.39255,1288273.7059052,51
1659968911.39255,1288273.705914,55
1659968911.39255,1288273.7059251,62
1659968911.39255,1288273.7059323,81
1659968911.39255,1288273.7059349,102
1659968911.39255,1288273.7059371,111
1659968911.39255,1288273.7059391,115
1659968911.39255,1288273.7059448,127
1659968911.39255,1288273.7059561,148
1659968911.39255,1288273.7059613,166
1659968911.39255,1288273.7059643,178
1659968911.39255,1288273.7059664,192
1659968911.39255,1288273.7059719,197
1659968911.39255,1288273.7059856,192
1659968911.39255,1288273.7059986,192
1659968911.39255,1288274.291936,208
1659968911.39255,1288274.2920527,224
1659968911.39255,1288274.2920586,213
1659968911.39255,1288274.2920621,171
1659968911.39255,1288274.2920654,127
1659968911.39255,1288274.2920687,95
1659968911.39255,1288274.2920722,69
1659968911.40053,1288274.2920753,55
1659968911.40053,1288274.2921101,53
1659968911.40053,1288274.2921242,39
1659968911.40053,1288274.2921325,20
1659968911.40053,1288274.2921416,20
1659968911.40053,1288274.2921482,27
1659968911.40053,1288274.2921568,27
1659968911.40053,1288274.2921626,34
1659968911.40053,1288274.2921695,34
1659968911.40053,1288274.2921756,4
1659968911.40053,1288274.2921842,-9
1659968911.40053,1288274.2921905,6
1659968911.40053,1288274.292199,13
1659968911.40053,1288274.2922052,4
1659968911.40053,1288274.2922152,-4
1659968911.40053,1288274.2922289,-11
1659968911.40053,1288274.2922447,-6
1659968911.40053,1288274.292255,2
1659968911.40053,1288274.2922615,2
1659968911.40053,1288274.29227,2
1659968911.40053,1288274.2922764,16
1659968911.40053,1288274.2922842,20
1659968911.40053,1288274.2922903,6
1659968911.40053,1288274.292299,0
1659968911.91867,1288274.2923051,6
1659968911.91867,1288274.2923122,9
1659968911.91867,1288274.2923178,0
1659968911.91867,1288274.2923219,11
1659968911.91867,1288274.2923254,30
1659968911.91867,1288274.2923285,32
1659968911.91867,1288274.2923341,34
1659968911.91867,1288274.2923403,25
1659968911.91867,1288274.2923491,4
1659968911.91867,1288274.2923606,0
1659968911.91867,1288274.2923702,0
1659968911.91867,1288274.2923776,0
1659968911.91867,1288274.292389,6
1659968911.91867,1288274.2923995,16
1659968911.91867,1288274.2924071,16
1659968911.91867,1288274.2924187,92
1659968911.91867,1288274.2924295,345
1659968911.91867,1288274.2924386,677
1659968911.91867,1288274.2924494,776
1659968911.91867,1288274.2924598,373
1659968911.91867,1288274.2924683,-206
1659968911.91867,1288274.29248,-280
1659968911.91867,1288274.2924889,-9
1659968911.91867,1288274.2924951,18
1659968911.91867,1288274.2925091,-60
1659968911.91867,1288274.2925171,-9
1659968911.91867,1288274.2925222,20
1659968911.91867,1288274.2925287,-2
1659968911.91867,1288274.2925346,11
1659968911.91867,1288274.2925397,27
1659968911.91867,1288274.2925465,20
1659968911.91867,1288274.2925514,23
1659968911.91867,1288274.2925564,44
1659968911.91867,1288274.2925625,48
1659968911.91867,1288274.2925687,55
1659968911.91867,1288274.2925743,69
1659968911.91867,1288274.2925851,71
1659968911.91867,1288274.2925973,71
1659968911.91867,1288274.2926021,88
1659968911.91867,1288274.2926075,106
1659968911.91867,1288274.2926117,115
1659968911.91867,1288274.2926164,129
1659968911.91867,1288274.8271779,148
1659968911.91867,1288274.827194,160
1659968911.91867,1288274.8271996,173
1659968911.91867,1288274.8272055,180
1659968911.91867,1288274.8272105,180
1659968911.91867,1288274.8272144,192
1659968911.91867,1288274.8272199,206
1659968911.91867,1288274.8272247,199
1659968911.92981,1288274.8272296,183
1659968911.92981,1288274.8272344,150
1659968911.92981,1288274.8272396,111
1659968911.92981,1288274.8272434,83
1659968911.92981,1288274.8272485,69
1659968911.92981,1288274.8272523,41
1659968911.92981,1288274.827256,20
1659968911.92981,1288274.8272615,27
1659968911.92981,1288274.8272652,41
1659968911.92981,1288274.8272689,44
1659968911.92981,1288274.8272745,48
1659968911.92981,1288274.8272783,60
1659968911.92981,1288274.827282,51
1659968911.92981,1288274.8272856,34
1659968911.92981,1288274.8272895,37
1659968911.92981,1288274.8272932,46
1659968911.92981,1288274.8272988,46
1659968911.92981,1288274.8273027,30
1659968911.92981,1288274.8273078,2
1659968911.92981,1288274.8273125,-2
1659968911.92981,1288274.8273178,11
1659968911.92981,1288274.8273224,13
1659968911.92981,1288274.8273262,13
1659968911.92981,1288274.8273316,20
1659968912.50757,1288274.8273352,16
1659968912.50757,1288274.827339,16
1659968912.50757,1288274.8273426,25
1659968912.50757,1288274.8273463,32
1659968912.50757,1288274.8273499,27
1659968912.50757,1288274.8273537,18
1659968912.50757,1288274.8273574,11
1659968912.50757,1288274.827361,11
1659968912.50757,1288274.8273653,16
1659968912.50757,1288274.827369,13
1659968912.50757,1288274.8273726,16
1659968912.50757,1288274.8273763,18
1659968912.50757,1288274.8273798,20
1659968912.50757,1288274.827383,34
1659968912.50757,1288274.8273871,53
1659968912.50757,1288274.8273914,64
1659968912.50757,1288274.8273947,74
1659968912.50757,1288274.8274001,64
1659968912.50757,1288274.8274041,39
1659968912.50757,1288274.8274082,27
1659968912.50757,1288274.8274136,27
1659968912.50757,1288274.8274175,23
1659968912.50757,1288274.827423,20
1659968912.50757,1288274.8274289,25
1659968912.50757,1288274.8274328,27
1659968912.50757,1288274.8274361,76
1659968912.50757,1288274.8274404,294
1659968912.50757,1288274.8274486,633
1659968912.50757,1288274.8274553,800
1659968912.50757,1288274.8274604,473
1659968912.50757,1288274.8274658,-139
1659968912.50757,1288274.8274694,-308
1659968912.50757,1288274.8274747,-44
1659968912.50757,1288274.8274781,23
1659968912.50757,1288274.8274812,-67
1659968912.50757,1288274.8274844,-25
1659968912.50757,1288274.8274874,23
1659968912.50757,1288274.8274903,-6
1659968912.50757,1288274.8274933,-11
1659968912.50757,1288274.8274962,20
1659968912.50757,1288274.8274994,27
1659968912.50757,1288275.4121164,30
1659968912.50757,1288275.4121378,46
1659968912.50757,1288275.4121453,57
1659968912.50757,1288275.4121521,53
1659968912.50757,1288275.4121588,60
1659968912.50757,1288275.4121674,81
1659968912.50757,1288275.4121744,97
1659968912.50757,1288275.4121805,109
1659968912.50757,1288275.4121863,120
1659968912.51854,1288275.4121893,125
1659968912.51854,1288275.412194,120
1659968912.51854,1288275.4122009,125
1659968912.51854,1288275.412206,143
1659968912.51854,1288275.4122143,155
1659968912.51854,1288275.4122216,155
1659968912.51854,1288275.4122294,150
1659968912.51854,1288275.4122353,141
1659968912.51854,1288275.4122407,148
1659968912.51854,1288275.4122444,169
1659968912.51854,1288275.4122494,166
1659968912.51854,1288275.412253,129
1659968912.51854,1288275.4122575,92
1659968912.51854,1288275.4122618,60
1659968912.51854,1288275.4122668,39
1659968912.51854,1288275.4122722,37
1659968912.51854,1288275.4122754,41
1659968912.51854,1288275.4122808,41
1659968912.51854,1288275.4122838,44
1659968912.51854,1288275.4122867,48
1659968912.51854,1288275.4122897,48
1659968912.51854,1288275.4122926,53
1659968912.51854,1288275.4122956,62
1659968912.51854,1288275.4122985,62
1659968913.24062,1288275.4123028,60
1659968913.24062,1288275.4123097,60
1659968913.24062,1288275.4123165,60
1659968913.24062,1288275.4123231,55
1659968913.24062,1288275.412327,53
1659968913.24062,1288275.4123301,53
1659968913.24062,1288275.4123333,51
1659968913.24062,1288275.4123367,57
1659968913.24062,1288275.4123409,62
1659968913.24062,1288275.4123456,60
1659968913.24062,1288275.4123496,51
1659968913.24062,1288275.4123557,41
1659968913.24062,1288275.4123603,44
1659968913.24062,1288275.4123649,46
1659968913.24062,1288275.4123715,48
1659968913.24062,1288275.4123786,46
1659968913.24062,1288275.412384,39
1659968913.24062,1288275.4123896,39
1659968913.24062,1288275.4123934,48
1659968913.24062,1288275.412398,55
1659968913.24062,1288275.4124027,41
1659968913.24062,1288275.4124064,25
1659968913.24062,1288275.4124094,27
1659968913.24062,1288275.4124124,30
1659968913.24062,1288275.4124153,25
1659968913.24062,1288275.4124184,30
1659968913.24062,1288275.4124213,37
1659968913.24062,1288275.4124246,34
1659968913.24062,1288275.4124304,25
1659968913.24062,1288275.412436,44
1659968913.24062,1288275.412439,76
1659968913.24062,1288275.4124419,88
1659968913.24062,1288275.4124449,95
1659968913.24062,1288275.4124478,95
1659968913.24062,1288275.4124507,62
1659968913.24062,1288275.4124536,34
1659968913.24062,1288275.4124566,41
1659968913.24062,1288275.4124595,57
1659968913.24062,1288275.4124625,60
1659968913.24062,1288275.4124655,57
1659968913.24062,1288276.1424511,55
1659968913.24062,1288276.142472,97
1659968913.24062,1288276.1424828,303
1659968913.24062,1288276.1424919,649
1659968913.24062,1288276.1424989,869
1659968913.24062,1288276.1425076,600
1659968913.24062,1288276.1425181,-48
1659968913.24062,1288276.1425288,-315
1659968913.24062,1288276.1425376,-46
1659968913.24062,1288276.142548,74
1659968913.25159,1288276.1425587,-25
1659968913.25159,1288276.1425662,2
1659968913.25159,1288276.1425721,48
1659968913.25159,1288276.1425815,2
1659968913.25159,1288276.1425879,-4
1659968913.25159,1288276.1425953,34
1659968913.25159,1288276.1426042,37
1659968913.25159,1288276.1426158,41
1659968913.25159,1288276.1426301,57
1659968913.25159,1288276.1426433,46
1659968913.25159,1288276.1426567,30
1659968913.25159,1288276.1426704,41
1659968913.25159,1288276.1426835,67
1659968913.25159,1288276.1426968,85
1659968913.25159,1288276.1427099,97
1659968913.25159,1288276.1427232,106
1659968913.25159,1288276.1427363,113
1659968913.25159,1288276.1427495,134
1659968913.25159,1288276.1427625,160
1659968913.25159,1288276.1427757,166
1659968913.25159,1288276.1427894,171
1659968913.25159,1288276.1428014,180
1659968913.25159,1288276.14281,183
1659968913.25159,1288276.1428157,173
1659968913.57704,1288276.142824,183
1659968913.57704,1288276.1428292,199
1659968913.57704,1288276.142834,197
1659968913.57704,1288276.1428392,166
1659968913.57704,1288276.1428461,118
1659968913.57704,1288276.1428551,76
1659968913.57704,1288276.1428625,53
1659968913.57704,1288276.1428712,44
1659968913.57704,1288276.1428783,46
1659968913.57704,1288276.1428866,60
1659968913.57704,1288276.1428921,67
1659968913.57704,1288276.1429024,69
1659968913.57704,1288276.1429161,57
1659968913.57704,1288276.1429246,37
1659968913.57704,1288276.1429339,34
1659968913.57704,1288276.1429412,37
1659968913.57704,1288276.1429481,34
1659968913.57704,1288276.1429516,32
1659968913.57704,1288276.1429649,39
1659968913.57704,1288276.1429777,41
1659968913.57704,1288276.1430091,30
1659968913.57704,1288276.1430287,27
1659968913.57704,1288276.1430386,39
1659968913.57704,1288276.1430469,34
1659968913.57704,1288276.1430536,27
1659968913.57704,1288276.1430593,37
1659968913.57704,1288276.1430647,37
1659968913.57704,1288276.1430739,41
1659968913.57704,1288276.143083,62
1659968913.57704,1288276.1430904,64
1659968913.57704,1288276.1430975,46
1659968913.57704,1288276.1431044,44
1659968913.57704,1288276.1431117,37
1659968913.57704,1288276.1431176,16
1659968913.57704,1288276.1431254,16
1659968913.57704,1288276.1431299,27
1659968913.57704,1288276.1431383,25
1659968913.57704,1288276.1431468,20
1659968913.57704,1288276.1431547,18
1659968913.57704,1288276.4858786,6
1659968913.57704,1288276.4858993,20
1659968913.57704,1288276.4859084,44
1659968913.57704,1288276.4859132,57
1659968913.57704,1288276.4859177,85
1659968913.57704,1288276.4859238,104
1659968913.57704,1288276.4859285,92
1659968913.57704,1288276.4859347,76
1659968913.57704,1288276.4859405,69
1659968913.57704,1288276.4859467,51
1659968913.57704,1288276.4859513,20
1659968913.58801,1288276.4859559,18
1659968913.58801,1288276.4859635,34
1659968913.58801,1288276.4859726,30
1659968913.58801,1288276.4859802,18
1659968913.58801,1288276.4859856,71
1659968913.58801,1288276.4859908,294
1659968913.58801,1288276.4859998,663
1659968913.58801,1288276.4860085,909
1659968913.58801,1288276.4860184,644
1659968913.58801,1288276.4860288,-11
1659968913.58801,1288276.4860443,-276
1659968913.58801,1288276.4860567,-20
1659968913.58801,1288276.4860706,78
1659968913.58801,1288276.4860808,-30
1659968913.58801,1288276.4860883,-9
1659968913.58801,1288276.486095,39
1659968913.58801,1288276.4861013,16
1659968913.58801,1288276.4861151,18
1659968913.58801,1288276.4861281,41
1659968913.58801,1288276.4861363,48
1659968913.58801,1288276.4861401,60
1659968913.58801,1288276.4861535,64
1659968913.58801,1288276.4861662,67
1659968913.58801,1288276.486178,83
1659968914.2113,1288276.4861841,88
1659968914.2113,1288276.4861874,85
1659968914.2113,1288276.4861961,97
1659968914.2113,1288276.4862039,111
1659968914.2113,1288276.4862095,122
1659968914.2113,1288276.4862171,132
1659968914.2113,1288276.4862242,146
1659968914.2113,1288276.4862304,171
1659968914.2113,1288276.4862383,194
1659968914.2113,1288276.4862449,201
1659968914.2113,1288276.486254,208
1659968914.2113,1288276.4862602,206
1659968914.2113,1288276.4862651,187
1659968914.2113,1288276.4862684,187
1659968914.2113,1288276.4862819,220
1659968914.2113,1288276.4862938,231
1659968914.2113,1288276.4863031,199
1659968914.2113,1288276.4863124,150
1659968914.2113,1288276.4863196,115
1659968914.2113,1288276.4863254,102
1659968914.2113,1288276.4863374,90
1659968914.2113,1288276.4863446,97
1659968914.2113,1288276.4863564,134
1659968914.2113,1288276.4863683,134
1659968914.2113,1288276.4863783,88
1659968914.2113,1288276.4864253,74
1659968914.2113,1288276.4864452,97
1659968914.2113,1288276.4864512,102
1659968914.2113,1288276.486456,109
1659968914.2113,1288276.4864869,136
1659968914.2113,1288276.4864932,141
1659968914.2113,1288276.4864981,122
1659968914.2113,1288276.4865036,113
1659968914.2113,1288276.4865071,102
1659968914.2113,1288276.48651,97
1659968914.2113,1288276.4865132,122
1659968914.2113,1288276.486516,150
1659968914.2113,1288276.4865189,150
1659968914.2113,1288277.1179526,143
1659968914.2113,1288277.1179833,153
1659968914.2113,1288277.1179982,162
1659968914.2113,1288277.118005,166
1659968914.2113,1288277.1180125,173
1659968914.2113,1288277.1180189,173
1659968914.2113,1288277.1180255,166
1659968914.2113,1288277.1180307,157
1659968914.2113,1288277.1180351,164
1659968914.2113,1288277.1180439,173
1659968914.2113,1288277.1180502,183
1659968914.2113,1288277.1180585,187
1659968914.22228,1288277.1180652,171
1659968914.22228,1288277.1180718,148
1659968914.22228,1288277.1180776,143
1659968914.22228,1288277.1180809,157
1659968914.22228,1288277.1180861,160
1659968914.22228,1288277.1180919,136
1659968914.22228,1288277.1180954,106
1659968914.22228,1288277.1180992,99
1659968914.22228,1288277.1181035,109
1659968914.22228,1288277.1181068,111
1659968914.22228,1288277.1181101,99
1659968914.22228,1288277.1181184,85
1659968914.22228,1288277.1181253,95
1659968914.22228,1288277.1181313,127
1659968914.22228,1288277.1181348,141
1659968914.22228,1288277.1181382,143
1659968914.22228,1288277.1181415,143
1659968914.22228,1288277.1181464,129
1659968914.22228,1288277.1181495,122
1659968914.22228,1288277.1181526,118
1659968914.22228,1288277.1181559,99
1659968914.22228,1288277.1181607,95
1659968914.22228,1288277.1181636,113
1659968914.22228,1288277.1181665,118
1659968914.69871,1288277.1181695,118
1659968914.69871,1288277.1181727,229
1659968914.69871,1288277.1181758,524
1659968914.69871,1288277.1181791,809
1659968914.69871,1288277.118182,730
1659968914.69871,1288277.118185,197
1659968914.69871,1288277.1181881,-245
1659968914.69871,1288277.118191,-125
1659968914.69871,1288277.1181942,106
1659968914.69871,1288277.1182049,57
1659968914.69871,1288277.1182081,34
1659968914.69871,1288277.1182112,111
1659968914.69871,1288277.1182144,95
1659968914.69871,1288277.1182178,30
1659968914.69871,1288277.118224,20
1659968914.69871,1288277.1182283,37
1659968914.69871,1288277.1182324,78
1659968914.69871,1288277.1182385,111
1659968914.69871,1288277.1182429,78
1659968914.69871,1288277.1182492,44
1659968914.69871,1288277.1182539,71
1659968914.69871,1288277.1182673,104
1659968914.69871,1288277.1182777,106
1659968914.69871,1288277.1182843,113
1659968914.69871,1288277.1182886,129
1659968914.69871,1288277.1182948,143
1659968914.69871,1288277.1182996,164
1659968914.69871,1288277.1183083,171
1659968914.69871,1288277.1183163,166
1659968914.69871,1288277.1183227,194
1659968914.69871,1288277.1183305,231
1659968914.69871,1288277.1183405,222
1659968914.69871,1288277.1183517,218
1659968914.69871,1288277.1183592,257
1659968914.69871,1288277.1183641,278
1659968914.69871,1288277.1183696,262
1659968914.69871,1288277.1183784,220
1659968914.69871,1288277.6062201,173
1659968914.69871,1288277.6062402,157
1659968914.69871,1288277.6062471,160
1659968914.69871,1288277.6062525,122
1659968914.69871,1288277.6062595,53
1659968914.69871,1288277.6062665,30
1659968914.69871,1288277.6062741,67
1659968914.69871,1288277.6062817,85
1659968914.69871,1288277.6062891,64
1659968914.69871,1288277.6062932,67
1659968914.69871,1288277.6063072,62
1659968914.69871,1288277.6063198,39
1659968914.69871,1288277.606328,53
1659968914.70968,1288277.606333,78
1659968914.70968,1288277.6063394,83
1659968914.70968,1288277.6063452,48
1659968914.70968,1288277.6063511,-11
1659968914.70968,1288277.6063564,-2
1659968914.70968,1288277.6063626,48
1659968914.70968,1288277.6063662,34
1659968914.70968,1288277.6063719,34
1659968914.70968,1288277.6063762,69
1659968914.70968,1288277.6063828,57
1659968914.70968,1288277.6063891,37
1659968914.70968,1288277.6063967,48
1659968914.70968,1288277.6064017,46
1659968914.70968,1288277.606407,30
1659968914.70968,1288277.6064103,25
1659968914.70968,1288277.6064161,16
1659968914.70968,1288277.6064216,2
1659968914.70968,1288277.6064285,4
1659968914.70968,1288277.606436,6
1659968914.70968,1288277.606444,-6
1659968914.70968,1288277.6064517,-11
1659968914.70968,1288277.606457,11
1659968914.70968,1288277.6064605,13
1659968914.70968,1288277.6064652,-16
1659968915.43858,1288277.6064681,-9
1659968915.43858,1288277.6064709,13
1659968915.43858,1288277.6064736,-13
1659968915.43858,1288277.6064763,-57
1659968915.43858,1288277.606479,-76
1659968915.43858,1288277.6064817,-78
1659968915.43858,1288277.6064843,-60
1659968915.43858,1288277.6064871,-53
1659968915.43858,1288277.6064897,-78
1659968915.43858,1288277.6064924,-78
1659968915.43858,1288277.606495,2
1659968915.43858,1288277.6064977,252
1659968915.43858,1288277.6065003,621
1659968915.43858,1288277.6065031,781
1659968915.43858,1288277.6065058,419
1659968915.43858,1288277.6065088,-229
1659968915.43858,1288277.6065116,-431
1659968915.43858,1288277.6065144,-150
1659968915.43858,1288277.6065171,-20
1659968915.43858,1288277.6065201,-99
1659968915.43858,1288277.6065229,-113
1659968915.43858,1288277.6065256,-64
1659968915.43858,1288277.6065283,11
1659968915.43858,1288277.6065313,62
1659968915.43858,1288277.6065341,46
1659968915.43858,1288277.6065369,32
1659968915.43858,1288277.6065452,-4
1659968915.43858,1288277.6065514,-6
1659968915.43858,1288277.6065547,120
1659968915.43858,1288277.6065567,190
1659968915.43858,1288277.6065587,118
1659968915.43858,1288277.6065607,97
1659968915.43858,1288277.6065633,115
1659968915.43858,1288277.6065653,97
1659968915.43858,1288277.6065674,146
1659968915.43858,1288277.6065695,211
1659968915.43858,1288278.3388544,194
1659968915.43858,1288278.3388736,171
1659968915.43858,1288278.3388812,190
1659968915.43858,1288278.3388869,236
1659968915.43858,1288278.3388959,259
1659968915.43858,1288278.3389017,218
1659968915.43858,1288278.338904,199
1659968915.43858,1288278.3389102,204
1659968915.43858,1288278.3389197,176
1659968915.43858,1288278.3389239,185
1659968915.43858,1288278.3389316,197
1659968915.43858,1288278.3389398,120
1659968915.43858,1288278.3389552,53
1659968915.43858,1288278.3389633,30
1659968915.44955,1288278.3389673,-20
1659968915.44955,1288278.3389731,-55
1659968915.44955,1288278.3389774,11
1659968915.44955,1288278.3389825,74
1659968915.44955,1288278.3389859,44
1659968915.44955,1288278.3389891,9
1659968915.44955,1288278.3389922,16
1659968915.44955,1288278.3389953,30
1659968915.44955,1288278.3389985,27
1659968915.44955,1288278.3390021,6
1659968915.44955,1288278.3390053,18
1659968915.44955,1288278.3390084,62
1659968915.44955,1288278.3390116,23
1659968915.44955,1288278.3390148,-53
1659968915.44955,1288278.3390178,-16
1659968915.44955,1288278.339021,51
1659968915.44955,1288278.3390243,27
1659968915.44955,1288278.3390275,-11
1659968915.44955,1288278.3390314,-4
1659968915.44955,1288278.339035,0
1659968915.44955,1288278.3390392,-16
1659968915.44955,1288278.3390433,-18
1659968915.44955,1288278.3390477,0
1659968915.44955,1288278.3390514,41
1659968916.16323,1288278.3390573,76
1659968916.16323,1288278.3390612,41
1659968916.16323,1288278.3390649,23
1659968916.16323,1288278.3390685,90
1659968916.16323,1288278.3390719,111
1659968916.16323,1288278.3390762,64
1659968916.16323,1288278.33908,57
1659968916.16323,1288278.3390835,67
1659968916.16323,1288278.3390878,51
1659968916.16323,1288278.3390914,55
1659968916.16323,1288278.339098,76
1659968916.16323,1288278.3391031,78
1659968916.16323,1288278.3391076,62
1659968916.16323,1288278.3391115,30
1659968916.16323,1288278.3391161,62
1659968916.16323,1288278.3391206,322
1659968916.16323,1288278.3391247,721
1659968916.16323,1288278.3391293,885
1659968916.16323,1288278.3391337,531
1659968916.16323,1288278.3391383,-97
1659968916.16323,1288278.3391425,-280
1659968916.16323,1288278.3391468,6
1659968916.16323,1288278.3391517,97
1659968916.16323,1288278.339156,-9
1659968916.16323,1288278.339161,32
1659968916.16323,1288278.3391657,83
1659968916.16323,1288278.3391702,55
1659968916.16323,1288278.3391746,102
1659968916.16323,1288278.3391789,143
1659968916.16323,1288278.3391838,106
1659968916.16323,1288278.3391877,111
1659968916.16323,1288278.3391926,139
1659968916.16323,1288278.339197,132
1659968916.16323,1288278.3392007,136
1659968916.16323,1288278.3392052,153
1659968916.16323,1288279.0683594,150
1659968916.16323,1288279.0683833,150
1659968916.16323,1288279.0683882,190
1659968916.16323,1288279.0683922,236
1659968916.16323,1288279.0683962,236
1659968916.16323,1288279.0684001,234
1659968916.16323,1288279.0684042,264
1659968916.16323,1288279.0684078,289
1659968916.16323,1288279.0684115,296
1659968916.16323,1288279.0684158,303
1659968916.16323,1288279.06842,313
1659968916.16323,1288279.0684242,294
1659968916.16323,1288279.0684286,269
1659968916.16323,1288279.0684327,255
1659968916.16323,1288279.0684369,211
1659968916.1732,1288279.068441,169
1659968916.1732,1288279.0684453,150
1659968916.1732,1288279.0684494,104
1659968916.1732,1288279.0684536,71
1659968916.1732,1288279.0684578,76
1659968916.1732,1288279.068462,64
1659968916.1732,1288279.0684659,60
1659968916.1732,1288279.06847,81
1659968916.1732,1288279.0684732,90
1659968916.1732,1288279.068476,78
1659968916.1732,1288279.0684791,74
1659968916.1732,1288279.0684819,90
1659968916.1732,1288279.0684849,106
1659968916.1732,1288279.0684878,99
1659968916.1732,1288279.0684907,76
1659968916.1732,1288279.0684951,69
1659968916.1732,1288279.0684982,78
1659968916.1732,1288279.0685012,95
1659968916.1732,1288279.0685043,88
1659968916.1732,1288279.0685072,64
1659968916.1732,1288279.0685101,51
1659968916.1732,1288279.0685132,46
1659968916.1732,1288279.0685161,46
1659968916.1732,1288279.0685191,51
1659968916.60441,1288279.0685221,55
1659968916.60441,1288279.0685256,62
1659968916.60441,1288279.0685285,55
1659968916.60441,1288279.0685313,41
1659968916.60441,1288279.0685342,44
1659968916.60441,1288279.068537,57
1659968916.60441,1288279.0685399,69
1659968916.60441,1288279.0685428,64
1659968916.60441,1288279.0685456,44
1659968916.60441,1288279.0685485,32
1659968916.60441,1288279.0685513,30
1659968916.60441,1288279.068556,23
1659968916.60441,1288279.06856,16
1659968916.60441,1288279.0685638,23
1659968916.60441,1288279.0685684,41
1659968916.60441,1288279.068574,71
1659968916.60441,1288279.0685782,180
1659968916.60441,1288279.0685828,431
1659968916.60441,1288279.0685918,721
1659968916.60441,1288279.0685991,714
1659968916.60441,1288279.0686327,206
1659968916.60441,1288279.0686395,-301
1659968916.60441,1288279.0686436,-218
1659968916.60441,1288279.0686475,53
1659968916.60441,1288279.0686511,30
1659968916.60441,1288279.0686564,-18
1659968916.60441,1288279.0686605,51
1659968916.60441,1288279.0686654,62
1659968916.60441,1288279.0686697,30
1659968916.60441,1288279.0686729,41
1659968916.60441,1288279.0686777,64
1659968916.60441,1288279.0686821,102
1659968916.60441,1288279.0686857,125
1659968916.60441,1288279.0686897,97
1659968916.60441,1288279.5089129,92
1659968916.60441,1288279.5089276,120
1659968916.60441,1288279.5089304,127
1659968916.60441,1288279.5089328,122
1659968916.60441,1288279.5089348,143
1659968916.60441,1288279.5089369,173
1659968916.60441,1288279.5089389,180
1659968916.60441,1288279.5089409,178
1659968916.60441,1288279.508943,204
1659968916.60441,1288279.5089451,231
1659968916.60441,1288279.5089473,259
1659968916.60441,1288279.5089493,287
1659968916.60441,1288279.5089514,280
1659968916.60441,1288279.5089551,262
1659968916.60441,1288279.5089683,276
1659968916.60441,1288279.5089756,282
1659968916.61538,1288279.508978,252
1659968916.61538,1288279.5089802,215
1659968916.61538,1288279.5089828,173
1659968916.61538,1288279.5089848,109
1659968916.61538,1288279.5089872,57
1659968916.61538,1288279.5089967,44
1659968916.61538,1288279.5090059,44
1659968916.61538,1288279.5090086,46
1659968916.61538,1288279.5090107,60
1659968916.61538,1288279.5090129,69
1659968916.61538,1288279.5090149,64
1659968916.61538,1288279.509017,71
1659968916.61538,1288279.509019,90
1659968916.61538,1288279.509021,104
1659968916.61538,1288279.509023,102
1659968916.61538,1288279.509025,74
1659968916.61538,1288279.509027,44
1659968916.61538,1288279.5090299,81
1659968916.61538,1288279.5090319,125
1659968916.61538,1288279.5090339,97
1659968916.61538,1288279.509036,67
1659968916.61538,1288279.509038,74
1659968916.61538,1288279.5090401,67
1659968916.61538,1288279.5090421,57
1659968916.94266,1288279.5090441,74
1659968916.94266,1288279.5090461,92
1659968916.94266,1288279.5090481,104
1659968916.94266,1288279.50905,102
1659968916.94266,1288279.509052,76
1659968916.94266,1288279.5090539,64
1659968916.94266,1288279.5090558,78
1659968916.94266,1288279.5090577,88
1659968916.94266,1288279.5090595,85
1659968916.94266,1288279.5090614,85
1659968916.94266,1288279.5090634,81
1659968916.94266,1288279.5090653,64
1659968916.94266,1288279.5090672,48
1659968916.94266,1288279.5090691,62
1659968916.94266,1288279.5090711,71
1659968916.94266,1288279.509073,44
1659968916.94266,1288279.5090749,39
1659968916.94266,1288279.5090767,64
1659968916.94266,1288279.5090786,90
1659968916.94266,1288279.5090805,187
1659968916.94266,1288279.5090838,454
1659968916.94266,1288279.5090858,772
1659968916.94266,1288279.5090889,781
1659968916.94266,1288279.509091,257
1659968916.94266,1288279.509093,-287
1659968916.94266,1288279.5090951,-215
1659968916.94266,1288279.5090972,55
1659968916.94266,1288279.5090992,13
1659968916.94266,1288279.5091012,-51
1659968916.94266,1288279.5091032,6
1659968916.94266,1288279.5091052,9
1659968916.94266,1288279.5091072,-6
1659968916.94266,1288279.5091093,32
1659968916.94266,1288279.8482935,55
1659968916.94266,1288279.8483117,34
1659968916.94266,1288279.8483189,23
1659968916.94266,1288279.8483247,32
1659968916.94266,1288279.8483299,41
1659968916.94266,1288279.8483343,48
1659968916.94266,1288279.8483392,57

1659968916.94266,1288279.848346,69
1659968916.94266,1288279.8483548,99
1659968916.94266,1288279.8483628,129
1659968916.94266,1288279.8483695,136
1659968916.94266,1288279.8483741,143
1659968916.94266,1288279.8483773,176
1659968916.94266,1288279.8483804,206
1659968916.94266,1288279.8483833,220
1659968916.94266,1288279.8483861,236
1659968916.94266,1288279.8483892,271
1659968916.95364,1288279.8483922,273
1659968916.95364,1288279.8483952,229
1659968916.95364,1288279.848399,213
1659968916.95364,1288279.8484026,227
1659968916.95364,1288279.8484061,190
1659968916.95364,1288279.8484097,120
1659968916.95364,1288279.8484133,85
1659968916.95364,1288279.8484171,67
1659968916.95364,1288279.8484209,41
1659968916.95364,1288279.8484247,27
1659968916.95364,1288279.8484296,11
1659968916.95364,1288279.8484334,-6
1659968916.95364,1288279.8484372,0
1659968916.95364,1288279.848441,44
1659968916.95364,1288279.848445,62
1659968916.95364,1288279.8484487,34
1659968916.95364,1288279.8484524,46
1659968916.95364,1288279.8484563,57
1659968916.95364,1288279.8484602,-6
1659968916.95364,1288279.848464,-34
1659968916.95364,1288279.8484676,18
1659968916.95364,1288279.8484713,37
1659968916.95364,1288279.8484751,34
1659968916.95364,1288279.848479,32
1659968917.57592,1288279.848483,-20
1659968917.57592,1288279.8484867,-39
1659968917.57592,1288279.8484905,9
1659968917.57592,1288279.8484944,-2
1659968917.57592,1288279.8484982,-30
1659968917.57592,1288279.8485021,0
1659968917.57592,1288279.848506,-9
1659968917.57592,1288279.8485104,-46
1659968917.57592,1288279.8485172,-30
1659968917.57592,1288279.8485209,-4
1659968917.57592,1288279.8485246,-13
1659968917.57592,1288279.8485283,-25
1659968917.57592,1288279.8485318,-9
1659968917.57592,1288279.8485357,4
1659968917.57592,1288279.8485392,11
1659968917.57592,1288279.8485428,25
1659968917.57592,1288279.8485463,18
1659968917.57592,1288279.8485499,-6
1659968917.57592,1288279.8485534,-16
1659968917.57592,1288279.8485569,-25
1659968917.57592,1288279.8485602,-18
1659968917.57592,1288279.8485637,0
1659968917.57592,1288279.8485673,-18
1659968917.57592,1288279.8485708,-32
1659968917.57592,1288279.8485746,-18
1659968917.57592,1288279.8485784,48
1659968917.57592,1288279.8485825,273
1659968917.57592,1288279.8485866,640
1659968917.57592,1288279.8485927,832
1659968917.57592,1288279.8485982,452
1659968917.57592,1288279.8486035,-236
1659968917.57592,1288279.8486076,-378
1659968917.57592,1288280.4818589,-39
1659968917.57592,1288280.4818796,20
1659968917.57592,1288280.4818887,-97
1659968917.57592,1288280.4818945,-57
1659968917.57592,1288280.4819029,-25
1659968917.57592,1288280.4819107,-64
1659968917.57592,1288280.4819192,-71
1659968917.57592,1288280.4819252,-18
1659968917.57592,1288280.4819315,13
1659968917.57592,1288280.4819351,-4
1659968917.57592,1288280.4819382,-25
1659968917.57592,1288280.4819414,-2
1659968917.57592,1288280.4819446,39
1659968917.57592,1288280.4819478,6
1659968917.57592,1288280.4819512,-32
1659968917.57592,1288280.4819571,16
1659968917.57592,1288280.4819621,71
1659968917.57592,1288280.4819685,90
1659968917.58689,1288280.4819756,71
1659968917.58689,1288280.4819838,78
1659968917.58689,1288280.481988,150
1659968917.58689,1288280.4819921,173
1659968917.58689,1288280.4820047,190
1659968917.58689,1288280.4820189,206
1659968917.58689,1288280.4820309,218
1659968917.58689,1288280.4820387,236
1659968917.58689,1288280.482047,211
1659968917.58689,1288280.4820509,211
1659968917.58689,1288280.482058,185
1659968917.58689,1288280.4820653,122
1659968917.58689,1288280.4820725,81
1659968917.58689,1288280.4820781,9
1659968917.58689,1288280.482087,11
1659968917.58689,1288280.4820934,44
1659968917.58689,1288280.4820967,-13
1659968917.58689,1288280.4821099,-41
1659968917.58689,1288280.4821228,23
1659968917.58689,1288280.482136,57
1659968917.58689,1288280.4821497,6
1659968917.58689,1288280.4821628,-23
1659968917.58689,1288280.4821749,48
1659968917.58689,1288280.4821848,102
1659968918.99879,1288280.4821968,25
1659968918.99879,1288280.4822045,4
1659968918.99879,1288280.4822119,74
1659968918.99879,1288280.4822193,46
1659968918.99879,1288280.4822254,6
1659968918.99879,1288280.4822303,64
1659968918.99879,1288280.4822365,67
1659968918.99879,1288280.482243,27
1659968918.99879,1288280.4822486,44
1659968918.99879,1288280.4822535,48
1659968918.99879,1288280.4822599,27
1659968918.99879,1288280.4822739,6
1659968918.99879,1288280.4823096,2
1659968918.99879,1288280.4823192,71
1659968918.99879,1288280.4823274,97
1659968918.99879,1288280.4823338,4
1659968918.99879,1288280.4823401,-51
1659968918.99879,1288280.4823459,-25
1659968918.99879,1288280.4823501,-2
1659968918.99879,1288280.4823558,23
1659968918.99879,1288280.4823599,32
1659968918.99879,1288280.4823633,11
1659968918.99879,1288280.4823664,0
1659968918.99879,1288280.4823694,-2
1659968918.99879,1288280.4823744,11
1659968918.99879,1288280.4823801,27
1659968918.99879,1288280.4823835,4
1659968918.99879,1288280.4823869,-20
1659968918.99879,1288280.4823904,25
1659968918.99879,1288280.4823939,78
1659968918.99879,1288280.4823992,27
1659968918.99879,1288281.8958187,-48
1659968918.99879,1288281.8958365,2
1659968918.99879,1288281.8958431,55
1659968918.99879,1288281.8958513,71
1659968918.99879,1288281.895856,273
1659968918.99879,1288281.8958625,623
1659968918.99879,1288281.8958688,821
1659968918.99879,1288281.8958771,619
1659968918.99879,1288281.8958855,44
1659968918.99879,1288281.8958956,-343
1659968918.99879,1288281.8959041,-180
1659968918.99879,1288281.895915,53
1659968918.99879,1288281.8959195,37
1659968918.99879,1288281.8959217,-13
1659968918.99879,1288281.8959247,-2
1659968918.99879,1288281.8959297,-11
1659968918.99879,1288281.895941,-4
1659968918.99879,1288281.8959465,39
1659968918.99879,1288281.8959495,25
1659968919.01575,1288281.8959566,-39
1659968919.01575,1288281.8959675,-18
1659968919.01575,1288281.8959722,48
1659968919.01575,1288281.8959744,-2
1659968919.01575,1288281.8959804,-51
1659968919.01575,1288281.8959914,41
1659968919.01575,1288281.8959963,106
1659968919.01575,1288281.8959993,71
1659968919.01575,1288281.8960049,69
1659968919.01575,1288281.8960159,83
1659968919.01575,1288281.896021,136
1659968919.01575,1288281.8960232,238
1659968919.01575,1288281.896026,236
1659968919.01575,1288281.8960352,187
1659968919.01575,1288281.896043,243
1659968919.01575,1288281.8960505,264
1659968919.01575,1288281.8960566,215
1659968919.01575,1288281.8960657,264
1659968919.01575,1288281.8960766,287
1659968919.01575,1288281.8960856,166
1659968919.01575,1288281.8960924,132
1659968919.01575,1288281.8961048,160
1659968919.01575,1288281.8961145,111
1659968919.01575,1288281.8961208,57
1659968919.28303,1288281.896133,2
1659968919.28303,1288281.8961404,25
1659968919.28303,1288281.8961482,92
1659968919.28303,1288281.8961663,16
1659968919.28303,1288281.8961772,18
1659968919.28303,1288281.8961834,125
1659968919.28303,1288281.8961898,60
1659968919.28303,1288281.8961962,-39
1659968919.28303,1288281.8962027,46
1659968919.28303,1288281.8962087,141
1659968919.28303,1288281.8962156,81
1659968919.28303,1288281.8962222,18
1659968919.28303,1288281.8962268,16
1659968919.28303,1288281.8962307,51
1659968919.28303,1288281.8962372,122
1659968919.28303,1288281.8962414,76
1659968919.28303,1288281.8962487,11
1659968919.28303,1288281.8962585,53
1659968919.28303,1288281.8962706,37
1659968919.28303,1288281.896285,48
1659968919.28303,1288281.896298,125
1659968919.28303,1288281.8963111,95
1659968919.28303,1288281.8963243,37
1659968919.28303,1288281.8963374,62
1659968919.28303,1288281.8963503,97
1659968919.28303,1288281.8963635,46
1659968919.28303,1288281.8963772,23
1659968919.28303,1288281.8963902,113
1659968919.28303,1288281.8964033,125
1659968919.28303,1288281.8964166,44
1659968919.28303,1288282.1871621,41
1659968919.28303,1288282.1871784,64
1659968919.28303,1288282.1871856,18
1659968919.28303,1288282.1871893,2
1659968919.28303,1288282.187193,71
1659968919.28303,1288282.1871982,57
1659968919.28303,1288282.1872018,16
1659968919.28303,1288282.1872068,97
1659968919.28303,1288282.1872102,81
1659968919.28303,1288282.1872139,-32
1659968919.28303,1288282.1872189,25
1659968919.28303,1288282.1872224,97
1659968919.28303,1288282.1872261,53
1659968919.28303,1288282.1872312,78
1659968919.28303,1288282.1872346,76
1659968919.28303,1288282.1872383,6
1659968919.28303,1288282.1872435,30
1659968919.28303,1288282.1872482,76
1659968919.28303,1288282.1872534,106
1659968919.28303,1288282.187257,46
1659968919.29201,1288282.1872606,-30
1659968919.29201,1288282.1872641,53
1659968919.29201,1288282.1872677,125
1659968919.29201,1288282.1872712,215
1659968919.29201,1288282.1872747,582
1659968919.29201,1288282.1872781,962
1659968919.29201,1288282.1872817,839
1659968919.29201,1288282.1872852,153
1659968919.29201,1288282.1872887,-368
1659968919.29201,1288282.1872923,-169
1659968919.29201,1288282.1872958,132
1659968919.29201,1288282.1872993,25
1659968919.29201,1288282.1873028,-57
1659968919.29201,1288282.1873063,11
1659968919.29201,1288282.1873098,-25
1659968919.29201,1288282.1873134,-55
1659968919.29201,1288282.1873169,37
1659968919.29201,1288282.1873204,76
1659968919.29201,1288282.1873257,13
1659968919.29201,1288282.1873302,-25
1659968919.29201,1288282.1873339,-6
1659968919.29201,1288282.1873375,51
1659968919.29201,1288282.1873426,76
1659968919.29201,1288282.1873478,18
1659968919.38177,1288282.1873516,-9
1659968919.38177,1288282.1873552,62
1659968919.38177,1288282.1873588,109
1659968919.38177,1288282.1873621,76
1659968919.38177,1288282.1873672,97
1659968919.38177,1288282.1873711,160
1659968919.38177,1288282.1873748,169
1659968919.38177,1288282.1873785,180
1659968919.38177,1288282.1873823,234
1659968919.38177,1288282.1873861,259
1659968919.38177,1288282.1873951,224
1659968919.38177,1288282.1874008,194
1659968919.38177,1288282.1874044,204
1659968919.38177,1288282.1874079,211
1659968919.38177,1288282.1874116,197
1659968919.38177,1288282.1874156,129
1659968919.38177,1288282.1874214,62
1659968919.38177,1288282.1874251,60
1659968919.38177,1288282.1874287,11
1659968919.38177,1288282.1874322,-30
1659968919.38177,1288282.187436,20
1659968919.38177,1288282.1874397,2
1659968919.38177,1288282.1874438,-18
1659968919.38177,1288282.1874477,27
1659968919.38177,1288282.1874515,4
1659968919.38177,1288282.1874566,-9
1659968919.38177,1288282.1874608,25
1659968919.38177,1288282.1874665,2
1659968919.38177,1288282.1874716,20
1659968919.38177,1288282.2862111,69
1659968919.38177,1288282.286235,13
1659968919.38177,1288282.2862464,-51
1659968919.38177,1288282.2862535,-18
1659968919.38177,1288282.2862618,39
1659968919.38177,1288282.286272,23
1659968919.38177,1288282.2862804,-20
1659968919.38177,1288282.2862878,-27
1659968919.38177,1288282.286292,-2
1659968919.38177,1288282.2862953,32
1659968919.38177,1288282.2863003,16
1659968919.38177,1288282.2863127,0
1659968919.38177,1288282.2863206,-4
1659968919.38177,1288282.2863281,-41
1659968919.38177,1288282.2863349,-34
1659968919.38177,1288282.286348,13
1659968919.38177,1288282.2863611,2
1659968919.38177,1288282.2863736,-60
1659968919.38177,1288282.2863864,-69
1659968919.38177,1288282.2863996,-20
1659968919.38177,1288282.2864077,-20
1659968919.39174,1288282.2864131,-23
1659968919.39174,1288282.2864211,25
1659968919.39174,1288282.2864294,-4
1659968919.39174,1288282.286435,-41
1659968919.39174,1288282.2864426,-9
1659968919.39174,1288282.2864504,-11
1659968919.39174,1288282.2864577,-44
1659968919.39174,1288282.2864634,-62
1659968919.39174,1288282.2864701,-53
1659968919.39174,1288282.2864759,6
