Time,TimeLsl,Value
1659977434.81312,1296796.1927427,53
1659977434.81312,1296796.1927605,39
1659977434.81312,1296796.1927703,34
1659977434.81312,1296796.1927799,44
1659977434.81312,1296796.1927854,51
1659977434.81312,1296796.1927922,55
1659977434.81312,1296796.1927989,64
1659977434.81312,1296796.1928095,67
1659977434.81312,1296796.1928371,48
1659977434.81312,1296796.1928509,34
1659977434.81312,1296796.1928564,44
1659977434.81312,1296796.1928599,51
1659977434.81312,1296796.1928631,53
1659977434.81312,1296796.1928665,57
1659977434.81312,1296796.1928698,44
1659977434.81312,1296796.192873,23
1659977434.81312,1296796.1928761,27
1659977434.81312,1296796.1928902,34
1659977434.81312,1296796.1929176,27
1659977434.81312,1296796.1929243,25
1659977434.81312,1296796.1929282,32
1659977434.81312,1296796.1929318,27
1659977434.81312,1296796.1929353,23
1659977434.81312,1296796.1929388,34
1659977434.81312,1296796.1929423,44
1659977434.81312,1296796.1929457,53
1659977434.81312,1296796.1929491,78
1659977434.81312,1296796.1929528,102
1659977434.81312,1296796.1929565,102
1659977434.81312,1296796.19296,88
1659977434.81312,1296796.1929647,71
1659977434.81312,1296796.1929684,55
1659977434.81312,1296796.192972,51
1659977434.81312,1296796.1929768,55
1659977434.81312,1296796.1929806,53
1659977434.81312,1296796.1929842,55
1659977434.81312,1296796.1929879,69
1659977434.81312,1296796.1929942,113
1659977434.81312,1296796.1929978,262
1659977434.81312,1296796.1930017,545
1659977434.81312,1296796.1930055,832
1659977434.81312,1296796.1930091,862
1659977434.81312,1296796.1930126,387
1659977434.81312,1296796.1930161,-204
1659977434.81312,1296796.1930199,-201
1659977434.81312,1296796.1930234,62
1659977434.81312,1296796.1930269,13
1659977434.81312,1296796.1930304,-67
1659977434.81312,1296796.1930341,0
1659977434.81312,1296796.1930377,9
1659977434.94401,1296796.193041,-20
1659977434.94401,1296796.1930445,0
1659977434.94401,1296796.1930487,16
1659977434.94401,1296796.1930519,6
1659977434.94401,1296796.1930554,16
1659977434.94401,1296796.1930591,34
1659977434.94401,1296796.1930625,41
1659977434.94401,1296796.1930665,51
1659977434.94401,1296796.1930703,60
1659977434.94401,1296796.1930738,71
1659977434.94401,1296796.1930774,85
1659977434.94401,1296796.1930809,97
1659977434.94401,1296796.1930845,102
1659977434.94401,1296796.1930882,102
1659977434.94401,1296796.1930918,97
1659977434.94401,1296796.1930952,85
1659977434.94401,1296796.1930986,60
1659977434.94401,1296796.1931023,34
1659977434.94401,1296796.1931059,25
1659977434.94401,1296796.1931094,27
1659977434.94401,1296796.193113,34
1659977434.94401,1296796.1931166,48
1659977434.94401,1296796.1931203,60
1659977434.94401,1296796.7296867,64
1659977434.94401,1296796.7297068,71
1659977434.94401,1296796.7297142,76
1659977434.94401,1296796.7297188,76
1659977434.94401,1296796.7297247,74
1659977434.94401,1296796.7297278,76
1659977434.94401,1296796.7297322,81
1659977434.94401,1296796.7297362,88
1659977434.94401,1296796.7297418,85
1659977434.94401,1296796.7297481,76
1659977434.94401,1296796.7297545,81
1659977434.94401,1296796.7297602,76
1659977434.94401,1296796.7297652,60
1659977434.94401,1296796.7297718,64
1659977434.94401,1296796.7297811,74
1659977434.94401,1296796.7297947,74
1659977434.94401,1296796.729798,76
1659977434.94401,1296796.7298049,67
1659977434.94401,1296796.729808,46
1659977434.94401,1296796.7298137,46
1659977434.94401,1296796.7298167,55
1659977434.94401,1296796.7298195,53
1659977434.94401,1296796.7298223,53
1659977434.94401,1296796.7298252,57
1659977434.94401,1296796.7298281,51
1659977434.94401,1296796.7298309,51
1659977434.94401,1296796.7298337,57
1659977434.99139,1296796.7298365,67
1659977434.99139,1296796.7298394,90
1659977434.99139,1296796.7298427,111
1659977434.99139,1296796.7298492,106
1659977434.99139,1296796.7298546,85
1659977434.99139,1296796.7298576,69
1659977434.99139,1296796.7298605,57
1659977434.99139,1296796.7298634,57
1659977434.99139,1296796.7298662,62
1659977434.99139,1296796.7298691,64
1659977434.99139,1296796.729872,64
1659977434.99139,1296796.7298749,69
1659977434.99139,1296796.7298777,104
1659977434.99139,1296796.7298806,236
1659977434.99139,1296796.729923,503
1659977434.99139,1296796.7299325,793
1659977434.99139,1296796.729937,860
1659977434.99139,1296796.7299422,417
1659977434.99139,1296796.7299491,-194
1659977434.99139,1296796.7299534,-218
1659977434.99139,1296796.7299802,55
1659977434.99139,1296796.7299856,16
1659977434.99139,1296796.7299891,-76
1659977434.99139,1296796.7299927,-11
1659977434.99139,1296796.7299964,9
1659977434.99139,1296796.73,-13
1659977434.99139,1296796.7300036,6
1659977434.99139,1296796.7300074,25
1659977434.99139,1296796.7300109,20
1659977434.99139,1296796.7300145,23
1659977434.99139,1296796.730018,37
1659977434.99139,1296796.7300214,41
1659977434.99139,1296796.7300249,37
1659977434.99139,1296796.7300287,44
1659977434.99139,1296796.7300325,57
1659977434.99139,1296796.730039,64
1659977434.99139,1296796.730043,69
1659977434.99139,1296796.7300489,78
1659977434.99139,1296796.7300545,85
1659977434.99139,1296796.730062,83
1659977434.99139,1296796.7300694,71
1659977434.99139,1296796.7300734,53
1659977434.99139,1296796.7300772,34
1659977434.99139,1296796.7300833,30
1659977434.99139,1296796.7300872,32
1659977434.99139,1296796.7300923,39
1659977434.99139,1296797.3143796,44
1659977434.99139,1296797.314407,53
1659977435.0143,1296797.3144181,64
1659977435.0143,1296797.3144254,76
1659977435.0143,1296797.3144323,78
1659977435.0143,1296797.3144394,81
1659977435.0143,1296797.3144434,81
1659977435.0143,1296797.3144469,76
1659977435.0143,1296797.3144499,64
1659977435.0143,1296797.3144541,60
1659977435.0143,1296797.314457,69
1659977435.0143,1296797.31446,81
1659977435.0143,1296797.3144629,76
1659977435.0143,1296797.3144658,74
1659977435.0143,1296797.3144688,69
1659977435.0143,1296797.3144718,55
1659977435.0143,1296797.3144748,57
1659977435.0143,1296797.3144776,69
1659977435.0143,1296797.3144807,69
1659977435.0143,1296797.3144838,64
1659977435.0143,1296797.3144867,67
1659977435.0143,1296797.3144897,69
1659977435.0143,1296797.3144927,69
1659977435.0143,1296797.3144955,71
1659977435.0143,1296797.3144985,74
1659977435.0143,1296797.3145015,71
1659977435.0143,1296797.3145049,71
1659977435.0143,1296797.3145078,78
1659977435.0143,1296797.3145108,81
1659977435.0143,1296797.3145137,95
1659977435.0143,1296797.3145166,118
1659977435.0143,1296797.3145194,125
1659977435.0143,1296797.3145245,106
1659977435.0143,1296797.3145293,74
1659977435.0143,1296797.3145329,55
1659977435.0143,1296797.3145361,60
1659977435.0143,1296797.3145392,64
1659977435.0143,1296797.3145422,62
1659977435.0143,1296797.3145452,71
1659977435.0143,1296797.3145482,76
1659977435.0143,1296797.3145553,88
1659977435.0143,1296797.3145606,178
1659977435.0143,1296797.3145675,410
1659977435.0143,1296797.3145713,721
1659977435.0143,1296797.3145831,920
1659977435.0143,1296797.3145911,670
1659977435.0143,1296797.3145993,11
1659977435.0143,1296797.3146136,-264
1659977435.0143,1296797.3146239,0
1659977435.0143,1296797.3146377,71
1659977435.0143,1296797.3146445,-57
1659977435.0143,1296797.3146584,-23
1659977435.02626,1296797.3146651,13
1659977435.02626,1296797.3146717,-30
1659977435.02626,1296797.3146778,-18
1659977435.02626,1296797.3146875,13
1659977435.02626,1296797.314693,6
1659977435.02626,1296797.3146972,9
1659977435.02626,1296797.3147006,30
1659977435.02626,1296797.3147068,34
1659977435.02626,1296797.3147101,39
1659977435.02626,1296797.3147156,53
1659977435.02626,1296797.3147195,62
1659977435.02626,1296797.3147247,69
1659977435.02626,1296797.3147314,71
1659977435.02626,1296797.3147406,71
1659977435.02626,1296797.3147453,74
1659977435.02626,1296797.3147499,69
1659977435.02626,1296797.314764,60
1659977435.02626,1296797.3147746,51
1659977435.02626,1296797.31478,39
1659977435.02626,1296797.3147848,27
1659977435.02626,1296797.3147882,25
1659977435.02626,1296797.8996487,30
1659977435.02626,1296797.8996719,46
1659977435.02626,1296797.8996818,69
1659977435.54333,1296797.899687,88
1659977435.54333,1296797.8996916,95
1659977435.54333,1296797.8996963,95
1659977435.54333,1296797.8997011,95
1659977435.54333,1296797.8997069,97
1659977435.54333,1296797.8997119,102
1659977435.54333,1296797.8997157,106
1659977435.54333,1296797.8997202,104
1659977435.54333,1296797.8997264,90
1659977435.54333,1296797.8997322,78
1659977435.54333,1296797.8997381,83
1659977435.54333,1296797.8997457,95
1659977435.54333,1296797.8997536,97
1659977435.54333,1296797.8997606,97
1659977435.54333,1296797.899766,88
1659977435.54333,1296797.89977,67
1659977435.54333,1296797.8997735,62
1659977435.54333,1296797.8997804,74
1659977435.54333,1296797.899788,81
1659977435.54333,1296797.8997928,78
1659977435.54333,1296797.8997985,64
1659977435.54333,1296797.899804,53
1659977435.54333,1296797.8998131,57
1659977435.54333,1296797.89982,71
1659977435.54333,1296797.8998268,69
1659977435.54333,1296797.8998356,64
1659977435.54333,1296797.8998395,71
1659977435.54333,1296797.8998439,76
1659977435.54333,1296797.8998495,88
1659977435.54333,1296797.8998526,111
1659977435.54333,1296797.8998557,122
1659977435.54333,1296797.8998589,113
1659977435.54333,1296797.8998697,92
1659977435.54333,1296797.899873,71
1659977435.54333,1296797.8998762,67
1659977435.54333,1296797.8998793,74
1659977435.54333,1296797.8998825,78
1659977435.54333,1296797.8998858,81
1659977435.54333,1296797.8998891,85
1659977435.54333,1296797.8998923,95
1659977435.54333,1296797.8998955,155
1659977435.54333,1296797.8998985,354
1659977435.54333,1296797.8999026,651
1659977435.54333,1296797.8999082,848
1659977435.54333,1296797.8999113,667
1659977435.54333,1296797.899916,62
1659977435.54333,1296797.899921,-276
1659977435.54333,1296797.8999242,-41
1659977435.54333,1296797.8999275,81
1659977435.54333,1296797.8999307,-46
1659977435.5553,1296797.899934,-34
1659977435.5553,1296797.8999373,27
1659977435.5553,1296797.8999405,-2
1659977435.5553,1296797.8999437,-9
1659977435.5553,1296797.8999468,25
1659977435.5553,1296797.89995,34
1659977435.5553,1296797.8999532,30
1659977435.5553,1296797.8999564,39
1659977435.5553,1296797.8999596,53
1659977435.5553,1296797.8999629,57
1659977435.5553,1296797.8999659,64
1659977435.5553,1296797.8999692,78
1659977435.5553,1296797.8999729,92
1659977435.5553,1296797.8999803,99
1659977435.5553,1296797.8999869,106
1659977435.5553,1296797.8999912,106
1659977435.5553,1296797.9,99
1659977435.5553,1296797.9000056,92
1659977435.5553,1296797.9000104,85
1659977435.5553,1296797.900016,69
1659977435.5553,1296798.4360992,55
1659977435.5553,1296798.4361181,48
1659977435.5553,1296798.4361268,51
1659977435.5553,1296798.4361347,69
1659977436.17281,1296798.4361436,85
1659977436.17281,1296798.4361486,92
1659977436.17281,1296798.4361524,102
1659977436.17281,1296798.4361569,106
1659977436.17281,1296798.4361637,88
1659977436.17281,1296798.4361692,74
1659977436.17281,1296798.4361733,78
1659977436.17281,1296798.4361765,83
1659977436.17281,1296798.4361802,83
1659977436.17281,1296798.4361836,88
1659977436.17281,1296798.4361885,90
1659977436.17281,1296798.4361939,88
1659977436.17281,1296798.4362005,92
1659977436.17281,1296798.4362073,95
1659977436.17281,1296798.436216,95
1659977436.17281,1296798.436223,97
1659977436.17281,1296798.4362317,90
1659977436.17281,1296798.4362386,71
1659977436.17281,1296798.4362476,67
1659977436.17281,1296798.4362551,69
1659977436.17281,1296798.4362625,71
1659977436.17281,1296798.4362709,78
1659977436.17281,1296798.4362775,76
1659977436.17281,1296798.4362831,67
1659977436.17281,1296798.4362867,67
1659977436.17281,1296798.4362903,71
1659977436.17281,1296798.4362952,76
1659977436.17281,1296798.4362987,90
1659977436.17281,1296798.4363036,118
1659977436.17281,1296798.4363093,134
1659977436.17281,1296798.4363204,125
1659977436.17281,1296798.4363279,106
1659977436.17281,1296798.436332,88
1659977436.17281,1296798.4363372,64
1659977436.17281,1296798.4363427,51
1659977436.17281,1296798.4363475,48
1659977436.17281,1296798.4363529,46
1659977436.17281,1296798.4363583,44
1659977436.17281,1296798.4363628,55
1659977436.17281,1296798.4363682,90
1659977436.17281,1296798.436373,213
1659977436.17281,1296798.4363785,468
1659977436.17281,1296798.4363825,744
1659977436.17281,1296798.4363879,793
1659977436.17281,1296798.4363919,359
1659977436.17281,1296798.4363977,-192
1659977436.17281,1296798.436402,-180
1659977436.17281,1296798.4364075,64
1659977436.17281,1296798.4364117,0
1659977436.17281,1296798.4364174,-78
1659977436.18677,1296798.4364223,-6
1659977436.18677,1296798.4364282,4
1659977436.18677,1296798.4364323,-20
1659977436.18677,1296798.4364363,4
1659977436.18677,1296798.436442,20
1659977436.18677,1296798.436446,9
1659977436.18677,1296798.4364502,13
1659977436.18677,1296798.4364559,30
1659977436.18677,1296798.4364609,37
1659977436.18677,1296798.4364665,46
1659977436.18677,1296798.4364727,57
1659977436.18677,1296798.4364767,62
1659977436.18677,1296798.4364806,69
1659977436.18677,1296798.4364867,81
1659977436.18677,1296798.4364906,90
1659977436.18677,1296798.4364993,83
1659977436.18677,1296798.4365089,76
1659977436.18677,1296798.4365151,60
1659977436.18677,1296798.4365198,44
1659977436.18677,1296799.0708775,37
1659977436.18677,1296799.0708942,32
1659977436.18677,1296799.0708988,32
1659977436.18677,1296799.0709036,44
1659977436.18677,1296799.070912,60
1659977437.82424,1296799.070916,67
1659977437.82424,1296799.0709211,71
1659977437.82424,1296799.0709257,78
1659977437.82424,1296799.0709302,85
1659977437.82424,1296799.0709345,88
1659977437.82424,1296799.0709388,78
1659977437.82424,1296799.0709433,60
1659977437.82424,1296799.0709476,53
1659977437.82424,1296799.0709558,67
1659977437.82424,1296799.0709591,69
1659977437.82424,1296799.0709623,69
1659977437.82424,1296799.0709655,78
1659977437.82424,1296799.0709702,71
1659977437.82424,1296799.0709735,55
1659977437.82424,1296799.0709772,60
1659977437.82424,1296799.0709807,69
1659977437.82424,1296799.0709848,67
1659977437.82424,1296799.0709888,64
1659977437.82424,1296799.0709928,62
1659977437.82424,1296799.0709969,60
1659977437.82424,1296799.0710013,60
1659977437.82424,1296799.0710064,62
1659977437.82424,1296799.0710102,62
1659977437.82424,1296799.0710137,60
1659977437.82424,1296799.0710172,55
1659977437.82424,1296799.0710212,51
1659977437.82424,1296799.0710247,62
1659977437.82424,1296799.0710282,95
1659977437.82424,1296799.0710315,109
1659977437.82424,1296799.0710351,90
1659977437.82424,1296799.0710386,69
1659977437.82424,1296799.071042,60
1659977437.82424,1296799.0710455,55
1659977437.82424,1296799.0710491,51
1659977437.82424,1296799.0710526,51
1659977437.82424,1296799.0711136,57
1659977437.82424,1296799.07113,64
1659977437.82424,1296799.0711437,74
1659977437.82424,1296799.071157,129
1659977437.82424,1296799.0711713,310
1659977437.82424,1296799.0711846,596
1659977437.82424,1296799.0711927,809
1659977437.82424,1296799.0711976,644
1659977437.82424,1296799.0712021,71
1659977437.82424,1296799.0712089,-245
1659977437.82424,1296799.0712194,-20
1659977437.82424,1296799.0712316,99
1659977437.82424,1296799.0712441,-27
1659977437.82424,1296799.0712583,-16
1659977437.82424,1296799.0712693,51
1659977437.83521,1296799.0712786,18
1659977437.83521,1296799.0712876,2
1659977437.83521,1296799.0713325,27
1659977437.83521,1296799.0713427,23
1659977437.83521,1296799.0713839,16
1659977437.83521,1296799.0713923,32
1659977437.83521,1296799.0713971,39
1659977437.83521,1296799.0714006,34
1659977437.83521,1296799.0714037,46
1659977437.83521,1296799.071407,60
1659977437.83521,1296799.0714107,67
1659977437.83521,1296799.0714143,74
1659977437.83521,1296799.071419,81
1659977437.83521,1296799.071425,78
1659977437.83521,1296799.0714296,62
1659977437.83521,1296799.0714349,44
1659977437.83521,1296799.0714404,32
1659977437.83521,1296799.0714457,23
1659977437.83521,1296800.7256834,16
1659977437.83521,1296800.725741,11
1659977437.83521,1296800.7257562,16
1659977437.83521,1296800.7257626,27
1659977437.83521,1296800.7257677,46
1659977437.83521,1296800.7257744,60
1659977438.12394,1296800.7257811,67
1659977438.12394,1296800.7257856,69
1659977438.12394,1296800.7257897,60
1659977438.12394,1296800.7257941,51
1659977438.12394,1296800.725799,55
1659977438.12394,1296800.7258029,69
1659977438.12394,1296800.7258071,74
1659977438.12394,1296800.7258116,71
1659977438.12394,1296800.7258151,60
1659977438.12394,1296800.7258202,48
1659977438.12394,1296800.7258238,51
1659977438.12394,1296800.7258273,64
1659977438.12394,1296800.7258309,69
1659977438.12394,1296800.7258344,69
1659977438.12394,1296800.725838,69
1659977438.12394,1296800.7258432,62
1659977438.12394,1296800.7258468,51
1659977438.12394,1296800.7258503,46
1659977438.12394,1296800.7258538,51
1659977438.12394,1296800.7258591,55
1659977438.12394,1296800.7258625,48
1659977438.12394,1296800.7258661,30
1659977438.12394,1296800.7258693,25
1659977438.12394,1296800.7258724,37
1659977438.12394,1296800.7258754,62
1659977438.12394,1296800.7258785,88
1659977438.12394,1296800.7258813,85
1659977438.12394,1296800.7258842,55
1659977438.12394,1296800.7258871,30
1659977438.12394,1296800.7258901,27
1659977438.12394,1296800.7258931,32
1659977438.12394,1296800.725896,37
1659977438.12394,1296800.725899,41
1659977438.12394,1296800.725902,41
1659977438.12394,1296800.7259051,44
1659977438.12394,1296800.7259086,69
1659977438.12394,1296800.7259122,176
1659977438.12394,1296800.7259159,415
1659977438.12394,1296800.7259196,707
1659977438.12394,1296800.7259231,807
1659977438.12394,1296800.7259267,429
1659977438.12394,1296800.7259304,-134
1659977438.12394,1296800.7259364,-176
1659977438.12394,1296800.7259406,88
1659977438.12394,1296800.7259442,57
1659977438.12394,1296800.7259475,-39
1659977438.12394,1296800.7259509,18
1659977438.12394,1296800.7259546,34
1659977438.12394,1296800.7259601,4
1659977438.12394,1296800.7259637,30
1659977438.13492,1296800.7259692,48
1659977438.13492,1296800.7259748,37
1659977438.13492,1296800.7259784,44
1659977438.13492,1296800.7259837,57
1659977438.13492,1296800.7259877,57
1659977438.13492,1296800.7259933,55
1659977438.13492,1296800.7259971,60
1659977438.13492,1296800.726001,64
1659977438.13492,1296800.7260069,64
1659977438.13492,1296800.7260106,64
1659977438.13492,1296800.7260163,64
1659977438.13492,1296800.7260202,64
1659977438.13492,1296800.7260257,57
1659977438.13492,1296800.7260291,44
1659977438.13492,1296800.7260328,27
1659977438.13492,1296800.7260458,11
1659977438.13492,1296800.7260498,6
1659977438.13492,1296801.0190645,11
1659977438.13492,1296801.0190854,27
1659977438.13492,1296801.0191004,41
1659977438.13492,1296801.0191137,55
1659977438.13492,1296801.0191273,64
1659977438.13492,1296801.0191409,69
1659977438.13492,1296801.0191493,71
1659977438.31344,1296801.0191519,71
1659977438.31344,1296801.019154,69
1659977438.31344,1296801.0191611,71
1659977438.31344,1296801.0191705,76
1659977438.31344,1296801.0191809,76
1659977438.31344,1296801.0191914,76
1659977438.31344,1296801.0192061,83
1659977438.31344,1296801.0192195,83
1659977438.31344,1296801.0192329,76
1659977438.31344,1296801.019246,62
1659977438.31344,1296801.0192515,53
1659977438.31344,1296801.0192538,44
1659977438.31344,1296801.0192559,41
1659977438.31344,1296801.0192579,41
1659977438.31344,1296801.01926,39
1659977438.31344,1296801.0192619,46
1659977438.31344,1296801.0192696,48
1659977438.31344,1296801.019283,39
1659977438.31344,1296801.0192977,44
1659977438.31344,1296801.0193108,57
1659977438.31344,1296801.0193241,74
1659977438.31344,1296801.0193328,99
1659977438.31344,1296801.0193354,106
1659977438.31344,1296801.0193375,81
1659977438.31344,1296801.0193396,53
1659977438.31344,1296801.0193416,44
1659977438.31344,1296801.0193437,48
1659977438.31344,1296801.019349,53
1659977438.31344,1296801.0193604,55
1659977438.31344,1296801.0193655,53
1659977438.31344,1296801.0193677,53
1659977438.31344,1296801.0193699,62
1659977438.31344,1296801.0193723,122
1659977438.31344,1296801.0193822,310
1659977438.31344,1296801.0193911,607
1659977438.31344,1296801.0193936,823
1659977438.31344,1296801.0193957,623
1659977438.31344,1296801.0193977,30
1659977438.31344,1296801.0193999,-243
1659977438.31344,1296801.0194057,2
1659977438.31344,1296801.0194267,92
1659977438.31344,1296801.0194374,-30
1659977438.31344,1296801.0194467,-16
1659977438.31344,1296801.0194575,30
1659977438.31344,1296801.019472,0
1659977438.31344,1296801.0194849,-2
1659977438.31344,1296801.0194981,27
1659977438.31344,1296801.0195113,32
1659977438.31344,1296801.0195246,20
1659977438.31344,1296801.0195332,20
1659977438.32441,1296801.0195358,32
1659977438.32441,1296801.019538,46
1659977438.32441,1296801.01954,55
1659977438.32441,1296801.0195478,62
1659977438.32441,1296801.0195582,69
1659977438.32441,1296801.0195617,69
1659977438.32441,1296801.0195654,71
1659977438.32441,1296801.0195679,78
1659977438.32441,1296801.0195784,71
1659977438.32441,1296801.0195863,53
1659977438.32441,1296801.0195888,34
1659977438.32441,1296801.019591,11
1659977438.32441,1296801.0195934,-6
1659977438.32441,1296801.0196028,-6
1659977438.32441,1296801.0196117,11
1659977438.32441,1296801.0196142,27
1659977438.32441,1296801.2134436,37
1659977438.32441,1296801.2134611,41
1659977438.32441,1296801.2134666,44
1659977438.32441,1296801.2134729,48
1659977438.32441,1296801.2134775,53
1659977438.32441,1296801.2134834,55
1659977438.32441,1296801.2134879,57
1659977438.32441,1296801.2134937,51
1659977438.41317,1296801.2134983,41
1659977438.41317,1296801.2135026,46
1659977438.41317,1296801.2135067,51
1659977438.41317,1296801.2135108,44
1659977438.41317,1296801.2135149,44
1659977438.41317,1296801.213519,51
1659977438.41317,1296801.2135234,48
1659977438.41317,1296801.2135277,48
1659977438.41317,1296801.2135318,57
1659977438.41317,1296801.2135359,60
1659977438.41317,1296801.2135402,60
1659977438.41317,1296801.2135454,57
1659977438.41317,1296801.2135496,55
1659977438.41317,1296801.2135539,53
1659977438.41317,1296801.213558,57
1659977438.41317,1296801.2135622,62
1659977438.41317,1296801.2135663,69
1659977438.41317,1296801.2135703,85
1659977438.41317,1296801.2135745,109
1659977438.41317,1296801.2135805,115
1659977438.41317,1296801.2135849,99
1659977438.41317,1296801.2135908,78
1659977438.41317,1296801.2135952,64
1659977438.41317,1296801.2136012,62
1659977438.41317,1296801.2136064,67
1659977438.41317,1296801.2136108,64
1659977438.41317,1296801.2136166,62
1659977438.41317,1296801.2136209,69
1659977438.41317,1296801.2136251,83
1659977438.41317,1296801.2136292,139
1659977438.41317,1296801.2136334,327
1659977438.41317,1296801.2136375,626
1659977438.41317,1296801.2136416,844
1659977438.41317,1296801.2136457,670
1659977438.41317,1296801.2136499,74
1659977438.41317,1296801.2136559,-241
1659977438.41317,1296801.2136602,-9
1659977438.41317,1296801.2136644,97
1659977438.41317,1296801.2136687,-34
1659977438.41317,1296801.2136744,-16
1659977438.41317,1296801.2136798,48
1659977438.41317,1296801.2136836,20
1659977438.41317,1296801.2136875,18
1659977438.41317,1296801.2136944,51
1659977438.41317,1296801.2136982,46
1659977438.41317,1296801.2137016,39
1659977438.41317,1296801.2137051,55
1659977438.41317,1296801.2137089,67
1659977438.41317,1296801.2137144,71
1659977438.41317,1296801.213719,76
1659977438.42315,1296801.2137228,74
1659977438.42315,1296801.2137288,76
1659977438.42315,1296801.2137325,85
1659977438.42315,1296801.2137377,90
1659977438.42315,1296801.2137413,85
1659977438.42315,1296801.213745,81
1659977438.42315,1296801.2137502,71
1659977438.42315,1296801.2137539,51
1659977438.42315,1296801.2137591,32
1659977438.42315,1296801.2137628,20
1659977438.42315,1296801.2137666,13
1659977438.42315,1296801.2137702,20
1659977438.42315,1296801.2137735,32
1659977438.42315,1296801.213777,41
1659977438.42315,1296801.2137807,44
1659977438.42315,1296801.3133711,41
1659977438.42315,1296801.3133921,30
1659977438.42315,1296801.3134013,20
1659977438.42315,1296801.3134077,20
1659977438.42315,1296801.3134128,18
1659977438.42315,1296801.3134183,9
1659977438.42315,1296801.3134245,9
1659977438.42315,1296801.3134283,20
1659977438.42315,1296801.3134334,27
1659977438.85791,1296801.3134372,37
1659977438.85791,1296801.3134422,37
1659977438.85791,1296801.3134463,27
1659977438.85791,1296801.3134503,25
1659977438.85791,1296801.3134543,34
1659977438.85791,1296801.3134588,44
1659977438.85791,1296801.3134629,44
1659977438.85791,1296801.3134661,46
1659977438.85791,1296801.3134694,46
1659977438.85791,1296801.3134727,41
1659977438.85791,1296801.3134762,41
1659977438.85791,1296801.3134812,48
1659977438.85791,1296801.3134845,53
1659977438.85791,1296801.3134879,62
1659977438.85791,1296801.3134928,74
1659977438.85791,1296801.3134978,88
1659977438.85791,1296801.3135028,104
1659977438.85791,1296801.3135062,104
1659977438.85791,1296801.3135108,88
1659977438.85791,1296801.3135141,67
1659977438.85791,1296801.3135174,55
1659977438.85791,1296801.3135226,39
1659977438.85791,1296801.3135258,30
1659977438.85791,1296801.3135292,39
1659977438.85791,1296801.3135326,46
1659977438.85791,1296801.3135359,41
1659977438.85791,1296801.3135402,69
1659977438.85791,1296801.3135435,199
1659977438.85791,1296801.3135467,468
1659977438.85791,1296801.3135501,758
1659977438.85791,1296801.3135549,786
1659977438.85791,1296801.3135596,303
1659977438.85791,1296801.313563,-215
1659977438.85791,1296801.3135664,-136
1659977438.85791,1296801.313571,83
1659977438.85791,1296801.3135743,-2
1659977438.85791,1296801.3135777,-46
1659977438.85791,1296801.3135823,32
1659977438.85791,1296801.3135868,30
1659977438.85791,1296801.3135943,2
1659977438.85791,1296801.3135997,18
1659977438.85791,1296801.3136068,23
1659977438.85791,1296801.313612,23
1659977438.85791,1296801.3136183,44
1659977438.85791,1296801.3136221,60
1659977438.85791,1296801.3136679,62
1659977438.85791,1296801.3136774,62
1659977438.85791,1296801.313682,67
1659977438.85791,1296801.3136858,78
1659977438.85791,1296801.3136896,95
1659977438.86789,1296801.3136932,92
1659977438.86789,1296801.3136967,83
1659977438.86789,1296801.3137003,76
1659977438.86789,1296801.3137043,48
1659977438.86789,1296801.3137084,20
1659977438.86789,1296801.3137122,13
1659977438.86789,1296801.313716,0
1659977438.86789,1296801.3137193,-18
1659977438.86789,1296801.3137233,-25
1659977438.86789,1296801.3137276,-23
1659977438.86789,1296801.3137318,-18
1659977438.86789,1296801.313735,-4
1659977438.86789,1296801.3137382,4
1659977438.86789,1296801.3137415,2
1659977438.86789,1296801.7509052,2
1659977438.86789,1296801.7509461,-4
1659977438.86789,1296801.7509523,-23
1659977438.86789,1296801.7509564,-20
1659977438.86789,1296801.7509606,-6
1659977438.86789,1296801.750966,-4
1659977438.86789,1296801.7509702,0
1659977438.86789,1296801.7509743,2
1659977438.86789,1296801.7509784,-6
1659977438.86789,1296801.7509826,-6
1659977439.4875,1296801.7509868,6
1659977439.4875,1296801.7509907,11
1659977439.4875,1296801.750995,13
1659977439.4875,1296801.7509989,20
1659977439.4875,1296801.7510028,18
1659977439.4875,1296801.7510066,20
1659977439.4875,1296801.7510106,27
1659977439.4875,1296801.7510144,30
1659977439.4875,1296801.7510184,27
1659977439.4875,1296801.7510225,32
1659977439.4875,1296801.7510266,25
1659977439.4875,1296801.7510309,6
1659977439.4875,1296801.7510388,9
1659977439.4875,1296801.7510501,25
1659977439.4875,1296801.7510583,34
1659977439.4875,1296801.751073,48
1659977439.4875,1296801.7510854,60
1659977439.4875,1296801.7510957,46
1659977439.4875,1296801.7511049,20
1659977439.4875,1296801.7511145,9
1659977439.4875,1296801.7511263,2
1659977439.4875,1296801.7511351,6
1659977439.4875,1296801.7511419,13
1659977439.4875,1296801.7511545,11
1659977439.4875,1296801.7511641,11
1659977439.4875,1296801.7511701,23
1659977439.4875,1296801.7511826,51
1659977439.4875,1296801.7511914,157
1659977439.4875,1296801.7512042,412
1659977439.4875,1296801.7512157,728
1659977439.4875,1296801.7512268,865
1659977439.4875,1296801.7512332,507
1659977439.4875,1296801.7512362,-113
1659977439.4875,1296801.7512463,-224
1659977439.4875,1296801.7512593,51
1659977439.4875,1296801.7512724,53
1659977439.4875,1296801.7512853,-55
1659977439.4875,1296801.7512941,2
1659977439.4875,1296801.751306,37
1659977439.4875,1296801.7513163,4
1659977439.4875,1296801.7513252,25
1659977439.4875,1296801.7513378,57
1659977439.4875,1296801.7513466,46
1659977439.4875,1296801.7513576,44
1659977439.4875,1296801.7513682,62
1659977439.4875,1296801.7513758,74
1659977439.4875,1296801.7513848,78
1659977439.4875,1296801.7513936,85
1659977439.4875,1296801.7514022,90
1659977439.4875,1296801.7514113,83
1659977439.49847,1296801.7514151,78
1659977439.49847,1296801.7514192,81
1659977439.49847,1296801.7514238,81
1659977439.49847,1296801.7514478,76
1659977439.49847,1296801.7514656,62
1659977439.49847,1296801.7514738,32
1659977439.49847,1296801.7514804,18
1659977439.49847,1296801.7514881,27
1659977439.49847,1296801.7514931,34
1659977439.49847,1296801.7514996,39
1659977439.49847,1296801.7515039,51
1659977439.49847,1296801.7515096,57
1659977439.49847,1296801.7515136,62
1659977439.49847,1296802.3850366,67
1659977439.49847,1296802.3850608,64
1659977439.49847,1296802.3850678,60
1659977439.49847,1296802.3850733,57
1659977439.49847,1296802.3850777,39
1659977439.49847,1296802.3850807,18
1659977439.49847,1296802.385084,25
1659977439.49847,1296802.3850869,39
1659977439.49847,1296802.3850898,44
1659977439.49847,1296802.3850928,44
1659977439.49847,1296802.3850973,41
1659977440.02195,1296802.3851027,27
1659977440.02195,1296802.3851059,20
1659977440.02195,1296802.3851111,30
1659977440.02195,1296802.3851141,39
1659977440.02195,1296802.3851192,37
1659977440.02195,1296802.3851227,32
1659977440.02195,1296802.3851263,27
1659977440.02195,1296802.3851294,27
1659977440.02195,1296802.3851324,30
1659977440.02195,1296802.3851358,34
1659977440.02195,1296802.3851389,41
1659977440.02195,1296802.3851432,41
1659977440.02195,1296802.3851482,34
1659977440.02195,1296802.3851523,34
1659977440.02195,1296802.3851591,46
1659977440.02195,1296802.3851626,62
1659977440.02195,1296802.3851657,81
1659977440.02195,1296802.3851688,104
1659977440.02195,1296802.385172,113
1659977440.02195,1296802.385175,97
1659977440.02195,1296802.3851782,76
1659977440.02195,1296802.3851813,67
1659977440.02195,1296802.3851845,71
1659977440.02195,1296802.3851875,76
1659977440.02195,1296802.3851937,76
1659977440.02195,1296802.3852047,78
1659977440.02195,1296802.3852168,83
1659977440.02195,1296802.385223,104
1659977440.02195,1296802.3852268,194
1659977440.02195,1296802.3852305,433
1659977440.02195,1296802.3852338,763
1659977440.02195,1296802.3852372,948
1659977440.02195,1296802.3852408,667
1659977440.02195,1296802.3852471,18
1659977440.02195,1296802.3852503,-234
1659977440.02195,1296802.3852538,34
1659977440.02195,1296802.3852571,111
1659977440.02195,1296802.3852607,-23
1659977440.02195,1296802.3852652,2
1659977440.02195,1296802.3852708,55
1659977440.02195,1296802.3852745,18
1659977440.02195,1296802.3852799,11
1659977440.02195,1296802.3852834,41
1659977440.02195,1296802.3852896,48
1659977440.02195,1296802.385295,46
1659977440.02195,1296802.3852985,60
1659977440.02195,1296802.3853034,69
1659977440.02195,1296802.3853068,76
1659977440.02195,1296802.3853116,88
1659977440.02195,1296802.3853161,99
1659977440.03292,1296802.3853214,104
1659977440.03292,1296802.385325,106
1659977440.03292,1296802.3853286,113
1659977440.03292,1296802.385332,113
1659977440.03292,1296802.3853374,104
1659977440.03292,1296802.3853427,95
1659977440.03292,1296802.385348,83
1659977440.03292,1296802.3853516,64
1659977440.03292,1296802.3853565,51
1659977440.03292,1296802.38536,51
1659977440.03292,1296802.3853636,57
1659977440.03292,1296802.3853739,62
1659977440.03292,1296802.9211336,67
1659977440.03292,1296802.9211484,76
1659977440.03292,1296802.9211523,74
1659977440.03292,1296802.921156,71
1659977440.03292,1296802.9211595,71
1659977440.03292,1296802.9211629,74
1659977440.03292,1296802.9211665,67
1659977440.03292,1296802.92117,48
1659977440.03292,1296802.9211735,30
1659977440.03292,1296802.9211769,30
1659977440.03292,1296802.9211803,39
1659977440.03292,1296802.9211838,44
1659977440.61125,1296802.9211872,48
1659977440.61125,1296802.9211907,57
1659977440.61125,1296802.9211941,53
1659977440.61125,1296802.9211975,44
1659977440.61125,1296802.921201,51
1659977440.61125,1296802.9212043,60
1659977440.61125,1296802.9212079,62
1659977440.61125,1296802.9212114,62
1659977440.61125,1296802.9212149,51
1659977440.61125,1296802.9212183,34
1659977440.61125,1296802.9212217,39
1659977440.61125,1296802.9212251,51
1659977440.61125,1296802.9212285,53
1659977440.61125,1296802.921232,51
1659977440.61125,1296802.9212355,48
1659977440.61125,1296802.9212389,41
1659977440.61125,1296802.9212424,41
1659977440.61125,1296802.9212459,57
1659977440.61125,1296802.9212493,81
1659977440.61125,1296802.9212528,106
1659977440.61125,1296802.9212562,118
1659977440.61125,1296802.9212596,104
1659977440.61125,1296802.921263,81
1659977440.61125,1296802.9212665,71
1659977440.61125,1296802.9212701,71
1659977440.61125,1296802.9212735,74
1659977440.61125,1296802.921277,74
1659977440.61125,1296802.9212804,71
1659977440.61125,1296802.9212839,74
1659977440.61125,1296802.9212873,92
1659977440.61125,1296802.9212907,164
1659977440.61125,1296802.9212943,357
1659977440.61125,1296802.9212978,670
1659977440.61125,1296802.9213012,930
1659977440.61125,1296802.9213046,800
1659977440.61125,1296802.921308,178
1659977440.61125,1296802.9213116,-248
1659977440.61125,1296802.9213151,-51
1659977440.61125,1296802.9213186,109
1659977440.61125,1296802.9213221,-20
1659977440.61125,1296802.9213257,-25
1659977440.61125,1296802.9213292,51
1659977440.61125,1296802.9213326,32
1659977440.61125,1296802.921336,25
1659977440.61125,1296802.9213395,57
1659977440.61125,1296802.9213429,60
1659977440.61125,1296802.9213463,53
1659977440.61125,1296802.9213498,67
1659977440.61125,1296802.9213533,76
1659977440.61125,1296802.9213572,76
1659977440.62322,1296802.9213606,81
1659977440.62322,1296802.921364,97
1659977440.62322,1296802.9213675,102
1659977440.62322,1296802.921371,109
1659977440.62322,1296802.9213746,120
1659977440.62322,1296802.9213782,122
1659977440.62322,1296802.9213817,115
1659977440.62322,1296802.9213851,106
1659977440.62322,1296802.9213886,92
1659977440.62322,1296802.9213921,71
1659977440.62322,1296802.9213955,51
1659977440.62322,1296803.505876,41
1659977440.62322,1296803.505897,39
1659977440.62322,1296803.5059117,39
1659977440.62322,1296803.5059251,51
1659977440.62322,1296803.5059384,62
1659977440.62322,1296803.5059518,69
1659977440.62322,1296803.5059651,78
1659977440.62322,1296803.505979,76
1659977440.62322,1296803.5059916,74
1659977440.62322,1296803.5059998,76
1659977440.62322,1296803.5060061,69
1659977440.62322,1296803.5060168,48
1659977440.62322,1296803.5060299,44
1659977441.14756,1296803.5060424,55
1659977441.14756,1296803.5060487,57
1659977441.14756,1296803.5060595,60
1659977441.14756,1296803.5060682,67
1659977441.14756,1296803.5060812,57
1659977441.14756,1296803.5060945,41
1659977441.14756,1296803.5061077,46
1659977441.14756,1296803.5061165,53
1659977441.14756,1296803.50612,53
1659977441.14756,1296803.5061222,57
1659977441.14756,1296803.5061243,57
1659977441.14756,1296803.5061262,53
1659977441.14756,1296803.5061283,55
1659977441.14756,1296803.5061303,60
1659977441.14756,1296803.5061324,62
1659977441.14756,1296803.5061344,67
1659977441.14756,1296803.5061364,69
1659977441.14756,1296803.5061385,64
1659977441.14756,1296803.5061405,60
1659977441.14756,1296803.5061433,60
1659977441.14756,1296803.5061453,62
1659977441.14756,1296803.5061475,71
1659977441.14756,1296803.5061496,81
1659977441.14756,1296803.5061517,90
1659977441.14756,1296803.5061537,104
1659977441.14756,1296803.5061556,102
1659977441.14756,1296803.5061577,83
1659977441.14756,1296803.5061599,67
1659977441.14756,1296803.5061619,64
1659977441.14756,1296803.506164,67
1659977441.14756,1296803.506166,64
1659977441.14756,1296803.506168,67
1659977441.14756,1296803.50617,71
1659977441.14756,1296803.5061721,83
1659977441.14756,1296803.5061744,129
1659977441.14756,1296803.5061764,287
1659977441.14756,1296803.5061785,579
1659977441.14756,1296803.5061805,865

1659977441.14756,1296803.5061829,881
1659977441.14756,1296803.5061849,403
1659977441.14756,1296803.506187,-160
1659977441.14756,1296803.5061891,-134
1659977441.14756,1296803.5061912,104
1659977441.14756,1296803.5061932,37
1659977441.14756,1296803.5061953,-25
1659977441.14756,1296803.5061973,48
1659977441.14756,1296803.5061993,51
1659977441.14756,1296803.5062013,16
1659977441.14756,1296803.5062033,41
1659977441.14756,1296803.5062055,55
1659977441.15853,1296803.5062076,34
1659977441.15853,1296803.5062096,44
1659977441.15853,1296803.5062116,64
1659977441.15853,1296803.506214,67
1659977441.15853,1296803.5062161,67
1659977441.15853,1296803.5062181,76
1659977441.15853,1296803.5062201,81
1659977441.15853,1296803.5062222,88
1659977441.15853,1296803.506225,95
1659977441.15853,1296803.5062342,92
1659977441.15853,1296804.0415971,85
1659977441.15853,1296804.041613,76
1659977441.15853,1296804.0416159,62
1659977441.15853,1296804.0416179,48
1659977441.15853,1296804.0416198,39
1659977441.15853,1296804.0416218,27
1659977441.15853,1296804.0416237,20
1659977441.15853,1296804.0416256,13
1659977441.15853,1296804.0416275,4
1659977441.15853,1296804.0416294,13
1659977441.15853,1296804.0416313,34
1659977441.15853,1296804.0416332,39
1659977441.15853,1296804.041635,37
1659977441.15853,1296804.0416369,34
1659977441.73349,1296804.0416387,20
1659977441.73349,1296804.0416407,9
1659977441.73349,1296804.0416426,20
1659977441.73349,1296804.0416445,32
1659977441.73349,1296804.0416465,30
1659977441.73349,1296804.0416484,34
1659977441.73349,1296804.0416503,44
1659977441.73349,1296804.0416524,41
1659977441.73349,1296804.04166,39
1659977441.73349,1296804.0416729,51
1659977441.73349,1296804.0416867,55
1659977441.73349,1296804.041694,51
1659977441.73349,1296804.0416964,51
1659977441.73349,1296804.0416985,53
1659977441.73349,1296804.0417004,44
1659977441.73349,1296804.0417025,37
1659977441.73349,1296804.0417045,39
1659977441.73349,1296804.0417065,41
1659977441.73349,1296804.0417086,41
1659977441.73349,1296804.0417105,41
1659977441.73349,1296804.0417125,46
1659977441.73349,1296804.0417146,53
1659977441.73349,1296804.0417166,57
1659977441.73349,1296804.0417191,55
1659977441.73349,1296804.0417212,55
1659977441.73349,1296804.0417232,60
1659977441.73349,1296804.0417252,71
1659977441.73349,1296804.0417272,95
1659977441.73349,1296804.0417291,122
1659977441.73349,1296804.0417311,125
1659977441.73349,1296804.0417331,106
1659977441.73349,1296804.0417352,85
1659977441.73349,1296804.0417371,74
1659977441.73349,1296804.0417391,74
1659977441.73349,1296804.0417411,83
1659977441.73349,1296804.0417431,85
1659977441.73349,1296804.0417451,83
1659977441.73349,1296804.0417475,88
1659977441.73349,1296804.0417496,111
1659977441.73349,1296804.0417515,206
1659977441.73349,1296804.0417535,442
1659977441.73349,1296804.0417555,746
1659977441.73349,1296804.0417575,892
1659977441.73349,1296804.0417596,593
1659977441.73349,1296804.0417616,-30
1659977441.73349,1296804.0417636,-238
1659977441.73349,1296804.0417657,18
1659977441.73349,1296804.0417677,71
1659977441.73349,1296804.0417699,-39
1659977441.73349,1296804.0417719,4
1659977441.74404,1296804.0417738,48
1659977441.74404,1296804.0417758,9
1659977441.74404,1296804.0417779,16
1659977441.74404,1296804.0417799,39
1659977441.74404,1296804.0417819,32
1659977441.74404,1296804.0417838,32
1659977441.74404,1296804.0417859,44
1659977441.74404,1296804.041788,41
1659977441.74404,1296804.04179,41
1659977441.74404,1296804.6264997,51
1659977441.74404,1296804.6265124,60
1659977441.74404,1296804.6265167,71
1659977441.74404,1296804.6265195,83
1659977441.74404,1296804.626522,88
1659977441.74404,1296804.6265244,83
1659977441.74404,1296804.6265268,81
1659977441.74404,1296804.6265291,76
1659977441.74404,1296804.6265316,64
1659977441.74404,1296804.6265339,51
1659977441.74404,1296804.6265361,32
1659977441.74404,1296804.6265384,2
1659977441.74404,1296804.6265407,-13
1659977441.74404,1296804.626543,0
1659977441.74404,1296804.6265453,16
1659977442.21664,1296804.6265476,27
1659977442.21664,1296804.6265498,32
1659977442.21664,1296804.6265519,20
1659977442.21664,1296804.6265547,6
1659977442.21664,1296804.6265602,9
1659977442.21664,1296804.626567,16
1659977442.21664,1296804.6265708,6
1659977442.21664,1296804.6265753,4
1659977442.21664,1296804.6265805,9
1659977442.21664,1296804.626592,11
1659977442.21664,1296804.6265969,18
1659977442.21664,1296804.6266026,30
1659977442.21664,1296804.6266136,37
1659977442.21664,1296804.6266171,41
1659977442.21664,1296804.62662,44
1659977442.21664,1296804.6266229,44
1659977442.21664,1296804.6266258,46
1659977442.21664,1296804.6266287,53
1659977442.21664,1296804.6266316,57
1659977442.21664,1296804.6266345,60
1659977442.21664,1296804.6266373,60
1659977442.21664,1296804.6266402,55
1659977442.21664,1296804.6266432,57
1659977442.21664,1296804.6266461,62
1659977442.21664,1296804.626649,67
1659977442.21664,1296804.626652,69
1659977442.21664,1296804.6266548,69
1659977442.21664,1296804.6266577,67
1659977442.21664,1296804.6266606,67
1659977442.21664,1296804.6266635,76
1659977442.21664,1296804.6266664,90
1659977442.21664,1296804.6266693,111
1659977442.21664,1296804.6266721,125
1659977442.21664,1296804.6266751,109
1659977442.21664,1296804.6266779,85
1659977442.21664,1296804.6266808,74
1659977442.21664,1296804.6266838,74
1659977442.21664,1296804.6266876,76
1659977442.21664,1296804.6266996,78
1659977442.21664,1296804.6267083,74
1659977442.21664,1296804.6267127,69
1659977442.21664,1296804.6267148,78
1659977442.21664,1296804.6267176,148
1659977442.21664,1296804.6267197,345
1659977442.21664,1296804.6267218,647
1659977442.21664,1296804.6267239,867
1659977442.21664,1296804.626726,718
1659977442.21664,1296804.6267282,134
1659977442.21664,1296804.6267303,-241
1659977442.21664,1296804.6267324,-41
1659977442.22662,1296804.6267345,95
1659977442.22662,1296804.6267367,-27
1659977442.22662,1296804.6267389,-32
1659977442.22662,1296804.6267412,25
1659977442.22662,1296804.6267432,-2
1659977442.22662,1296804.6267453,-9
1659977442.22662,1296804.6267474,20
1659977442.22662,1296804.6267495,18
1659977442.22662,1296805.1144502,13
1659977442.22662,1296805.1144709,27
1659977442.22662,1296805.1144776,34
1659977442.22662,1296805.1144815,34
1659977442.22662,1296805.1144899,39
1659977442.22662,1296805.1144938,44
1659977442.22662,1296805.1144971,48
1659977442.22662,1296805.1145039,48
1659977442.22662,1296805.1145091,41
1659977442.22662,1296805.1145159,41
1659977442.22662,1296805.1145209,48
1659977442.22662,1296805.1145271,41
1659977442.22662,1296805.1145335,25
1659977442.22662,1296805.1145416,13
1659977442.22662,1296805.1145471,0
1659977442.22662,1296805.114556,-20
1659977442.80597,1296805.1145624,-20
1659977442.80597,1296805.1145674,-6
1659977442.80597,1296805.1145738,4
1659977442.80597,1296805.1145809,13
1659977442.80597,1296805.1145879,9
1659977442.80597,1296805.1145915,-2
1659977442.80597,1296805.1146005,2
1659977442.80597,1296805.1146079,6
1659977442.80597,1296805.1146149,9
1659977442.80597,1296805.1146264,13
1659977442.80597,1296805.1146352,16
1659977442.80597,1296805.1146476,20
1659977442.80597,1296805.1146534,30
1659977442.80597,1296805.1146563,34
1659977442.80597,1296805.1146585,37
1659977442.80597,1296805.1146606,48
1659977442.80597,1296805.1146627,53
1659977442.80597,1296805.1146646,53
1659977442.80597,1296805.1146674,53
1659977442.80597,1296805.1146694,48
1659977442.80597,1296805.114672,44
1659977442.80597,1296805.1146741,48
1659977442.80597,1296805.1146762,60
1659977442.80597,1296805.1146782,57
1659977442.80597,1296805.1146803,46
1659977442.80597,1296805.1146822,48
1659977442.80597,1296805.1146843,57
1659977442.80597,1296805.1146864,57
1659977442.80597,1296805.1146885,55
1659977442.80597,1296805.1146905,60
1659977442.80597,1296805.1146925,64
1659977442.80597,1296805.1146945,74
1659977442.80597,1296805.1146966,97
1659977442.80597,1296805.1146987,122
1659977442.80597,1296805.1147007,120
1659977442.80597,1296805.1147028,102
1659977442.80597,1296805.1147049,78
1659977442.80597,1296805.1147069,60
1659977442.80597,1296805.1147089,55
1659977442.80597,1296805.1147109,62
1659977442.80597,1296805.114713,69
1659977442.80597,1296805.114715,69
1659977442.80597,1296805.1147171,67
1659977442.80597,1296805.1147191,104
1659977442.80597,1296805.1147212,262
1659977442.80597,1296805.1147232,552
1659977442.80597,1296805.1147252,823
1659977442.80597,1296805.1147278,804
1659977442.80597,1296805.1147298,292
1659977442.80597,1296805.1147319,-243
1659977442.81794,1296805.1147339,-166
1659977442.81794,1296805.1147361,64
1659977442.81794,1296805.1147381,-20
1659977442.81794,1296805.1147401,-78
1659977442.81794,1296805.1147423,-6
1659977442.81794,1296805.1147443,-11
1659977442.81794,1296805.1147464,-32
1659977442.81794,1296805.6994039,0
1659977442.81794,1296805.699424,9
1659977442.81794,1296805.6994346,0
1659977442.81794,1296805.6994439,9
1659977442.81794,1296805.6994544,9
1659977442.81794,1296805.6994635,-2
1659977442.81794,1296805.6994704,6
1659977442.81794,1296805.6994758,11
1659977442.81794,1296805.6994794,6
1659977442.81794,1296805.6994846,20
1659977442.81794,1296805.6994888,27
1659977442.81794,1296805.6994939,9
1659977442.81794,1296805.6994986,6
1659977442.81794,1296805.6995027,13
1659977442.81794,1296805.6995068,6
1659977442.81794,1296805.6995117,-6
1659977442.81794,1296805.6995164,-18
1659977443.3877,1296805.6995204,-30
1659977443.3877,1296805.6995244,-32
1659977443.3877,1296805.6995283,-18
1659977443.3877,1296805.699555,-2
1659977443.3877,1296805.6995605,13
1659977443.3877,1296805.6995644,20
1659977443.3877,1296805.699568,20
1659977443.3877,1296805.6995717,20
1659977443.3877,1296805.6995756,25
1659977443.3877,1296805.6995793,20
1659977443.3877,1296805.6995827,13
1659977443.3877,1296805.6995863,16
1659977443.3877,1296805.6995909,25
1659977443.3877,1296805.6995944,34
1659977443.3877,1296805.6995983,46
1659977443.3877,1296805.6996019,53
1659977443.3877,1296805.6996058,51
1659977443.3877,1296805.6996095,57
1659977443.3877,1296805.6996135,64
1659977443.3877,1296805.6996176,67
1659977443.3877,1296805.6996213,67
1659977443.3877,1296805.6996249,74
1659977443.3877,1296805.6996286,76
1659977443.3877,1296805.6996325,71
1659977443.3877,1296805.6996361,74
1659977443.3877,1296805.6996397,81
1659977443.3877,1296805.6996432,76
1659977443.3877,1296805.699647,71
1659977443.3877,1296805.6996507,78
1659977443.3877,1296805.6996542,83
1659977443.3877,1296805.6996577,90
1659977443.3877,1296805.6996614,115
1659977443.3877,1296805.6996652,136
1659977443.3877,1296805.6996687,129
1659977443.3877,1296805.699672,115
1659977443.3877,1296805.6996763,95
1659977443.3877,1296805.6996799,76
1659977443.3877,1296805.6996839,81
1659977443.3877,1296805.6996897,78
1659977443.3877,1296805.6996936,67
1659977443.3877,1296805.6996974,74
1659977443.3877,1296805.6997011,85
1659977443.3877,1296805.6997065,127
1659977443.3877,1296805.6997114,292
1659977443.3877,1296805.6997166,593
1659977443.3877,1296805.6997211,848
1659977443.3877,1296805.6997263,788
1659977443.3877,1296805.6997298,236
1659977443.3877,1296805.6997337,-269
1659977443.3877,1296805.6997393,-129
1659977443.39767,1296805.6997433,90
1659977443.39767,1296805.6997489,-25
1659977443.39767,1296805.6997526,-64
1659977443.39767,1296805.6997564,16
1659977443.39767,1296805.6997616,9
1659977443.39767,1296805.6997654,-13
1659977443.39767,1296806.2860024,-4
1659977443.39767,1296806.2860242,-9
1659977443.39767,1296806.2860291,-9
1659977443.39767,1296806.2860356,6
1659977443.39767,1296806.2860415,16
1659977443.39767,1296806.2860452,23
1659977443.39767,1296806.2860486,37
1659977443.39767,1296806.2860523,34
1659977443.39767,1296806.2860619,27
1659977443.39767,1296806.2860687,37
1659977443.39767,1296806.2860751,48
1659977443.39767,1296806.2860813,55
1659977443.39767,1296806.2860874,60
1659977443.39767,1296806.2860931,51
1659977443.39767,1296806.2860999,16
1659977443.39767,1296806.2861039,-13
1659977443.39767,1296806.2861082,-16
1659977443.39767,1296806.2861117,-16
1659977443.92235,1296806.2861154,-25
1659977443.92235,1296806.2861194,-20
1659977443.92235,1296806.2861232,-6
1659977443.92235,1296806.2861271,2
1659977443.92235,1296806.2861309,6
1659977443.92235,1296806.2861345,16
1659977443.92235,1296806.2861382,25
1659977443.92235,1296806.2861416,30
1659977443.92235,1296806.2861455,27
1659977443.92235,1296806.2861492,20
1659977443.92235,1296806.286157,25
1659977443.92235,1296806.2861872,41
1659977443.92235,1296806.2861996,51
1659977443.92235,1296806.2862044,55
1659977443.92235,1296806.2862082,62
1659977443.92235,1296806.2862115,64
1659977443.92235,1296806.286215,64
1659977443.92235,1296806.2862187,71
1659977443.92235,1296806.2862224,78
1659977443.92235,1296806.2862266,78
1659977443.92235,1296806.2862296,81
1659977443.92235,1296806.2862324,85
1659977443.92235,1296806.2862354,83
1659977443.92235,1296806.2862382,81
1659977443.92235,1296806.286241,90
1659977443.92235,1296806.2862439,95
1659977443.92235,1296806.2862468,97
1659977443.92235,1296806.2862497,109
1659977443.92235,1296806.2862526,132
1659977443.92235,1296806.2862555,141
1659977443.92235,1296806.286259,125
1659977443.92235,1296806.2862625,99
1659977443.92235,1296806.2862661,78
1659977443.92235,1296806.2862702,69
1659977443.92235,1296806.2862746,71
1659977443.92235,1296806.2862813,76
1659977443.92235,1296806.2862848,76
1659977443.92235,1296806.286289,83
1659977443.92235,1296806.2862936,115
1659977443.92235,1296806.2862965,222
1659977443.92235,1296806.2862994,468
1659977443.92235,1296806.2863021,783
1659977443.92235,1296806.2863048,932
1659977443.92235,1296806.2863073,579
1659977443.92235,1296806.2863102,-81
1659977443.92235,1296806.2863129,-218
1659977443.92235,1296806.2863158,69
1659977443.92235,1296806.2863185,60
1659977443.92235,1296806.2863213,-69
1659977443.92235,1296806.2863242,-11
1659977443.93332,1296806.2863269,18
1659977443.93332,1296806.2863296,-27
1659977443.93332,1296806.2863324,-13
1659977443.93332,1296806.2863352,9
1659977443.93332,1296806.286338,-4
1659977443.93332,1296806.8217413,0
1659977443.93332,1296806.8217614,18
1659977443.93332,1296806.8217673,18
1659977443.93332,1296806.8217742,20
1659977443.93332,1296806.8217797,34
1659977443.93332,1296806.8217869,46
1659977443.93332,1296806.8217924,55
1659977443.93332,1296806.8219109,60
1659977443.93332,1296806.8219256,55
1659977443.93332,1296806.8219309,46
1659977443.93332,1296806.8219356,27
1659977443.93332,1296806.8219396,-2
1659977443.93332,1296806.8219431,-18
1659977443.93332,1296806.8219467,-25
1659977443.93332,1296806.82195,-37
1659977443.93332,1296806.8219534,-37
1659977443.93332,1296806.8219567,-25
1659977443.93332,1296806.8219604,-13
1659977443.93332,1296806.8219639,-4
1659977444.60878,1296806.8219672,11
1659977444.60878,1296806.8219703,25
1659977444.60878,1296806.8219733,32
1659977444.60878,1296806.8219766,32
1659977444.60878,1296806.82198,20
1659977444.60878,1296806.8219835,9
1659977444.60878,1296806.8219871,23
1659977444.60878,1296806.8219905,34
1659977444.60878,1296806.8219935,37
1659977444.60878,1296806.8219967,48
1659977444.60878,1296806.8220002,57
1659977444.60878,1296806.8220036,53
1659977444.60878,1296806.8220069,53
1659977444.60878,1296806.8220104,60
1659977444.60878,1296806.8220138,64
1659977444.60878,1296806.8220171,69
1659977444.60878,1296806.8220211,69
1659977444.60878,1296806.8220245,69
1659977444.60878,1296806.8220279,67
1659977444.60878,1296806.8220312,64
1659977444.60878,1296806.8220348,71
1659977444.60878,1296806.8220388,90
1659977444.60878,1296806.8220423,106
1659977444.60878,1296806.822046,111
1659977444.60878,1296806.8220496,104
1659977444.60878,1296806.8220533,90
1659977444.60878,1296806.822057,69
1659977444.60878,1296806.8220606,60
1659977444.60878,1296806.8220642,67
1659977444.60878,1296806.8220678,74
1659977444.60878,1296806.8220714,71
1659977444.60878,1296806.8220751,69
1659977444.60878,1296806.8220787,83
1659977444.60878,1296806.8220822,141
1659977444.60878,1296806.8220859,327
1659977444.60878,1296806.8220893,640
1659977444.60878,1296806.8220926,902
1659977444.60878,1296806.8220962,800
1659977444.60878,1296806.8220998,190
1659977444.60878,1296806.8221032,-266
1659977444.60878,1296806.8221068,-71
1659977444.60878,1296806.8221105,104
1659977444.60878,1296806.8221142,-30
1659977444.60878,1296806.8221178,-48
1659977444.60878,1296806.8221216,23
1659977444.60878,1296806.8221253,6
1659977444.60878,1296806.8221289,-2
1659977444.60878,1296806.8221325,30
1659977444.60878,1296806.8221363,27
1659977444.60878,1296806.8221399,20
1659977444.62075,1296806.8221437,37
1659977444.62075,1296806.8221471,44
1659977444.62075,1296806.8221506,37
1659977444.62075,1296806.8221542,44
1659977444.62075,1296807.5040391,51
1659977444.62075,1296807.5040513,41
1659977444.62075,1296807.5040539,37
1659977444.62075,1296807.5040561,44
1659977444.62075,1296807.5040582,53
1659977444.62075,1296807.5040603,53
1659977444.62075,1296807.5040623,32
1659977444.62075,1296807.5040645,0
1659977444.62075,1296807.5040666,-32
1659977444.62075,1296807.5040686,-39
1659977444.62075,1296807.5040716,-37
1659977444.62075,1296807.5040762,-27
1659977444.62075,1296807.5040802,-6
1659977444.62075,1296807.5040821,4
1659977444.62075,1296807.5040853,0
1659977444.62075,1296807.5040967,2
1659977444.62075,1296807.5041048,16
1659977444.62075,1296807.5041081,25
1659977444.62075,1296807.5041103,23
1659977444.62075,1296807.5041124,23
1659977445.08774,1296807.5041145,27
1659977445.08774,1296807.5041223,34
1659977445.08774,1296807.5041321,44
1659977445.08774,1296807.504142,46
1659977445.08774,1296807.5041469,48
1659977445.08774,1296807.504151,55
1659977445.08774,1296807.5041566,62
1659977445.08774,1296807.5041624,62
1659977445.08774,1296807.5041685,64
1659977445.08774,1296807.5041745,76
1659977445.08774,1296807.5041789,78
1659977445.08774,1296807.5041841,69
1659977445.08774,1296807.5041885,62
1659977445.08774,1296807.5041929,62
1659977445.08774,1296807.504197,74
1659977445.08774,1296807.504201,99
1659977445.08774,1296807.5042051,118
1659977445.08774,1296807.5042106,120
1659977445.08774,1296807.5042183,104
1659977445.08774,1296807.5042247,83
1659977445.08774,1296807.5042294,67
1659977445.08774,1296807.504236,69
1659977445.08774,1296807.5042404,76
1659977445.08774,1296807.5042487,78
1659977445.08774,1296807.504253,78
1659977445.08774,1296807.5042568,85
1659977445.08774,1296807.5042604,106
1659977445.08774,1296807.5042642,208
1659977445.08774,1296807.5042679,466
1659977445.08774,1296807.5042715,786
1659977445.08774,1296807.5042753,897
1659977445.08774,1296807.5042812,494
1659977445.08774,1296807.504286,-120
1659977445.08774,1296807.50429,-185
1659977445.08774,1296807.5042952,85
1659977445.08774,1296807.5043014,53
1659977445.08774,1296807.5043052,-39
1659977445.08774,1296807.504311,32
1659977445.08774,1296807.5043149,51
1659977445.08774,1296807.5043209,13
1659977445.08774,1296807.504325,39
1659977445.08774,1296807.5043306,62
1659977445.08774,1296807.5043345,57
1659977445.08774,1296807.5043385,62
1659977445.08774,1296807.5043447,69
1659977445.08774,1296807.5043485,60
1659977445.08774,1296807.504352,60
1659977445.08774,1296807.5043556,76
1659977445.08774,1296807.5043622,83
1659977445.08774,1296807.5043684,88
1659977445.09723,1296807.5043729,95
1659977445.09723,1296807.5043793,95
1659977445.09723,1296807.5043832,88
1659977445.09723,1296807.99135,76
1659977445.09723,1296807.9913698,62
1659977445.09723,1296807.9913761,46
1659977445.09723,1296807.9913814,27
1659977445.09723,1296807.9913848,11
1659977445.09723,1296807.9913899,9
1659977445.09723,1296807.9913953,18
1659977445.09723,1296807.9913988,37
1659977445.09723,1296807.9914025,57
1659977445.09723,1296807.9914088,67
1659977445.09723,1296807.9914147,62
1659977445.09723,1296807.9914183,46
1659977445.09723,1296807.9914221,39
1659977445.09723,1296807.9914279,48
1659977445.09723,1296807.9914318,55
1659977445.09723,1296807.9914367,57
1659977445.09723,1296807.9914411,62
1659977445.09723,1296807.9914463,60
1659977445.09723,1296807.9914507,60
1659977445.09723,1296807.991455,67
1659977445.09723,1296807.9914601,71
1659977445.57545,1296807.9914637,76
1659977445.57545,1296807.9914672,76
1659977445.57545,1296807.9914708,71
1659977445.57545,1296807.9914744,64
1659977445.57545,1296807.9914779,67
1659977445.57545,1296807.9914814,71
1659977445.57545,1296807.9914848,74
1659977445.57545,1296807.9914878,81
1659977445.57545,1296807.9914912,90
1659977445.57545,1296807.9914957,97
1659977445.57545,1296807.991499,113
1659977445.57545,1296807.9915027,115
1659977445.57545,1296807.9915071,92
1659977445.57545,1296807.9915105,76
1659977445.57545,1296807.9915139,69
1659977445.57545,1296807.991517,57
1659977445.57545,1296807.9915203,55
1659977445.57545,1296807.9915252,69
1659977445.57545,1296807.991534,74
1659977445.57545,1296807.9915389,78
1659977445.57545,1296807.9915441,120
1659977445.57545,1296807.991548,276
1659977445.57545,1296807.9915528,572
1659977445.57545,1296807.9915561,862
1659977445.57545,1296807.991561,809
1659977445.57545,1296807.9915642,234
1659977445.57545,1296807.9915677,-243
1659977445.57545,1296807.9915728,-81
1659977445.57545,1296807.9915764,109
1659977445.57545,1296807.99158,-9
1659977445.57545,1296807.9915854,-30
1659977445.57545,1296807.9915886,53
1659977445.57545,1296807.9915918,37
1659977445.57545,1296807.9915969,13
1659977445.57545,1296807.9916003,39
1659977445.57545,1296807.9916033,41
1659977445.57545,1296807.9916086,41
1659977445.57545,1296807.9916125,57
1659977445.57545,1296807.9916156,69
1659977445.57545,1296807.9916208,67
1659977445.57545,1296807.9916239,74
1659977445.57545,1296807.991627,85
1659977445.57545,1296807.991632,97
1659977445.57545,1296807.9916353,102
1659977445.57545,1296807.99164,106
1659977445.57545,1296807.991645,106
1659977445.57545,1296807.99165,97
1659977445.57545,1296807.9916546,85
1659977445.57545,1296807.9916598,74
1659977445.57545,1296807.9916637,57
1659977445.58841,1296807.9916691,39
1659977445.58841,1296807.9916733,37
1659977445.58841,1296808.4785097,48
1659977445.58841,1296808.4785259,57
1659977445.58841,1296808.4785311,76
1659977445.58841,1296808.4785375,97
1659977445.58841,1296808.4785432,106
1659977445.58841,1296808.4785488,104
1659977445.58841,1296808.4785527,104
1659977445.58841,1296808.4785576,92
1659977445.58841,1296808.4785612,71
1659977445.58841,1296808.4785661,64
1659977445.58841,1296808.4785707,71
1659977445.58841,1296808.4785756,62
1659977445.58841,1296808.4785792,62
1659977445.58841,1296808.4785842,74
1659977445.58841,1296808.4785877,67
1659977445.58841,1296808.4785913,60
1659977445.58841,1296808.4785966,67
1659977445.58841,1296808.4786014,69
1659977445.58841,1296808.4786058,64
1659977445.58841,1296808.4786095,57
1659977445.58841,1296808.4786131,46
1659977445.58841,1296808.4786167,32
1659977446.16462,1296808.4786204,30
1659977446.16462,1296808.478624,34
1659977446.16462,1296808.4786276,41
1659977446.16462,1296808.478631,55
1659977446.16462,1296808.4786344,76
1659977446.16462,1296808.4786378,90
1659977446.16462,1296808.4786413,90
1659977446.16462,1296808.4786448,76
1659977446.16462,1296808.4786479,57
1659977446.16462,1296808.4786514,46
1659977446.16462,1296808.4786569,48
1659977446.16462,1296808.4786608,53
1659977446.16462,1296808.4786645,53
1659977446.16462,1296808.4786697,53
1659977446.16462,1296808.4786735,46
1659977446.16462,1296808.478679,57
1659977446.16462,1296808.4786838,166
1659977446.16462,1296808.4786876,419
1659977446.16462,1296808.4786913,737
1659977446.16462,1296808.4786965,874
1659977446.16462,1296808.4787,503
1659977446.16462,1296808.478705,-113
1659977446.16462,1296808.4787086,-197
1659977446.16462,1296808.4787122,71
1659977446.16462,1296808.4787157,44
1659977446.16462,1296808.4787192,-62
1659977446.16462,1296808.4787228,9
1659977446.16462,1296808.4787284,41
1659977446.16462,1296808.4787348,6
1659977446.16462,1296808.4787419,25
1659977446.16462,1296808.4787527,44
1659977446.16462,1296808.4787569,37
1659977446.16462,1296808.4787686,46
1659977446.16462,1296808.4787843,67
1659977446.16462,1296808.4787969,74
1659977446.16462,1296808.4788074,78
1659977446.16462,1296808.4788204,88
1659977446.16462,1296808.4788327,92
1659977446.16462,1296808.4788386,97
1659977446.16462,1296808.4788494,104
1659977446.16462,1296808.4788612,111
1659977446.16462,1296808.4788754,109
1659977446.16462,1296808.4788907,97
1659977446.16462,1296808.4789053,78
1659977446.16462,1296808.478914,67
1659977446.16462,1296808.4789208,55
1659977446.16462,1296808.4789267,46
1659977446.16462,1296808.4789339,51
1659977446.16462,1296808.4789398,67
1659977446.16462,1296808.4789452,81
1659977446.17559,1296808.4789494,99
1659977446.17559,1296809.0627743,118
1659977446.17559,1296809.0627871,125
1659977446.17559,1296809.0627899,118
1659977446.17559,1296809.0627922,111
1659977446.17559,1296809.0627943,92
1659977446.17559,1296809.0627963,71
1659977446.17559,1296809.0627983,69
1659977446.17559,1296809.0628003,81
1659977446.17559,1296809.0628033,88
1659977446.17559,1296809.0628053,85
1659977446.17559,1296809.0628074,71
1659977446.17559,1296809.0628093,57
1659977446.17559,1296809.0628113,53
1659977446.17559,1296809.0628134,57
1659977446.17559,1296809.0628154,55
1659977446.17559,1296809.0628174,46
1659977446.17559,1296809.0628194,39
1659977446.17559,1296809.0628215,34
1659977446.17559,1296809.0628235,39
1659977446.17559,1296809.0628256,44
1659977446.17559,1296809.0628276,39
1659977446.17559,1296809.0628296,39
1659977446.17559,1296809.0628317,48
1659977446.75308,1296809.0628337,57
1659977446.75308,1296809.0628358,76
1659977446.75308,1296809.0628377,99
1659977446.75308,1296809.0628396,97
1659977446.75308,1296809.0628414,74
1659977446.75308,1296809.0628433,48
1659977446.75308,1296809.0628452,25
1659977446.75308,1296809.062847,18
1659977446.75308,1296809.0628489,27
1659977446.75308,1296809.0628508,34
1659977446.75308,1296809.0628526,39
1659977446.75308,1296809.0628545,41
1659977446.75308,1296809.0628565,69
1659977446.75308,1296809.0628584,194
1659977446.75308,1296809.0628604,459
1659977446.75308,1296809.0628632,751
1659977446.75308,1296809.0628653,800
1659977446.75308,1296809.0628673,343
1659977446.75308,1296809.0628695,-211
1659977446.75308,1296809.0628715,-171
1659977446.75308,1296809.0628736,78
1659977446.75308,1296809.0628756,13
1659977446.75308,1296809.0628776,-53
1659977446.75308,1296809.0628797,16
1659977446.75308,1296809.0628817,23
1659977446.75308,1296809.0628838,0
1659977446.75308,1296809.0628858,25
1659977446.75308,1296809.0628877,41
1659977446.75308,1296809.0628898,37
1659977446.75308,1296809.0628925,44
1659977446.75308,1296809.0628945,57
1659977446.75308,1296809.062897,62
1659977446.75308,1296809.0628991,67
1659977446.75308,1296809.0629011,78
1659977446.75308,1296809.0629031,90
1659977446.75308,1296809.0629051,95
1659977446.75308,1296809.0629071,99
1659977446.75308,1296809.0629091,104
1659977446.75308,1296809.062911,97
1659977446.75308,1296809.062913,83
1659977446.75308,1296809.062915,69
1659977446.75308,1296809.062917,53
1659977446.75308,1296809.062919,39
1659977446.75308,1296809.0629209,32
1659977446.75308,1296809.0629229,37
1659977446.75308,1296809.062925,46
1659977446.75308,1296809.062927,60
1659977446.75308,1296809.062929,71
1659977446.75308,1296809.0629312,83
1659977446.75308,1296809.0629333,90
1659977446.76365,1296809.6480251,92
1659977446.76365,1296809.6480445,92
1659977446.76365,1296809.6480539,92
1659977446.76365,1296809.6480607,88
1659977446.76365,1296809.648067,88
1659977446.76365,1296809.6480714,90
1659977446.76365,1296809.6480758,88
1659977446.76365,1296809.6480827,71
1659977446.76365,1296809.6480875,55
1659977446.76365,1296809.6480921,57
1659977446.76365,1296809.6480981,64
1659977446.76365,1296809.6481023,64
1659977446.76365,1296809.6481076,64
1659977446.76365,1296809.6481119,53
1659977446.76365,1296809.6481175,30
1659977446.76365,1296809.6481219,16
1659977446.76365,1296809.6481278,20
1659977446.76365,1296809.6481319,16
1659977446.76365,1296809.6481377,6
1659977446.76365,1296809.6481439,6
1659977446.76365,1296809.6481498,6
1659977446.76365,1296809.6481536,-2
1659977446.76365,1296809.6481574,6
1659977446.76365,1296809.6481609,34
1659977447.28456,1296809.6481666,46
1659977447.28456,1296809.64817,27
1659977447.28456,1296809.6481734,2
1659977447.28456,1296809.6481769,-9
1659977447.28456,1296809.648181,-18
1659977447.28456,1296809.6481844,-23
1659977447.28456,1296809.6481878,-16
1659977447.28456,1296809.6481911,-6
1659977447.28456,1296809.6481945,-6
1659977447.28456,1296809.6481981,2
1659977447.28456,1296809.6482016,90
1659977447.28456,1296809.6482053,324
1659977447.28456,1296809.6482086,640
1659977447.28456,1296809.6482118,811
1659977447.28456,1296809.6482154,519
1659977447.28456,1296809.648219,-102
1659977447.28456,1296809.6482225,-289
1659977447.28456,1296809.648228,-13
1659977447.28456,1296809.6482328,32
1659977447.28456,1296809.6482384,-83
1659977447.28456,1296809.648242,-37
1659977447.28456,1296809.6482466,6
1659977447.28456,1296809.64825,-27
1659977447.28456,1296809.6482537,-18
1659977447.28456,1296809.6482571,11
1659977447.28456,1296809.6482604,11
1659977447.28456,1296809.6482642,16
1659977447.28456,1296809.6482703,32
1659977447.28456,1296809.6482742,37
1659977447.28456,1296809.648278,44
1659977447.28456,1296809.6482832,57
1659977447.28456,1296809.6482866,71
1659977447.28456,1296809.6482904,81
1659977447.28456,1296809.6482963,81
1659977447.28456,1296809.6482997,81
1659977447.28456,1296809.6483036,83
1659977447.28456,1296809.648309,74
1659977447.28456,1296809.6483127,53
1659977447.28456,1296809.6483162,37
1659977447.28456,1296809.6483193,25
1659977447.28456,1296809.6483227,9
1659977447.28456,1296809.6483261,6
1659977447.28456,1296809.6483292,23
1659977447.28456,1296809.6483329,46
1659977447.28456,1296809.6483368,60
1659977447.28456,1296809.6483421,67
1659977447.28456,1296809.6483473,78
1659977447.28456,1296809.648353,81
1659977447.28456,1296809.6483586,74
1659977447.28456,1296810.184383,76
1659977447.29852,1296810.1843963,85
1659977447.29852,1296810.1844011,85
1659977447.29852,1296810.1844039,83
1659977447.29852,1296810.1844064,81
1659977447.29852,1296810.1844087,78
1659977447.29852,1296810.184411,88
1659977447.29852,1296810.1844134,95
1659977447.29852,1296810.1844156,88
1659977447.29852,1296810.1844179,83
1659977447.29852,1296810.1844202,74
1659977447.29852,1296810.1844225,60
1659977447.29852,1296810.1844247,60
1659977447.29852,1296810.184427,60
1659977447.29852,1296810.1844292,37
1659977447.29852,1296810.1844315,16
1659977447.29852,1296810.1844337,11
1659977447.29852,1296810.184436,-4
1659977447.29852,1296810.1844385,-13
1659977447.29852,1296810.1844408,2
1659977447.29852,1296810.184443,18
1659977447.29852,1296810.1844451,27
1659977447.29852,1296810.1844472,20
1659977447.29852,1296810.1844494,0
1659977447.29852,1296810.1844517,-18
1659977447.87623,1296810.1844539,-18
1659977447.87623,1296810.1844561,-13
1659977447.87623,1296810.1844583,-11
1659977447.87623,1296810.1844604,-4
1659977447.87623,1296810.1844626,2
1659977447.87623,1296810.1844648,13
1659977447.87623,1296810.1844669,74
1659977447.87623,1296810.184469,266
1659977447.87623,1296810.1844711,582
1659977447.87623,1296810.1844738,825
1659977447.87623,1296810.1844807,674
1659977447.87623,1296810.1844875,64
1659977447.87623,1296810.1844917,-310
1659977447.87623,1296810.1844961,-81
1659977447.87623,1296810.1845018,69
1659977447.87623,1296810.1845057,-55
1659977447.87623,1296810.1845141,-53
1659977447.87623,1296810.1845234,13
1659977447.87623,1296810.1845266,-6
1659977447.87623,1296810.1845288,-11
1659977447.87623,1296810.184531,18
1659977447.87623,1296810.184533,25
1659977447.87623,1296810.184535,30
1659977447.87623,1296810.184537,41
1659977447.87623,1296810.184539,46
1659977447.87623,1296810.184541,53
1659977447.87623,1296810.1845431,60
1659977447.87623,1296810.1845451,62
1659977447.87623,1296810.1845472,71
1659977447.87623,1296810.1845492,83
1659977447.87623,1296810.1845519,83
1659977447.87623,1296810.184554,83
1659977447.87623,1296810.184556,81
1659977447.87623,1296810.184558,69
1659977447.87623,1296810.1845601,57
1659977447.87623,1296810.1845621,44
1659977447.87623,1296810.1845641,25
1659977447.87623,1296810.1845662,20
1659977447.87623,1296810.1845682,34
1659977447.87623,1296810.1845702,55
1659977447.87623,1296810.1845722,74
1659977447.87623,1296810.1845743,90
1659977447.87623,1296810.1845763,95
1659977447.87623,1296810.1845783,92
1659977447.87623,1296810.1845803,92
1659977447.87623,1296810.1845823,97
1659977447.87623,1296810.1845843,102
1659977447.87623,1296810.1845864,106
1659977447.87623,1296810.769511,106
1659977447.87623,1296810.7695238,102
1659977447.88421,1296810.7695276,99
1659977447.88421,1296810.7695321,104
1659977447.88421,1296810.7695356,109
1659977447.88421,1296810.7695387,109
1659977447.88421,1296810.7695433,102
1659977447.88421,1296810.7695461,71
1659977447.88421,1296810.7695496,48
1659977447.88421,1296810.7695524,57
1659977447.88421,1296810.7695553,62
1659977447.88421,1296810.769558,41
1659977447.88421,1296810.7695609,30
1659977447.88421,1296810.7695637,18
1659977447.88421,1296810.7695665,-2
1659977447.88421,1296810.7695691,-2
1659977447.88421,1296810.7695719,23
1659977447.88421,1296810.7695748,48
1659977447.88421,1296810.7695773,48
1659977447.88421,1296810.7695798,32
1659977447.88421,1296810.7695821,11
1659977447.88421,1296810.7695847,-4
1659977447.88421,1296810.7695875,-2
1659977447.88421,1296810.7695903,6
1659977447.88421,1296810.7695931,13
1659977447.88421,1296810.7695957,13
1659977448.40793,1296810.7695981,13
1659977448.40793,1296810.7696008,37
1659977448.40793,1296810.7696034,139
1659977448.40793,1296810.7696058,385
1659977448.40793,1296810.769608,712
1659977448.40793,1296810.7696104,892
1659977448.40793,1296810.7696124,582
1659977448.40793,1296810.7696145,-71
1659977448.40793,1296810.7696167,-262
1659977448.40793,1296810.7696188,20
1659977448.40793,1296810.769621,53
1659977448.40793,1296810.7696232,-69
1659977448.40793,1296810.7696254,-18
1659977448.40793,1296810.7696276,27
1659977448.40793,1296810.76963,-2
1659977448.40793,1296810.7696323,13
1659977448.40793,1296810.7696345,37
1659977448.40793,1296810.7696368,20
1659977448.40793,1296810.7696389,18
1659977448.40793,1296810.7696411,37
1659977448.40793,1296810.7696433,46
1659977448.40793,1296810.7696486,55
1659977448.40793,1296810.769651,67
1659977448.40793,1296810.7696533,76
1659977448.40793,1296810.7696555,85
1659977448.40793,1296810.769658,95
1659977448.40793,1296810.7696603,97
1659977448.40793,1296810.7696627,95
1659977448.40793,1296810.769665,85
1659977448.40793,1296810.7696672,71
1659977448.40793,1296810.7696695,62
1659977448.40793,1296810.7696718,51
1659977448.40793,1296810.7696739,37
1659977448.40793,1296810.7696762,37
1659977448.40793,1296810.7696783,53
1659977448.40793,1296810.7696803,74
1659977448.40793,1296810.7696826,92
1659977448.40793,1296810.7696849,109
1659977448.40793,1296810.769687,118
1659977448.40793,1296810.7696892,118
1659977448.40793,1296810.7696915,118
1659977448.40793,1296810.7696957,118
1659977448.40793,1296810.7696992,120
1659977448.40793,1296810.7697144,125
1659977448.40793,1296810.769722,122
1659977448.40793,1296810.7697243,115
1659977448.40793,1296810.7697264,113
1659977448.40793,1296811.3066265,104
1659977448.40793,1296811.3066457,95
1659977448.40793,1296811.306655,92
1659977448.41791,1296811.306667,90
1659977448.41791,1296811.3066696,88
1659977448.41791,1296811.3066717,85
1659977448.41791,1296811.3066738,83
1659977448.41791,1296811.3066758,81
1659977448.41791,1296811.3066779,76
1659977448.41791,1296811.30668,69
1659977448.41791,1296811.306682,51
1659977448.41791,1296811.3066841,27
1659977448.41791,1296811.3066882,32
1659977448.41791,1296811.3066998,55
1659977448.41791,1296811.3067074,76
1659977448.41791,1296811.3067149,88
1659977448.41791,1296811.3067274,71
1659977448.41791,1296811.306741,30
1659977448.41791,1296811.3067492,2
1659977448.41791,1296811.3067623,4
1659977448.41791,1296811.3067764,11
1659977448.41791,1296811.3067885,16
1659977448.41791,1296811.3067961,20
1659977448.41791,1296811.306809,25
1659977448.41791,1296811.3068229,30
1659977448.41791,1296811.3068305,90
1659977448.41791,1296811.3068394,282
1659977448.94876,1296811.3068503,600
1659977448.94876,1296811.3068557,865

1659977448.94876,1296811.3068598,744
1659977448.94876,1296811.3068639,127
1659977448.94876,1296811.3068677,-276
1659977448.94876,1296811.3068718,-57
1659977448.94876,1296811.3068761,92
1659977448.94876,1296811.3068801,-48
1659977448.94876,1296811.3068842,-55
1659977448.94876,1296811.3068884,16
1659977448.94876,1296811.3068947,-4
1659977448.94876,1296811.3068984,-9
1659977448.94876,1296811.3069024,27
1659977448.94876,1296811.3069081,34
1659977448.94876,1296811.3069114,27
1659977448.94876,1296811.3069148,37
1659977448.94876,1296811.3069201,48
1659977448.94876,1296811.3069257,55
1659977448.94876,1296811.3069293,64
1659977448.94876,1296811.3069329,81
1659977448.94876,1296811.3069365,92
1659977448.94876,1296811.3069402,95
1659977448.94876,1296811.3069439,92
1659977448.94876,1296811.3069497,97
1659977448.94876,1296811.3069533,95
1659977448.94876,1296811.3069575,83
1659977448.94876,1296811.3069609,69
1659977448.94876,1296811.3069646,51
1659977448.94876,1296811.3069682,37
1659977448.94876,1296811.3069722,39
1659977448.94876,1296811.3069781,53
1659977448.94876,1296811.3069818,69
1659977448.94876,1296811.3069851,88
1659977448.94876,1296811.3069879,104
1659977448.94876,1296811.3069908,111
1659977448.94876,1296811.3069939,115
1659977448.94876,1296811.3069967,118
1659977448.94876,1296811.3069997,113
1659977448.94876,1296811.3070026,95
1659977448.94876,1296811.3070056,78
1659977448.94876,1296811.3070085,76
1659977448.94876,1296811.3070114,81
1659977448.94876,1296811.3070142,83
1659977448.94876,1296811.3070171,88
1659977448.94876,1296811.30702,92
1659977448.94876,1296811.307023,92
1659977448.94876,1296811.8429168,92
1659977448.94876,1296811.8429322,92
1659977448.94876,1296811.8429396,85
1659977448.94876,1296811.8429436,78
1659977448.96073,1296811.8429473,76
1659977448.96073,1296811.8429514,69
1659977448.96073,1296811.8429566,62
1659977448.96073,1296811.8429602,51
1659977448.96073,1296811.8429639,34
1659977448.96073,1296811.8429675,39
1659977448.96073,1296811.8429713,51
1659977448.96073,1296811.8429767,57
1659977448.96073,1296811.8429804,78
1659977448.96073,1296811.8429841,90
1659977448.96073,1296811.8429877,62
1659977448.96073,1296811.8429918,34
1659977448.96073,1296811.8429979,25
1659977448.96073,1296811.8430016,18
1659977448.96073,1296811.8430055,18
1659977448.96073,1296811.8430107,20
1659977448.96073,1296811.8430143,18
1659977448.96073,1296811.8430179,18
1659977448.96073,1296811.8430216,32
1659977448.96073,1296811.8430253,78
1659977448.96073,1296811.843029,234
1659977448.96073,1296811.8430326,521
1659977448.96073,1296811.8430372,800
1659977448.96073,1296811.8430453,767
1659977449.58077,1296811.843054,231
1659977449.58077,1296811.8431106,-257
1659977449.58077,1296811.8431211,-127
1659977449.58077,1296811.8431266,81
1659977449.58077,1296811.8431309,-25
1659977449.58077,1296811.8431347,-57
1659977449.58077,1296811.8431384,20
1659977449.58077,1296811.8431422,11
1659977449.58077,1296811.8431459,-6
1659977449.58077,1296811.8431496,27
1659977449.58077,1296811.8431569,37
1659977449.58077,1296811.8431648,30
1659977449.58077,1296811.8431685,44
1659977449.58077,1296811.8431722,55
1659977449.58077,1296811.8431758,57
1659977449.58077,1296811.843182,74
1659977449.58077,1296811.843186,88
1659977449.58077,1296811.8431919,90
1659977449.58077,1296811.8432229,95
1659977449.58077,1296811.8432334,99
1659977449.58077,1296811.8432444,104
1659977449.58077,1296811.8432493,102
1659977449.58077,1296811.8432534,92
1659977449.58077,1296811.8432576,76
1659977449.58077,1296811.8432784,60
1659977449.58077,1296811.8432866,48
1659977449.58077,1296811.8432913,41
1659977449.58077,1296811.8432955,48
1659977449.58077,1296811.8432997,69
1659977449.58077,1296811.8433038,81
1659977449.58077,1296811.8433083,78
1659977449.58077,1296811.8433134,71
1659977449.58077,1296811.8433174,74
1659977449.58077,1296811.8433212,81
1659977449.58077,1296811.8433255,83
1659977449.58077,1296811.8433318,83
1659977449.58077,1296811.8433353,85
1659977449.58077,1296811.8433388,83
1659977449.58077,1296811.8433425,88
1659977449.58077,1296811.8433479,97
1659977449.58077,1296811.8433515,99
1659977449.58077,1296811.8433551,97
1659977449.58077,1296811.8433628,92
1659977449.58077,1296811.8433673,85
1659977449.58077,1296811.8433706,78
1659977449.58077,1296812.4773755,74
1659977449.58077,1296812.4773958,76
1659977449.58077,1296812.4774067,74
1659977449.58077,1296812.4774142,64
1659977449.58077,1296812.4774218,44
1659977449.59388,1296812.4774289,32
1659977449.59388,1296812.4774383,37
1659977449.59388,1296812.4774446,41
1659977449.59388,1296812.4774495,44
1659977449.59388,1296812.4774608,46
1659977449.59388,1296812.4774712,48
1659977449.59388,1296812.4774809,55
1659977449.59388,1296812.4774881,64
1659977449.59388,1296812.4774935,55
1659977449.59388,1296812.4774988,37
1659977449.59388,1296812.4775074,20
1659977449.59388,1296812.4775145,16
1659977449.59388,1296812.4775197,16
1659977449.59388,1296812.4775253,23
1659977449.59388,1296812.4775308,30
1659977449.59388,1296812.4775406,34
1659977449.59388,1296812.4775488,57
1659977449.59388,1296812.4775551,160
1659977449.59388,1296812.4775646,401
1659977449.59388,1296812.4775719,709
1659977449.59388,1296812.4775767,834
1659977449.59388,1296812.4775808,470
1659977449.59388,1296812.4775873,-125
1659977449.59388,1296812.4775929,-206
1659977450.11783,1296812.4775995,57
1659977450.11783,1296812.4776071,44
1659977450.11783,1296812.4776114,-51
1659977450.11783,1296812.4776155,16
1659977450.11783,1296812.4776191,44
1659977450.11783,1296812.4776227,9
1659977450.11783,1296812.477626,25
1659977450.11783,1296812.4776293,51
1659977450.11783,1296812.4776325,44
1659977450.11783,1296812.4776364,53
1659977450.11783,1296812.4776397,67
1659977450.11783,1296812.477643,69
1659977450.11783,1296812.4776462,76
1659977450.11783,1296812.4776506,88
1659977450.11783,1296812.4776551,95
1659977450.11783,1296812.4776585,102
1659977450.11783,1296812.4776617,111
1659977450.11783,1296812.477665,115
1659977450.11783,1296812.4776685,111
1659977450.11783,1296812.4776728,97
1659977450.11783,1296812.4776771,78
1659977450.11783,1296812.4776825,64
1659977450.11783,1296812.4776915,48
1659977450.11783,1296812.4776954,23
1659977450.11783,1296812.4777048,18
1659977450.11783,1296812.477715,37
1659977450.11783,1296812.477726,51
1659977450.11783,1296812.4777338,60
1659977450.11783,1296812.4777411,76
1659977450.11783,1296812.4777495,83
1659977450.11783,1296812.4777599,83
1659977450.11783,1296812.4777719,83
1659977450.11783,1296812.4777811,83
1659977450.11783,1296812.4777901,88
1659977450.11783,1296812.4777957,95
1659977450.11783,1296812.4777979,95
1659977450.11783,1296812.4778008,92
1659977450.11783,1296812.477803,92
1659977450.11783,1296812.4778051,90
1659977450.11783,1296812.4778071,83
1659977450.11783,1296812.47781,78
1659977450.11783,1296812.47782,76
1659977450.11783,1296812.4778288,74
1659977450.11783,1296812.4778314,76
1659977450.11783,1296813.0123881,71
1659977450.11783,1296813.012415,67
1659977450.11783,1296813.0124305,64
1659977450.11783,1296813.0124443,64
1659977450.11783,1296813.0124544,62
1659977450.11783,1296813.0124633,64
1659977450.1288,1296813.0124724,71
1659977450.1288,1296813.0124778,78
1659977450.1288,1296813.0124913,90
1659977450.1288,1296813.0125052,109
1659977450.1288,1296813.0125188,104
1659977450.1288,1296813.0125333,81
1659977450.1288,1296813.0125473,64
1659977450.1288,1296813.0125607,53
1659977450.1288,1296813.0125726,41
1659977450.1288,1296813.0125878,41
1659977450.1288,1296813.0126015,55
1659977450.1288,1296813.0126153,57
1659977450.1288,1296813.0126289,62
1659977450.1288,1296813.012643,104
1659977450.1288,1296813.012652,252
1659977450.1288,1296813.0126572,531
1659977450.1288,1296813.0126595,786
1659977450.1288,1296813.0126615,688
1659977450.1288,1296813.0126638,129
1659977450.1288,1296813.0126659,-262
1659977450.1288,1296813.012668,-83
1659977450.1288,1296813.0126701,62
1659977450.1288,1296813.0126722,-53
1659977450.1288,1296813.0126748,-53
1659977450.65192,1296813.0126848,20
1659977450.65192,1296813.0126918,4
1659977450.65192,1296813.0126944,-9
1659977450.65192,1296813.0126964,16
1659977450.65192,1296813.0126984,20
1659977450.65192,1296813.0127004,25
1659977450.65192,1296813.0127024,44
1659977450.65192,1296813.0127044,51
1659977450.65192,1296813.0127063,55
1659977450.65192,1296813.0127082,60
1659977450.65192,1296813.0127102,64
1659977450.65192,1296813.0127134,76
1659977450.65192,1296813.0127249,90
1659977450.65192,1296813.0127318,92
1659977450.65192,1296813.0127343,78
1659977450.65192,1296813.0127364,60
1659977450.65192,1296813.0127384,51
1659977450.65192,1296813.0127404,46
1659977450.65192,1296813.0127424,32
1659977450.65192,1296813.0127445,20
1659977450.65192,1296813.0127478,20
1659977450.65192,1296813.0127612,25
1659977450.65192,1296813.0127668,39
1659977450.65192,1296813.0127696,55
1659977450.65192,1296813.0127717,67
1659977450.65192,1296813.0127765,76
1659977450.65192,1296813.0127883,81
1659977450.65192,1296813.0127937,76
1659977450.65192,1296813.0127967,74
1659977450.65192,1296813.0127988,76
1659977450.65192,1296813.0128009,83
1659977450.65192,1296813.0128029,88
1659977450.65192,1296813.0128099,90
1659977450.65192,1296813.0128209,88
1659977450.65192,1296813.0128254,83
1659977450.65192,1296813.0128274,78
1659977450.65192,1296813.0128295,81
1659977450.65192,1296813.012832,74
1659977450.65192,1296813.0128396,69
1659977450.65192,1296813.0128504,69
1659977450.65192,1296813.0128549,67
1659977450.65192,1296813.012857,57
1659977450.65192,1296813.0128592,48
1659977450.65192,1296813.5499798,51
1659977450.65192,1296813.5499997,55
1659977450.65192,1296813.5500157,60
1659977450.65192,1296813.5500296,67
1659977450.65192,1296813.5500434,88
1659977450.65192,1296813.5500572,102
1659977450.65192,1296813.5500698,95
1659977450.66289,1296813.5500778,71
1659977450.66289,1296813.5500822,48
1659977450.66289,1296813.5500877,37
1659977450.66289,1296813.5500961,27
1659977450.66289,1296813.550102,11
1659977450.66289,1296813.5501056,13
1659977450.66289,1296813.5501173,25
1659977450.66289,1296813.5501234,32
1659977450.66289,1296813.5501337,83
1659977450.66289,1296813.5501442,250
1659977450.66289,1296813.5501506,528
1659977450.66289,1296813.5501583,770
1659977450.66289,1296813.5501633,644
1659977450.66289,1296813.5501684,60
1659977450.66289,1296813.5501756,-296
1659977450.66289,1296813.5501806,-76
1659977450.66289,1296813.5501881,51
1659977450.66289,1296813.5501934,-76
1659977450.66289,1296813.5501983,-62
1659977450.66289,1296813.5502015,6
1659977450.66289,1296813.5502056,-18
1659977450.66289,1296813.5502104,-23
1659977450.66289,1296813.5502141,9
1659977450.66289,1296813.5502199,6
1659977451.2391,1296813.5502237,2
1659977451.2391,1296813.5502276,13
1659977451.2391,1296813.5502315,25
1659977451.2391,1296813.5502352,34
1659977451.2391,1296813.5502389,46
1659977451.2391,1296813.5502426,48
1659977451.2391,1296813.5502462,41
1659977451.2391,1296813.55025,46
1659977451.2391,1296813.5502535,57
1659977451.2391,1296813.5502573,57
1659977451.2391,1296813.5502609,46
1659977451.2391,1296813.5502646,34
1659977451.2391,1296813.5502682,18
1659977451.2391,1296813.5502719,4
1659977451.2391,1296813.5502756,-4
1659977451.2391,1296813.5502795,0
1659977451.2391,1296813.550285,13
1659977451.2391,1296813.550289,32
1659977451.2391,1296813.5502927,48
1659977451.2391,1296813.5502964,60
1659977451.2391,1296813.5503003,67
1659977451.2391,1296813.5503056,67
1659977451.2391,1296813.5503093,67
1659977451.2391,1296813.5503145,67
1659977451.2391,1296813.550318,64
1659977451.2391,1296813.5503217,64
1659977451.2391,1296813.5503255,64
1659977451.2391,1296813.5503291,67
1659977451.2391,1296813.5503326,74
1659977451.2391,1296813.5503363,78
1659977451.2391,1296813.5503398,71
1659977451.2391,1296813.5503434,55
1659977451.2391,1296813.550347,48
1659977451.2391,1296813.5503512,51
1659977451.2391,1296813.5503549,53
1659977451.2391,1296813.5503585,57
1659977451.2391,1296813.5503623,46
1659977451.2391,1296813.550366,16
1659977451.2391,1296813.5504044,18
1659977451.2391,1296813.5504098,48
1659977451.2391,1296813.5504152,67
1659977451.2391,1296813.5504207,78
1659977451.2391,1296814.1335928,85
1659977451.2391,1296814.1336149,69
1659977451.2391,1296814.1336477,51
1659977451.2391,1296814.1336574,39
1659977451.2391,1296814.1336646,39
1659977451.2391,1296814.133668,44
1659977451.2391,1296814.1336732,44
1659977451.2391,1296814.1336764,34
1659977451.25007,1296814.13368,32
1659977451.25007,1296814.1336828,60
1659977451.25007,1296814.1336857,164
1659977451.25007,1296814.1336907,405
1659977451.25007,1296814.1336962,735
1659977451.25007,1296814.1337018,865
1659977451.25007,1296814.1337072,429
1659977451.25007,1296814.1337122,-201
1659977451.25007,1296814.1337214,-234
1659977451.25007,1296814.1337285,41
1659977451.25007,1296814.1337328,2
1659977451.25007,1296814.1337361,-95
1659977451.25007,1296814.1337391,-44
1659977451.25007,1296814.1337421,-23
1659977451.25007,1296814.1337453,-46
1659977451.25007,1296814.1337485,-32
1659977451.25007,1296814.1337518,-11
1659977451.25007,1296814.133755,-6
1659977451.25007,1296814.1337583,-2
1659977451.25007,1296814.1337615,2
1659977451.25007,1296814.1337647,9
1659977451.25007,1296814.1337692,13
1659977451.25007,1296814.1337836,20
1659977451.25007,1296814.133793,39
1659977451.81639,1296814.1338025,53
1659977451.81639,1296814.133812,62
1659977451.81639,1296814.1338216,81
1659977451.81639,1296814.1338274,81
1659977451.81639,1296814.1338315,44
1659977451.81639,1296814.1338349,18
1659977451.81639,1296814.1338402,18
1659977451.81639,1296814.1338448,6
1659977451.81639,1296814.1338506,2
1659977451.81639,1296814.1338662,34
1659977451.81639,1296814.1338804,62
1659977451.81639,1296814.1338931,71
1659977451.81639,1296814.1339065,88
1659977451.81639,1296814.1339198,99
1659977451.81639,1296814.133933,92
1659977451.81639,1296814.1339462,92
1659977451.81639,1296814.1339594,104
1659977451.81639,1296814.1339726,95
1659977451.81639,1296814.1339863,83
1659977451.81639,1296814.1339995,92
1659977451.81639,1296814.1340127,102
1659977451.81639,1296814.1340261,97
1659977451.81639,1296814.1340393,90
1659977451.81639,1296814.1340526,85
1659977451.81639,1296814.1340658,81
1659977451.81639,1296814.1340759,88
1659977451.81639,1296814.1340824,99
1659977451.81639,1296814.1340954,102
1659977451.81639,1296814.1341086,109
1659977451.81639,1296814.1341218,115
1659977451.81639,1296814.1341349,88
1659977451.81639,1296814.134148,62
1659977451.81639,1296814.1341611,78
1659977451.81639,1296814.1341744,109
1659977451.81639,1296814.1341876,113
1659977451.81639,1296814.1342007,109
1659977451.81639,1296814.134214,99
1659977451.81639,1296814.1342269,83
1659977451.81639,1296814.1342402,78
1659977451.81639,1296814.1342532,81
1659977451.81639,1296814.1342665,74
1659977451.81639,1296814.718817,60
1659977451.81639,1296814.7188419,69
1659977451.81639,1296814.7188551,88
1659977451.81639,1296814.7188619,104
1659977451.81639,1296814.7188665,206
1659977451.81639,1296814.7188716,491
1659977451.81639,1296814.7188778,823
1659977451.81639,1296814.7188821,853
1659977451.81639,1296814.7188863,359
1659977451.82736,1296814.7188919,-160
1659977451.82736,1296814.7188959,-115
1659977451.82736,1296814.7189002,57
1659977451.82736,1296814.7189058,-32
1659977451.82736,1296814.7189109,-67
1659977451.82736,1296814.7189168,6
1659977451.82736,1296814.718921,9
1659977451.82736,1296814.7189269,-16
1659977451.82736,1296814.7189311,-11
1659977451.82736,1296814.7189377,-4
1659977451.82736,1296814.7189428,-2
1659977451.82736,1296814.7189484,13
1659977451.82736,1296814.7189535,30
1659977451.82736,1296814.7189577,20
1659977451.82736,1296814.7189632,11
1659977451.82736,1296814.7189669,23
1659977451.82736,1296814.7189706,44
1659977451.82736,1296814.7189758,62
1659977451.82736,1296814.7189809,71
1659977451.82736,1296814.7189844,74
1659977451.82736,1296814.7189881,71
1659977451.82736,1296814.7189932,67
1659977451.82736,1296814.7189978,60
1659977451.82736,1296814.7190032,41
1659977452.35419,1296814.7190068,20
1659977452.35419,1296814.7190107,9
1659977452.35419,1296814.7190144,18
1659977452.35419,1296814.7190179,41
1659977452.35419,1296814.7190215,71
1659977452.35419,1296814.719025,85
1659977452.35419,1296814.7190287,83
1659977452.35419,1296814.7190325,85
1659977452.35419,1296814.719036,83
1659977452.35419,1296814.7190399,64
1659977452.35419,1296814.7190434,74
1659977452.35419,1296814.7190471,118
1659977452.35419,1296814.7190506,106
1659977452.35419,1296814.7190543,69
1659977452.35419,1296814.7190582,74
1659977452.35419,1296814.7190619,83
1659977452.35419,1296814.7190658,99
1659977452.35419,1296814.7190715,115
1659977452.35419,1296814.7190755,97
1659977452.35419,1296814.7190808,90
1659977452.35419,1296814.7190845,106
1659977452.35419,1296814.7190883,104
1659977452.35419,1296814.7190919,104
1659977452.35419,1296814.7190957,122
1659977452.35419,1296814.7190995,155
1659977452.35419,1296814.719105,153
1659977452.35419,1296814.7191097,104
1659977452.35419,1296814.7191153,97
1659977452.35419,1296814.7191209,125
1659977452.35419,1296814.7191259,104
1659977452.35419,1296814.7191314,67
1659977452.35419,1296814.7191355,74
1659977452.35419,1296814.7191406,92
1659977452.35419,1296814.7191443,78
1659977452.35419,1296814.7191495,64
1659977452.35419,1296814.719153,74
1659977452.35419,1296814.7191568,95
1659977452.35419,1296814.719162,194
1659977452.35419,1296814.7191665,445
1659977452.35419,1296814.7191703,728
1659977452.35419,1296815.2550931,751
1659977452.35419,1296815.2551187,287
1659977452.35419,1296815.2551278,-208
1659977452.35419,1296815.2551303,-127
1659977452.35419,1296815.2551325,92
1659977452.35419,1296815.2551346,-4
1659977452.35419,1296815.2551367,-71
1659977452.35419,1296815.2551388,-11
1659977452.35419,1296815.2551409,-25
1659977452.35419,1296815.255143,-60
1659977452.37015,1296815.2551452,-32
1659977452.37015,1296815.2551473,-23
1659977452.37015,1296815.2551493,-32
1659977452.37015,1296815.2551514,-9
1659977452.37015,1296815.2551534,4
1659977452.37015,1296815.2551554,4
1659977452.37015,1296815.2551574,23
1659977452.37015,1296815.2551594,32
1659977452.37015,1296815.2551614,32
1659977452.37015,1296815.2551636,41
1659977452.37015,1296815.2551656,32
1659977452.37015,1296815.2551676,18
1659977452.37015,1296815.2551696,20
1659977452.37015,1296815.2551717,4
1659977452.37015,1296815.2551738,0
1659977452.37015,1296815.2551758,27
1659977452.37015,1296815.2551793,16
1659977452.37015,1296815.2551839,-9
1659977452.37015,1296815.2551903,6
1659977452.37015,1296815.2551946,18
1659977452.37015,1296815.2551987,11
1659977452.37015,1296815.2552053,32
1659977452.37015,1296815.2552106,69
1659977452.37015,1296815.2552151,76
1659977452.89375,1296815.2552181,60
1659977452.89375,1296815.2552201,53
1659977452.89375,1296815.2552222,48
1659977452.89375,1296815.2552284,48
1659977452.89375,1296815.255237,62
1659977452.89375,1296815.2552426,71
1659977452.89375,1296815.2552536,78
1659977452.89375,1296815.2552615,81
1659977452.89375,1296815.2552682,69
1659977452.89375,1296815.2552805,62
1659977452.89375,1296815.2552907,64
1659977452.89375,1296815.2552982,74
1659977452.89375,1296815.2553105,74
1659977452.89375,1296815.2553204,64
1659977452.89375,1296815.2553302,71
1659977452.89375,1296815.2553408,78
1659977452.89375,1296815.2553494,64
1659977452.89375,1296815.2553578,71
1659977452.89375,1296815.2553685,111
1659977452.89375,1296815.2553767,120
1659977452.89375,1296815.2553882,102
1659977452.89375,1296815.2553984,88
1659977452.89375,1296815.2554053,53
1659977452.89375,1296815.2554164,30
1659977452.89375,1296815.2554265,39
1659977452.89375,1296815.255435,32
1659977452.89375,1296815.2554454,32
1659977452.89375,1296815.2554554,46
1659977452.89375,1296815.255464,41
1659977452.89375,1296815.2554741,34
1659977452.89375,1296815.2554843,88
1659977452.89375,1296815.2554928,273
1659977452.89375,1296815.255503,605
1659977452.89375,1296815.2555131,885
1659977452.89375,1296815.2555217,661
1659977452.89375,1296815.2555318,-25
1659977452.89375,1296815.2555421,-296
1659977452.89375,1296815.2555507,-13
1659977452.89375,1296815.255561,53
1659977452.89375,1296815.7904263,-81
1659977452.89375,1296815.7904388,-53
1659977452.89375,1296815.7904505,-13
1659977452.89375,1296815.7904529,-37
1659977452.89375,1296815.790456,-16
1659977452.89375,1296815.7904591,-11
1659977452.89375,1296815.7904612,-55
1659977452.89375,1296815.7904633,-9
1659977452.89375,1296815.7904653,57
1659977452.89375,1296815.7904673,-2
1659977452.89375,1296815.7904694,-32
1659977452.90372,1296815.7904714,25
1659977452.90372,1296815.7904735,18
1659977452.90372,1296815.7904755,6
1659977452.90372,1296815.7904776,48
1659977452.90372,1296815.7904796,55
1659977452.90372,1296815.7904817,30
1659977452.90372,1296815.7904837,18
1659977452.90372,1296815.7904859,20
1659977452.90372,1296815.7904879,25
1659977452.90372,1296815.7904899,-2
1659977452.90372,1296815.790492,-30
1659977452.90372,1296815.790494,-9
1659977452.90372,1296815.790496,9
1659977452.90372,1296815.7904981,9
1659977452.90372,1296815.7905001,39
1659977452.90372,1296815.7905022,64
1659977452.90372,1296815.7905042,30
1659977452.90372,1296815.7905062,13
1659977452.90372,1296815.7905083,46
1659977452.90372,1296815.7905103,60
1659977452.90372,1296815.7905123,55
1659977452.90372,1296815.790515,60
1659977452.90372,1296815.790517,81
1659977452.90372,1296815.7905191,97
1659977453.47188,1296815.7905211,90
1659977453.47188,1296815.7905231,81
1659977453.47188,1296815.790525,92
1659977453.47188,1296815.7905269,95
1659977453.47188,1296815.7905288,88
1659977453.47188,1296815.7905307,97
1659977453.47188,1296815.7905326,92
1659977453.47188,1296815.7905349,74
1659977453.47188,1296815.7905425,85
1659977453.47188,1296815.7905509,102
1659977453.47188,1296815.7905584,74
1659977453.47188,1296815.7905653,44
1659977453.47188,1296815.7905772,55
1659977453.47188,1296815.790588,92
1659977453.47188,1296815.7905972,120
1659977453.47188,1296815.7906026,90
1659977453.47188,1296815.7906152,44
1659977453.47188,1296815.790625,71
1659977453.47188,1296815.7906316,85
1659977453.47188,1296815.7906401,-2
1659977453.47188,1296815.7906426,-39
1659977453.47188,1296815.7906447,11
1659977453.47188,1296815.7906468,9
1659977453.47188,1296815.7906489,-6
1659977453.47188,1296815.790651,34
1659977453.47188,1296815.7906531,37
1659977453.47188,1296815.7906551,120
1659977453.47188,1296815.7906572,498
1659977453.47188,1296815.7906593,885
1659977453.47188,1296815.7906613,776
1659977453.47188,1296815.790664,160
1659977453.47188,1296815.7906661,-278
1659977453.47188,1296815.7906683,-127
1659977453.47188,1296815.7906703,67
1659977453.47188,1296815.7906725,-23
1659977453.47188,1296815.7906745,-78
1659977453.47188,1296815.7906765,-25
1659977453.47188,1296815.7906786,-27
1659977453.47188,1296816.3757841,-48
1659977453.47188,1296816.3758056,-23
1659977453.47188,1296816.375821,-18
1659977453.47188,1296816.37583,-48
1659977453.47188,1296816.3758326,-30
1659977453.47188,1296816.3758348,27
1659977453.47188,1296816.3758369,48
1659977453.47188,1296816.375839,25
1659977453.47188,1296816.375841,-4
1659977453.47188,1296816.3758431,-23
1659977453.47188,1296816.3758452,0
1659977453.47188,1296816.3758472,69
1659977453.48243,1296816.3758494,99
1659977453.48243,1296816.3758514,25
1659977453.48243,1296816.3758534,-41
1659977453.48243,1296816.3758554,2
1659977453.48243,1296816.3758575,69
1659977453.48243,1296816.3758604,37
1659977453.48243,1296816.375863,-44
1659977453.48243,1296816.3758729,-99
1659977453.48243,1296816.3758855,-92
1659977453.48243,1296816.3758937,-2
1659977453.48243,1296816.375905,81
1659977453.48243,1296816.3759098,60
1659977453.48243,1296816.3759126,11
1659977453.48243,1296816.3759147,25
1659977453.48243,1296816.3759168,18
1659977453.48243,1296816.3759188,-11
1659977453.48243,1296816.3759209,48
1659977453.48243,1296816.3759229,90
1659977453.48243,1296816.3759249,27
1659977453.48243,1296816.3759269,-2
1659977453.48243,1296816.3759289,32
1659977453.48243,1296816.3759309,60
1659977453.48243,1296816.3759329,64
1659977453.48243,1296816.3759349,53
1659977454.06175,1296816.3759369,51
1659977454.06175,1296816.3759389,60
1659977454.06175,1296816.3759408,39
1659977454.06175,1296816.3759427,30
1659977454.06175,1296816.3759446,78
1659977454.06175,1296816.3759465,97
1659977454.06175,1296816.3759484,53
1659977454.06175,1296816.3759503,46
1659977454.06175,1296816.3759527,67
1659977454.06175,1296816.3759596,81
1659977454.06175,1296816.3759665,81
1659977454.06175,1296816.375971,41
1659977454.06175,1296816.3759784,51
1659977454.06175,1296816.3759834,85
1659977454.06175,1296816.375991,25
1659977454.06175,1296816.3760001,-32
1659977454.06175,1296816.3760052,0
1659977454.06175,1296816.3760073,27
1659977454.06175,1296816.3760094,13
1659977454.06175,1296816.3760122,76
1659977454.06175,1296816.3760144,306
1659977454.06175,1296816.3760165,619
1659977454.06175,1296816.3760185,816
1659977454.06175,1296816.3760206,558
1659977454.06175,1296816.3760228,-78
1659977454.06175,1296816.3760254,-329
1659977454.06175,1296816.3760275,-55
1659977454.06175,1296816.3760295,55
1659977454.06175,1296816.3760315,-69
1659977454.06175,1296816.3760336,-95
1659977454.06175,1296816.3760357,-27
1659977454.06175,1296816.3760377,-2
1659977454.06175,1296816.3760398,-30
1659977454.06175,1296816.3760419,-48
1659977454.06175,1296816.376044,-37
1659977454.06175,1296816.376046,-20
1659977454.06175,1296816.3760481,9
1659977454.06175,1296816.9612146,32
1659977454.06175,1296816.9612322,20
1659977454.06175,1296816.9612365,25
1659977454.06175,1296816.9612401,60
1659977454.06175,1296816.9612436,97
1659977454.06175,1296816.9612765,102
1659977454.06175,1296816.9612852,57
1659977454.06175,1296816.9612926,60
1659977454.06175,1296816.9612987,127
1659977454.06175,1296816.9613028,115
1659977454.06175,1296816.9613073,27
1659977454.06175,1296816.9613134,9
1659977454.06175,1296816.961317,30
1659977454.07172,1296816.9613204,11
1659977454.07172,1296816.9613256,11
1659977454.07172,1296816.9613299,32
1659977454.07172,1296816.9613338,32
1659977454.07172,1296816.9613397,37
1659977454.07172,1296816.9613434,30
1659977454.07172,1296816.9613562,0
1659977454.07172,1296816.9613645,-20
1659977454.07172,1296816.9613708,6
1659977454.07172,1296816.961374,53
1659977454.07172,1296816.961377,41
1659977454.07172,1296816.9613801,30
1659977454.07172,1296816.9613831,78
1659977454.07172,1296816.961386,67
1659977454.07172,1296816.9613889,34
1659977454.07172,1296816.9613919,71
1659977454.07172,1296816.9613948,90
1659977454.07172,1296816.961398,64
1659977454.07172,1296816.9614011,41
1659977454.07172,1296816.9614041,44
1659977454.07172,1296816.9614083,88
1659977454.07172,1296816.9614119,102
1659977454.07172,1296816.9614156,55
1659977454.07172,1296816.9614195,74
1659977454.64564,1296816.9614231,146
1659977454.64564,1296816.9614269,136
1659977454.64564,1296816.9614307,106
1659977454.64564,1296816.9614345,106
1659977454.64564,1296816.9614383,71
1659977454.64564,1296816.9614422,34
1659977454.64564,1296816.961446,32
1659977454.64564,1296816.9614501,23
1659977454.64564,1296816.9614537,32
1659977454.64564,1296816.9614578,90
1659977454.64564,1296816.9614616,90
1659977454.64564,1296816.9614657,48
1659977454.64564,1296816.9614697,120
1659977454.64564,1296816.9614738,306
1659977454.64564,1296816.9614771,598
1659977454.64564,1296816.96148,909
1659977454.64564,1296816.9614827,821
1659977454.64564,1296816.9614854,166
1659977454.64564,1296816.961488,-273
1659977454.64564,1296816.9614908,-62
1659977454.64564,1296816.9614935,69
1659977454.64564,1296816.9614963,-71
1659977454.64564,1296816.961499,-85
1659977454.64564,1296816.961502,-53
1659977454.64564,1296816.9615047,-74
1659977454.64564,1296816.9615076,-53
1659977454.64564,1296816.9615116,-4
1659977454.64564,1296816.9615145,34
1659977454.64564,1296816.9615173,37
1659977454.64564,1296816.9615204,11
1659977454.64564,1296816.9615233,6
1659977454.64564,1296816.9615262,20
1659977454.64564,1296816.9615291,30
1659977454.64564,1296816.961532,51
1659977454.64564,1296816.9615349,60
1659977454.64564,1296816.9615377,53
1659977454.64564,1296817.5463235,34
1659977454.64564,1296817.5463458,53
1659977454.64564,1296817.5463534,106
1659977454.64564,1296817.5463612,109
1659977454.64564,1296817.5463665,55
1659977454.64564,1296817.5463733,57
1659977454.64564,1296817.5463796,99
1659977454.64564,1296817.5463863,67
1659977454.64564,1296817.5463914,25
1659977454.64564,1296817.5464002,51
1659977454.64564,1296817.546407,60
1659977454.64564,1296817.5464141,44
1659977454.64564,1296817.546421,62
1659977454.64564,1296817.5464261,92
1659977454.65661,1296817.5464333,109
1659977454.65661,1296817.5464392,76
1659977454.65661,1296817.546445,44
1659977454.65661,1296817.5464494,83
1659977454.65661,1296817.5464539,92
1659977454.65661,1296817.5464584,39
1659977454.65661,1296817.5464646,23
1659977454.65661,1296817.546469,20
1659977454.65661,1296817.5464749,55
1659977454.65661,1296817.5464792,115
1659977454.65661,1296817.5464855,81
1659977454.65661,1296817.5464896,41
1659977454.65661,1296817.5464941,39
1659977454.65661,1296817.5464984,23
1659977454.65661,1296817.546503,71
1659977454.65661,1296817.5465077,150
1659977454.65661,1296817.5465143,148
1659977454.65661,1296817.5465185,95
1659977454.65661,1296817.5465231,69
1659977454.65661,1296817.5465277,53
1659977454.65661,1296817.5465336,41
1659977454.65661,1296817.5465399,83
1659977454.65661,1296817.5465454,118
1659977454.65661,1296817.5465514,104
1659977455.13355,1296817.5465556,139
1659977455.13355,1296817.5465597,169
1659977455.13355,1296817.546564,85
1659977455.13355,1296817.5465682,37
1659977455.13355,1296817.5465726,74
1659977455.13355,1296817.5465766,67
1659977455.13355,1296817.5465804,64
1659977455.13355,1296817.5465844,178
1659977455.13355,1296817.5465884,368
1659977455.13355,1296817.5465924,600
1659977455.13355,1296817.5465966,867
1659977455.13355,1296817.546601,797
1659977455.13355,1296817.5466053,127
1659977455.13355,1296817.5466096,-299
1659977455.13355,1296817.5466152,-34
1659977455.13355,1296817.5466225,83
1659977455.13355,1296817.546628,-90
1659977455.13355,1296817.5466345,-44
1659977455.13355,1296817.546639,46
1659977455.13355,1296817.5466438,-20
1659977455.13355,1296817.546651,-39
1659977455.13355,1296817.5466573,53
1659977455.13355,1296817.5466622,78
1659977455.13355,1296817.5466685,-4
1659977455.13355,1296817.5466733,-18
1659977455.13355,1296817.5466784,57
1659977455.13355,1296817.5466852,71
1659977455.13355,1296817.5466899,60
1659977455.13355,1296817.5466944,81
1659977455.13355,1296817.5466992,69
1659977455.13355,1296817.5467059,39
1659977455.13355,1296817.5467107,83
1659977455.13355,1296817.5467153,166
1659977455.13355,1296817.5467201,97
1659977455.13355,1296817.5467241,32
1659977455.13355,1296818.0339245,171
1659977455.13355,1296818.0339449,199
1659977455.13355,1296818.0339541,41
1659977455.13355,1296818.0339618,6
1659977455.13355,1296818.0339658,74
1659977455.13355,1296818.0339693,78
1659977455.13355,1296818.0339731,76
1659977455.13355,1296818.0339794,90
1659977455.13355,1296818.0339834,92
1659977455.13355,1296818.033987,83
1659977455.13355,1296818.0339932,57
1659977455.13355,1296818.0339988,55
1659977455.13355,1296818.0340025,85
1659977455.13355,1296818.034007,95
1659977455.13355,1296818.0340106,69
1659977455.14452,1296818.034014,51
1659977455.14452,1296818.0340177,74
1659977455.14452,1296818.0340228,85
1659977455.14452,1296818.0340343,48
1659977455.14452,1296818.0340439,0
1659977455.14452,1296818.0340487,32
1659977455.14452,1296818.0340554,132
1659977455.14452,1296818.0340597,122
1659977455.14452,1296818.0340662,41
1659977455.14452,1296818.0340707,48
1659977455.14452,1296818.0340763,88
1659977455.14452,1296818.0340812,51
1659977455.14452,1296818.0340874,30
1659977455.14452,1296818.0340927,71
1659977455.14452,1296818.034099,51
1659977455.14452,1296818.0341039,-2
1659977455.14452,1296818.0341079,34
1659977455.14452,1296818.0341121,95
1659977455.14452,1296818.0341164,102
1659977455.14452,1296818.034122,92
1659977455.14452,1296818.0341266,90
1659977455.14452,1296818.0341309,104
1659977455.14452,1296818.0341353,74
1659977455.14452,1296818.0341406,11
1659977455.71577,1296818.0341458,4
1659977455.71577,1296818.03415,11
1659977455.71577,1296818.0341544,0
1659977455.71577,1296818.0341582,13
1659977455.71577,1296818.0341621,32
1659977455.71577,1296818.0341661,44
1659977455.71577,1296818.0341707,139
1659977455.71577,1296818.0341748,375
1659977455.71577,1296818.0341785,686
1659977455.71577,1296818.0341823,888
1659977455.71577,1296818.0341877,628
1659977455.71577,1296818.0341963,-37
1659977455.71577,1296818.0342008,-282
1659977455.71577,1296818.0342032,-44
1659977455.71577,1296818.0342053,-18
1659977455.71577,1296818.0342074,-104
1659977455.71577,1296818.0342094,-25
1659977455.71577,1296818.034214,2
1659977455.71577,1296818.0342256,-62
1659977455.71577,1296818.0342372,-69
1659977455.71577,1296818.0342502,-6
1659977455.71577,1296818.0342638,16
1659977455.71577,1296818.0342736,-23
1659977455.71577,1296818.0342811,-32
1659977455.71577,1296818.0342911,20
1659977455.71577,1296818.0343019,55
1659977455.71577,1296818.0343081,23
1659977455.71577,1296818.0343169,6
1659977455.71577,1296818.0343291,74
1659977455.71577,1296818.0343391,115
1659977455.71577,1296818.0343525,90
1659977455.71577,1296818.0343648,74
1659977455.71577,1296818.0343744,74
1659977455.71577,1296818.0343795,81
1659977455.71577,1296818.6184422,97
1659977455.71577,1296818.6184619,92
1659977455.71577,1296818.6184708,62
1659977455.71577,1296818.6184769,41
1659977455.71577,1296818.618497,64
1659977455.71577,1296818.6185062,99
1659977455.71577,1296818.6185126,76
1659977455.71577,1296818.6185209,27
1659977455.71577,1296818.6185267,23
1659977455.71577,1296818.6185341,57
1659977455.71577,1296818.6185409,83
1659977455.71577,1296818.6185491,71
1659977455.71577,1296818.618554,39
1659977455.71577,1296818.6185572,20
1659977455.71577,1296818.6185602,48
1659977455.71577,1296818.6185647,60
1659977455.72674,1296818.6185711,18
1659977455.72674,1296818.6185757,23
1659977455.72674,1296818.6185811,62
1659977455.72674,1296818.6185888,41
1659977455.72674,1296818.6185921,25
1659977455.72674,1296818.6185977,74
1659977455.72674,1296818.6186016,71
1659977455.72674,1296818.6186062,6
1659977455.72674,1296818.6186112,34
1659977455.72674,1296818.6186169,88
1659977455.72674,1296818.6186219,34
1659977455.72674,1296818.6186272,-2
1659977455.72674,1296818.6186329,39
1659977455.72674,1296818.6186375,60
1659977455.72674,1296818.6186416,55
1659977455.72674,1296818.6186456,69
1659977455.72674,1296818.6186493,76
1659977455.72674,1296818.6186774,62
1659977455.72674,1296818.6186882,64
1659977455.72674,1296818.6186923,95
1659977455.72674,1296818.6187215,88
1659977455.72674,1296818.6187279,37
1659977455.72674,1296818.6187318,18
1659977455.72674,1296818.6187376,13
1659977456.26017,1296818.6187411,9
1659977456.26017,1296818.6187444,25
1659977456.26017,1296818.6187478,23
1659977456.26017,1296818.6187511,11
1659977456.26017,1296818.6187544,41
1659977456.26017,1296818.6187588,104
1659977456.26017,1296818.6187627,229
1659977456.26017,1296818.6187658,500
1659977456.26017,1296818.6187692,814
1659977456.26017,1296818.6187723,881
1659977456.26017,1296818.618777,422
1659977456.26017,1296818.6187828,-187
1659977456.26017,1296818.6187871,-222
1659977456.26017,1296818.6187932,6
1659977456.26017,1296818.6187968,-44
1659977456.26017,1296818.6188003,-78
1659977456.26017,1296818.6188038,25
1659977456.26017,1296818.6188075,20
1659977456.26017,1296818.618813,-25
1659977456.26017,1296818.6188346,-2
1659977456.26017,1296818.6188421,4
1659977456.26017,1296818.618847,18
1659977456.26017,1296818.6188531,46
1659977456.26017,1296818.618857,30
1659977456.26017,1296818.6188616,37
1659977456.26017,1296818.6188658,69
1659977456.26017,1296818.6188719,55
1659977456.26017,1296818.6188773,51
1659977456.26017,1296818.6188835,106
1659977456.26017,1296818.618888,127
1659977456.26017,1296818.6188934,104
1659977456.26017,1296818.6188969,113
1659977456.26017,1296818.6189006,120
1659977456.26017,1296819.1546903,88
1659977456.26017,1296819.1547201,83
1659977456.26017,1296819.1547276,90
1659977456.26017,1296819.1547328,64
1659977456.26017,1296819.1547393,76
1659977456.26017,1296819.1547444,88
1659977456.26017,1296819.1547496,51

1659977456.26017,1296819.154754,55
1659977456.26017,1296819.1547588,111
1659977456.26017,1296819.1547632,106
1659977456.26017,1296819.1547681,51
1659977456.26017,1296819.1547735,41
1659977456.26017,1296819.1547788,64
1659977456.26017,1296819.1547833,67
1659977456.26017,1296819.1547887,67
1659977456.26017,1296819.1547945,71
1659977456.26017,1296819.1548005,46
1659977456.27114,1296819.1548055,27
1659977456.27114,1296819.1548101,41
1659977456.27114,1296819.1548145,55
1659977456.27114,1296819.1548199,57
1659977456.27114,1296819.1548256,37
1659977456.27114,1296819.1548326,16
1659977456.27114,1296819.1548375,57
1659977456.27114,1296819.1548419,85
1659977456.27114,1296819.1548465,46
1659977456.27114,1296819.1548534,23
1659977456.27114,1296819.1548598,20
1659977456.27114,1296819.1548643,9
1659977456.27114,1296819.1548687,18
1659977456.27114,1296819.1548736,16
1659977456.27114,1296819.1548794,4
1659977456.27114,1296819.1548842,32
1659977456.27114,1296819.1548889,27
1659977456.27114,1296819.1548945,-4
1659977456.27114,1296819.1548991,27
1659977456.27114,1296819.1549038,71
1659977456.27114,1296819.1549086,60
1659977456.27114,1296819.1549125,41
1659977456.27114,1296819.1549166,41
1659977456.27114,1296819.1549206,41
1659977456.8377,1296819.1549248,16
1659977456.8377,1296819.1549289,13
1659977456.8377,1296819.1549328,37
1659977456.8377,1296819.1549367,25
1659977456.8377,1296819.1549405,11
1659977456.8377,1296819.1549442,44
1659977456.8377,1296819.1549479,95
1659977456.8377,1296819.1549518,204
1659977456.8377,1296819.1549556,445
1659977456.8377,1296819.1549596,744
1659977456.8377,1296819.1549639,895
1659977456.8377,1296819.1549678,572
1659977456.8377,1296819.1549722,-74
1659977456.8377,1296819.1549789,-243
1659977456.8377,1296819.154983,44
1659977456.8377,1296819.1549883,60
1659977456.8377,1296819.1549922,-71
1659977456.8377,1296819.1549962,6
1659977456.8377,1296819.1550008,62
1659977456.8377,1296819.1550065,-4
1659977456.8377,1296819.1550109,-4
1659977456.8377,1296819.1550152,41
1659977456.8377,1296819.1550209,57
1659977456.8377,1296819.1550259,67
1659977456.8377,1296819.1550301,57
1659977456.8377,1296819.1550364,51
1659977456.8377,1296819.1550442,64
1659977456.8377,1296819.1550526,78
1659977456.8377,1296819.155059,106
1659977456.8377,1296819.1550633,115
1659977456.8377,1296819.1550673,97
1659977456.8377,1296819.1550727,92
1659977456.8377,1296819.7399013,106
1659977456.8377,1296819.7399137,109
1659977456.8377,1296819.7399169,102
1659977456.8377,1296819.7399265,97
1659977456.8377,1296819.7399287,78
1659977456.8377,1296819.7399312,69
1659977456.8377,1296819.7399333,74
1659977456.8377,1296819.7399352,53
1659977456.8377,1296819.7399372,37
1659977456.8377,1296819.7399392,48
1659977456.8377,1296819.7399412,46
1659977456.8377,1296819.7399432,39
1659977456.8377,1296819.7399451,51
1659977456.8377,1296819.7399479,53
1659977456.8377,1296819.7399525,39
1659977456.8377,1296819.7399632,41
1659977456.8377,1296819.7399781,62
1659977456.8377,1296819.7399869,55
1659977456.84868,1296819.7399908,32
1659977456.84868,1296819.7400018,39
1659977456.84868,1296819.7400089,57
1659977456.84868,1296819.7400114,41
1659977456.84868,1296819.7400135,25
1659977456.84868,1296819.7400155,23
1659977456.84868,1296819.7400181,18
1659977456.84868,1296819.7400283,25
1659977456.84868,1296819.7400363,27
1659977456.84868,1296819.7400388,18
1659977456.84868,1296819.7400409,16
1659977456.84868,1296819.7400496,9
1659977456.84868,1296819.7400601,0
1659977456.84868,1296819.7400626,4
1659977456.84868,1296819.7400646,18
1659977456.84868,1296819.7400698,20
1659977456.84868,1296819.74008,16
1659977456.84868,1296819.7400864,20
1659977456.84868,1296819.7400933,34
1659977456.84868,1296819.7401005,46
1659977456.84868,1296819.7401044,51
1659977456.84868,1296819.7401082,88
1659977456.84868,1296819.7401103,129
1659977456.84868,1296819.7401141,81
1659977457.42572,1296819.7401163,27
1659977457.42572,1296819.7401183,41
1659977457.42572,1296819.7401203,55
1659977457.42572,1296819.7401222,34
1659977457.42572,1296819.7401241,44
1659977457.42572,1296819.740126,92
1659977457.42572,1296819.7401279,83
1659977457.42572,1296819.7401298,74
1659977457.42572,1296819.7401318,222
1659977457.42572,1296819.7401343,482
1659977457.42572,1296819.740144,739
1659977457.42572,1296819.7401755,862
1659977457.42572,1296819.7402041,533
1659977457.42572,1296819.7402226,-83
1659977457.42572,1296819.7402345,-201
1659977457.42572,1296819.7402422,69
1659977457.42572,1296819.7402553,62
1659977457.42572,1296819.7402635,-37
1659977457.42572,1296819.7402697,30
1659977457.42572,1296819.7402794,60
1659977457.42572,1296819.7402858,30
1659977457.42572,1296819.7402909,30
1659977457.42572,1296819.740297,30
1659977457.42572,1296819.7403055,37
1659977457.42572,1296819.7403106,62
1659977457.42572,1296819.7403144,74
1659977457.42572,1296819.7403216,69
1659977457.42572,1296819.7403292,85
1659977457.42572,1296819.7403381,102
1659977457.42572,1296819.7403432,99
1659977457.42572,1296819.7403469,97
1659977457.42572,1296820.324801,125
1659977457.42572,1296820.3248144,155
1659977457.42572,1296820.3248185,148
1659977457.42572,1296820.3248212,127
1659977457.42572,1296820.3248237,113
1659977457.42572,1296820.3248262,92
1659977457.42572,1296820.3248287,64
1659977457.42572,1296820.324831,64
1659977457.42572,1296820.3248334,88
1659977457.42572,1296820.3248358,74
1659977457.42572,1296820.3248381,30
1659977457.42572,1296820.3248404,18
1659977457.42572,1296820.3248428,60
1659977457.42572,1296820.3248451,90
1659977457.42572,1296820.3248474,74
1659977457.42572,1296820.3248498,53
1659977457.42572,1296820.3248521,39
1659977457.42572,1296820.3248544,11
1659977457.42572,1296820.324857,-9
1659977457.43669,1296820.3248594,-16
1659977457.43669,1296820.3248618,-13
1659977457.43669,1296820.3248641,2
1659977457.43669,1296820.3248664,20
1659977457.43669,1296820.3248688,20
1659977457.43669,1296820.3248712,-6
1659977457.43669,1296820.3248735,-20
1659977457.43669,1296820.3248758,20
1659977457.43669,1296820.3248781,48
1659977457.43669,1296820.3248804,23
1659977457.43669,1296820.3248827,2
1659977457.43669,1296820.324885,-2
1659977457.43669,1296820.3248872,13
1659977457.43669,1296820.3248895,48
1659977457.43669,1296820.3248916,27
1659977457.43669,1296820.3248938,4
1659977457.43669,1296820.3248959,34
1659977457.43669,1296820.3248983,34
1659977457.43669,1296820.3249005,25
1659977457.43669,1296820.3249027,71
1659977457.43669,1296820.3249049,90
1659977457.43669,1296820.3249071,81
1659977457.43669,1296820.3249092,99
1659977457.43669,1296820.3249112,83
1659977457.9593,1296820.3249133,55
1659977457.9593,1296820.3249154,62
1659977457.9593,1296820.3249176,60
1659977457.9593,1296820.3249197,46
1659977457.9593,1296820.3249218,71
1659977457.9593,1296820.3249239,99
1659977457.9593,1296820.3249259,83
1659977457.9593,1296820.324928,81
1659977457.9593,1296820.3249302,162
1659977457.9593,1296820.3249322,350
1659977457.9593,1296820.3249342,619
1659977457.9593,1296820.3249371,855
1659977457.9593,1296820.3249477,723
1659977457.9593,1296820.3249546,106
1659977457.9593,1296820.3249606,-278
1659977457.9593,1296820.3249675,-46
1659977457.9593,1296820.3249734,132
1659977457.9593,1296820.3249841,13
1659977457.9593,1296820.3249891,-23
1659977457.9593,1296820.3249914,32
1659977457.9593,1296820.3249935,25
1659977457.9593,1296820.3249955,30
1659977457.9593,1296820.3249976,62
1659977457.9593,1296820.3249996,60
1659977457.9593,1296820.3250017,60
1659977457.9593,1296820.3250037,67
1659977457.9593,1296820.3250058,57
1659977457.9593,1296820.3250079,74
1659977457.9593,1296820.3250099,109
1659977457.9593,1296820.3250119,109
1659977457.9593,1296820.8613635,83
1659977457.9593,1296820.8614117,92
1659977457.9593,1296820.8614207,120
1659977457.9593,1296820.8614246,125
1659977457.9593,1296820.8614312,109
1659977457.9593,1296820.8614345,92
1659977457.9593,1296820.8614377,92
1659977457.9593,1296820.8614416,81
1659977457.9593,1296820.8614479,44
1659977457.9593,1296820.8614544,23
1659977457.9593,1296820.8614597,23
1659977457.9593,1296820.861463,4
1659977457.9593,1296820.8614661,-6
1659977457.9593,1296820.8614691,13
1659977457.9593,1296820.8614726,25
1659977457.9593,1296820.8614757,6
1659977457.9593,1296820.8614786,-2
1659977457.9593,1296820.8614815,9
1659977457.9593,1296820.8614844,9
1659977457.9593,1296820.8614872,-9
1659977457.97127,1296820.8614903,-6
1659977457.97127,1296820.8614931,4
1659977457.97127,1296820.8614959,-4
1659977457.97127,1296820.8614987,-11
1659977457.97127,1296820.8615014,-2
1659977457.97127,1296820.8615042,30
1659977457.97127,1296820.8615071,53
1659977457.97127,1296820.8615098,27
1659977457.97127,1296820.8615128,-2
1659977457.97127,1296820.861516,-2
1659977457.97127,1296820.861519,16
1659977457.97127,1296820.861522,34
1659977457.97127,1296820.8615249,44
1659977457.97127,1296820.8615278,48
1659977457.97127,1296820.8615311,46
1659977457.97127,1296820.8615368,39
1659977457.97127,1296820.8615398,25
1659977457.97127,1296820.8615442,25
1659977457.97127,1296820.8615503,41
1659977457.97127,1296820.8615539,32
1659977457.97127,1296820.8615609,62
1659977457.97127,1296820.8615656,141
1659977457.97127,1296820.8615694,132
1659977457.97127,1296820.8615722,60
1659977458.50346,1296820.8615755,51
1659977458.50346,1296820.8615789,46
1659977458.50346,1296820.8615821,16
1659977458.50346,1296820.8615853,11
1659977458.50346,1296820.861588,67
1659977458.50346,1296820.8615906,113
1659977458.50346,1296820.8615932,78
1659977458.50346,1296820.8615959,97
1659977458.50346,1296820.8615986,282
1659977458.50346,1296820.8616013,568
1659977458.50346,1296820.8616038,844
1659977458.50346,1296820.8616066,795
1659977458.50346,1296820.8616097,224
1659977458.50346,1296820.8616123,-231
1659977458.50346,1296820.8616152,-78
1659977458.50346,1296820.8616181,102
1659977458.50346,1296820.861621,9
1659977458.50346,1296820.8616237,-16
1659977458.50346,1296820.8616265,32
1659977458.50346,1296820.8616292,9
1659977458.50346,1296820.8616319,4
1659977458.50346,1296820.8616345,64
1659977458.50346,1296820.8616374,97
1659977458.50346,1296820.8616401,64
1659977458.50346,1296820.8616428,30
1659977458.50346,1296820.8616454,48
1659977458.50346,1296820.8616482,78
1659977458.50346,1296820.861651,69
1659977458.50346,1296820.8616539,60
1659977458.50346,1296821.3974634,85
1659977458.50346,1296821.3974784,99
1659977458.50346,1296821.3974836,78
1659977458.50346,1296821.3974894,67
1659977458.50346,1296821.3974924,71
1659977458.50346,1296821.3974953,69
1659977458.50346,1296821.3974981,34
1659977458.50346,1296821.3975009,2
1659977458.50346,1296821.3975037,11
1659977458.50346,1296821.3975064,9
1659977458.50346,1296821.3975092,-30
1659977458.50346,1296821.3975126,-34
1659977458.50346,1296821.3975201,-4
1659977458.50346,1296821.3975333,0
1659977458.50346,1296821.3975408,-16
1659977458.50346,1296821.3975433,-9
1659977458.50346,1296821.3975454,18
1659977458.50346,1296821.3975475,6
1659977458.50346,1296821.3975496,-20
1659977458.50346,1296821.3975517,-11
1659977458.50346,1296821.3975537,4
1659977458.51443,1296821.3975558,2
1659977458.51443,1296821.3975595,13
1659977458.51443,1296821.3975638,30
1659977458.51443,1296821.3975681,34
1659977458.51443,1296821.3975754,32
1659977458.51443,1296821.3975784,30
1659977458.51443,1296821.3975812,23
1659977458.51443,1296821.3975841,44
1659977458.51443,1296821.3975869,81
1659977458.51443,1296821.3975898,57
1659977458.51443,1296821.3975926,20
1659977458.51443,1296821.3975955,46
1659977458.51443,1296821.3975984,76
1659977458.51443,1296821.3976013,48
1659977458.51443,1296821.3976041,23
1659977458.51443,1296821.397607,51
1659977458.51443,1296821.3976099,67
1659977458.51443,1296821.3976127,78
1659977458.51443,1296821.3976156,111
1659977458.51443,1296821.3976184,109
1659977458.51443,1296821.3976213,81
1659977458.51443,1296821.3976241,76
1659977458.51443,1296821.3976269,62
1659977458.51443,1296821.3976297,55
1659977459.13252,1296821.3976325,81
1659977459.13252,1296821.3976353,85
1659977459.13252,1296821.3976381,57
1659977459.13252,1296821.3976409,62
1659977459.13252,1296821.3976437,109
