Time,TimeLsl,Value
1659978135.2573,1297496.801415,88
1659978135.2573,1297496.8014323,85
1659978135.2573,1297496.8014373,95
1659978135.2573,1297496.8014436,106
1659978135.2573,1297496.8014477,109
1659978135.2573,1297496.8014535,122
1659978135.2573,1297496.8014576,136
1659978135.2573,1297496.8014653,136
1659978135.2573,1297496.8014712,122
1659978135.2573,1297496.8014753,88
1659978135.2573,1297496.801481,69
1659978135.2573,1297496.8014849,69
1659978135.2573,1297496.8014904,53
1659978135.2573,1297496.8014945,32
1659978135.2573,1297496.8015002,23
1659978135.2573,1297496.8015043,9
1659978135.2573,1297496.8015101,-2
1659978135.2573,1297496.801514,6
1659978135.2573,1297496.8015198,23
1659978135.2573,1297496.8015239,25
1659978135.2573,1297496.8015294,16
1659978135.2573,1297496.8015334,0
1659978135.2573,1297496.801539,-11
1659978135.2573,1297496.8015429,-4
1659978135.2573,1297496.8015484,6
1659978135.2573,1297496.8015519,11
1659978135.2573,1297496.8015572,16
1659978135.2573,1297496.8015608,20
1659978135.2573,1297496.801566,16
1659978135.2573,1297496.8015696,20
1659978135.2573,1297496.801575,27
1659978135.2573,1297496.8015788,27
1659978135.2573,1297496.8015851,23
1659978135.2573,1297496.8015904,25
1659978135.2573,1297496.8015938,30
1659978135.2573,1297496.8015989,32
1659978135.2573,1297496.8016023,37
1659978135.2573,1297496.8016099,41
1659978135.2573,1297496.8016177,39
1659978135.2573,1297496.8016246,44
1659978135.2573,1297496.8016335,48
1659978135.2573,1297496.8016427,46
1659978135.2573,1297496.8016494,48
1659978135.2573,1297496.8016533,57
1659978135.2573,1297496.8016587,57
1659978135.2573,1297496.8016629,60
1659978135.2573,1297496.8016712,67
1659978135.2573,1297496.8016789,74
1659978135.2573,1297496.8016873,92
1659978135.2573,1297496.8016932,115
1659978135.39692,1297496.8016972,115
1659978135.39692,1297496.8017047,104
1659978135.39692,1297496.8017125,90
1659978135.39692,1297496.8017209,74
1659978135.39692,1297496.8017268,78
1659978135.39692,1297496.8017307,88
1659978135.39692,1297496.8017404,85
1659978135.39692,1297496.8017491,83
1659978135.39692,1297496.8017559,99
1659978135.39692,1297496.8017603,146
1659978135.39692,1297496.8017669,289
1659978135.39692,1297496.8017731,575
1659978135.39692,1297496.8017825,888
1659978135.39692,1297496.8017886,962
1659978135.39692,1297496.8017925,510
1659978135.39692,1297496.8017977,-134
1659978135.39692,1297496.8018056,-178
1659978135.39692,1297496.8018147,104
1659978135.39692,1297496.8018205,60
1659978135.39692,1297496.8018245,-34
1659978135.39692,1297496.8018325,44
1659978135.39692,1297496.8018413,64
1659978135.39692,1297496.8018484,30
1659978135.39692,1297497.3368298,55
1659978135.39692,1297497.3368507,76
1659978135.39692,1297497.336856,67
1659978135.39692,1297497.3368609,71
1659978135.39692,1297497.336864,90
1659978135.39692,1297497.336869,90
1659978135.39692,1297497.3368723,88
1659978135.39692,1297497.3368759,102
1659978135.39692,1297497.3368792,102
1659978135.39692,1297497.3368824,92
1659978135.39692,1297497.3368857,106
1659978135.39692,1297497.336889,109
1659978135.39692,1297497.3368924,85
1659978135.39692,1297497.336896,71
1659978135.39692,1297497.3368999,67
1659978135.39692,1297497.3369044,51
1659978135.39692,1297497.3369075,30
1659978135.39692,1297497.3369104,13
1659978135.39692,1297497.3369136,0
1659978135.39692,1297497.3369166,-11
1659978135.39692,1297497.3369194,-4
1659978135.39692,1297497.3369223,4
1659978135.39692,1297497.3369252,6
1659978135.39692,1297497.336928,6
1659978135.39692,1297497.3369309,-2
1659978135.39692,1297497.3369338,-23
1659978135.39692,1297497.3369366,-18
1659978135.45377,1297497.3369396,-2
1659978135.45377,1297497.3369424,4
1659978135.45377,1297497.3369454,6
1659978135.45377,1297497.3369483,11
1659978135.45377,1297497.3369511,13
1659978135.45377,1297497.3369539,23
1659978135.45377,1297497.3369567,30
1659978135.45377,1297497.3369596,37
1659978135.45377,1297497.3369624,41
1659978135.45377,1297497.3369652,44
1659978135.45377,1297497.336968,41
1659978135.45377,1297497.3369709,46
1659978135.45377,1297497.3369739,53
1659978135.45377,1297497.3369767,55
1659978135.45377,1297497.3369795,57
1659978135.45377,1297497.3369823,60
1659978135.45377,1297497.3369852,57
1659978135.45377,1297497.336988,55
1659978135.45377,1297497.3369908,60
1659978135.45377,1297497.3369938,67
1659978135.45377,1297497.3369967,74
1659978135.45377,1297497.3369997,74
1659978135.45377,1297497.3370025,71
1659978135.45377,1297497.3370053,78
1659978135.45377,1297497.3370082,102
1659978135.45377,1297497.337011,129
1659978135.45377,1297497.3370138,125
1659978135.45377,1297497.3370167,97
1659978135.45377,1297497.3370195,81
1659978135.45377,1297497.3370224,69
1659978135.45377,1297497.3370253,69
1659978135.45377,1297497.3370282,78
1659978135.45377,1297497.337031,81
1659978135.45377,1297497.3370338,83
1659978135.45377,1297497.3370368,95
1659978135.45377,1297497.3370398,136
1659978135.45377,1297497.3370427,278
1659978135.45377,1297497.3370456,577
1659978135.45377,1297497.3370484,902
1659978135.45377,1297497.3370513,964
1659978135.45377,1297497.3370666,487
1659978135.45377,1297497.3370801,-139
1659978135.45377,1297497.3370925,-160
1659978135.45377,1297497.3371011,109
1659978135.45377,1297497.3371055,57
1659978135.45377,1297497.3371118,-27
1659978135.45377,1297497.8252413,32
1659978135.45377,1297497.8252641,34
1659978135.74651,1297497.8252734,4
1659978135.74651,1297497.8252783,30
1659978135.74651,1297497.8252823,46
1659978135.74651,1297497.825286,37
1659978135.74651,1297497.8252906,41
1659978135.74651,1297497.8252946,48
1659978135.74651,1297497.8252994,41
1659978135.74651,1297497.825304,37
1659978135.74651,1297497.825308,48
1659978135.74651,1297497.825312,60
1659978135.74651,1297497.8253173,62
1659978135.74651,1297497.8253218,64
1659978135.74651,1297497.8253259,69
1659978135.74651,1297497.82533,64
1659978135.74651,1297497.825334,57
1659978135.74651,1297497.8253382,48
1659978135.74651,1297497.8253426,25
1659978135.74651,1297497.825347,6
1659978135.74651,1297497.8253522,-4
1659978135.74651,1297497.8253564,-30
1659978135.74651,1297497.8253612,-41
1659978135.74651,1297497.8253653,-23
1659978135.74651,1297497.8253696,-9
1659978135.74651,1297497.8253738,-2
1659978135.74651,1297497.825378,9
1659978135.74651,1297497.8253821,11
1659978135.74651,1297497.8253865,11
1659978135.74651,1297497.8253905,13
1659978135.74651,1297497.8253946,18
1659978135.74651,1297497.8253991,20
1659978135.74651,1297497.8254034,27
1659978135.74651,1297497.8254099,32
1659978135.74651,1297497.8254145,39
1659978135.74651,1297497.8254213,46
1659978135.74651,1297497.8254262,51
1659978135.74651,1297497.825439,53
1659978135.74651,1297497.825446,60
1659978135.74651,1297497.8254505,64
1659978135.74651,1297497.8254566,62
1659978135.74651,1297497.8254619,62
1659978135.74651,1297497.8254683,64
1659978135.74651,1297497.8254726,71
1659978135.74651,1297497.8254792,69
1659978135.74651,1297497.8254839,62
1659978135.74651,1297497.8254909,62
1659978135.74651,1297497.8254984,64
1659978135.74651,1297497.8255049,64
1659978135.74651,1297497.8255095,69
1659978135.74651,1297497.8255158,76
1659978135.74651,1297497.8255206,78
1659978135.80934,1297497.8255271,78
1659978135.80934,1297497.8255319,78
1659978135.80934,1297497.8255385,81
1659978135.80934,1297497.8255432,92
1659978135.80934,1297497.8255491,120
1659978135.80934,1297497.8255537,143
1659978135.80934,1297497.8255581,134
1659978135.80934,1297497.825564,109
1659978135.80934,1297497.8255704,90
1659978135.80934,1297497.8255772,85
1659978135.80934,1297497.8255839,90
1659978135.80934,1297497.8255888,99
1659978135.80934,1297497.8255955,102
1659978135.80934,1297497.8256009,99
1659978135.80934,1297497.8256073,109
1659978135.80934,1297497.8256117,178
1659978135.80934,1297497.8256178,391
1659978135.80934,1297497.8256223,718
1659978135.80934,1297497.8256284,953
1659978135.80934,1297497.8256327,776
1659978135.80934,1297497.8256389,141
1659978135.80934,1297498.409416,-238
1659978135.80934,1297498.4094397,-20
1659978135.80934,1297498.4094498,111
1659978136.09368,1297498.4094584,-25
1659978136.09368,1297498.4094651,-30
1659978136.09368,1297498.4094707,23
1659978136.09368,1297498.409475,-9
1659978136.09368,1297498.4094791,-13
1659978136.09368,1297498.4094834,20
1659978136.09368,1297498.4094877,23
1659978136.09368,1297498.4094923,18
1659978136.09368,1297498.4094965,18
1659978136.09368,1297498.4095011,9
1659978136.09368,1297498.4095056,11
1659978136.09368,1297498.4095104,25
1659978136.09368,1297498.4095149,30
1659978136.09368,1297498.4095191,37
1659978136.09368,1297498.4095231,44
1659978136.09368,1297498.4095268,37
1659978136.09368,1297498.4095307,34
1659978136.09368,1297498.4095346,41
1659978136.09368,1297498.4095385,44
1659978136.09368,1297498.4095421,34
1659978136.09368,1297498.4095458,16
1659978136.09368,1297498.4095494,2
1659978136.09368,1297498.4095535,-4
1659978136.09368,1297498.4095575,-6
1659978136.09368,1297498.409563,-2
1659978136.09368,1297498.409686,13
1659978136.09368,1297498.4096962,25
1659978136.09368,1297498.4097029,30
1659978136.09368,1297498.4097451,39
1659978136.09368,1297498.4097546,51
1659978136.09368,1297498.4097598,51
1659978136.09368,1297498.4097647,51
1659978136.09368,1297498.4097696,51
1659978136.09368,1297498.4097742,48
1659978136.09368,1297498.4097788,51
1659978136.09368,1297498.4097835,55
1659978136.09368,1297498.4097881,62
1659978136.09368,1297498.4097928,69
1659978136.09368,1297498.4097973,71
1659978136.09368,1297498.4098017,74
1659978136.09368,1297498.4098061,76
1659978136.09368,1297498.4098105,74
1659978136.09368,1297498.4098149,74
1659978136.09368,1297498.4098194,81
1659978136.09368,1297498.4098238,81
1659978136.09368,1297498.4098281,76
1659978136.09368,1297498.4098325,78
1659978136.09368,1297498.409837,81
1659978136.09368,1297498.4098414,83
1659978136.09368,1297498.4098458,85
1659978136.10665,1297498.4098502,85
1659978136.10665,1297498.4098546,83
1659978136.10665,1297498.4098589,81
1659978136.10665,1297498.4098632,83
1659978136.10665,1297498.4098676,90
1659978136.10665,1297498.409872,102
1659978136.10665,1297498.4098763,118
1659978136.10665,1297498.4098809,129
1659978136.10665,1297498.4098852,122
1659978136.10665,1297498.4098896,99
1659978136.10665,1297498.4098941,78
1659978136.10665,1297498.4098992,71
1659978136.10665,1297498.4099035,74
1659978136.10665,1297498.4099079,76
1659978136.10665,1297498.4099123,76
1659978136.10665,1297498.4099167,71
1659978136.10665,1297498.4099213,78
1659978136.10665,1297498.4099257,134
1659978136.10665,1297498.4099302,303
1659978136.10665,1297498.409934,593
1659978136.10665,1297498.9941261,862
1659978136.10665,1297498.9941431,825
1659978136.10665,1297498.9941481,289
1659978136.10665,1297498.9941801,-222
1659978136.68466,1297498.9941929,-113
1659978136.68466,1297498.9941998,97
1659978136.68466,1297498.9942036,0
1659978136.68466,1297498.9942073,-41
1659978136.68466,1297498.9942108,20
1659978136.68466,1297498.9942143,-9
1659978136.68466,1297498.9942179,-34
1659978136.68466,1297498.9942214,-2
1659978136.68466,1297498.994225,4
1659978136.68466,1297498.9942285,-9
1659978136.68466,1297498.9942321,-6
1659978136.68466,1297498.9942358,-13
1659978136.68466,1297498.9942395,-18
1659978136.68466,1297498.994243,-2
1659978136.68466,1297498.9942466,13
1659978136.68466,1297498.9942502,25
1659978136.68466,1297498.9942538,39
1659978136.68466,1297498.9942573,44
1659978136.68466,1297498.9942608,46
1659978136.68466,1297498.9942642,51
1659978136.68466,1297498.9942678,51
1659978136.68466,1297498.9942713,41
1659978136.68466,1297498.9942756,25
1659978136.68466,1297498.9942822,4
1659978136.68466,1297498.9942922,-9
1659978136.68466,1297498.9942978,-9
1659978136.68466,1297498.9943028,-4
1659978136.68466,1297498.9943076,6
1659978136.68466,1297498.9943122,20
1659978136.68466,1297498.9943173,34
1659978136.68466,1297498.9943214,39
1659978136.68466,1297498.9943255,44
1659978136.68466,1297498.9943297,51
1659978136.68466,1297498.9943338,55
1659978136.68466,1297498.994338,60
1659978136.68466,1297498.9943423,62
1659978136.68466,1297498.9943473,62
1659978136.68466,1297498.9943517,67
1659978136.68466,1297498.9943563,74
1659978136.68466,1297498.9943612,78
1659978136.68466,1297498.9943662,83
1659978136.68466,1297498.9943708,90
1659978136.68466,1297498.9943805,85
1659978136.68466,1297498.9943876,78
1659978136.68466,1297498.9943926,83
1659978136.68466,1297498.9943995,90
1659978136.68466,1297498.9944071,92
1659978136.68466,1297498.994412,88
1659978136.68466,1297498.994417,71
1659978136.68466,1297498.994424,62
1659978136.69762,1297498.9944315,71
1659978136.69762,1297498.9944409,76
1659978136.69762,1297498.994447,71
1659978136.69762,1297498.9944559,74
1659978136.69762,1297498.9944609,69
1659978136.69762,1297498.9944648,67
1659978136.69762,1297498.9944687,81
1659978136.69762,1297498.9944738,111
1659978136.69762,1297498.9944783,129
1659978136.69762,1297498.9944828,120
1659978136.69762,1297498.9944876,97
1659978136.69762,1297498.9944923,78
1659978136.69762,1297498.994521,74
1659978136.69762,1297498.9945438,78
1659978136.69762,1297498.9945492,85
1659978136.69762,1297498.9945522,85
1659978136.69762,1297498.9945549,83
1659978136.69762,1297498.9946097,90
1659978136.69762,1297498.9946249,153
1659978136.69762,1297499.5789602,347
1659978136.69762,1297499.5789823,649
1659978136.69762,1297499.5789932,872
1659978136.69762,1297499.579004,705
1659978136.69762,1297499.5790132,99
1659978137.31604,1297499.5790226,-255
1659978137.31604,1297499.5790322,-39
1659978137.31604,1297499.5790383,85
1659978137.31604,1297499.5790429,-46
1659978137.31604,1297499.579047,-39
1659978137.31604,1297499.5790514,18
1659978137.31604,1297499.5790556,-25
1659978137.31604,1297499.5790603,-51
1659978137.31604,1297499.579065,-23
1659978137.31604,1297499.5790725,-16
1659978137.31604,1297499.5790773,-16
1659978137.31604,1297499.5790836,0
1659978137.31604,1297499.5790885,9
1659978137.31604,1297499.5790951,11
1659978137.31604,1297499.5791022,23
1659978137.31604,1297499.5791089,37
1659978137.31604,1297499.5791138,44
1659978137.31604,1297499.5791256,55
1659978137.31604,1297499.5791329,69
1659978137.31604,1297499.5791392,71
1659978137.31604,1297499.5791461,69
1659978137.31604,1297499.5791532,67
1659978137.31604,1297499.5791583,60
1659978137.31604,1297499.5791614,46
1659978137.31604,1297499.5791645,34
1659978137.31604,1297499.5791674,27
1659978137.31604,1297499.5791704,25
1659978137.31604,1297499.5791733,32
1659978137.31604,1297499.5791761,46
1659978137.31604,1297499.5791791,57
1659978137.31604,1297499.579182,69
1659978137.31604,1297499.5791849,74
1659978137.31604,1297499.5791877,69
1659978137.31604,1297499.5791907,69
1659978137.31604,1297499.5791937,74
1659978137.31604,1297499.5791965,78
1659978137.31604,1297499.5791995,85
1659978137.31604,1297499.5792025,90
1659978137.31604,1297499.5792054,85
1659978137.31604,1297499.5792084,76
1659978137.31604,1297499.5792113,76
1659978137.31604,1297499.5792143,83
1659978137.31604,1297499.5792171,88
1659978137.31604,1297499.5792201,90
1659978137.31604,1297499.5792231,90
1659978137.31604,1297499.579226,81
1659978137.31604,1297499.579229,76
1659978137.31604,1297499.5792319,78
1659978137.31604,1297499.5792349,85
1659978137.31604,1297499.5792378,88
1659978137.329,1297499.5792406,85
1659978137.329,1297499.5792436,83
1659978137.329,1297499.5792465,81
1659978137.329,1297499.5792494,85
1659978137.329,1297499.5792524,97
1659978137.329,1297499.5792555,118
1659978137.329,1297499.5792585,141
1659978137.329,1297499.5792617,141
1659978137.329,1297499.579268,120
1659978137.329,1297499.579271,99
1659978137.329,1297499.5792739,90
1659978137.329,1297499.579277,92
1659978137.329,1297499.5792799,99
1659978137.329,1297499.5792829,102
1659978137.329,1297499.5792858,97
1659978137.329,1297499.5792887,92
1659978137.329,1297499.5792915,113
1659978137.329,1297499.5792944,227
1659978137.329,1297500.2127621,477
1659978137.329,1297500.212783,767
1659978137.329,1297500.2127926,837
1659978137.329,1297500.2127953,422
1659978137.329,1297500.2127975,-129
1659978137.329,1297500.2127996,-134
1659978137.85512,1297500.2128018,113
1659978137.85512,1297500.2128038,62
1659978137.85512,1297500.2128057,-27
1659978137.85512,1297500.2128076,23
1659978137.85512,1297500.2128101,34
1659978137.85512,1297500.2128163,6
1659978137.85512,1297500.2128226,25
1659978137.85512,1297500.2128264,39
1659978137.85512,1297500.2128303,20
1659978137.85512,1297500.212837,6
1659978137.85512,1297500.212842,13
1659978137.85512,1297500.2128504,30
1659978137.85512,1297500.2128585,39
1659978137.85512,1297500.2128656,44
1659978137.85512,1297500.212875,48
1659978137.85512,1297500.2128793,41
1659978137.85512,1297500.2128926,39
1659978137.85512,1297500.2129026,57
1659978137.85512,1297500.2129084,62
1659978137.85512,1297500.2129212,53
1659978137.85512,1297500.2129312,44
1659978137.85512,1297500.2129363,32
1659978137.85512,1297500.2129502,13
1659978137.85512,1297500.2129601,9
1659978137.85512,1297500.2129666,11
1659978137.85512,1297500.2129791,16
1659978137.85512,1297500.2129865,25
1659978137.85512,1297500.2129943,39
1659978137.85512,1297500.2130008,48
1659978137.85512,1297500.2130095,57
1659978137.85512,1297500.2130172,60
1659978137.85512,1297500.2130253,48
1659978137.85512,1297500.2130305,37
1659978137.85512,1297500.2130412,44
1659978137.85512,1297500.2130448,51
1659978137.85512,1297500.2130542,48
1659978137.85512,1297500.2130607,51
1659978137.85512,1297500.2130682,60
1659978137.85512,1297500.2130741,62
1659978137.85512,1297500.2130808,64
1659978137.85512,1297500.2130846,67
1659978137.85512,1297500.2130915,71
1659978137.85512,1297500.2130962,71
1659978137.85512,1297500.2131035,69
1659978137.85512,1297500.2131096,67
1659978137.85512,1297500.2131174,71
1659978137.85512,1297500.2131461,78
1659978137.85512,1297500.2131578,81
1659978137.85512,1297500.2131654,81
1659978137.85512,1297500.2131729,85
1659978137.86709,1297500.2133362,95
1659978137.86709,1297500.2133454,115
1659978137.86709,1297500.2133496,139
1659978137.86709,1297500.2133554,136
1659978137.86709,1297500.2133596,113
1659978137.86709,1297500.2133653,90
1659978137.86709,1297500.21337,78
1659978137.86709,1297500.2133765,83
1659978137.86709,1297500.2133822,90
1659978137.86709,1297500.2133865,90
1659978137.86709,1297500.213392,90
1659978137.86709,1297500.2134039,95
1659978137.86709,1297500.2134077,125
1659978137.86709,1297500.2134131,259
1659978137.86709,1297500.2134169,538
1659978137.86709,1297500.2134221,816
1659978137.86709,1297500.2134258,807
1659978137.86709,1297500.7488335,303
1659978137.86709,1297500.7488551,-190
1659978137.86709,1297500.7488657,-83
1659978137.86709,1297500.7488731,127
1659978137.86709,1297500.748882,25
1659978137.86709,1297500.7488904,-20
1659978137.86709,1297500.7489004,51
1659978138.29955,1297500.7489108,46
1659978138.29955,1297500.7489179,25
1659978138.29955,1297500.7489226,51
1659978138.29955,1297500.7489277,55
1659978138.29955,1297500.7489334,37
1659978138.29955,1297500.7489386,32
1659978138.29955,1297500.748943,37
1659978138.29955,1297500.7489484,41
1659978138.29955,1297500.7489537,51
1659978138.29955,1297500.7489595,62
1659978138.29955,1297500.7489671,62
1659978138.29955,1297500.7489781,51
1659978138.29955,1297500.748989,53
1659978138.29955,1297500.7489968,60
1659978138.29955,1297500.7490025,57
1659978138.29955,1297500.7490116,53
1659978138.29955,1297500.7490186,39
1659978138.29955,1297500.7490241,4
1659978138.29955,1297500.7490335,-27
1659978138.29955,1297500.7490404,-27
1659978138.29955,1297500.7490529,-20
1659978138.29955,1297500.7490629,-16
1659978138.29955,1297500.7490706,2
1659978138.29955,1297500.7490773,13
1659978138.29955,1297500.7490859,6
1659978138.29955,1297500.7490942,4
1659978138.29955,1297500.749105,11
1659978138.29955,1297500.7491133,20
1659978138.29955,1297500.749123,27
1659978138.29955,1297500.7491338,27
1659978138.29955,1297500.7491422,27
1659978138.29955,1297500.7491476,32
1659978138.29955,1297500.749154,41
1659978138.29955,1297500.7491573,48
1659978138.29955,1297500.7491671,51
1659978138.29955,1297500.7491707,53
1659978138.29955,1297500.7491792,55
1659978138.29955,1297500.7491916,53
1659978138.29955,1297500.7491997,55
1659978138.29955,1297500.7492032,62
1659978138.29955,1297500.7492105,62
1659978138.29955,1297500.7492611,60
1659978138.29955,1297500.7492687,60
1659978138.29955,1297500.7492727,64
1659978138.29955,1297500.749278,74
1659978138.29955,1297500.7492815,95
1659978138.29955,1297500.749287,118
1659978138.29955,1297500.7492916,125
1659978138.29955,1297500.7493238,106
1659978138.29955,1297500.7493325,81
1659978138.3155,1297500.7493364,69
1659978138.3155,1297500.7493416,74
1659978138.3155,1297500.7493451,78
1659978138.3155,1297500.7493501,78
1659978138.3155,1297500.749354,78
1659978138.3155,1297500.7493597,81
1659978138.3155,1297500.7493643,95
1659978138.3155,1297500.7493682,192
1659978138.3155,1297500.7493742,438
1659978138.3155,1297500.7493781,735
1659978138.3155,1297500.7493835,804
1659978138.3155,1297500.7493871,380
1659978138.3155,1297500.7493923,-162
1659978138.3155,1297500.7493961,-141
1659978138.3155,1297500.7494012,111
1659978138.3155,1297500.7494047,53
1659978138.3155,1297501.1897568,-20
1659978138.3155,1297501.1897766,48
1659978138.3155,1297501.1897869,55
1659978138.3155,1297501.1897952,23
1659978138.3155,1297501.1898045,41
1659978138.3155,1297501.1898145,53
1659978138.3155,1297501.1898233,46
1659978138.3155,1297501.1898322,55
1659978138.97054,1297501.1898385,62
1659978138.97054,1297501.1898424,57
1659978138.97054,1297501.1898463,69
1659978138.97054,1297501.1898503,83
1659978138.97054,1297501.1898544,88
1659978138.97054,1297501.189858,92
1659978138.97054,1297501.1898617,88
1659978138.97054,1297501.1898654,71
1659978138.97054,1297501.1898691,64
1659978138.97054,1297501.1898728,55
1659978138.97054,1297501.1898768,30
1659978138.97054,1297501.189881,16
1659978138.97054,1297501.1898854,6
1659978138.97054,1297501.1898893,-25
1659978138.97054,1297501.189895,-48
1659978138.97054,1297501.1899011,-46
1659978138.97054,1297501.1899043,-32
1659978138.97054,1297501.1899096,-16
1659978138.97054,1297501.1899152,-2
1659978138.97054,1297501.1899217,-4
1659978138.97054,1297501.1899247,-9
1659978138.97054,1297501.1899278,-4
1659978138.97054,1297501.1899309,2
1659978138.97054,1297501.1899337,11
1659978138.97054,1297501.1899367,23
1659978138.97054,1297501.1899399,27
1659978138.97054,1297501.1899466,27
1659978138.97054,1297501.189953,34
1659978138.97054,1297501.1899616,37
1659978138.97054,1297501.1899698,41
1659978138.97054,1297501.1899767,46
1659978138.97054,1297501.1899829,48
1659978138.97054,1297501.1899885,48
1659978138.97054,1297501.1899932,51
1659978138.97054,1297501.1899983,48
1659978138.97054,1297501.1900014,51
1659978138.97054,1297501.1900048,64
1659978138.97054,1297501.19001,78
1659978138.97054,1297501.1900134,95
1659978138.97054,1297501.1900204,113
1659978138.97054,1297501.1900285,109
1659978138.97054,1297501.1900374,90
1659978138.97054,1297501.1900428,76
1659978138.97054,1297501.1900466,67
1659978138.97054,1297501.1900536,64
1659978138.97054,1297501.1900576,67
1659978138.97054,1297501.190068,64
1659978138.97054,1297501.1900711,62
1659978138.97054,1297501.1900768,67
1659978138.97054,1297501.1900808,97
1659978138.98151,1297501.1900869,227
1659978138.98151,1297501.1900902,500
1659978138.98151,1297501.1900953,788
1659978138.98151,1297501.1900986,776
1659978138.98151,1297501.1901039,276
1659978138.98151,1297501.1901075,-199
1659978138.98151,1297501.1901133,-85
1659978138.98151,1297501.1901185,118
1659978138.98151,1297501.190122,18
1659978138.98151,1297501.1901271,-20
1659978138.98151,1297501.1901307,53
1659978138.98151,1297501.1901384,51
1659978138.98151,1297501.1901419,32
1659978138.98151,1297501.1901469,55
1659978138.98151,1297501.1901517,62
1659978138.98151,1297501.8705541,60
1659978138.98151,1297501.8705702,71
1659978138.98151,1297501.8705788,83
1659978138.98151,1297501.8705849,88
1659978138.98151,1297501.8705918,92
1659978138.98151,1297501.870597,85
1659978138.98151,1297501.8706036,81
1659978138.98151,1297501.8706217,92
1659978138.98151,1297501.8706287,92
1659978139.41649,1297501.8706341,85
1659978139.41649,1297501.8706402,83
1659978139.41649,1297501.8706457,60
1659978139.41649,1297501.8706511,25
1659978139.41649,1297501.8706569,9
1659978139.41649,1297501.8706627,-6
1659978139.41649,1297501.8706672,-27
1659978139.41649,1297501.8706708,-34
1659978139.41649,1297501.8706739,-30
1659978139.41649,1297501.8706772,-25
1659978139.41649,1297501.8706806,-20
1659978139.41649,1297501.8706837,-11
1659978139.41649,1297501.8706867,-4
1659978139.41649,1297501.8706902,-2
1659978139.41649,1297501.8706958,-6
1659978139.41649,1297501.8707004,-9
1659978139.41649,1297501.8707066,2
1659978139.41649,1297501.8707116,13
1659978139.41649,1297501.8707167,16
1659978139.41649,1297501.8707205,18
1659978139.41649,1297501.8707257,25
1659978139.41649,1297501.8707301,27
1659978139.41649,1297501.8707343,30
1659978139.41649,1297501.8707393,34
1659978139.41649,1297501.8707433,44
1659978139.41649,1297501.8707486,48
1659978139.41649,1297501.8707541,44
1659978139.41649,1297501.8707601,41
1659978139.41649,1297501.8707638,46
1659978139.41649,1297501.8707698,57
1659978139.41649,1297501.8707779,74
1659978139.41649,1297501.8707823,99
1659978139.41649,1297501.8707882,113
1659978139.41649,1297501.8707929,102
1659978139.41649,1297501.8707988,78
1659978139.41649,1297501.8708032,62
1659978139.41649,1297501.8708089,60
1659978139.41649,1297501.8708134,57
1659978139.41649,1297501.8708194,53
1659978139.41649,1297501.8708241,57
1659978139.41649,1297501.8708299,62
1659978139.41649,1297501.8708344,69
1659978139.41649,1297501.8708398,139
1659978139.41649,1297501.8708453,357
1659978139.41649,1297501.8708515,688
1659978139.41649,1297501.8708561,916
1659978139.41649,1297501.8708617,679
1659978139.41649,1297501.8708659,39
1659978139.41649,1297501.8708719,-213
1659978139.41649,1297501.8708762,44
1659978139.42746,1297501.8708837,104
1659978139.42746,1297501.8708888,-18
1659978139.42746,1297501.8708946,25
1659978139.42746,1297501.8708993,71
1659978139.42746,1297501.8709051,39
1659978139.42746,1297501.8709088,46
1659978139.42746,1297501.8709142,71
1659978139.42746,1297501.8709186,67
1659978139.42746,1297501.8709239,71
1659978139.42746,1297501.8709287,88
1659978139.42746,1297501.8709369,90
1659978139.42746,1297501.8709427,95
1659978139.42746,1297501.8709481,106
1659978139.42746,1297501.8709512,120
1659978139.42746,1297502.3095267,129
1659978139.42746,1297502.3095437,132
1659978139.42746,1297502.3095518,134
1659978139.42746,1297502.3095583,132
1659978139.42746,1297502.3095643,120
1659978139.42746,1297502.3095679,102
1659978139.42746,1297502.3095746,85
1659978139.42746,1297502.3095784,71
1659978139.42746,1297502.3095821,55
1659978139.42746,1297502.3096022,41
1659978140.04938,1297502.3096239,41
1659978140.04938,1297502.309629,57
1659978140.04938,1297502.3096323,76
1659978140.04938,1297502.3096357,92
1659978140.04938,1297502.309639,92
1659978140.04938,1297502.3096434,76
1659978140.04938,1297502.3096488,71
1659978140.04938,1297502.3096529,83
1659978140.04938,1297502.3096565,92
1659978140.04938,1297502.30966,92
1659978140.04938,1297502.3096635,88
1659978140.04938,1297502.3096691,71
1659978140.04938,1297502.3096721,60
1659978140.04938,1297502.3096749,62
1659978140.04938,1297502.3096778,64
1659978140.04938,1297502.3096807,62
1659978140.04938,1297502.3096842,57
1659978140.04938,1297502.3096876,48
1659978140.04938,1297502.309691,41
1659978140.04938,1297502.3096942,46
1659978140.04938,1297502.3096972,53
1659978140.04938,1297502.3097004,53
1659978140.04938,1297502.3097036,60
1659978140.04938,1297502.3097067,71
1659978140.04938,1297502.3097099,83
1659978140.04938,1297502.3097138,104
1659978140.04938,1297502.3097173,109
1659978140.04938,1297502.3097206,83
1659978140.04938,1297502.3097239,60
1659978140.04938,1297502.3097274,53
1659978140.04938,1297502.3097308,51
1659978140.04938,1297502.3097362,51
1659978140.04938,1297502.3097397,60
1659978140.04938,1297502.3097436,71
1659978140.04938,1297502.309749,78
1659978140.04938,1297502.3097525,102
1659978140.04938,1297502.3097564,222
1659978140.04938,1297502.3097619,500
1659978140.04938,1297502.30977,825
1659978140.04938,1297502.3097799,883
1659978140.04938,1297502.3097922,394
1659978140.04938,1297502.3097979,-162
1659978140.04938,1297502.3098023,-102
1659978140.04938,1297502.3098104,132
1659978140.04938,1297502.3098223,44
1659978140.04938,1297502.3098287,-9
1659978140.04938,1297502.3098354,71
1659978140.04938,1297502.3098448,71
1659978140.04938,1297502.3098561,44
1659978140.04938,1297502.3098658,69
1659978140.0599,1297502.3098723,88
1659978140.0599,1297502.3098763,83
1659978140.0599,1297502.3098818,90
1659978140.0599,1297502.3098867,106
1659978140.0599,1297502.3098928,115
1659978140.0599,1297502.3099015,118
1659978140.0599,1297502.3099117,122
1659978140.0599,1297502.3099248,139
1659978140.0599,1297502.3099326,148
1659978140.0599,1297502.3099362,141
1659978140.0599,1297502.309949,134
1659978140.0599,1297502.3099589,129
1659978140.0599,1297502.3099639,122
1659978140.0599,1297502.944177,106
1659978140.0599,1297502.9441976,88
1659978140.0599,1297502.9442089,62
1659978140.0599,1297502.9442154,51
1659978140.0599,1297502.9442223,48
1659978140.0599,1297502.9442261,44
1659978140.0599,1297502.9442316,51
1659978140.0599,1297502.9442355,76
1659978140.0599,1297502.9442411,92
1659978140.0599,1297502.9442452,99
1659978140.0599,1297502.944251,102
1659978140.58267,1297502.9442552,88
1659978140.58267,1297502.944259,74
1659978140.58267,1297502.944263,81
1659978140.58267,1297502.9442672,92
1659978140.58267,1297502.9442717,88
1659978140.58267,1297502.9442761,83
1659978140.58267,1297502.9442805,88
1659978140.58267,1297502.9442849,90
1659978140.58267,1297502.9442892,90
1659978140.58267,1297502.9442934,92
1659978140.58267,1297502.9442977,92
1659978140.58267,1297502.9443019,95
1659978140.58267,1297502.9443061,97
1659978140.58267,1297502.9443127,92
1659978140.58267,1297502.9443231,88
1659978140.58267,1297502.9443343,85
1659978140.58267,1297502.9443445,78
1659978140.58267,1297502.9443471,64
1659978140.58267,1297502.9443493,55
1659978140.58267,1297502.9443514,67
1659978140.58267,1297502.9443538,85
1659978140.58267,1297502.9443606,104
1659978140.58267,1297502.9443715,111
1659978140.58267,1297502.944375,102
1659978140.58267,1297502.944378,83
1659978140.58267,1297502.9443808,67
1659978140.58267,1297502.9443847,64
1659978140.58267,1297502.9443954,64
1659978140.58267,1297502.9444029,67
1659978140.58267,1297502.9444055,71
1659978140.58267,1297502.9444075,81
1659978140.58267,1297502.9444095,95
1659978140.58267,1297502.9444125,176
1659978140.58267,1297502.944423,408
1659978140.58267,1297502.9444309,735
1659978140.58267,1297502.9444333,923
1659978140.58267,1297502.9444354,621
1659978140.58267,1297502.9444375,-16
1659978140.58267,1297502.9444402,-197
1659978140.58267,1297502.9444498,71
1659978140.58267,1297502.9444592,97
1659978140.58267,1297502.9444617,-18
1659978140.58267,1297502.9444638,34
1659978140.58267,1297502.9444658,76
1659978140.58267,1297502.9444688,41
1659978140.58267,1297502.9444988,48
1659978140.58267,1297502.9445039,71
1659978140.58267,1297502.9445083,69
1659978140.58267,1297502.9445139,71
1659978140.58267,1297502.944521,83
1659978140.59863,1297502.9445246,85
1659978140.59863,1297502.9445283,92
1659978140.59863,1297502.9445318,104
1659978140.59863,1297502.9445353,109
1659978140.59863,1297502.9445388,115
1659978140.59863,1297502.9445422,122
1659978140.59863,1297502.9445456,118
1659978140.59863,1297502.9445491,99
1659978140.59863,1297502.9445527,88
1659978140.59863,1297502.9445565,83
1659978140.59863,1297502.94456,71
1659978140.59863,1297502.9445636,57
1659978140.59863,1297503.4815177,48
1659978140.59863,1297503.4815353,48
1659978140.59863,1297503.481541,53
1659978140.59863,1297503.4815461,69
1659978140.59863,1297503.4815509,88
1659978140.59863,1297503.4815559,102
1659978140.59863,1297503.4815611,113
1659978140.59863,1297503.4815677,113
1659978140.59863,1297503.4815724,95
1659978140.59863,1297503.4815773,78
1659978140.59863,1297503.4815822,90
1659978140.59863,1297503.481587,102
1659978141.11429,1297503.4815923,102
1659978141.11429,1297503.4815972,102
1659978141.11429,1297503.4816019,104
1659978141.11429,1297503.4816068,97
1659978141.11429,1297503.4816115,97
1659978141.11429,1297503.4816162,97
1659978141.11429,1297503.4816209,95
1659978141.11429,1297503.4816257,90
1659978141.11429,1297503.4816305,69
1659978141.11429,1297503.4816352,48
1659978141.11429,1297503.4816399,46
1659978141.11429,1297503.4816446,55
1659978141.11429,1297503.4816493,57
1659978141.11429,1297503.481654,55
1659978141.11429,1297503.4816587,51
1659978141.11429,1297503.4816634,39
1659978141.11429,1297503.4816681,27
1659978141.11429,1297503.4816732,27
1659978141.11429,1297503.4816824,34
1659978141.11429,1297503.4816874,44
1659978141.11429,1297503.4816923,62
1659978141.11429,1297503.481697,81
1659978141.11429,1297503.4817017,76
1659978141.11429,1297503.4817063,60
1659978141.11429,1297503.4817111,46
1659978141.11429,1297503.4817158,37
1659978141.11429,1297503.4817213,37
1659978141.11429,1297503.4817262,41
1659978141.11429,1297503.4817309,44
1659978141.11429,1297503.4817353,46
1659978141.11429,1297503.4817398,55
1659978141.11429,1297503.4817445,95
1659978141.11429,1297503.4817513,238
1659978141.11429,1297503.4817556,526
1659978141.11429,1297503.4817593,825
1659978141.11429,1297503.4817629,848
1659978141.11429,1297503.4817663,350
1659978141.11429,1297503.4817702,-201
1659978141.11429,1297503.4817735,-139
1659978141.11429,1297503.4817767,92
1659978141.11429,1297503.48178,0
1659978141.11429,1297503.481784,-60
1659978141.11429,1297503.4817874,23
1659978141.11429,1297503.4817911,25
1659978141.11429,1297503.4817947,0
1659978141.11429,1297503.4817983,30
1659978141.11429,1297503.481802,46
1659978141.11429,1297503.4818057,32
1659978141.11429,1297503.4818093,32
1659978141.11429,1297503.4818127,46
1659978141.12426,1297503.4818162,53
1659978141.12426,1297503.4818199,64
1659978141.12426,1297503.4818235,71
1659978141.12426,1297503.4818271,78
1659978141.12426,1297503.4818306,95
1659978141.12426,1297503.481834,104
1659978141.12426,1297503.4818376,99
1659978141.12426,1297503.4818411,95
1659978141.12426,1297503.4818447,95
1659978141.12426,1297503.4818483,83
1659978141.12426,1297503.481852,64
1659978141.12426,1297504.015864,48
1659978141.12426,1297504.0158825,41
1659978141.12426,1297504.0158929,44
1659978141.12426,1297504.015906,55
1659978141.12426,1297504.0159173,71
1659978141.12426,1297504.015926,83
1659978141.12426,1297504.0159327,92
1659978141.12426,1297504.015941,95
1659978141.12426,1297504.0159455,99
1659978141.12426,1297504.0159509,104
1659978141.12426,1297504.0159549,95
1659978141.12426,1297504.0159608,74
1659978141.12426,1297504.0159653,67
1659978141.89486,1297504.0159711,74
1659978141.89486,1297504.0159754,81
1659978141.89486,1297504.0159798,81
1659978141.89486,1297504.0159835,76
1659978141.89486,1297504.0159887,67
1659978141.89486,1297504.0159934,55
1659978141.89486,1297504.0159988,53
1659978141.89486,1297504.0160046,57
1659978141.89486,1297504.0160079,62
1659978141.89486,1297504.0160128,67
1659978141.89486,1297504.0160187,64
1659978141.89486,1297504.0160263,41
1659978141.89486,1297504.0160354,27
1659978141.89486,1297504.016041,32
1659978141.89486,1297504.0160451,30
1659978141.89486,1297504.0160482,23
1659978141.89486,1297504.0160512,20
1659978141.89486,1297504.0160543,13
1659978141.89486,1297504.0160572,11
1659978141.89486,1297504.0160601,25
1659978141.89486,1297504.0160632,51
1659978141.89486,1297504.0160661,76
1659978141.89486,1297504.0160691,78
1659978141.89486,1297504.016072,55
1659978141.89486,1297504.0160749,32
1659978141.89486,1297504.0160777,25
1659978141.89486,1297504.0160805,30
1659978141.89486,1297504.0160834,32
1659978141.89486,1297504.0160863,37
1659978141.89486,1297504.0160892,37
1659978141.89486,1297504.016092,32
1659978141.89486,1297504.0160949,67
1659978141.89486,1297504.0160979,213
1659978141.89486,1297504.0161007,496
1659978141.89486,1297504.0161035,795
1659978141.89486,1297504.0161064,837
1659978141.89486,1297504.0161093,364
1659978141.89486,1297504.0161122,-201

1659978141.89486,1297504.0161152,-166
1659978141.89486,1297504.016118,74
1659978141.89486,1297504.016121,-6
1659978141.89486,1297504.0161239,-76
1659978141.89486,1297504.0161268,-2
1659978141.89486,1297504.0161298,2
1659978141.89486,1297504.0161326,-18
1659978141.89486,1297504.0161355,9
1659978141.89486,1297504.0161383,30
1659978141.89486,1297504.0161412,25
1659978141.89486,1297504.0161441,30
1659978141.89486,1297504.016147,41
1659978141.90583,1297504.01615,44
1659978141.90583,1297504.016153,60
1659978141.90583,1297504.0161559,81
1659978141.90583,1297504.0161588,90
1659978141.90583,1297504.0161617,90
1659978141.90583,1297504.0161756,95
1659978141.90583,1297504.0161802,102
1659978141.90583,1297504.0161853,102
1659978141.90583,1297504.0161887,92
1659978141.90583,1297504.0161937,81
1659978141.90583,1297504.7956271,64
1659978141.90583,1297504.7956445,46
1659978141.90583,1297504.7956594,32
1659978141.90583,1297504.7956736,34
1659978141.90583,1297504.7956833,48
1659978141.90583,1297504.7956906,67
1659978141.90583,1297504.7956998,78
1659978141.90583,1297504.7957044,83
1659978141.90583,1297504.7957076,71
1659978141.90583,1297504.7957107,60
1659978141.90583,1297504.7957136,67
1659978141.90583,1297504.7957164,76
1659978141.90583,1297504.7957193,71
1659978141.90583,1297504.7957222,64
1659978142.28362,1297504.7957264,51
1659978142.28362,1297504.7957333,41
1659978142.28362,1297504.79574,48
1659978142.28362,1297504.7957443,57
1659978142.28362,1297504.7957491,55
1659978142.28362,1297504.7957534,53
1659978142.28362,1297504.7957596,55
1659978142.28362,1297504.7957634,55
1659978142.28362,1297504.795768,55
1659978142.28362,1297504.7957718,55
1659978142.28362,1297504.7957778,51
1659978142.28362,1297504.7957836,41
1659978142.28362,1297504.7957885,37
1659978142.28362,1297504.7957937,34
1659978142.28362,1297504.7957973,34
1659978142.28362,1297504.7958006,34
1659978142.28362,1297504.7958042,30
1659978142.28362,1297504.7958076,32
1659978142.28362,1297504.7958152,44
1659978142.28362,1297504.7958186,53
1659978142.28362,1297504.7958223,69
1659978142.28362,1297504.7958283,83
1659978142.28362,1297504.7958344,76
1659978142.28362,1297504.7958431,55
1659978142.28362,1297504.7958484,44
1659978142.28362,1297504.795857,39
1659978142.28362,1297504.7958639,39
1659978142.28362,1297504.7958711,44
1659978142.28362,1297504.7958759,48
1659978142.28362,1297504.7958817,51
1659978142.28362,1297504.7958851,64
1659978142.28362,1297504.7958886,136
1659978142.28362,1297504.7958918,331
1659978142.28362,1297504.7958967,640
1659978142.28362,1297504.7958998,855
1659978142.28362,1297504.7959058,642
1659978142.28362,1297504.7959122,30
1659978142.28362,1297504.7959198,-252
1659978142.28362,1297504.7959263,-9
1659978142.28362,1297504.7959343,78
1659978142.28362,1297504.7959388,-48
1659978142.28362,1297504.7959454,-20
1659978142.28362,1297504.7959519,46
1659978142.28362,1297504.7959576,18
1659978142.28362,1297504.795961,13
1659978142.28362,1297504.7959705,39
1659978142.28362,1297504.7959737,41
1659978142.28362,1297504.7959768,44
1659978142.28362,1297504.7959801,57
1659978142.28362,1297504.7959833,67
1659978142.29359,1297504.7959866,74
1659978142.29359,1297504.7959897,85
1659978142.29359,1297504.7959933,88
1659978142.29359,1297504.7959968,95
1659978142.29359,1297504.7960001,111
1659978142.29359,1297504.7960065,120
1659978142.29359,1297504.7960113,118
1659978142.29359,1297504.7960151,106
1659978142.29359,1297504.796018,92
1659978142.29359,1297505.1860366,81
1659978142.29359,1297505.1860655,69
1659978142.29359,1297505.186079,57
1659978142.29359,1297505.1860879,55
1659978142.29359,1297505.1860962,55
1659978142.29359,1297505.1861025,62
1659978142.29359,1297505.1861096,81
1659978142.29359,1297505.1861127,95
1659978142.29359,1297505.1861156,95
1659978142.29359,1297505.1861185,92
1659978142.29359,1297505.1861332,85
1659978142.29359,1297505.1861464,67
1659978142.29359,1297505.1861599,51
1659978142.29359,1297505.1861732,60
1659978142.29359,1297505.1861864,78
1659978142.92471,1297505.1861988,76
1659978142.92471,1297505.1862073,74
1659978142.92471,1297505.1862164,71
1659978142.92471,1297505.1862226,64
1659978142.92471,1297505.186231,62
1659978142.92471,1297505.186242,62
1659978142.92471,1297505.1862554,57
1659978142.92471,1297505.1862689,53
1659978142.92471,1297505.1862752,53
1659978142.92471,1297505.1862775,51
1659978142.92471,1297505.1862796,41
1659978142.92471,1297505.1862817,41
1659978142.92471,1297505.1862838,46
1659978142.92471,1297505.1862859,46
1659978142.92471,1297505.1862879,39
1659978142.92471,1297505.1862932,34
1659978142.92471,1297505.1863032,34
1659978142.92471,1297505.1863165,41
1659978142.92471,1297505.1863294,51
1659978142.92471,1297505.1863386,67
1659978142.92471,1297505.1863412,92
1659978142.92471,1297505.1863432,99
1659978142.92471,1297505.1863453,78
1659978142.92471,1297505.1863473,48
1659978142.92471,1297505.1863493,27
1659978142.92471,1297505.1863513,25
1659978142.92471,1297505.1863533,32
1659978142.92471,1297505.1863558,30
1659978142.92471,1297505.1863578,27
1659978142.92471,1297505.1863599,34
1659978142.92471,1297505.1863625,60
1659978142.92471,1297505.1863646,150
1659978142.92471,1297505.1863666,380
1659978142.92471,1297505.1863687,698
1659978142.92471,1297505.1863708,860
1659978142.92471,1297505.1863729,549
1659978142.92471,1297505.186375,-64
1659978142.92471,1297505.1863771,-234
1659978142.92471,1297505.1863791,27
1659978142.92471,1297505.1863812,64
1659978142.92471,1297505.1863832,-46
1659978142.92471,1297505.1863852,-6
1659978142.92471,1297505.1863872,27
1659978142.92471,1297505.1863893,0
1659978142.92471,1297505.1863914,9
1659978142.92471,1297505.1863936,32
1659978142.92471,1297505.1863956,34
1659978142.92471,1297505.1863982,39
1659978142.92471,1297505.1864003,53
1659978142.92471,1297505.1864024,64
1659978142.93568,1297505.1864044,69
1659978142.93568,1297505.1864065,76
1659978142.93568,1297505.1864085,90
1659978142.93568,1297505.1864106,102
1659978142.93568,1297505.1864127,109
1659978142.93568,1297505.1864148,113
1659978142.93568,1297505.1864168,113
1659978142.93568,1297505.1864189,109
1659978142.93568,1297505.8206115,104
1659978142.93568,1297505.8206239,85
1659978142.93568,1297505.8206264,57
1659978142.93568,1297505.8206287,41
1659978142.93568,1297505.8206309,39
1659978142.93568,1297505.820633,48
1659978142.93568,1297505.820635,64
1659978142.93568,1297505.8206372,71
1659978142.93568,1297505.8206392,64
1659978142.93568,1297505.8206413,57
1659978142.93568,1297505.8206433,60
1659978142.93568,1297505.8206454,62
1659978142.93568,1297505.8206474,57
1659978142.93568,1297505.8206495,55
1659978142.93568,1297505.8206515,53
1659978142.93568,1297505.8206536,41
1659978143.46072,1297505.8206564,30
1659978143.46072,1297505.8206584,32
1659978143.46072,1297505.8206604,41
1659978143.46072,1297505.8206623,41
1659978143.46072,1297505.820665,34
1659978143.46072,1297505.820674,20
1659978143.46072,1297505.8206829,11
1659978143.46072,1297505.8206858,18
1659978143.46072,1297505.8206885,23
1659978143.46072,1297505.8206986,20
1659978143.46072,1297505.820711,20
1659978143.46072,1297505.8207188,20
1659978143.46072,1297505.8207213,20
1659978143.46072,1297505.8207235,25
1659978143.46072,1297505.8207257,25
1659978143.46072,1297505.8207277,13
1659978143.46072,1297505.8207297,6
1659978143.46072,1297505.8207375,13
1659978143.46072,1297505.8207483,27
1659978143.46072,1297505.8207519,51
1659978143.46072,1297505.8207557,76
1659978143.46072,1297505.8207576,74
1659978143.46072,1297505.8207596,55
1659978143.46072,1297505.8207634,41
1659978143.46072,1297505.8207656,30
1659978143.46072,1297505.8207677,30
1659978143.46072,1297505.8207698,39
1659978143.46072,1297505.8207718,46
1659978143.46072,1297505.8207739,51
1659978143.46072,1297505.820776,60
1659978143.46072,1297505.820778,118
1659978143.46072,1297505.8207801,303
1659978143.46072,1297505.8207823,607
1659978143.46072,1297505.8207843,837
1659978143.46072,1297505.8207864,684
1659978143.46072,1297505.8207889,97
1659978143.46072,1297505.8207911,-259
1659978143.46072,1297505.8207932,-44
1659978143.46072,1297505.8207976,95
1659978143.46072,1297505.8207997,-23
1659978143.46072,1297505.8208025,-16
1659978143.46072,1297505.8208099,46
1659978143.46072,1297505.8208164,20
1659978143.46072,1297505.8208207,13
1659978143.46072,1297505.8208248,44
1659978143.46072,1297505.8208289,48
1659978143.46072,1297505.8208338,51
1659978143.46072,1297505.8208387,64
1659978143.46072,1297505.8208454,71
1659978143.46072,1297505.8208519,76
1659978143.47169,1297505.8208616,88
1659978143.47169,1297505.8208683,102
1659978143.47169,1297505.8208741,109
1659978143.47169,1297505.8208874,109
1659978143.47169,1297505.8208959,109
1659978143.47169,1297505.8209015,109
1659978143.47169,1297505.8209075,99
1659978143.47169,1297506.3559362,90
1659978143.47169,1297506.3559581,78
1659978143.47169,1297506.3559686,67
1659978143.47169,1297506.3559794,48
1659978143.47169,1297506.3559846,30
1659978143.47169,1297506.3559868,23
1659978143.47169,1297506.3559888,30
1659978143.47169,1297506.3559912,39
1659978143.47169,1297506.3559973,39
1659978143.47169,1297506.3560076,37
1659978143.47169,1297506.3560139,32
1659978143.47169,1297506.3560238,13
1659978143.47169,1297506.3560305,0
1659978143.47169,1297506.3560424,11
1659978143.47169,1297506.356054,18
1659978143.47169,1297506.3560599,16
1659978143.47169,1297506.356062,18
1659978144.09362,1297506.3560681,23
1659978144.09362,1297506.3560789,23
1659978144.09362,1297506.3560864,27
1659978144.09362,1297506.3560898,34
1659978144.09362,1297506.3560982,39
1659978144.09362,1297506.3561088,39
1659978144.09362,1297506.3561144,32
1659978144.09362,1297506.3561233,25
1659978144.09362,1297506.3561315,27
1659978144.09362,1297506.3561427,30
1659978144.09362,1297506.3561537,27
1659978144.09362,1297506.3561614,30
1659978144.09362,1297506.3561639,34
1659978144.09362,1297506.356166,34
1659978144.09362,1297506.3561682,34
1659978144.09362,1297506.3561714,44
1659978144.09362,1297506.3561803,64
1659978144.09362,1297506.3561929,88
1659978144.09362,1297506.3561997,97
1659978144.09362,1297506.3562111,76
1659978144.09362,1297506.3562221,44
1659978144.09362,1297506.3562265,25
1659978144.09362,1297506.3562286,23
1659978144.09362,1297506.3562351,25
1659978144.09362,1297506.3562482,27
1659978144.09362,1297506.3562604,34
1659978144.09362,1297506.356274,39
1659978144.09362,1297506.3562872,62
1659978144.09362,1297506.3563009,180
1659978144.09362,1297506.3563145,442
1659978144.09362,1297506.3563279,739
1659978144.09362,1297506.3563412,814
1659978144.09362,1297506.3563545,405
1659978144.09362,1297506.3563679,-166
1659978144.09362,1297506.3563811,-192
1659978144.09362,1297506.3563944,76
1659978144.09362,1297506.3564079,48
1659978144.09362,1297506.3564215,-37
1659978144.09362,1297506.3564365,25
1659978144.09362,1297506.3564506,46
1659978144.09362,1297506.3564645,20
1659978144.09362,1297506.3564789,39
1659978144.09362,1297506.3564932,57
1659978144.09362,1297506.3565072,55
1659978144.09362,1297506.3565217,64
1659978144.09362,1297506.356536,71
1659978144.09362,1297506.3565505,69
1659978144.09362,1297506.3565645,81
1659978144.09362,1297506.3565784,99
1659978144.09362,1297506.3565925,104
1659978144.10459,1297506.3566063,106
1659978144.10459,1297506.3566202,111
1659978144.10459,1297506.3566355,111
1659978144.10459,1297506.3566491,109
1659978144.10459,1297506.3566629,97
1659978144.10459,1297506.3566778,78
1659978144.10459,1297506.989049,64
1659978144.10459,1297506.9890727,44
1659978144.10459,1297506.9890844,23
1659978144.10459,1297506.9890912,16
1659978144.10459,1297506.9891002,25
1659978144.10459,1297506.9891086,39
1659978144.10459,1297506.989117,48
1659978144.10459,1297506.9891257,53
1659978144.10459,1297506.9891343,48
1659978144.10459,1297506.9891409,48
1659978144.10459,1297506.9891497,51
1659978144.10459,1297506.9891562,53
1659978144.10459,1297506.989165,62
1659978144.10459,1297506.9891715,62
1659978144.10459,1297506.9891804,39
1659978144.10459,1297506.9891871,27
1659978144.10459,1297506.9891957,34
1659978144.10459,1297506.9892025,30
1659978144.62832,1297506.98921,23
1659978144.62832,1297506.9892154,34
1659978144.62832,1297506.9892226,34
1659978144.62832,1297506.9892295,27
1659978144.62832,1297506.9892368,34
1659978144.62832,1297506.989241,41
1659978144.62832,1297506.9892441,41
1659978144.62832,1297506.9892471,41
1659978144.62832,1297506.98925,34
1659978144.62832,1297506.9892529,16
1659978144.62832,1297506.9892557,11
1659978144.62832,1297506.9892586,25
1659978144.62832,1297506.9892617,37
1659978144.62832,1297506.9892645,53
1659978144.62832,1297506.9892674,71
1659978144.62832,1297506.9892704,62
1659978144.62832,1297506.9892733,37
1659978144.62832,1297506.9892762,23
1659978144.62832,1297506.989279,25
1659978144.62832,1297506.989282,30
1659978144.62832,1297506.9892848,34
1659978144.62832,1297506.9892876,44
1659978144.62832,1297506.9892905,44
1659978144.62832,1297506.9892934,62
1659978144.62832,1297506.9892962,157
1659978144.62832,1297506.9892992,389
1659978144.62832,1297506.9893022,702
1659978144.62832,1297506.989305,881
1659978144.62832,1297506.9893078,600
1659978144.62832,1297506.9893108,-20
1659978144.62832,1297506.9893137,-224
1659978144.62832,1297506.9893166,39
1659978144.62832,1297506.9893195,81
1659978144.62832,1297506.9893223,-37
1659978144.62832,1297506.9893252,9
1659978144.62832,1297506.989328,55
1659978144.62832,1297506.9893309,23
1659978144.62832,1297506.9893339,32
1659978144.62832,1297506.9893368,62
1659978144.62832,1297506.9893396,62
1659978144.62832,1297506.9893424,62
1659978144.62832,1297506.9893453,71
1659978144.62832,1297506.9893481,71
1659978144.62832,1297506.9893509,71
1659978144.62832,1297506.9893538,71
1659978144.62832,1297506.9893566,76
1659978144.62832,1297506.9893595,88
1659978144.62832,1297506.9893622,97
1659978144.62832,1297506.9893651,97
1659978144.62832,1297506.9893681,92
1659978144.63929,1297506.9893709,88
1659978144.63929,1297506.9893738,74
1659978144.63929,1297506.9893767,55
1659978144.63929,1297506.9893796,32
1659978144.63929,1297506.9893825,11
1659978144.63929,1297507.5269398,4
1659978144.63929,1297507.5269568,9
1659978144.63929,1297507.5269645,25
1659978144.63929,1297507.5269713,48
1659978144.63929,1297507.52698,62
1659978144.63929,1297507.5269884,64
1659978144.63929,1297507.5269952,64
1659978144.63929,1297507.5269988,64
1659978144.63929,1297507.5270029,62
1659978144.63929,1297507.5270063,57
1659978144.63929,1297507.5270097,46
1659978144.63929,1297507.5270133,46
1659978144.63929,1297507.5270171,55
1659978144.63929,1297507.5270207,57
1659978144.63929,1297507.5270242,57
1659978144.63929,1297507.5270279,64
1659978144.63929,1297507.5270319,67
1659978144.63929,1297507.5270376,55
1659978144.63929,1297507.5270415,44
1659978145.21635,1297507.5270472,44
1659978145.21635,1297507.5270508,46
1659978145.21635,1297507.5270542,41
1659978145.21635,1297507.5270578,41
1659978145.21635,1297507.5270617,34
1659978145.21635,1297507.5270654,13
1659978145.21635,1297507.5270692,9
1659978145.21635,1297507.5270726,32
1659978145.21635,1297507.5270762,55
1659978145.21635,1297507.5270799,74
1659978145.21635,1297507.5270836,74
1659978145.21635,1297507.5270873,53
1659978145.21635,1297507.5270912,32
1659978145.21635,1297507.5270953,32
1659978145.21635,1297507.5270988,39
1659978145.21635,1297507.5271021,41
1659978145.21635,1297507.5271059,46
1659978145.21635,1297507.5271097,46
1659978145.21635,1297507.5271136,44
1659978145.21635,1297507.5271195,88
1659978145.21635,1297507.5271261,264
1659978145.21635,1297507.5271302,577
1659978145.21635,1297507.5271355,867
1659978145.21635,1297507.5271396,807
1659978145.21635,1297507.5271456,222
1659978145.21635,1297507.5271512,-243
1659978145.21635,1297507.5271549,-69
1659978145.21635,1297507.5271604,113
1659978145.21635,1297507.5271643,-13
1659978145.21635,1297507.5271701,-30
1659978145.21635,1297507.5271766,46
1659978145.21635,1297507.5271827,25
1659978145.21635,1297507.5271877,13
1659978145.21635,1297507.5271941,44
1659978145.21635,1297507.5272022,44
1659978145.21635,1297507.5272104,34
1659978145.21635,1297507.527217,48
1659978145.21635,1297507.527221,57
1659978145.21635,1297507.5272243,62
1659978145.21635,1297507.527228,74
1659978145.21635,1297507.5272318,88
1659978145.21635,1297507.5272376,90
1659978145.21635,1297507.5272417,88
1659978145.21635,1297507.5272475,85
1659978145.21635,1297507.527253,90
1659978145.21635,1297507.5272567,90
1659978145.21635,1297507.5272622,76
1659978145.21635,1297507.527268,55
1659978145.21635,1297507.5272742,41
1659978145.21635,1297507.5272782,30
1659978145.22632,1297507.527284,25
1659978145.22632,1297507.5272881,23
1659978145.22632,1297507.5272922,34
1659978145.22632,1297507.5272976,60
1659978145.22632,1297508.1102612,71
1659978145.22632,1297508.1102735,64
1659978145.22632,1297508.1102761,53
1659978145.22632,1297508.1102794,55
1659978145.22632,1297508.1102814,62
1659978145.22632,1297508.1102835,64
1659978145.22632,1297508.1102856,62
1659978145.22632,1297508.1102877,60
1659978145.22632,1297508.1102897,46
1659978145.22632,1297508.1102918,41
1659978145.22632,1297508.1102939,53
1659978145.22632,1297508.1102959,55
1659978145.22632,1297508.1102979,46
1659978145.22632,1297508.1102999,41
1659978145.22632,1297508.110302,44
1659978145.22632,1297508.110304,41
1659978145.22632,1297508.110306,46
1659978145.22632,1297508.1103081,53
1659978145.22632,1297508.1103102,53
1659978145.22632,1297508.1103124,46
1659978145.74583,1297508.1103144,44
1659978145.74583,1297508.1103164,46
1659978145.74583,1297508.1103183,62
1659978145.74583,1297508.1103203,85
1659978145.74583,1297508.1103222,106
1659978145.74583,1297508.1103242,111
1659978145.74583,1297508.1103261,92
1659978145.74583,1297508.1103281,64
1659978145.74583,1297508.11033,53
1659978145.74583,1297508.1103319,57
1659978145.74583,1297508.1103337,60
1659978145.74583,1297508.1103356,69
1659978145.74583,1297508.1103375,71
1659978145.74583,1297508.1103395,57
1659978145.74583,1297508.1103414,67
1659978145.74583,1297508.1103433,190
1659978145.74583,1297508.1103453,459
1659978145.74583,1297508.1103472,760
1659978145.74583,1297508.1103491,830
1659978145.74583,1297508.110351,380
1659978145.74583,1297508.1103534,-190
1659978145.74583,1297508.11036,-153
1659978145.74583,1297508.1103705,97
1659978145.74583,1297508.1103774,16
1659978145.74583,1297508.1103816,-57
1659978145.74583,1297508.1103855,13
1659978145.74583,1297508.1103912,18
1659978145.74583,1297508.1103956,-4
1659978145.74583,1297508.1104006,23
1659978145.74583,1297508.110405,39
1659978145.74583,1297508.1104086,32
1659978145.74583,1297508.1104147,44
1659978145.74583,1297508.1104256,57
1659978145.74583,1297508.110436,62
1659978145.74583,1297508.110443,69
1659978145.74583,1297508.1104486,85
1659978145.74583,1297508.1104519,95
1659978145.74583,1297508.1104552,102
1659978145.74583,1297508.1104611,109
1659978145.74583,1297508.1104647,109
1659978145.74583,1297508.1104677,102
1659978145.74583,1297508.1104706,88
1659978145.74583,1297508.1104735,69
1659978145.74583,1297508.1104762,57
1659978145.74583,1297508.110479,46
1659978145.74583,1297508.1104819,32
1659978145.74583,1297508.1104847,30
1659978145.74583,1297508.1104877,34
1659978145.74583,1297508.1104905,44
1659978145.74583,1297508.1105081,62
1659978145.75603,1297508.1105121,78
1659978145.75603,1297508.110515,78
1659978145.75603,1297508.110518,71
1659978145.75603,1297508.6470786,69
1659978145.75603,1297508.6471023,67
1659978145.75603,1297508.6471087,64
1659978145.75603,1297508.6471134,64
1659978145.75603,1297508.647118,60
1659978145.75603,1297508.6471231,53
1659978145.75603,1297508.6471277,55
1659978145.75603,1297508.6471361,62
1659978145.75603,1297508.6471408,62
1659978145.75603,1297508.6471445,62
1659978145.75603,1297508.647148,67
1659978145.75603,1297508.6471514,60
1659978145.75603,1297508.6471558,53
1659978145.75603,1297508.6471596,57
1659978145.75603,1297508.6471659,67
1659978145.75603,1297508.6471717,67
1659978145.75603,1297508.6471776,62
1659978145.75603,1297508.6471819,48
1659978145.75603,1297508.6471851,41
1659978145.75603,1297508.6471909,64
1659978145.75603,1297508.6471975,95
1659978146.52538,1297508.6472042,90
1659978146.52538,1297508.6472117,69
1659978146.52538,1297508.6472184,46
1659978146.52538,1297508.6472227,20
1659978146.52538,1297508.6472258,13
1659978146.52538,1297508.647229,30
1659978146.52538,1297508.6472322,37
1659978146.52538,1297508.647238,34
1659978146.52538,1297508.6472436,37
1659978146.52538,1297508.6472471,62
1659978146.52538,1297508.6472514,190
1659978146.52538,1297508.6472574,466
1659978146.52538,1297508.6472613,758
1659978146.52538,1297508.6472663,772
1659978146.52538,1297508.6472714,278
1659978146.52538,1297508.6472753,-231
1659978146.52538,1297508.6472795,-132
1659978146.52538,1297508.6472844,95
1659978146.52538,1297508.6472888,2
1659978146.52538,1297508.6472919,-46
1659978146.52538,1297508.6472956,30
1659978146.52538,1297508.6472991,23
1659978146.52538,1297508.6473044,0
1659978146.52538,1297508.6473091,34
1659978146.52538,1297508.6473147,51
1659978146.52538,1297508.6473197,44
1659978146.52538,1297508.6473271,53
1659978146.52538,1297508.6473408,67
1659978146.52538,1297508.6473523,69
1659978146.52538,1297508.6473622,76
1659978146.52538,1297508.6473648,90
1659978146.52538,1297508.6473669,102
1659978146.52538,1297508.6473729,111
1659978146.52538,1297508.6473875,113
1659978146.52538,1297508.6473955,111
1659978146.52538,1297508.6474058,104
1659978146.52538,1297508.6474188,97
1659978146.52538,1297508.6474274,83
1659978146.52538,1297508.647433,57
1659978146.52538,1297508.6474402,32
1659978146.52538,1297508.6474444,27
1659978146.52538,1297508.6474586,32
1659978146.52538,1297508.6474657,41
1659978146.52538,1297508.6474745,60
1659978146.52538,1297508.6474803,74
1659978146.52538,1297508.6474835,78
1659978146.52538,1297508.6474865,81
1659978146.52538,1297508.6474895,74
1659978146.52538,1297508.6474926,71
1659978146.52538,1297508.6474957,78
1659978146.53735,1297508.6475007,81
1659978146.53735,1297508.6475036,78
1659978146.53735,1297509.4270231,74
1659978146.53735,1297509.4270418,74
1659978146.53735,1297509.4270478,71
1659978146.53735,1297509.4270516,71
1659978146.53735,1297509.4270568,71
1659978146.53735,1297509.4270603,69
1659978146.53735,1297509.4270638,69
1659978146.53735,1297509.4270671,57
1659978146.53735,1297509.427072,39
1659978146.53735,1297509.4270766,27
1659978146.53735,1297509.4270801,32
1659978146.53735,1297509.4270853,34
1659978146.53735,1297509.4270888,39
1659978146.53735,1297509.4270939,51
1659978146.53735,1297509.4270975,67
1659978146.53735,1297509.4271024,83
1659978146.53735,1297509.4271058,90
1659978146.53735,1297509.4271095,76
1659978146.53735,1297509.4271131,55
1659978146.53735,1297509.4271167,44
1659978146.53735,1297509.4271202,41
1659978146.53735,1297509.4271252,37
1659978146.8259,1297509.4271286,37
1659978146.8259,1297509.4271321,46
1659978146.8259,1297509.4271355,55
1659978146.8259,1297509.4271389,69
1659978146.8259,1297509.4271422,157
1659978146.8259,1297509.4271457,385
1659978146.8259,1297509.4271492,681
1659978146.8259,1297509.4271525,793
1659978146.8259,1297509.4271561,419
1659978146.8259,1297509.4271596,-139
1659978146.8259,1297509.4271629,-171
1659978146.8259,1297509.4271675,71
1659978146.8259,1297509.4271726,16
1659978146.8259,1297509.427177,-71
1659978146.8259,1297509.427182,9
1659978146.8259,1297509.4271858,32
1659978146.8259,1297509.4271894,4
1659978146.8259,1297509.4271943,20
1659978146.8259,1297509.4271977,32
1659978146.8259,1297509.4272011,27
1659978146.8259,1297509.4272047,41
1659978146.8259,1297509.4272082,57
1659978146.8259,1297509.427212,64
1659978146.8259,1297509.4272166,71
1659978146.8259,1297509.4272202,81
1659978146.8259,1297509.4272237,85
1659978146.8259,1297509.4272272,97
1659978146.8259,1297509.4272322,106
1659978146.8259,1297509.4272356,109
1659978146.8259,1297509.4272394,102
1659978146.8259,1297509.427243,76
1659978146.8259,1297509.4272479,55
1659978146.8259,1297509.4272522,48
1659978146.8259,1297509.4272558,41
1659978146.8259,1297509.4272592,39
1659978146.8259,1297509.4272641,41
1659978146.8259,1297509.4272676,48
1659978146.8259,1297509.4272711,62
1659978146.8259,1297509.4272747,81
1659978146.8259,1297509.4272796,92
1659978146.8259,1297509.4272847,97
1659978146.8259,1297509.4272896,95
1659978146.8259,1297509.4272938,85
1659978146.8259,1297509.4272987,81
1659978146.8259,1297509.4273028,88
1659978146.8259,1297509.4273077,95
1659978146.8259,1297509.427313,97
1659978146.8259,1297509.4273165,99
1659978146.8259,1297509.4273201,99
1659978146.8259,1297509.4273248,99
1659978146.83742,1297509.4273304,97
1659978146.83742,1297509.7196802,95
1659978146.83742,1297509.7197007,90
1659978146.83742,1297509.7197143,85
1659978146.83742,1297509.7197231,78
1659978146.83742,1297509.7197256,67
1659978146.83742,1297509.7197278,60
1659978146.83742,1297509.71973,60
1659978146.83742,1297509.7197321,67
1659978146.83742,1297509.7197341,76
1659978146.83742,1297509.7197362,90
1659978146.83742,1297509.7197382,104
1659978146.83742,1297509.7197403,99
1659978146.83742,1297509.7197424,76
1659978146.83742,1297509.7197464,57
1659978146.83742,1297509.7197573,51
1659978146.83742,1297509.7197613,51
1659978146.83742,1297509.7197686,51
1659978146.83742,1297509.7197752,48
1659978146.83742,1297509.7197868,48
1659978146.83742,1297509.7198004,53
1659978146.83742,1297509.7198093,81
1659978146.83742,1297509.7198119,199
1659978146.83742,1297509.7198141,468
1659978147.35873,1297509.7198162,756
1659978147.35873,1297509.7198183,744
1659978147.35873,1297509.7198203,236
1659978147.35873,1297509.7198224,-241
1659978147.35873,1297509.7198243,-125
1659978147.35873,1297509.7198263,81
1659978147.35873,1297509.7198282,-13
1659978147.35873,1297509.7198302,-57
1659978147.35873,1297509.7198334,13
1659978147.35873,1297509.7198412,6
1659978147.35873,1297509.7198471,-11
1659978147.35873,1297509.7198514,16
1659978147.35873,1297509.7198562,25
1659978147.35873,1297509.7198617,18
1659978147.35873,1297509.7198672,27
1659978147.35873,1297509.7198764,41
1659978147.35873,1297509.7198899,44
1659978147.35873,1297509.7198962,53
1659978147.35873,1297509.7198994,67
1659978147.35873,1297509.7199015,71
1659978147.35873,1297509.7199036,69
1659978147.35873,1297509.7199057,64
1659978147.35873,1297509.7199136,53
1659978147.35873,1297509.7199242,46
1659978147.35873,1297509.7199276,41
1659978147.35873,1297509.7199304,34
1659978147.35873,1297509.7199337,11
1659978147.35873,1297509.7199469,-11
1659978147.35873,1297509.7199534,-11
1659978147.35873,1297509.7199556,4
1659978147.35873,1297509.7199577,23
1659978147.35873,1297509.7199599,39
1659978147.35873,1297509.7199651,44
1659978147.35873,1297509.7199764,34
1659978147.35873,1297509.7199821,37
1659978147.35873,1297509.7199841,48
1659978147.35873,1297509.7199869,51
1659978147.35873,1297509.719991,55
1659978147.35873,1297509.7199932,60
1659978147.35873,1297509.7199959,62
1659978147.35873,1297509.7200042,55
1659978147.35873,1297509.7200146,53
1659978147.35873,1297509.7200275,62
1659978147.35873,1297509.7200404,67
1659978147.35873,1297509.7200537,60
1659978147.35873,1297509.7200686,53
1659978147.35873,1297509.7200817,57
1659978147.35873,1297509.720095,67
1659978147.35873,1297509.720109,69
1659978147.35873,1297509.7201223,69
1659978147.3687,1297510.2554283,64
1659978147.3687,1297510.2554511,60
1659978147.3687,1297510.2554629,62
1659978147.3687,1297510.2554695,81
1659978147.3687,1297510.2554785,97
1659978147.3687,1297510.2554849,90
1659978147.3687,1297510.2554935,67
1659978147.3687,1297510.2555002,41
1659978147.3687,1297510.2555087,30
1659978147.3687,1297510.2555168,25
1659978147.3687,1297510.2555231,25
1659978147.3687,1297510.2555321,32
1659978147.3687,1297510.2555385,39
1659978147.3687,1297510.2555472,44
1659978147.3687,1297510.2555537,78
1659978147.3687,1297510.2555619,241
1659978147.3687,1297510.2555684,535
1659978147.3687,1297510.2555775,779
1659978147.3687,1297510.2555839,635
1659978147.3687,1297510.2555925,51
1659978147.3687,1297510.2555992,-294
1659978147.3687,1297510.2556081,-74
1659978147.3687,1297510.2556146,62
1659978147.3687,1297510.2556234,-57
1659978147.84762,1297510.2556301,-51
1659978147.84762,1297510.2556362,16
1659978147.84762,1297510.2556424,-16
1659978147.84762,1297510.2556489,-41
1659978147.84762,1297510.2556551,-16
1659978147.84762,1297510.2556609,-2
1659978147.84762,1297510.2556654,-2
1659978147.84762,1297510.2556688,11
1659978147.84762,1297510.2556721,20
1659978147.84762,1297510.255677,20
1659978147.84762,1297510.255688,37
1659978147.84762,1297510.2556963,57
1659978147.84762,1297510.2557046,57
1659978147.84762,1297510.25571,48
1659978147.84762,1297510.2557173,51
1659978147.84762,1297510.2557225,55
1659978147.84762,1297510.2557312,46
1659978147.84762,1297510.2557385,25
1659978147.84762,1297510.2557472,11
1659978147.84762,1297510.255752,4
1659978147.84762,1297510.2557584,-2
1659978147.84762,1297510.2557632,-2
1659978147.84762,1297510.2557697,9
1659978147.84762,1297510.2557729,30
1659978147.84762,1297510.2557758,51
1659978147.84762,1297510.2557787,62
1659978147.84762,1297510.2557817,64
1659978147.84762,1297510.2557845,69
1659978147.84762,1297510.2557874,74
1659978147.84762,1297510.2557902,69
1659978147.84762,1297510.255793,71
1659978147.84762,1297510.2557959,81
1659978147.84762,1297510.2557989,88
1659978147.84762,1297510.2558018,92
1659978147.84762,1297510.2558046,95
1659978147.84762,1297510.2558075,102
1659978147.84762,1297510.2558105,106
1659978147.84762,1297510.2558136,104
1659978147.84762,1297510.2558164,97
1659978147.84762,1297510.2558192,97
1659978147.84762,1297510.2558222,97
1659978147.84762,1297510.255825,92
1659978147.84762,1297510.2558279,95
1659978147.84762,1297510.2558309,104
1659978147.84762,1297510.2558338,113
1659978147.84762,1297510.2558366,129
1659978147.84762,1297510.2558395,146
1659978147.84762,1297510.2558423,139
1659978147.84762,1297510.2558452,106
1659978147.84762,1297510.743252,71
1659978147.86573,1297510.743272,53
1659978147.86573,1297510.7432769,51
1659978147.86573,1297510.7432827,53
1659978147.86573,1297510.7432863,55
1659978147.86573,1297510.74329,53
1659978147.86573,1297510.7432938,57
1659978147.86573,1297510.7432988,95
1659978147.86573,1297510.7433021,243
1659978147.86573,1297510.7433054,535
1659978147.86573,1297510.7433108,807
1659978147.86573,1297510.7433156,737
1659978147.86573,1297510.7433208,178
1659978147.86573,1297510.7433241,-250
1659978147.86573,1297510.7433276,-69
1659978147.86573,1297510.7433327,111
1659978147.86573,1297510.7433359,-16
1659978147.86573,1297510.7433393,-48
1659978147.86573,1297510.7433443,11
1659978147.86573,1297510.7433488,-6
1659978147.86573,1297510.7433536,-13
1659978147.86573,1297510.7433566,20
1659978147.86573,1297510.7433601,25
1659978147.86573,1297510.7433653,6
1659978147.86573,1297510.7433703,2
1659978148.42533,1297510.7433739,16
1659978148.42533,1297510.7433774,30
1659978148.42533,1297510.7433807,39
1659978148.42533,1297510.7433838,41
1659978148.42533,1297510.7433869,37
1659978148.42533,1297510.7433901,37
1659978148.42533,1297510.7433933,37
1659978148.42533,1297510.7433965,30
1659978148.42533,1297510.7434,25
1659978148.42533,1297510.7434033,23
1659978148.42533,1297510.7434068,11
1659978148.42533,1297510.7434105,-9
1659978148.42533,1297510.7434142,-18
1659978148.42533,1297510.7434178,-11
1659978148.42533,1297510.7434229,6
1659978148.42533,1297510.7434286,25
1659978148.42533,1297510.743432,44
1659978148.42533,1297510.7434357,60
1659978148.42533,1297510.7434393,69
1659978148.42533,1297510.7434429,74
1659978148.42533,1297510.7434463,78
1659978148.42533,1297510.7434516,88
1659978148.42533,1297510.7434549,90
1659978148.42533,1297510.7434602,92
1659978148.42533,1297510.7434656,92
1659978148.42533,1297510.7434693,95
1659978148.42533,1297510.7434734,102
1659978148.42533,1297510.7434793,111
1659978148.42533,1297510.7434832,118
1659978148.42533,1297510.7434868,120
1659978148.42533,1297510.7434909,115
1659978148.42533,1297510.7434943,115
1659978148.42533,1297510.7434986,118
1659978148.42533,1297510.7435042,113
1659978148.42533,1297510.7435084,111
1659978148.42533,1297510.7435122,118
1659978148.42533,1297510.7435184,129
1659978148.42533,1297510.7435224,146
1659978148.42533,1297510.7435266,148
1659978148.42533,1297510.7435321,127
1659978148.42533,1297510.7435366,99
1659978148.42533,1297510.7435396,88
1659978148.42533,1297510.7435426,83
1659978148.42533,1297510.7435455,81
1659978148.42533,1297510.7435484,78
1659978148.42533,1297510.7435512,76
1659978148.42533,1297510.7435542,78
1659978148.42533,1297510.7435571,90
1659978148.42533,1297511.3286322,173
1659978148.42533,1297511.3286545,422
1659978148.43702,1297511.3286643,756
1659978148.43702,1297511.3286671,888
1659978148.43702,1297511.3286693,487
1659978148.43702,1297511.3286718,-125
1659978148.43702,1297511.3286739,-178
1659978148.43702,1297511.3286761,71
1659978148.43702,1297511.3286783,9
1659978148.43702,1297511.3286825,-83
1659978148.43702,1297511.3286892,0
1659978148.43702,1297511.3286938,13
1659978148.43702,1297511.3287001,-23
1659978148.43702,1297511.3287049,-4
1659978148.43702,1297511.3287109,-2
1659978148.43702,1297511.3287138,-23
1659978148.43702,1297511.3287168,-4
1659978148.43702,1297511.3287197,13
1659978148.43702,1297511.3287227,13
1659978148.43702,1297511.3287256,20
1659978148.43702,1297511.3287286,34
1659978148.43702,1297511.3287315,34
1659978148.43702,1297511.3287344,25
1659978148.43702,1297511.3287381,20
1659978148.43702,1297511.3287482,18
1659978148.43702,1297511.3287602,18
1659978149.10957,1297511.3287637,6
1659978149.10957,1297511.3287673,-9
1659978149.10957,1297511.3287701,-16
1659978149.10957,1297511.328773,-20
1659978149.10957,1297511.3287758,-23
1659978149.10957,1297511.3287785,-13
1659978149.10957,1297511.3287843,6
1659978149.10957,1297511.3287978,30
1659978149.10957,1297511.3288045,51
1659978149.10957,1297511.3288091,64
1659978149.10957,1297511.3288111,74
1659978149.10957,1297511.3288141,81
1659978149.10957,1297511.3288271,85
1659978149.10957,1297511.3288331,85
1659978149.10957,1297511.3288353,88
1659978149.10957,1297511.3288374,97
1659978149.10957,1297511.3288394,102
1659978149.10957,1297511.3288415,104
1659978149.10957,1297511.3288436,109
1659978149.10957,1297511.3288456,111
1659978149.10957,1297511.3288481,113
1659978149.10957,1297511.3288577,111
1659978149.10957,1297511.3288672,113
1659978149.10957,1297511.328871,115
1659978149.10957,1297511.3288731,118
1659978149.10957,1297511.3288752,115
1659978149.10957,1297511.3288782,115
1659978149.10957,1297511.3288912,125
1659978149.10957,1297511.3288978,141
1659978149.10957,1297511.3289002,148
1659978149.10957,1297511.3289027,141
1659978149.10957,1297511.3289048,125
1659978149.10957,1297511.328907,104
1659978149.10957,1297511.3289147,85
1659978149.10957,1297511.3289257,81
1659978149.10957,1297511.3289306,83
1659978149.10957,1297511.3289328,85
1659978149.10957,1297511.3289445,90
1659978149.10957,1297511.3289534,92
1659978149.10957,1297511.3289559,102
1659978149.10957,1297511.3289581,180
1659978149.10957,1297511.3289603,412
1659978149.10957,1297511.3289628,728
1659978149.10957,1297511.3289706,858
1659978149.10957,1297511.3289813,475
1659978149.10957,1297511.3289857,-125
1659978149.10957,1297511.3289877,-180
1659978149.10957,1297512.0105468,81
1659978149.10957,1297512.0105661,46
1659978149.10957,1297512.0105752,-46
1659978149.12154,1297512.0105796,18
1659978149.12154,1297512.0105865,34
1659978149.12154,1297512.0105916,0
1659978149.12154,1297512.0105974,20
1659978149.12154,1297512.0106011,44
1659978149.12154,1297512.0106062,39
1659978149.12154,1297512.0106116,44
1659978149.12154,1297512.0106151,46
1659978149.12154,1297512.0106187,32
1659978149.12154,1297512.010624,32
1659978149.12154,1297512.0106277,51
1659978149.12154,1297512.0106329,48
1659978149.12154,1297512.0106366,34
1659978149.12154,1297512.0106449,34
1659978149.12154,1297512.0106516,23
1659978149.12154,1297512.0106576,0
1659978149.12154,1297512.0106617,0
1659978149.12154,1297512.0106656,-2
1659978149.12154,1297512.0106695,-23
1659978149.12154,1297512.0106735,-37
1659978149.12154,1297512.010677,-39
1659978149.12154,1297512.0106806,-34
1659978149.12154,1297512.0106842,-13
1659978149.12154,1297512.0106877,11
1659978149.60249,1297512.0106913,30
1659978149.60249,1297512.010695,41

1659978149.60249,1297512.0106985,51
1659978149.60249,1297512.0107017,53
1659978149.60249,1297512.0107053,51
1659978149.60249,1297512.010709,60
1659978149.60249,1297512.0107129,71
1659978149.60249,1297512.0107166,78
1659978149.60249,1297512.0107204,76
1659978149.60249,1297512.010724,76
1659978149.60249,1297512.0107275,83
1659978149.60249,1297512.0107313,92
1659978149.60249,1297512.0107354,99
1659978149.60249,1297512.0107416,99
1659978149.60249,1297512.0107465,97
1659978149.60249,1297512.0107499,97
1659978149.60249,1297512.010756,97
1659978149.60249,1297512.0107592,95
1659978149.60249,1297512.0107625,95
1659978149.60249,1297512.0107658,92
1659978149.60249,1297512.0107689,88
1659978149.60249,1297512.0107722,81
1659978149.60249,1297512.0107776,81
1659978149.60249,1297512.010781,85
1659978149.60249,1297512.0107847,95
1659978149.60249,1297512.0107902,109
1659978149.60249,1297512.0107951,125
1659978149.60249,1297512.0108002,132
1659978149.60249,1297512.0108035,111
1659978149.60249,1297512.0108066,88
1659978149.60249,1297512.0108102,78
1659978149.60249,1297512.0108159,76
1659978149.60249,1297512.0108211,78
1659978149.60249,1297512.0108269,78
1659978149.60249,1297512.010831,78
1659978149.60249,1297512.0108369,76
1659978149.60249,1297512.0108406,90
1659978149.60249,1297512.0108464,178
1659978149.60249,1297512.0108507,408
1659978149.60249,1297512.0108563,723
1659978149.60249,1297512.0108607,872
1659978149.60249,1297512.0108663,517
1659978149.60249,1297512.0108701,-102
1659978149.60249,1297512.0108741,-208
1659978149.60249,1297512.0108805,60
1659978149.60249,1297512.0108845,53
1659978149.60249,1297512.4984042,-55
1659978149.60249,1297512.4984252,2
1659978149.60249,1297512.498434,32
1659978149.60249,1297512.4984367,0
1659978149.61346,1297512.4984389,9
1659978149.61346,1297512.498441,27
1659978149.61346,1297512.498443,18
1659978149.61346,1297512.4984451,18
1659978149.61346,1297512.4984472,20
1659978149.61346,1297512.4984492,20
1659978149.61346,1297512.4984513,27
1659978149.61346,1297512.4984533,41
1659978149.61346,1297512.4984554,55
1659978149.61346,1297512.4984574,57
1659978149.61346,1297512.4984595,44
1659978149.61346,1297512.4984615,34
1659978149.61346,1297512.4984636,37
1659978149.61346,1297512.4984656,34
1659978149.61346,1297512.4984678,23
1659978149.61346,1297512.4984698,11
1659978149.61346,1297512.4984719,0
1659978149.61346,1297512.4984741,-6
1659978149.61346,1297512.498481,-2
1659978149.61346,1297512.4984906,9
1659978149.61346,1297512.4984953,34
1659978149.61346,1297512.4984993,57
1659978149.61346,1297512.4985065,64
1659978149.61346,1297512.4985129,62
1659978150.18912,1297512.49852,67
1659978150.18912,1297512.4985251,69
1659978150.18912,1297512.4985321,69
1659978150.18912,1297512.4985387,81
1659978150.18912,1297512.4985411,85
1659978150.18912,1297512.4985431,67
1659978150.18912,1297512.498545,51
1659978150.18912,1297512.4985469,62
1659978150.18912,1297512.4985489,78
1659978150.18912,1297512.4985508,74
1659978150.18912,1297512.4985527,67
1659978150.18912,1297512.4985546,67
1659978150.18912,1297512.4985565,64
1659978150.18912,1297512.4985583,64
1659978150.18912,1297512.4985601,69
1659978150.18912,1297512.498562,74
1659978150.18912,1297512.4985639,76
1659978150.18912,1297512.4985665,71
1659978150.18912,1297512.4985684,67
1659978150.18912,1297512.4985704,64
1659978150.18912,1297512.4985747,64
1659978150.18912,1297512.4985766,62
1659978150.18912,1297512.4985787,67
1659978150.18912,1297512.4985852,71
1659978150.18912,1297512.4985931,74
1659978150.18912,1297512.498605,90
1659978150.18912,1297512.4986199,122
1659978150.18912,1297512.4986275,127
1659978150.18912,1297512.4986309,106
1659978150.18912,1297512.4986331,85
1659978150.18912,1297512.4986353,67
1659978150.18912,1297512.4986374,57
1659978150.18912,1297512.4986438,60
1659978150.18912,1297512.4986548,53
1659978150.18912,1297512.4986596,53
1659978150.18912,1297512.4986617,60
1659978150.18912,1297512.4986648,78
1659978150.18912,1297512.4986746,183
1659978150.18912,1297512.4986836,445
1659978150.18912,1297512.4986861,758
1659978150.18912,1297512.498693,855
1659978150.18912,1297512.4987039,449
1659978150.18912,1297512.4987075,-155
1659978150.18912,1297512.4987115,-215
1659978150.18912,1297512.4987136,46
1659978150.18912,1297513.0830053,16
1659978150.18912,1297513.0830264,-88
1659978150.18912,1297513.0830372,-30
1659978150.18912,1297513.0830413,-2
1659978150.18912,1297513.0830436,-32
1659978150.19972,1297513.0830457,-20
1659978150.19972,1297513.0830478,2
1659978150.19972,1297513.0830499,4
1659978150.19972,1297513.083052,11
1659978150.19972,1297513.083054,23
1659978150.19972,1297513.0830561,27
1659978150.19972,1297513.0830582,30
1659978150.19972,1297513.0830603,44
1659978150.19972,1297513.0830621,60
1659978150.19972,1297513.0830642,67
1659978150.19972,1297513.0830661,67
1659978150.19972,1297513.0830682,64
1659978150.19972,1297513.0830705,53
1659978150.19972,1297513.0830757,37
1659978150.19972,1297513.083088,27
1659978150.19972,1297513.0830942,16
1659978150.19972,1297513.0830973,4
1659978150.19972,1297513.0830994,-9
1659978150.19972,1297513.0831016,-23
1659978150.19972,1297513.0831037,-27
1659978150.19972,1297513.0831067,-4
1659978150.19972,1297513.0831173,20
1659978150.19972,1297513.0831251,27
1659978150.19972,1297513.0831275,30
1659978150.72298,1297513.0831296,25
1659978150.72298,1297513.0831316,16
1659978150.72298,1297513.0831345,23
1659978150.72298,1297513.0831446,37
1659978150.72298,1297513.083151,41
1659978150.72298,1297513.0831571,44
1659978150.72298,1297513.0831653,53
1659978150.72298,1297513.0831696,57
1659978150.72298,1297513.0831826,60
1659978150.72298,1297513.0831969,67
1659978150.72298,1297513.083226,69
1659978150.72298,1297513.0832348,67
1659978150.72298,1297513.083238,69
1659978150.72298,1297513.083242,67
1659978150.72298,1297513.0832468,62
1659978150.72298,1297513.0832523,64
1659978150.72298,1297513.0832567,62
1659978150.72298,1297513.083261,57
1659978150.72298,1297513.0832642,62
1659978150.72298,1297513.0832677,67
1659978150.72298,1297513.0832717,62
1659978150.72298,1297513.0832758,55
1659978150.72298,1297513.0832795,60
1659978150.72298,1297513.0832872,69
1659978150.72298,1297513.0832943,81
1659978150.72298,1297513.083313,102
1659978150.72298,1297513.0833284,109
1659978150.72298,1297513.0833358,85
1659978150.72298,1297513.0833406,53
1659978150.72298,1297513.0833452,37
1659978150.72298,1297513.0833497,34
1659978150.72298,1297513.0833543,37
1659978150.72298,1297513.0833589,32
1659978150.72298,1297513.0833635,27
1659978150.72298,1297513.0833686,37
1659978150.72298,1297513.083376,57
1659978150.72298,1297513.0833821,150
1659978150.72298,1297513.0833872,389
1659978150.72298,1297513.0833934,693
1659978150.72298,1297513.0833981,814
1659978150.72298,1297513.0834043,468
1659978150.72298,1297513.083409,-139
1659978150.72298,1297513.083414,-264
1659978150.72298,1297513.08342,16
1659978150.72298,1297513.6198163,41
1659978150.72298,1297513.6198304,-69
1659978150.72298,1297513.6198344,-23
1659978150.72298,1297513.6198371,13
1659978150.72298,1297513.6198397,-11
1659978150.72298,1297513.6198422,6
1659978150.73395,1297513.6198446,37
1659978150.73395,1297513.619847,30
1659978150.73395,1297513.6198494,25
1659978150.73395,1297513.6198517,39
1659978150.73395,1297513.619854,53
1659978150.73395,1297513.6198564,69
1659978150.73395,1297513.6198588,83
1659978150.73395,1297513.6198611,81
1659978150.73395,1297513.6198634,67
1659978150.73395,1297513.6198658,71
1659978150.73395,1297513.619868,88
1659978150.73395,1297513.6198704,83
1659978150.73395,1297513.6198728,74
1659978150.73395,1297513.6198751,64
1659978150.73395,1297513.6198774,34
1659978150.73395,1297513.6198797,9
1659978150.73395,1297513.6198821,11
1659978150.73395,1297513.6198845,18
1659978150.73395,1297513.6198867,25
1659978150.73395,1297513.619889,41
1659978150.73395,1297513.6198912,46
1659978150.73395,1297513.6198935,32
1659978150.73395,1297513.6198958,32
1659978150.73395,1297513.6198981,44
1659978151.20996,1297513.6199003,41
1659978151.20996,1297513.6199025,39
1659978151.20996,1297513.6199047,41
1659978151.20996,1297513.6199068,48
1659978151.20996,1297513.6199088,53
1659978151.20996,1297513.6199109,62
1659978151.20996,1297513.6199131,76
1659978151.20996,1297513.6199151,78
1659978151.20996,1297513.6199171,74
1659978151.20996,1297513.6199191,74
1659978151.20996,1297513.6199211,76
1659978151.20996,1297513.6199231,81
1659978151.20996,1297513.6199265,85
1659978151.20996,1297513.619937,83
1659978151.20996,1297513.6199447,76
1659978151.20996,1297513.6199496,76
1659978151.20996,1297513.6199516,76
1659978151.20996,1297513.6199539,74
1659978151.20996,1297513.619957,69
1659978151.20996,1297513.6199675,69
1659978151.20996,1297513.6199751,69
1659978151.20996,1297513.6199776,74
1659978151.20996,1297513.6199797,90
1659978151.20996,1297513.6199817,99
1659978151.20996,1297513.6199882,85
1659978151.20996,1297513.6199995,64
1659978151.20996,1297513.6200048,51
1659978151.20996,1297513.6200071,41
1659978151.20996,1297513.6200092,39
1659978151.20996,1297513.6200112,37
1659978151.20996,1297513.6200132,30
1659978151.20996,1297513.6200158,34
1659978151.20996,1297513.6200229,62
1659978151.20996,1297513.6200352,166
1659978151.20996,1297513.62004,417
1659978151.20996,1297513.6200498,730
1659978151.20996,1297513.6200621,848
1659978151.20996,1297513.6200738,470
1659978151.20996,1297513.6200783,-141
1659978151.20996,1297513.6200843,-213
1659978151.20996,1297513.6200877,60
1659978151.20996,1297513.6200914,41
1659978151.20996,1297513.6200976,-55
1659978151.20996,1297514.1085093,13
1659978151.20996,1297514.1085256,37
1659978151.20996,1297514.1085307,4
1659978151.20996,1297514.108535,25
1659978151.20996,1297514.1085392,48
1659978151.20996,1297514.1085434,39
1659978151.20996,1297514.1085475,46
1659978151.21993,1297514.1085513,62
1659978151.21993,1297514.1085557,69
1659978151.21993,1297514.1085623,76
1659978151.21993,1297514.1085661,85
1659978151.21993,1297514.1085699,92
1659978151.21993,1297514.1085752,104
1659978151.21993,1297514.1085811,106
1659978151.21993,1297514.1085864,102
1659978151.21993,1297514.10859,109
1659978151.21993,1297514.1085958,104
1659978151.21993,1297514.1086008,69
1659978151.21993,1297514.108606,39
1659978151.21993,1297514.10861,34
1659978151.21993,1297514.1086155,30
1659978151.21993,1297514.1086191,27
1659978151.21993,1297514.1086227,41
1659978151.21993,1297514.1086265,46
1659978151.21993,1297514.1086321,30
1659978151.21993,1297514.1086358,37
1659978151.21993,1297514.1086396,60
1659978151.21993,1297514.1086449,67
1659978151.21993,1297514.1086488,64
1659978151.21993,1297514.1086527,57
1659978151.21993,1297514.1086579,44
1659978151.84543,1297514.1086617,37
1659978151.84543,1297514.1086656,48
1659978151.84543,1297514.1086693,55
1659978151.84543,1297514.1086729,57
1659978151.84543,1297514.1086767,57
1659978151.84543,1297514.1086804,60
1659978151.84543,1297514.108684,67
1659978151.84543,1297514.1086874,74
1659978151.84543,1297514.1086909,76
1659978151.84543,1297514.1086948,81
1659978151.84543,1297514.1086985,81
1659978151.84543,1297514.1087029,67
1659978151.84543,1297514.1087086,57
1659978151.84543,1297514.1087123,55
1659978151.84543,1297514.1087179,46
1659978151.84543,1297514.1087233,46
1659978151.84543,1297514.1087289,62
1659978151.84543,1297514.1087343,64
1659978151.84543,1297514.1087379,69
1659978151.84543,1297514.1087416,92
1659978151.84543,1297514.1087467,102
1659978151.84543,1297514.1087524,78
1659978151.84543,1297514.1087571,55
1659978151.84543,1297514.1087623,48
1659978151.84543,1297514.108766,37
1659978151.84543,1297514.1087699,23
1659978151.84543,1297514.1087752,32
1659978151.84543,1297514.1087799,51
1659978151.84543,1297514.1087854,57
1659978151.84543,1297514.1087907,88
1659978151.84543,1297514.1087945,222
1659978151.84543,1297514.1087999,489
1659978151.84543,1297514.1088052,776
1659978151.84543,1297514.1088088,828
1659978151.84543,1297514.1088142,373
1659978151.84543,1297514.1088193,-180
1659978151.84543,1297514.108823,-150
1659978151.84543,1297514.1088281,85
1659978151.84543,1297514.1088332,18
1659978151.84543,1297514.1088369,-46
1659978151.84543,1297514.108842,30
1659978151.84543,1297514.1088473,41
1659978151.84543,1297514.7415705,16
1659978151.84543,1297514.7415871,34
1659978151.84543,1297514.741592,44
1659978151.84543,1297514.7415976,34
1659978151.84543,1297514.7416019,48
1659978151.84543,1297514.7416077,64
1659978151.84543,1297514.7416113,74
1659978151.84543,1297514.7416156,64
1659978151.8564,1297514.7416221,48
1659978151.8564,1297514.741629,62
1659978151.8564,1297514.7416378,97
1659978151.8564,1297514.7416454,109
1659978151.8564,1297514.7416513,104
1659978151.8564,1297514.741656,102
1659978151.8564,1297514.7416621,95
1659978151.8564,1297514.7416687,76
1659978151.8564,1297514.741674,62
1659978151.8564,1297514.7416787,55
1659978151.8564,1297514.741684,53
1659978151.8564,1297514.7416875,44
1659978151.8564,1297514.7416911,39
1659978151.8564,1297514.7416964,57
1659978151.8564,1297514.7417002,83
1659978151.8564,1297514.7417054,92
1659978151.8564,1297514.7417099,92
1659978151.8564,1297514.7417185,102
1659978151.8564,1297514.7417259,97
1659978151.8564,1297514.7417351,76
1659978151.8564,1297514.7417448,74
1659978151.8564,1297514.7417546,97
1659978151.8564,1297514.7417596,104
1659978151.8564,1297514.7417703,99
1659978152.33305,1297514.7417737,113
1659978152.33305,1297514.7417758,122
1659978152.33305,1297514.7417778,109
1659978152.33305,1297514.7417811,92
1659978152.33305,1297514.7417898,90
1659978152.33305,1297514.7417975,85
1659978152.33305,1297514.7418029,83
1659978152.33305,1297514.74181,95
1659978152.33305,1297514.7418176,99
1659978152.33305,1297514.7418274,90
1659978152.33305,1297514.7418349,83
1659978152.33305,1297514.7418465,83
1659978152.33305,1297514.7418573,81
1659978152.33305,1297514.741865,71
1659978152.33305,1297514.741873,67
1659978152.33305,1297514.7418808,76
1659978152.33305,1297514.7418884,97
1659978152.33305,1297514.7418939,115
1659978152.33305,1297514.7419035,115
1659978152.33305,1297514.741914,95
1659978152.33305,1297514.7419268,83
1659978152.33305,1297514.7419355,85
1659978152.33305,1297514.7419409,92
1659978152.33305,1297514.7419547,95
1659978152.33305,1297514.7419669,92
1659978152.33305,1297514.7419781,85
1659978152.33305,1297514.741991,90
1659978152.33305,1297514.7420045,118
1659978152.33305,1297514.7420089,208
1659978152.33305,1297514.7420113,436
1659978152.33305,1297514.7420134,723
1659978152.33305,1297514.7420163,807
1659978152.33305,1297514.7420269,440
1659978152.33305,1297514.7420346,-71
1659978152.33305,1297514.742037,-111
1659978152.33305,1297514.7420392,111
1659978152.33305,1297514.742047,97
1659978152.33305,1297514.7420576,23
1659978152.33305,1297514.7420898,67
1659978152.33305,1297514.7421025,97
1659978152.33305,1297514.7421115,90
1659978152.33305,1297515.2305445,99
1659978152.33305,1297515.2305651,97
1659978152.33305,1297515.2305761,97
1659978152.33305,1297515.2305787,125
1659978152.33305,1297515.2305817,148
1659978152.33305,1297515.2305838,139
1659978152.33305,1297515.2305858,127
1659978152.33305,1297515.2305878,139
1659978152.33305,1297515.2305899,153
1659978152.34501,1297515.2305919,178
1659978152.34501,1297515.2305939,183
1659978152.34501,1297515.2305959,148
1659978152.34501,1297515.2305979,134
1659978152.34501,1297515.2305999,166
1659978152.34501,1297515.2306019,183
1659978152.34501,1297515.2306043,134
1659978152.34501,1297515.2306107,78
1659978152.34501,1297515.2306229,69
1659978152.34501,1297515.2306286,64
1659978152.34501,1297515.2306318,71
1659978152.34501,1297515.2306339,109
1659978152.34501,1297515.230636,134
1659978152.34501,1297515.2306381,141
1659978152.34501,1297515.2306451,143
1659978152.34501,1297515.2306562,102
1659978152.34501,1297515.230661,64
1659978152.34501,1297515.230663,90
1659978152.34501,1297515.230665,104
1659978152.34501,1297515.230667,76
1659978152.34501,1297515.2306691,78
1659978152.34501,1297515.2306754,88
1659978152.34501,1297515.230687,44
1659978152.34501,1297515.2306922,25
1659978152.86837,1297515.2306943,127
1659978152.86837,1297515.2306963,201
1659978152.86837,1297515.2306982,132
1659978152.86837,1297515.2307009,74
1659978152.86837,1297515.2307107,99
1659978152.86837,1297515.2307175,109
1659978152.86837,1297515.2307212,83
1659978152.86837,1297515.2307323,81
1659978152.86837,1297515.2307446,95
1659978152.86837,1297515.2307517,90
1659978152.86837,1297515.2307601,81
1659978152.86837,1297515.2307726,74
1659978152.86837,1297515.2307813,78
1659978152.86837,1297515.2307838,106
1659978152.86837,1297515.2307895,127
1659978152.86837,1297515.2308012,134
1659978152.86837,1297515.2308065,132
1659978152.86837,1297515.2308086,115
1659978152.86837,1297515.2308108,99
1659978152.86837,1297515.2308128,90
1659978152.86837,1297515.230815,81
1659978152.86837,1297515.2308227,76
1659978152.86837,1297515.2308334,97
1659978152.86837,1297515.2308378,106
1659978152.86837,1297515.2308399,64
1659978152.86837,1297515.2308419,67
1659978152.86837,1297515.230844,187
1659978152.86837,1297515.2308502,419
1659978152.86837,1297515.230862,677
1659978152.86837,1297515.2308656,732
1659978152.86837,1297515.2308695,338
1659978152.86837,1297515.2308715,-155
1659978152.86837,1297515.2308736,-143
1659978152.86837,1297515.2308767,76
1659978152.86837,1297515.2308895,27
1659978152.86837,1297515.2308959,-44
1659978152.86837,1297515.2308991,6
1659978152.86837,1297515.2309015,16
1659978152.86837,1297515.2309035,4
1659978152.86837,1297515.2309097,25
1659978152.86837,1297515.7643695,34
1659978152.86837,1297515.7643811,30
1659978152.86837,1297515.7643842,34
1659978152.86837,1297515.7643867,39
1659978152.86837,1297515.7643892,41
1659978152.86837,1297515.7643914,48
1659978152.86837,1297515.7643937,60
1659978152.86837,1297515.7643958,60
1659978152.86837,1297515.7643981,44
1659978152.86837,1297515.7644003,41
1659978152.87834,1297515.7644025,51
1659978152.87834,1297515.7644047,55
1659978152.87834,1297515.7644069,53
1659978152.87834,1297515.7644092,41
1659978152.87834,1297515.7644114,23
1659978152.87834,1297515.7644136,6
1659978152.87834,1297515.7644158,-13
1659978152.87834,1297515.7644181,-41
1659978152.87834,1297515.7644203,-37
1659978152.87834,1297515.7644225,-6
1659978152.87834,1297515.7644248,-9
1659978152.87834,1297515.764427,-23
1659978152.87834,1297515.7644291,-23
1659978152.87834,1297515.7644313,-25
1659978152.87834,1297515.7644334,-23
1659978152.87834,1297515.7644354,-13
1659978152.87834,1297515.7644375,-16
1659978152.87834,1297515.7644396,-18
1659978152.87834,1297515.7644416,-2
1659978152.87834,1297515.7644437,11
1659978152.87834,1297515.7644545,4
1659978152.87834,1297515.7644664,0
1659978152.87834,1297515.7644754,2
1659978152.87834,1297515.7644844,6
1659978153.49842,1297515.764489,6
1659978153.49842,1297515.7644912,13
1659978153.49842,1297515.7644932,18
1659978153.49842,1297515.7644951,20
1659978153.49842,1297515.764497,20
1659978153.49842,1297515.764499,18
1659978153.49842,1297515.764501,18
1659978153.49842,1297515.7645074,25
1659978153.49842,1297515.7645189,32
1659978153.49842,1297515.7645288,51
1659978153.49842,1297515.7645333,74
1659978153.49842,1297515.7645426,71
1659978153.49842,1297515.7645533,60
1659978153.49842,1297515.7645567,67
1659978153.49842,1297515.7645603,74
1659978153.49842,1297515.7645623,62
1659978153.49842,1297515.7645687,41
1659978153.49842,1297515.7645801,37
1659978153.49842,1297515.764585,51
1659978153.49842,1297515.7645872,60
1659978153.49842,1297515.7645894,60
1659978153.49842,1297515.7645952,62
1659978153.49842,1297515.7646067,69
1659978153.49842,1297515.7646119,99
1659978153.49842,1297515.7646141,192
1659978153.49842,1297515.7646163,412
1659978153.49842,1297515.7646184,712
1659978153.49842,1297515.7646204,865
1659978153.49842,1297515.7646256,545
1659978153.49842,1297515.7646372,-69
1659978153.49842,1297515.7646424,-227
1659978153.49842,1297515.7646445,41
1659978153.49842,1297515.7646466,88
1659978153.49842,1297515.7646491,-2
1659978153.49842,1297515.7646587,53
1659978153.49842,1297515.7646677,95
1659978153.49842,1297515.7646702,57
1659978153.49842,1297515.7646777,62
1659978153.49842,1297515.7646797,88
1659978153.49842,1297516.3984945,90
1659978153.49842,1297516.3985131,97
1659978153.49842,1297516.3985179,104
1659978153.49842,1297516.3985218,95
1659978153.49842,1297516.3985262,83
1659978153.49842,1297516.3985299,90
1659978153.49842,1297516.3985334,104
1659978153.49842,1297516.3985368,97
1659978153.49842,1297516.3985402,99
1659978153.49842,1297516.3985436,118
1659978153.49842,1297516.398547,109
1659978153.50939,1297516.3985504,76
1659978153.50939,1297516.3985539,67
1659978153.50939,1297516.3985572,67
1659978153.50939,1297516.3985607,51
1659978153.50939,1297516.398564,37
1659978153.50939,1297516.3985673,34
1659978153.50939,1297516.3985707,23
1659978153.50939,1297516.3985743,4
1659978153.50939,1297516.3985779,2
1659978153.50939,1297516.3985813,-2
1659978153.50939,1297516.3985848,-20
1659978153.50939,1297516.3985883,-30
1659978153.50939,1297516.3985919,-23
1659978153.50939,1297516.3985955,-39
1659978153.50939,1297516.398599,-55
1659978153.50939,1297516.3986043,-57
1659978153.50939,1297516.3986078,-67
1659978153.50939,1297516.3986112,-67
1659978153.50939,1297516.3986146,-39
1659978153.50939,1297516.3986183,-20
1659978153.50939,1297516.3986217,-27
1659978153.50939,1297516.3986254,-30
1659978153.50939,1297516.3986288,-13
1659978153.50939,1297516.3986329,-4
1659978154.03401,1297516.3986365,-20
1659978154.03401,1297516.39864,-25
1659978154.03401,1297516.3986434,-2
1659978154.03401,1297516.3986468,4
1659978154.03401,1297516.3986502,-6
1659978154.03401,1297516.3986538,6
1659978154.03401,1297516.3986571,32
1659978154.03401,1297516.3986605,37
1659978154.03401,1297516.398664,34
1659978154.03401,1297516.3986675,37
1659978154.03401,1297516.3986712,39
1659978154.03401,1297516.3986747,34
1659978154.03401,1297516.398678,23
1659978154.03401,1297516.3986814,20
1659978154.03401,1297516.3986853,23
1659978154.03401,1297516.3986887,20
1659978154.03401,1297516.3986922,13
1659978154.03401,1297516.3986956,30
1659978154.03401,1297516.3986992,74
1659978154.03401,1297516.3987051,171
1659978154.03401,1297516.3987088,410
1659978154.03401,1297516.3987141,707
1659978154.03401,1297516.3987177,797
1659978154.03401,1297516.3987228,429
1659978154.03401,1297516.3987274,-136
1659978154.03401,1297516.3987311,-213
1659978154.03401,1297516.3987361,34
1659978154.03401,1297516.3987414,39
1659978154.03401,1297516.3987464,-20
1659978154.03401,1297516.398752,44
1659978154.03401,1297516.3987568,60
1659978154.03401,1297516.398761,34
1659978154.03401,1297516.3987663,51
1659978154.03401,1297516.3987698,64
1659978154.03401,1297516.3987735,57
1659978154.03401,1297516.398777,71
1659978154.03401,1297516.3987806,85
1659978154.03401,1297516.3987858,83
1659978154.03401,1297516.9362271,102
1659978154.03401,1297516.9362438,127
1659978154.03401,1297516.9362492,139
1659978154.03401,1297516.9362574,141
1659978154.03401,1297516.9362622,143
1659978154.03401,1297516.9362693,143
1659978154.03401,1297516.936275,146
1659978154.03401,1297516.9362826,150
1659978154.03401,1297516.9362902,148
1659978154.03401,1297516.9362935,129
1659978154.03401,1297516.9362972,104
1659978154.03401,1297516.9363121,102
1659978154.04498,1297516.9363208,106
1659978154.04498,1297516.9363256,81
1659978154.04498,1297516.9363341,55
1659978154.04498,1297516.9363467,74
1659978154.04498,1297516.936359,85
1659978154.04498,1297516.9363693,55
1659978154.04498,1297516.936375,41
1659978154.04498,1297516.9363789,46
1659978154.04498,1297516.9363849,9
1659978154.04498,1297516.9363916,-16
1659978154.04498,1297516.936397,13
1659978154.04498,1297516.9364004,27
1659978154.04498,1297516.9364039,44
1659978154.04498,1297516.93641,74
1659978154.04498,1297516.9364145,53
1659978154.04498,1297516.9364198,23
1659978154.04498,1297516.9364236,41
1659978154.04498,1297516.9364289,60
1659978154.04498,1297516.9364328,44
1659978154.04498,1297516.9364379,39
1659978154.04498,1297516.9364421,46
1659978154.04498,1297516.9364471,44
1659978154.04498,1297516.9364507,51
1659978154.04498,1297516.9364557,64
1659978154.5787,1297516.9364596,64
1659978154.5787,1297516.9364631,69
1659978154.5787,1297516.9364665,83
1659978154.5787,1297516.9364699,95
1659978154.5787,1297516.9364733,104
1659978154.5787,1297516.9364779,102
1659978154.5787,1297516.9364827,88
1659978154.5787,1297516.9364966,67
1659978154.5787,1297516.936508,51
1659978154.5787,1297516.9365217,44
1659978154.5787,1297516.9365351,51
1659978154.5787,1297516.936549,57
1659978154.5787,1297516.9365626,60
1659978154.5787,1297516.9365765,76
1659978154.5787,1297516.9365855,139
1659978154.5787,1297516.9365882,320
1659978154.5787,1297516.9365903,607
1659978154.5787,1297516.9365924,834
1659978154.5787,1297516.9365944,728
1659978154.5787,1297516.9365965,171
1659978154.5787,1297516.9365986,-241
1659978154.5787,1297516.9366006,-85
1659978154.5787,1297516.9366026,76
1659978154.5787,1297516.9366046,-20
1659978154.5787,1297516.9366067,-20
1659978154.5787,1297516.9366087,57
1659978154.5787,1297516.9366108,37
1659978154.5787,1297516.9366128,11
1659978154.5787,1297516.9366149,32
1659978154.5787,1297516.9366169,34
1659978154.5787,1297516.936619,25
1659978154.5787,1297516.9366272,34
1659978154.5787,1297516.9366403,48
1659978154.5787,1297516.9366514,71
1659978154.5787,1297516.9366589,95
1659978154.5787,1297516.9366679,102
1659978154.5787,1297516.9366775,99
1659978154.5787,1297517.4713946,109
1659978154.5787,1297517.4714161,125
1659978154.5787,1297517.4714245,136
1659978154.5787,1297517.4714309,129
1659978154.5787,1297517.4714367,115
1659978154.5787,1297517.4714402,97
1659978154.5787,1297517.471446,71
1659978154.5787,1297517.4714493,55
1659978154.5787,1297517.4714553,60
1659978154.5787,1297517.4714606,55
1659978154.5787,1297517.4714655,39
1659978154.5787,1297517.4714789,41
1659978154.5787,1297517.4714921,48
1659978154.58867,1297517.4715042,41
1659978154.58867,1297517.4715134,44
1659978154.58867,1297517.4715181,48
1659978154.58867,1297517.4715202,39
1659978154.58867,1297517.4715221,32
1659978154.58867,1297517.4715255,37
1659978154.58867,1297517.4715314,27
1659978154.58867,1297517.4715433,20
1659978154.58867,1297517.4715485,20
1659978154.58867,1297517.4715505,6
1659978154.58867,1297517.4715533,-13
1659978154.58867,1297517.4715555,-18
1659978154.58867,1297517.4715576,-6
1659978154.58867,1297517.4715596,-2
1659978154.58867,1297517.4715657,-9
1659978154.58867,1297517.4715768,-9
1659978154.58867,1297517.4715803,4
1659978154.58867,1297517.4715824,9
1659978154.58867,1297517.4715845,-2
1659978154.58867,1297517.4715865,-4
1659978154.58867,1297517.4716019,9
1659978154.58867,1297517.4716258,20
1659978154.58867,1297517.4716394,25
1659978154.58867,1297517.4716526,37
1659978155.30077,1297517.4716613,48
1659978155.30077,1297517.4716638,57
1659978155.30077,1297517.4716658,53
1659978155.30077,1297517.4716678,41
1659978155.30077,1297517.4716698,37
1659978155.30077,1297517.4716728,27
1659978155.30077,1297517.4716831,6
1659978155.30077,1297517.4716927,9
1659978155.30077,1297517.4717013,51
1659978155.30077,1297517.4717118,74
1659978155.30077,1297517.4717258,74
1659978155.30077,1297517.471738,155
1659978155.30077,1297517.471746,387
1659978155.30077,1297517.4717496,688
1659978155.30077,1297517.4717623,881
1659978155.30077,1297517.4717714,667
1659978155.30077,1297517.4717783,48
1659978155.30077,1297517.4717863,-255
1659978155.30077,1297517.4717924,-39
1659978155.30077,1297517.4717959,44
1659978155.30077,1297517.4718007,-62
1659978155.30077,1297517.471806,-27
1659978155.30077,1297517.4718095,16
1659978155.30077,1297517.4718129,-13
1659978155.30077,1297517.4718163,-6
1659978155.30077,1297517.4718197,39
1659978155.30077,1297517.4718241,53
1659978155.30077,1297517.4718301,41
1659978155.30077,1297517.4718332,44
1659978155.30077,1297517.4718361,51
1659978155.30077,1297517.4718391,60
1659978155.30077,1297517.4718421,78
1659978155.30077,1297517.471845,90
1659978155.30077,1297517.4718479,99
1659978155.30077,1297517.4718507,127
1659978155.30077,1297517.4718536,148
1659978155.30077,1297518.2027378,139
1659978155.30077,1297518.2027686,127
1659978155.30077,1297518.20278,109
1659978155.30077,1297518.2027855,78
1659978155.30077,1297518.2027878,76
1659978155.30077,1297518.2027898,88
1659978155.30077,1297518.2027918,62
1659978155.30077,1297518.2028071,25
1659978155.30077,1297518.202809,41
1659978155.30077,1297518.2028109,57
1659978155.30077,1297518.2028128,37
1659978155.30077,1297518.2028281,41
1659978155.30077,1297518.2028301,57
1659978155.30077,1297518.2028337,34
1659978155.31274,1297518.2028371,0
1659978155.31274,1297518.2028394,-4
1659978155.31274,1297518.2028416,9
1659978155.31274,1297518.2028475,25
1659978155.31274,1297518.2028551,34
1659978155.31274,1297518.2028598,32
1659978155.31274,1297518.2028642,25
1659978155.31274,1297518.2028689,20
1659978155.31274,1297518.2028739,18
1659978155.31274,1297518.2028781,11
1659978155.31274,1297518.2028822,-2
1659978155.31274,1297518.2028862,0
1659978155.31274,1297518.2028901,34
1659978155.31274,1297518.2028939,44
1659978155.31274,1297518.2028976,27
1659978155.31274,1297518.2029015,32
1659978155.31274,1297518.2029053,39
1659978155.31274,1297518.2029094,30
1659978155.31274,1297518.2029132,30
1659978155.31274,1297518.2029171,32
1659978155.31274,1297518.202921,32
1659978155.31274,1297518.2029262,46
1659978155.31274,1297518.2029319,69
1659978155.31274,1297518.202936,95
1659978155.69008,1297518.2029424,102
1659978155.69008,1297518.2029463,83
1659978155.69008,1297518.2029505,55
1659978155.69008,1297518.2029541,48
1659978155.69008,1297518.2029577,55
1659978155.69008,1297518.2029622,67
1659978155.69008,1297518.2029675,64
1659978155.69008,1297518.2029716,48
1659978155.69008,1297518.2029754,44
1659978155.69008,1297518.2029808,60
1659978155.69008,1297518.2029847,102
1659978155.69008,1297518.2029886,243
1659978155.69008,1297518.2029952,514
1659978155.69008,1297518.2030056,783
1659978155.69008,1297518.2030159,832
1659978155.69008,1297518.2030237,410
1659978155.69008,1297518.2030358,-155
1659978155.69008,1297518.2030465,-169
1659978155.69008,1297518.2030548,92
1659978155.69008,1297518.2030643,55
1659978155.69008,1297518.2030753,-27
1659978155.69008,1297518.203084,34
1659978155.69008,1297518.2030923,48
1659978155.69008,1297518.2031049,18
1659978155.69008,1297518.2031147,37
1659978155.69008,1297518.2031225,53
1659978155.69008,1297518.203135,46
1659978155.69008,1297518.2031438,53
1659978155.69008,1297518.2031517,74
1659978155.69008,1297518.2031645,88
1659978155.69008,1297518.2031731,83
1659978155.69008,1297518.2031835,78
1659978155.69008,1297518.2031944,99
1659978155.69008,1297518.2032045,125
1659978155.69008,1297518.2032172,118
1659978155.69008,1297518.5924209,113
1659978155.69008,1297518.5924391,127
1659978155.69008,1297518.592447,129
1659978155.69008,1297518.5924511,113
1659978155.69008,1297518.5924555,95
1659978155.69008,1297518.5924619,76
1659978155.69008,1297518.592466,55
1659978155.69008,1297518.5924728,48
1659978155.69008,1297518.5924794,53
1659978155.69008,1297518.592488,64
1659978155.69008,1297518.5924926,71
1659978155.69008,1297518.5924987,74
1659978155.69008,1297518.5925024,78
1659978155.69008,1297518.5925065,83
1659978155.69008,1297518.592512,81
1659978155.69905,1297518.5925157,74
1659978155.69905,1297518.5925196,67
1659978155.69905,1297518.5925235,64
1659978155.69905,1297518.5925284,67
1659978155.69905,1297518.5925348,67
1659978155.69905,1297518.592539,64
1659978155.69905,1297518.5925431,57
1659978155.69905,1297518.5925494,44
1659978155.69905,1297518.5925536,30
1659978155.69905,1297518.5925595,44
1659978155.69905,1297518.5925635,78
1659978155.69905,1297518.5925681,85
1659978155.69905,1297518.5925724,71
1659978155.69905,1297518.5925789,67
1659978155.69905,1297518.5925836,53
1659978155.69905,1297518.5925899,23
1659978155.69905,1297518.5925942,11
1659978155.69905,1297518.5926001,27
1659978155.69905,1297518.5926045,44
1659978155.69905,1297518.5926103,34
1659978155.69905,1297518.5926143,25
1659978155.69905,1297518.59262,34
1659978155.69905,1297518.5926263,57
1659978155.69905,1297518.5926321,67
1659978156.28254,1297518.5926368,69
1659978156.28254,1297518.5926414,76
1659978156.28254,1297518.5926457,88
1659978156.28254,1297518.5926504,74
1659978156.28254,1297518.5926548,44
1659978156.28254,1297518.592659,53
1659978156.28254,1297518.5926629,64
1659978156.28254,1297518.5926669,57
1659978156.28254,1297518.5926708,53
1659978156.28254,1297518.5926753,51
1659978156.28254,1297518.5926803,44
1659978156.28254,1297518.5926868,88
1659978156.28254,1297518.5926934,264
1659978156.28254,1297518.5926975,561
1659978156.28254,1297518.5927042,809
1659978156.28254,1297518.5927082,795
1659978156.28254,1297518.5927124,336
1659978156.28254,1297518.5927169,-178
1659978156.28254,1297518.5927213,-134
1659978156.28254,1297518.5927275,83
1659978156.28254,1297518.5927328,13
1659978156.28254,1297518.5927391,-27
1659978156.28254,1297518.5927435,34
1659978156.28254,1297518.5927502,20
1659978156.28254,1297518.5927553,-6
1659978156.28254,1297518.5927618,20
1659978156.28254,1297518.5927661,37
1659978156.28254,1297518.5927724,37
1659978156.28254,1297518.5927768,44
1659978156.28254,1297518.5927846,48
1659978156.28254,1297518.5927903,55
1659978156.28254,1297518.5927968,64
1659978156.28254,1297518.5928016,69
1659978156.28254,1297518.5928073,74
1659978156.28254,1297519.1790077,90
1659978156.28254,1297519.179021,109
1659978156.28254,1297519.1790258,113
1659978156.28254,1297519.1790284,106
1659978156.28254,1297519.1790309,92
1659978156.28254,1297519.1790334,92
1659978156.28254,1297519.1790358,88
1659978156.28254,1297519.1790382,41
1659978156.28254,1297519.1790405,2
1659978156.28254,1297519.1790429,-4
1659978156.28254,1297519.1790452,11
1659978156.28254,1297519.1790476,30
1659978156.28254,1297519.1790508,9
1659978156.28254,1297519.179059,-2
1659978156.28254,1297519.1790706,41
1659978156.28254,1297519.179075,39
1659978156.29551,1297519.1790821,-4
1659978156.29551,1297519.1790928,6
1659978156.29551,1297519.1791005,32
1659978156.29551,1297519.1791029,11
1659978156.29551,1297519.179105,-4
1659978156.29551,1297519.1791071,25
1659978156.29551,1297519.1791091,34
1659978156.29551,1297519.1791122,0
1659978156.29551,1297519.1791252,0
1659978156.29551,1297519.1791311,37
1659978156.29551,1297519.1791341,30
1659978156.29551,1297519.1791363,-6
1659978156.29551,1297519.1791384,16
1659978156.29551,1297519.1791412,53
1659978156.29551,1297519.1791514,41
1659978156.29551,1297519.1791599,25
1659978156.29551,1297519.1791625,27
1659978156.29551,1297519.1791646,23
1659978156.29551,1297519.1791667,13
1659978156.29551,1297519.1791688,18
1659978156.29551,1297519.1791708,39
1659978156.29551,1297519.1791731,46
1659978156.29551,1297519.1791805,27
1659978156.29551,1297519.1791913,9
1659978157.11,1297519.179196,27
1659978157.11,1297519.1792,64
1659978157.11,1297519.1792039,78
1659978157.11,1297519.1792097,85
1659978157.11,1297519.1792193,99
1659978157.11,1297519.1792234,85
1659978157.11,1297519.1792256,41
1659978157.11,1297519.1792275,27
1659978157.11,1297519.1792313,46
1659978157.11,1297519.1792341,57
1659978157.11,1297519.1792439,60
1659978157.11,1297519.1792526,67
1659978157.11,1297519.1792551,64
1659978157.11,1297519.1792573,67
1659978157.11,1297519.1792594,164
1659978157.11,1297519.179262,422
1659978157.11,1297519.1792719,732
1659978157.11,1297519.1792813,860
1659978157.11,1297519.1792839,535
1659978157.11,1297519.1792862,-78
1659978157.11,1297519.1792886,-252
1659978157.11,1297519.1792961,4
1659978157.11,1297519.179307,41
1659978157.11,1297519.1793116,-60
1659978157.11,1297519.1793137,-6
1659978157.11,1297519.1793165,27
1659978157.11,1297519.1793186,-23
1659978157.11,1297519.1793207,-6
1659978157.11,1297519.1793234,48
1659978157.11,1297519.1793316,51
1659978157.11,1297519.1793419,46
1659978157.11,1297519.1793511,57
1659978157.11,1297519.1793563,48
1659978157.11,1297520.0060452,44
1659978157.11,1297520.0060573,71
1659978157.11,1297520.0060606,109
1659978157.11,1297520.0060656,102
1659978157.11,1297520.0060682,83
1659978157.11,1297520.0060768,85
1659978157.11,1297520.0060851,88

1659978157.11,1297520.0060926,97
1659978157.11,1297520.0060984,113
1659978157.11,1297520.0061052,92
1659978157.11,1297520.006114,53
1659978157.11,1297520.0061268,34
1659978157.11,1297520.0061363,18
1659978157.11,1297520.0061442,-6
1659978157.11,1297520.0061536,-4
1659978157.11,1297520.0061644,23
1659978157.11,1297520.0061736,25
1659978157.12097,1297520.0061892,-9
1659978157.12097,1297520.006199,-44
1659978157.12097,1297520.0062103,-13
1659978157.12097,1297520.0062235,32
1659978157.12097,1297520.006239,16
1659978157.12097,1297520.0062478,-9
1659978157.12097,1297520.0062526,-4
1659978157.12097,1297520.006267,0
1659978157.12097,1297520.0062783,0
1659978157.12097,1297520.0062876,0
1659978157.12097,1297520.0062976,6
1659978157.12097,1297520.0063037,16
1659978157.12097,1297520.006314,6
1659978157.12097,1297520.0063216,6
1659978157.12097,1297520.0063336,20
1659978157.12097,1297520.006344,25
1659978157.12097,1297520.0063523,13
1659978157.12097,1297520.0063594,0
1659978157.12097,1297520.006368,13
1659978157.12097,1297520.0063756,48
1659978157.12097,1297520.0063848,46
1659978157.12097,1297520.0063901,16
1659978157.12097,1297520.0063999,20
1659978157.12097,1297520.0064097,48
1659978157.44427,1297520.0064192,53
1659978157.44427,1297520.0064295,51
1659978157.44427,1297520.0064354,67
1659978157.44427,1297520.006444,97
1659978157.44427,1297520.006458,113
1659978157.44427,1297520.0064693,104
1659978157.44427,1297520.0064743,74
1659978157.44427,1297520.0064764,41
1659978157.44427,1297520.0064785,30
1659978157.44427,1297520.0064807,27
1659978157.44427,1297520.0064829,23
1659978157.44427,1297520.0064901,34
1659978157.44427,1297520.0065024,46
1659978157.44427,1297520.0065122,57
1659978157.44427,1297520.0065208,148
1659978157.44427,1297520.0065283,368
1659978157.44427,1297520.0065307,661
1659978157.44427,1297520.0065329,890
1659978157.44427,1297520.006535,714
1659978157.44427,1297520.0065371,81
1659978157.44427,1297520.0065395,-257
1659978157.44427,1297520.0065471,-30
1659978157.44427,1297520.0065582,81
1659978157.44427,1297520.0065618,-32
1659978157.44427,1297520.0065655,-11
1659978157.44427,1297520.0065676,48
1659978157.44427,1297520.0065747,27
1659978157.44427,1297520.0065857,23
1659978157.44427,1297520.0065905,41
1659978157.44427,1297520.0065926,48
1659978157.44427,1297520.0065946,74
1659978157.44427,1297520.0066073,88
1659978157.44427,1297520.3471319,76
1659978157.44427,1297520.3471449,78
1659978157.44427,1297520.3471486,92
1659978157.44427,1297520.3471508,97
1659978157.44427,1297520.3471529,109
1659978157.44427,1297520.3471549,125
1659978157.44427,1297520.3471577,127
1659978157.44427,1297520.3471599,122
1659978157.44427,1297520.3471619,115
1659978157.44427,1297520.347164,95
1659978157.44427,1297520.3471661,78
1659978157.44427,1297520.3471682,76
1659978157.44427,1297520.3471702,74
1659978157.44427,1297520.3471722,55
1659978157.44427,1297520.3471742,23
1659978157.44427,1297520.3471782,20
1659978157.44427,1297520.3471928,48
1659978157.44427,1297520.3471995,46
1659978157.45523,1297520.3472019,41
1659978157.45523,1297520.3472041,55
1659978157.45523,1297520.3472062,53
1659978157.45523,1297520.3472082,39
1659978157.45523,1297520.3472144,53
1659978157.45523,1297520.3472259,74
1659978157.45523,1297520.3472313,62
1659978157.45523,1297520.3472401,46
1659978157.45523,1297520.3472525,62
1659978157.45523,1297520.3472634,74
1659978157.45523,1297520.3472669,53
1659978157.45523,1297520.347271,88
1659978157.45523,1297520.3472731,136
1659978157.45523,1297520.3472752,92
1659978157.45523,1297520.3472772,46
1659978157.45523,1297520.3472793,60
1659978157.45523,1297520.3472814,71
1659978157.45523,1297520.3472835,55
1659978157.45523,1297520.3472856,53
1659978157.45523,1297520.3472877,85
1659978157.45523,1297520.3472899,92
1659978157.45523,1297520.3472919,53
1659978157.45523,1297520.347294,23
1659978157.45523,1297520.347296,13
1659978158.18725,1297520.3472982,13
1659978158.18725,1297520.3473002,20
1659978158.18725,1297520.347302,27
1659978158.18725,1297520.347304,41
1659978158.18725,1297520.3473059,53
1659978158.18725,1297520.3473079,60
1659978158.18725,1297520.3473466,78
1659978158.18725,1297520.3473561,76
1659978158.18725,1297520.3473602,41
1659978158.18725,1297520.3473659,30
1659978158.18725,1297520.3473703,34
1659978158.18725,1297520.347375,18
1659978158.18725,1297520.3473806,6
1659978158.18725,1297520.3473838,27
1659978158.18725,1297520.3473868,69
1659978158.18725,1297520.3473899,129
1659978158.18725,1297520.3473931,282
1659978158.18725,1297520.3473972,561
1659978158.18725,1297520.3474007,821
1659978158.18725,1297520.3474036,744
1659978158.18725,1297520.3474067,169
1659978158.18725,1297520.3474169,-262
1659978158.18725,1297520.3474268,-71
1659978158.18725,1297520.3474316,99
1659978158.18725,1297520.3474355,-30
1659978158.18725,1297520.3474393,-30
1659978158.18725,1297520.3474452,62
1659978158.18725,1297520.347451,41
1659978158.18725,1297520.3474612,25
1659978158.18725,1297520.3474766,39
1659978158.18725,1297520.3474837,13
1659978158.18725,1297521.0803682,13
1659978158.18725,1297521.0803876,51
1659978158.18725,1297521.0804016,64
1659978158.18725,1297521.0804151,67
1659978158.18725,1297521.080427,71
1659978158.18725,1297521.0804352,78
1659978158.18725,1297521.0804406,74
1659978158.18725,1297521.0804449,76
1659978158.18725,1297521.0804593,118
1659978158.18725,1297521.0804713,136
1659978158.18725,1297521.0804833,85
1659978158.18725,1297521.0804888,41
1659978158.18725,1297521.0804911,46
1659978158.18725,1297521.0804932,74
1659978158.18725,1297521.0805004,74
1659978158.18725,1297521.0805122,34
1659978158.18725,1297521.0805189,2
1659978158.18725,1297521.0805293,-4
1659978158.18725,1297521.0805396,6
1659978158.19822,1297521.0805479,18
1659978158.19822,1297521.080559,30
1659978158.19822,1297521.0805702,51
1659978158.19822,1297521.0805789,55
1659978158.19822,1297521.0805849,34
1659978158.19822,1297521.0805914,30
1659978158.19822,1297521.0806023,51
1659978158.19822,1297521.0806125,53
1659978158.19822,1297521.0806244,39
1659978158.19822,1297521.0806375,46
1659978158.19822,1297521.080647,74
1659978158.19822,1297521.0806557,88
1659978158.19822,1297521.0806669,74
1659978158.19822,1297521.0806754,48
1659978158.19822,1297521.080685,39
1659978158.19822,1297521.0806961,41
1659978158.19822,1297521.0807055,39
1659978158.19822,1297521.0807131,39
1659978158.19822,1297521.0807224,41
1659978158.19822,1297521.0807274,44
1659978158.19822,1297521.0807322,46
1659978158.19822,1297521.0807396,41
1659978158.19822,1297521.0807489,44
1659978158.19822,1297521.0807589,57
1659978158.52942,1297521.0807716,60
1659978158.52942,1297521.080779,48
1659978158.52942,1297521.0807857,64
1659978158.52942,1297521.0807924,95
1659978158.52942,1297521.080799,113
1659978158.52942,1297521.0808024,118
1659978158.52942,1297521.0808052,113
1659978158.52942,1297521.0808081,102
1659978158.52942,1297521.0808114,85
1659978158.52942,1297521.0808142,74
1659978158.52942,1297521.0808182,76
1659978158.52942,1297521.0808236,88
1659978158.52942,1297521.0808269,92
1659978158.52942,1297521.0808307,95
1659978158.52942,1297521.0808359,95
1659978158.52942,1297521.0808399,129
1659978158.52942,1297521.0808442,280
1659978158.52942,1297521.0808508,558
1659978158.52942,1297521.0808574,830
1659978158.52942,1297521.0808606,848
1659978158.52942,1297521.0808635,398
1659978158.52942,1297521.0808663,-143
1659978158.52942,1297521.0808704,-127
1659978158.52942,1297521.0808753,104
1659978158.52942,1297521.080879,41
1659978158.52942,1297521.0808821,-20
1659978158.52942,1297521.080885,48
1659978158.52942,1297521.0808881,55
1659978158.52942,1297521.080891,32
1659978158.52942,1297521.0808938,55
1659978158.52942,1297521.4215973,64
1659978158.52942,1297521.4216162,57
1659978158.52942,1297521.421622,67
1659978158.52942,1297521.4216297,78
1659978158.52942,1297521.4216365,83
1659978158.52942,1297521.4216415,83
1659978158.52942,1297521.4216461,90
1659978158.52942,1297521.4216537,92
1659978158.52942,1297521.4216615,90
1659978158.52942,1297521.4216685,99
1659978158.52942,1297521.4216748,106
1659978158.52942,1297521.4216783,102
1659978158.52942,1297521.4216815,97
1659978158.52942,1297521.4216849,85
1659978158.52942,1297521.4216896,64
1659978158.52942,1297521.4216953,53
1659978158.52942,1297521.4216988,44
1659978158.52942,1297521.4217023,39
1659978158.52942,1297521.4217065,46
1659978158.52942,1297521.4217133,51
1659978158.5384,1297521.4217173,48
1659978158.5384,1297521.4217217,57
1659978158.5384,1297521.4217284,67
1659978158.5384,1297521.4217352,60
1659978158.5384,1297521.4217445,53
1659978158.5384,1297521.4217504,60
1659978158.5384,1297521.4217552,67
1659978158.5384,1297521.4217605,60
1659978158.5384,1297521.4217678,60
1659978158.5384,1297521.4217764,74
1659978158.5384,1297521.4217826,74
1659978158.5384,1297521.4217918,69
1659978158.5384,1297521.4217965,57
1659978158.5384,1297521.4218045,37
1659978158.5384,1297521.4218098,39
1659978158.5384,1297521.4218192,53
1659978158.5384,1297521.4218272,51
1659978158.5384,1297521.421834,51
1659978158.5384,1297521.4218405,53
1659978158.5384,1297521.4218465,46
1659978158.5384,1297521.4218566,46
1659978158.5384,1297521.4218609,53
1659978158.5384,1297521.4218669,57
1659978158.5384,1297521.4218722,60
1659978159.0548,1297521.4218796,57
1659978159.0548,1297521.4218856,51
1659978159.0548,1297521.4218918,48
1659978159.0548,1297521.4218987,51
1659978159.0548,1297521.4219222,67
1659978159.0548,1297521.4219346,102
1659978159.0548,1297521.4219477,129
1659978159.0548,1297521.4219566,102
1659978159.0548,1297521.4219644,64
1659978159.0548,1297521.4219753,57
1659978159.0548,1297521.4219838,44
1659978159.0548,1297521.421993,32
1659978159.0548,1297521.4220037,55
1659978159.0548,1297521.4220112,67
1659978159.0548,1297521.4220216,55
1659978159.0548,1297521.4220317,64
1659978159.0548,1297521.4220404,129
1659978159.0548,1297521.4220507,306
1659978159.0548,1297521.4220604,579
1659978159.0548,1297521.4220696,797
1659978159.0548,1297521.4220803,700
1659978159.0548,1297521.42209,166
1659978159.0548,1297521.422095,-234
1659978159.0548,1297521.4221051,-64
1659978159.0548,1297521.4221106,106
1659978159.0548,1297521.4221131,0
1659978159.0548,1297521.4221154,-16
1659978159.0548,1297521.4221174,57
1659978159.0548,1297521.4221195,44
1659978159.0548,1297521.9559433,20
1659978159.0548,1297521.955966,51
1659978159.0548,1297521.9559843,71
1659978159.0548,1297521.9559987,69
1659978159.0548,1297521.9560127,71
1659978159.0548,1297521.9560251,64
1659978159.0548,1297521.9560346,62
1659978159.0548,1297521.9560432,83
1659978159.0548,1297521.9560556,99
1659978159.0548,1297521.9560625,102
1659978159.0548,1297521.9560716,99
1659978159.0548,1297521.9560785,99
1659978159.0548,1297521.9560872,125
1659978159.0548,1297521.9560941,153
1659978159.0548,1297521.9561029,129
1659978159.0548,1297521.9561094,83
1659978159.0548,1297521.9561187,55
1659978159.0548,1297521.9561271,16
1659978159.0548,1297521.9561341,-6
1659978159.0548,1297521.9561429,0
1659978159.0548,1297521.956152,4
1659978159.06577,1297521.9561597,18
1659978159.06577,1297521.9561633,41
1659978159.06577,1297521.9561768,16
1659978159.06577,1297521.9561858,0
1659978159.06577,1297521.9561893,30
1659978159.06577,1297521.9561915,37
1659978159.06577,1297521.9561936,25
1659978159.06577,1297521.9561957,39
1659978159.06577,1297521.9561977,48
1659978159.06577,1297521.9561998,44
1659978159.06577,1297521.9562019,53
1659978159.06577,1297521.956204,74
1659978159.06577,1297521.956206,67
1659978159.06577,1297521.9562081,48
1659978159.06577,1297521.9562102,62
1659978159.06577,1297521.9562122,90
1659978159.06577,1297521.9562142,92
1659978159.06577,1297521.9562162,81
1659978159.06577,1297521.9562182,81
1659978159.06577,1297521.9562204,95
1659978159.06577,1297521.9562229,95
1659978159.06577,1297521.9562331,83
1659978159.06577,1297521.956246,90
1659978159.06577,1297521.9562512,102
1659978159.63858,1297521.9562534,99
1659978159.63858,1297521.9562554,92
1659978159.63858,1297521.9562575,92
1659978159.63858,1297521.9562595,109
1659978159.63858,1297521.9562614,139
1659978159.63858,1297521.9562682,139
1659978159.63858,1297521.956275,109
