Time,TimeLsl,Value
1660029139.85382,1348502.2180375,120
1660029139.85382,1348502.2180636,99
1660029139.85382,1348502.2180725,94
1660029139.85382,1348502.2180767,116
1660029139.85382,1348502.2180916,142
1660029139.85382,1348502.2181023,132
1660029139.85382,1348502.2181078,97
1660029139.85382,1348502.2181113,104
1660029139.85382,1348502.2181162,127
1660029139.85382,1348502.2181197,111
1660029139.85382,1348502.2181246,101
1660029139.85382,1348502.2181281,130
1660029139.85382,1348502.2181329,130
1660029139.85382,1348502.2181368,89
1660029139.85382,1348502.2181415,80
1660029139.85382,1348502.2181449,161
1660029139.85382,1348502.2181501,333
1660029139.85382,1348502.2181535,404
1660029139.85382,1348502.2181584,220
1660029139.85382,1348502.2181618,9
1660029139.85382,1348502.2181667,-2
1660029139.85382,1348502.2181701,30
1660029139.85382,1348502.2181751,-9
1660029139.85382,1348502.2181786,-18
1660029139.85382,1348502.2181834,-4
1660029139.85382,1348502.2181868,-28
1660029139.85382,1348502.2181915,-49
1660029139.85382,1348502.2181949,-47
1660029139.85382,1348502.2181998,-59
1660029139.85382,1348502.2182032,-73
1660029139.85382,1348502.2182084,-52
1660029139.85382,1348502.2182125,-11
1660029139.85382,1348502.2182163,-11
1660029139.85382,1348502.2182211,-18
1660029139.85382,1348502.2182245,-4
1660029139.85382,1348502.2182293,0
1660029139.85382,1348502.2182327,4
1660029139.85382,1348502.2182377,28
1660029139.85382,1348502.2182411,35
1660029139.85382,1348502.218246,28
1660029139.85382,1348502.2182493,33
1660029139.85382,1348502.2182527,33
1660029139.85382,1348502.2182575,26
1660029139.85382,1348502.2182608,16
1660029139.85382,1348502.2182656,9
1660029139.85382,1348502.218269,9
1660029139.85382,1348502.2182739,16
1660029139.85382,1348502.2182773,18
1660029139.85382,1348502.2182821,14
1660029139.85382,1348502.2182856,11
1660029140.0094,1348502.2182904,7
1660029140.0094,1348502.2182938,0
1660029140.0094,1348502.2182986,0
1660029140.0094,1348502.218302,9
1660029140.0094,1348502.2183069,23
1660029140.0094,1348502.2183102,40
1660029140.0094,1348502.218315,49
1660029140.0094,1348502.2183184,30
1660029140.0094,1348502.2183233,16
1660029140.0094,1348502.2183267,37
1660029140.0094,1348502.2183316,59
1660029140.0094,1348502.2183349,63
1660029140.0094,1348502.2183383,61
1660029140.0094,1348502.2183431,63
1660029140.0094,1348502.2183476,75
1660029140.0094,1348502.218351,82
1660029140.0094,1348502.2183561,63
1660029140.0094,1348502.2183599,54
1660029140.0094,1348502.2183632,66
1660029140.0094,1348502.2183681,61
1660029140.0094,1348502.2183715,61
1660029140.0094,1348502.2183748,97
1660029140.0094,1348502.21838,101
1660029140.0094,1348502.803315,66
1660029140.0094,1348502.8033337,52
1660029140.0094,1348502.8033415,61
1660029140.0094,1348502.8033472,68
1660029140.0094,1348502.8033568,63
1660029140.0094,1348502.8033632,52
1660029140.0094,1348502.8033693,47
1660029140.0094,1348502.8033754,52
1660029140.0094,1348502.803382,40
1660029140.0094,1348502.803389,33
1660029140.0094,1348502.8033947,42
1660029140.0094,1348502.8033984,28
1660029140.0094,1348502.8034025,2
1660029140.0094,1348502.8034083,21
1660029140.0094,1348502.8034141,47
1660029140.0094,1348502.8034177,49
1660029140.0094,1348502.8034213,49
1660029140.0094,1348502.803426,56
1660029140.0094,1348502.8034298,142
1660029140.0094,1348502.8035558,341
1660029140.0094,1348502.8035757,435
1660029140.0094,1348502.803584,236
1660029140.0094,1348502.8035906,-26
1660029140.0094,1348502.8035967,-61
1660029140.0094,1348502.8036009,9
1660029140.0094,1348502.8036046,-2
1660029140.0094,1348502.8036086,-33
1660029140.06725,1348502.8036123,-11
1660029140.06725,1348502.803616,7
1660029140.06725,1348502.8036198,9
1660029140.06725,1348502.8036234,7
1660029140.06725,1348502.8036269,4
1660029140.06725,1348502.8036305,7
1660029140.06725,1348502.8036341,0
1660029140.06725,1348502.8036378,-18
1660029140.06725,1348502.8036422,-23
1660029140.06725,1348502.8036507,-4
1660029140.06725,1348502.8036606,14
1660029140.06725,1348502.8036691,11
1660029140.06725,1348502.8036726,16
1660029140.06725,1348502.8036787,40
1660029140.06725,1348502.8036818,49
1660029140.06725,1348502.8036848,56
1660029140.06725,1348502.8036876,63
1660029140.06725,1348502.8036906,52
1660029140.06725,1348502.8036936,42
1660029140.06725,1348502.8036965,42
1660029140.06725,1348502.8036994,30
1660029140.06725,1348502.8037023,33
1660029140.06725,1348502.8037052,52
1660029140.06725,1348502.8037081,35
1660029140.06725,1348502.803711,26
1660029140.06725,1348502.8037138,47
1660029140.06725,1348502.8037167,42
1660029140.06725,1348502.8037195,33
1660029140.06725,1348502.8037224,49
1660029140.06725,1348502.8037253,49
1660029140.06725,1348502.8037282,35
1660029140.06725,1348502.8037311,37
1660029140.06725,1348502.803734,66
1660029140.06725,1348502.8037369,85
1660029140.06725,1348502.8037398,78
1660029140.06725,1348502.8037428,73
1660029140.06725,1348502.8037456,82
1660029140.06725,1348502.8037486,89
1660029140.06725,1348502.8037515,87
1660029140.06725,1348502.8037544,78
1660029140.06725,1348502.8037572,78
1660029140.06725,1348502.8037601,75
1660029140.06725,1348502.803763,78
1660029140.06725,1348502.8037659,87
1660029140.06725,1348502.8037687,92
1660029140.06725,1348502.8037715,89
1660029140.06725,1348503.2915969,92
1660029140.06725,1348503.2916126,101
1660029140.06725,1348503.2916199,101
1660029140.06725,1348503.2916269,106
1660029140.08919,1348503.2916334,113
1660029140.08919,1348503.29164,113
1660029140.08919,1348503.2916465,118
1660029140.08919,1348503.2916532,125
1660029140.08919,1348503.29166,116
1660029140.08919,1348503.2916641,106
1660029140.08919,1348503.2916682,82
1660029140.08919,1348503.2916712,40
1660029140.08919,1348503.2916746,30
1660029140.08919,1348503.2916777,52
1660029140.08919,1348503.291684,35
1660029140.08919,1348503.2916882,0
1660029140.08919,1348503.2916939,0
1660029140.08919,1348503.2916989,11
1660029140.08919,1348503.2917041,28
1660029140.08919,1348503.2917163,168
1660029140.08919,1348503.2917255,371
1660029140.08919,1348503.291732,412
1660029140.08919,1348503.2917394,239
1660029140.08919,1348503.2917465,40
1660029140.08919,1348503.2917524,-23
1660029140.08919,1348503.2917581,11
1660029140.08919,1348503.2917663,14
1660029140.08919,1348503.2917707,-21
1660029140.08919,1348503.2917767,-26
1660029140.08919,1348503.2917821,7
1660029140.08919,1348503.2917898,14
1660029140.08919,1348503.2917943,11
1660029140.08919,1348503.291801,42
1660029140.08919,1348503.2918112,37
1660029140.08919,1348503.2918188,-9
1660029140.08919,1348503.2918261,2
1660029140.08919,1348503.291833,40
1660029140.08919,1348503.2918397,30
1660029140.08919,1348503.2918448,33
1660029140.08919,1348503.2918497,54
1660029140.08919,1348503.2918529,47
1660029140.08919,1348503.2918618,28
1660029140.08919,1348503.2918651,7
1660029140.08919,1348503.2918794,0
1660029140.08919,1348503.2918845,35
1660029140.08919,1348503.2918909,73
1660029140.08919,1348503.2918984,56
1660029140.08919,1348503.2919043,23
1660029140.08919,1348503.2919087,18
1660029140.08919,1348503.2919143,7
1660029140.08919,1348503.2919177,2
1660029140.08919,1348503.2919215,7
1660029140.08919,1348503.2919274,-14
1660029140.08919,1348503.2919319,-7
1660029140.10315,1348503.2919376,37
1660029140.10315,1348503.2919422,35
1660029140.10315,1348503.2919491,-9
1660029140.10315,1348503.2919526,-23
1660029140.10315,1348503.2919558,0
1660029140.10315,1348503.2919588,18
1660029140.10315,1348503.2919619,16
1660029140.10315,1348503.2919648,11
1660029140.10315,1348503.291968,18
1660029140.10315,1348503.2919712,42
1660029140.10315,1348503.2919744,47
1660029140.10315,1348503.2919777,33
1660029140.10315,1348503.2919811,40
1660029140.10315,1348503.2919861,56
1660029140.10315,1348503.2919916,54
1660029140.10315,1348503.2919954,59
1660029140.10315,1348503.2919991,80
1660029140.10315,1348503.2920047,68
1660029140.10315,1348503.2920078,42
1660029140.10315,1348503.8761227,63
1660029140.10315,1348503.8761409,97
1660029140.10315,1348503.8761485,87
1660029140.40465,1348503.8761526,54
1660029140.40465,1348503.876158,23
1660029140.40465,1348503.8761617,0
1660029140.40465,1348503.8761654,-18
1660029140.40465,1348503.876169,2
1660029140.40465,1348503.8761726,44
1660029140.40465,1348503.8761761,52
1660029140.40465,1348503.8761798,49
1660029140.40465,1348503.8761834,44
1660029140.40465,1348503.876187,9
1660029140.40465,1348503.8761974,-11
1660029140.40465,1348503.8762302,-28
1660029140.40465,1348503.8762399,-35
1660029140.40465,1348503.8762443,-4
1660029140.40465,1348503.8762484,2
1660029140.40465,1348503.8762523,-28
1660029140.40465,1348503.8762568,-7
1660029140.40465,1348503.8762604,78
1660029140.40465,1348503.8762644,198
1660029140.40465,1348503.8762681,350
1660029140.40465,1348503.8762719,388
1660029140.40465,1348503.8762755,203
1660029140.40465,1348503.8762803,-11
1660029140.40465,1348503.8762839,-37
1660029140.40465,1348503.8762888,28
1660029140.40465,1348503.8762957,26
1660029140.40465,1348503.8763053,11
1660029140.40465,1348503.8763152,28
1660029140.40465,1348503.8763226,11
1660029140.40465,1348503.8763302,-2
1660029140.40465,1348503.8763384,28
1660029140.40465,1348503.8763435,47
1660029140.40465,1348503.8763573,33
1660029140.40465,1348503.876372,21
1660029140.40465,1348503.8763852,42
1660029140.40465,1348503.8763984,73
1660029140.40465,1348503.8764102,68
1660029140.40465,1348503.8764227,54
1660029140.40465,1348503.8764357,73
1660029140.40465,1348503.8764495,85
1660029140.40465,1348503.8764626,71
1660029140.40465,1348503.8764758,63
1660029140.40465,1348503.8764892,73
1660029140.40465,1348503.8765022,78
1660029140.40465,1348503.8765153,61
1660029140.40465,1348503.8765284,54
1660029140.40465,1348503.8765419,63
1660029140.40465,1348503.8765551,49
1660029140.40465,1348503.8765678,26
1660029140.40465,1348503.8765822,21
1660029140.41562,1348503.8765955,21
1660029140.41562,1348503.8766091,21
1660029140.41562,1348503.8766228,33
1660029140.41562,1348503.8766359,44
1660029140.41562,1348503.8766496,42
1660029140.41562,1348503.8766627,28
1660029140.41562,1348503.8766758,35
1660029140.41562,1348503.8766894,52
1660029140.41562,1348503.8767031,44
1660029140.41562,1348503.8767163,40
1660029140.41562,1348503.8767295,61
1660029140.41562,1348503.8767433,73
1660029140.41562,1348503.8767566,54
1660029140.41562,1348503.87677,49
1660029140.41562,1348503.8767835,59
1660029140.41562,1348503.876797,59
1660029140.41562,1348503.8768101,47
1660029140.41562,1348503.8768233,42
1660029140.41562,1348503.8768365,54
1660029140.41562,1348503.876851,61
1660029140.41562,1348504.5107618,52
1660029140.41562,1348504.5107815,47
1660029140.41562,1348504.5107902,42
1660029140.41562,1348504.5107978,61
1660029140.89725,1348504.510809,92
1660029140.89725,1348504.5108155,82
1660029140.89725,1348504.5108197,63
1660029140.89725,1348504.5108229,52
1660029140.89725,1348504.5108276,26
1660029140.89725,1348504.5108321,2
1660029140.89725,1348504.5108648,2
1660029140.89725,1348504.5108823,11
1660029140.89725,1348504.5108896,30
1660029140.89725,1348504.5108962,47
1660029140.89725,1348504.5109013,26
1660029140.89725,1348504.5109079,-7
1660029140.89725,1348504.5109138,-2
1660029140.89725,1348504.5109192,23
1660029140.89725,1348504.5109251,28
1660029140.89725,1348504.5109299,11
1660029140.89725,1348504.5109346,18
1660029140.89725,1348504.5109389,40
1660029140.89725,1348504.5109429,42
1660029140.89725,1348504.5109473,63
1660029140.89725,1348504.5109515,189
1660029140.89725,1348504.5109559,388
1660029140.89725,1348504.5109603,466
1660029140.89725,1348504.5109649,274
1660029140.89725,1348504.5109697,4
1660029140.89725,1348504.5109744,-35
1660029140.89725,1348504.5109813,63
1660029140.89725,1348504.5109853,42
1660029140.89725,1348504.5109914,-14
1660029140.89725,1348504.510996,21
1660029140.89725,1348504.5110037,42
1660029140.89725,1348504.5110105,21
1660029140.89725,1348504.5110191,28
1660029140.89725,1348504.5110274,37
1660029140.89725,1348504.5110361,21
1660029140.89725,1348504.5110404,33
1660029140.89725,1348504.5110472,68
1660029140.89725,1348504.5110536,66
1660029140.89725,1348504.5110622,42
1660029140.89725,1348504.5110696,49
1660029140.89725,1348504.5110762,49
1660029140.89725,1348504.5110816,18
1660029140.89725,1348504.5110908,9
1660029140.89725,1348504.5110991,35
1660029140.89725,1348504.5111066,44
1660029140.89725,1348504.5111135,44
1660029140.89725,1348504.5111216,52
1660029140.89725,1348504.5111298,54
1660029140.89725,1348504.5111363,49
1660029140.89725,1348504.5111439,37
1660029140.9132,1348504.5111523,26
1660029140.9132,1348504.5111596,18
1660029140.9132,1348504.5111691,21
1660029140.9132,1348504.5111759,30
1660029140.9132,1348504.511184,30
1660029140.9132,1348504.5111914,11
1660029140.9132,1348504.5111987,-2
1660029140.9132,1348504.5112083,-14
1660029140.9132,1348504.5112142,-21
1660029140.9132,1348504.5112215,-7
1660029140.9132,1348504.5112295,9
1660029140.9132,1348504.5112371,11
1660029140.9132,1348504.5112445,11
1660029140.9132,1348504.5112536,16
1660029140.9132,1348504.5112605,18
1660029140.9132,1348504.5112674,26
1660029140.9132,1348504.5112763,26
1660029140.9132,1348504.5112831,14
1660029140.9132,1348504.5112914,9
1660029140.9132,1348504.9973332,11
1660029140.9132,1348504.9973547,2
1660029140.9132,1348504.9973637,4
1660029140.9132,1348504.9973681,37
1660029140.9132,1348504.9973746,44
1660029141.53206,1348504.997382,37
1660029141.53206,1348504.9973892,59
1660029141.53206,1348504.9973964,71
1660029141.53206,1348504.9974034,66
1660029141.53206,1348504.9974072,80
1660029141.53206,1348504.9974106,89
1660029141.53206,1348504.9974163,52
1660029141.53206,1348504.9974196,2
1660029141.53206,1348504.9974269,-9
1660029141.53206,1348504.997431,-4
1660029141.53206,1348504.9974364,11
1660029141.53206,1348504.9974396,30
1660029141.53206,1348504.9974449,23
1660029141.53206,1348504.9974498,26
1660029141.53206,1348504.9974545,59
1660029141.53206,1348504.9974589,71
1660029141.53206,1348504.9974624,61
1660029141.53206,1348504.9974654,54
1660029141.53206,1348504.9974683,56
1660029141.53206,1348504.9974717,44
1660029141.53206,1348504.9974777,18
1660029141.53206,1348504.9974808,14
1660029141.53206,1348504.9974837,66
1660029141.53206,1348504.9974872,217
1660029141.53206,1348504.9974938,416
1660029141.53206,1348504.9974975,466
1660029141.53206,1348504.9975036,255
1660029141.53206,1348504.9975082,2
1660029141.53206,1348504.9975147,-40
1660029141.53206,1348504.9975207,23
1660029141.53206,1348504.9975244,9
1660029141.53206,1348504.9975298,-16
1660029141.53206,1348504.9975335,0
1660029141.53206,1348504.9975387,4
1660029141.53206,1348504.9975427,-7
1660029141.53206,1348504.9975479,-4
1660029141.53206,1348504.9975515,11
1660029141.53206,1348504.9975567,26
1660029141.53206,1348504.9975604,37
1660029141.53206,1348504.9975663,44
1660029141.53206,1348504.9975699,44
1660029141.53206,1348504.9975755,42
1660029141.53206,1348504.9975792,56
1660029141.53206,1348504.9975851,75
1660029141.53206,1348504.9975889,61
1660029141.53206,1348504.9975947,52
1660029141.53206,1348504.9975985,73
1660029141.53206,1348504.9976097,63
1660029141.53206,1348504.9976155,23
1660029141.53206,1348504.9976194,7
1660029141.54203,1348504.9976291,18
1660029141.54203,1348504.9976349,23
1660029141.54203,1348504.9976386,16
1660029141.54203,1348504.9976437,9
1660029141.54203,1348504.9976474,7
1660029141.54203,1348504.9976529,4
1660029141.54203,1348504.9976566,-14
1660029141.54203,1348504.9976618,-37
1660029141.54203,1348504.9976656,-37
1660029141.54203,1348504.9976711,-16
1660029141.54203,1348504.997675,2
1660029141.54203,1348504.9976814,18
1660029141.54203,1348504.9976871,26
1660029141.54203,1348504.9976911,26
1660029141.54203,1348504.9976967,23
1660029141.54203,1348504.9977007,16
1660029141.54203,1348504.997706,11
1660029141.54203,1348504.9977097,16
1660029141.54203,1348505.6328641,33
1660029141.54203,1348505.6328831,40
1660029141.54203,1348505.6328918,40
1660029141.54203,1348505.6328982,42
1660029141.54203,1348505.6329067,56
1660029141.54203,1348505.6329145,73
1660029142.01324,1348505.6329223,85
1660029142.01324,1348505.6329257,80
1660029142.01324,1348505.6329303,47
1660029142.01324,1348505.6329346,18
1660029142.01324,1348505.6329409,33
1660029142.01324,1348505.6329478,52
1660029142.01324,1348505.6329549,44
1660029142.01324,1348505.6329621,47
1660029142.01324,1348505.6329681,44
1660029142.01324,1348505.6329759,16
1660029142.01324,1348505.6329832,9
1660029142.01324,1348505.6329882,26
1660029142.01324,1348505.6330009,33
1660029142.01324,1348505.6330079,26
1660029142.01324,1348505.6330165,26
1660029142.01324,1348505.6330234,44
1660029142.01324,1348505.6330323,68
1660029142.01324,1348505.6330394,63
1660029142.01324,1348505.6330466,49
1660029142.01324,1348505.6330515,52
1660029142.01324,1348505.6330595,59
1660029142.01324,1348505.6330662,56
1660029142.01324,1348505.6330741,56
1660029142.01324,1348505.6330781,63
1660029142.01324,1348505.6330873,71
1660029142.01324,1348505.6330944,82
1660029142.01324,1348505.6331049,104
1660029142.01324,1348505.6331133,182
1660029142.01324,1348505.6331205,364
1660029142.01324,1348505.6331336,509
1660029142.01324,1348505.6331412,414
1660029142.01324,1348505.6331503,165
1660029142.01324,1348505.6331535,44
1660029142.01324,1348505.6331619,89
1660029142.01324,1348505.633175,108
1660029142.01324,1348505.6331846,73
1660029142.01324,1348505.6331976,68
1660029142.01324,1348505.6332069,92
1660029142.01324,1348505.6332096,111
1660029142.01324,1348505.6332117,111
1660029142.01324,1348505.633214,85
1660029142.01324,1348505.6332161,68
1660029142.01324,1348505.6332183,78
1660029142.01324,1348505.6332297,85
1660029142.01324,1348505.6332644,92
1660029142.01324,1348505.6332754,97
1660029142.01324,1348505.6332839,101
1660029142.01324,1348505.6332925,101
1660029142.01324,1348505.6333004,106
1660029142.01324,1348505.6333068,111
1660029142.02421,1348505.6333129,104
1660029142.02421,1348505.6333208,101
1660029142.02421,1348505.6333293,113
1660029142.02421,1348505.6333371,113
1660029142.02421,1348505.6333439,99
1660029142.02421,1348505.6333493,92
1660029142.02421,1348505.6333569,82
1660029142.02421,1348505.6333624,66
1660029142.02421,1348505.6333686,61
1660029142.02421,1348505.633384,78
1660029142.02421,1348505.6333956,89
1660029142.02421,1348505.6334067,75
1660029142.02421,1348505.6334156,63
1660029142.02421,1348505.6334229,68
1660029142.02421,1348505.633429,80
1660029142.02421,1348505.633443,78
1660029142.02421,1348505.6334527,71
1660029142.02421,1348506.1188464,82
1660029142.02421,1348506.1188646,94
1660029142.02421,1348506.1188699,94
1660029142.02421,1348506.1188756,101
1660029142.02421,1348506.1188822,111
1660029142.02421,1348506.1188869,97
1660029142.02421,1348506.1188914,99
1660029142.55314,1348506.118896,130
1660029142.55314,1348506.1189,132
1660029142.55314,1348506.118904,123
1660029142.55314,1348506.118908,127
1660029142.55314,1348506.1189121,116
1660029142.55314,1348506.1189163,106
1660029142.55314,1348506.1189202,113
1660029142.55314,1348506.1189242,127
1660029142.55314,1348506.1189287,139
1660029142.55314,1348506.1189333,139
1660029142.55314,1348506.1189381,116
1660029142.55314,1348506.1189428,92
1660029142.55314,1348506.1189473,97
1660029142.55314,1348506.1189514,111
1660029142.55314,1348506.1189557,104
1660029142.55314,1348506.1189601,101
1660029142.55314,1348506.1189643,106
1660029142.55314,1348506.1189683,101
1660029142.55314,1348506.1189728,99
1660029142.55314,1348506.1189767,113
1660029142.55314,1348506.118983,132
1660029142.55314,1348506.1189871,142
1660029142.55314,1348506.118991,130
1660029142.55314,1348506.1189955,101
1660029142.55314,1348506.1189996,85
1660029142.55314,1348506.1190038,89
1660029142.55314,1348506.119008,106
1660029142.55314,1348506.1190129,116
1660029142.55314,1348506.1190173,113
1660029142.55314,1348506.1190241,106
1660029142.55314,1348506.119029,113
1660029142.55314,1348506.1190355,206
1660029142.55314,1348506.1190418,402
1660029142.55314,1348506.1190478,532
1660029142.55314,1348506.119052,407
1660029142.55314,1348506.1190562,137
1660029142.55314,1348506.1190607,16
1660029142.55314,1348506.1190653,68
1660029142.55314,1348506.1190697,89
1660029142.55314,1348506.1190739,35
1660029142.55314,1348506.1190781,21
1660029142.55314,1348506.1190823,44
1660029142.55314,1348506.1190867,56
1660029142.55314,1348506.1190909,61
1660029142.55314,1348506.119095,73
1660029142.55314,1348506.1190995,73
1660029142.55314,1348506.1191039,73
1660029142.55314,1348506.1191082,85
1660029142.55314,1348506.1191131,89
1660029142.55314,1348506.1191173,85
1660029142.56462,1348506.1191215,87
1660029142.56462,1348506.1193206,85
1660029142.56462,1348506.1193399,89
1660029142.56462,1348506.119348,101
1660029142.56462,1348506.1193576,94
1660029142.56462,1348506.1193636,80
1660029142.56462,1348506.1193696,85
1660029142.56462,1348506.1193756,92
1660029142.56462,1348506.1197674,82
1660029142.56462,1348506.1197905,66
1660029142.56462,1348506.1197998,63
1660029142.56462,1348506.119806,63
1660029142.56462,1348506.119825,63
1660029142.56462,1348506.1198324,71
1660029142.56462,1348506.1198388,68
1660029142.56462,1348506.119844,54
1660029142.56462,1348506.656046,54
1660029142.56462,1348506.6560643,61
1660029142.56462,1348506.6560747,49
1660029142.56462,1348506.656081,44
1660029142.56462,1348506.6560853,49
1660029142.56462,1348506.6560895,44
1660029142.56462,1348506.6560936,59
1660029142.56462,1348506.6561009,75
1660029143.13448,1348506.6561057,40
1660029143.13448,1348506.6561126,7
1660029143.13448,1348506.6561197,33
1660029143.13448,1348506.6561266,52
1660029143.13448,1348506.6561337,44
1660029143.13448,1348506.6561411,49
1660029143.13448,1348506.6561447,40
1660029143.13448,1348506.6561495,18
1660029143.13448,1348506.6561562,16
1660029143.13448,1348506.6561631,14
1660029143.13448,1348506.6561705,26
1660029143.13448,1348506.65618,56
1660029143.13448,1348506.6561861,52
1660029143.13448,1348506.6561922,30
1660029143.13448,1348506.6561965,35
1660029143.13448,1348506.6562032,54
1660029143.13448,1348506.6562077,61
1660029143.13448,1348506.6562132,63
1660029143.13448,1348506.6562174,59
1660029143.13448,1348506.6562239,61
1660029143.13448,1348506.6562294,63
1660029143.13448,1348506.6562334,59
1660029143.13448,1348506.6562418,63
1660029143.13448,1348506.6562507,94
1660029143.13448,1348506.6562604,108
1660029143.13448,1348506.6562649,87
1660029143.13448,1348506.6562706,47
1660029143.13448,1348506.6562745,23
1660029143.13448,1348506.6562798,42
1660029143.13448,1348506.6562841,71
1660029143.13448,1348506.6562886,75
1660029143.13448,1348506.6562919,61
1660029143.13448,1348506.6563017,56
1660029143.13448,1348506.6563065,73
1660029143.13448,1348506.656311,89
1660029143.13448,1348506.6563143,113
1660029143.13448,1348506.6563175,224
1660029143.13448,1348506.6563239,438
1660029143.13448,1348506.6563329,542
1660029143.13448,1348506.65634,357
1660029143.13448,1348506.6563431,56
1660029143.13448,1348506.6563488,-28
1660029143.13448,1348506.6563524,73
1660029143.13448,1348506.6563557,87
1660029143.13448,1348506.6563589,30
1660029143.13448,1348506.6563618,40
1660029143.13448,1348506.6563651,68
1660029143.13448,1348506.6563684,63
1660029143.13448,1348506.6563715,61
1660029143.13448,1348506.6563745,73
1660029143.14545,1348506.6563779,73
1660029143.14545,1348506.6563811,56
1660029143.14545,1348506.6563847,61
1660029143.14545,1348506.6563883,73
1660029143.14545,1348506.6563918,73
1660029143.14545,1348506.6563968,73
1660029143.14545,1348506.6564015,80
1660029143.14545,1348506.6564072,71
1660029143.14545,1348506.6564111,63
1660029143.14545,1348506.6564166,71
1660029143.14545,1348506.6564205,82
1660029143.14545,1348506.6564259,85
1660029143.14545,1348506.6564302,78
1660029143.14545,1348506.6564362,73
1660029143.14545,1348506.6564395,63
1660029143.14545,1348507.2401429,59
1660029143.14545,1348507.2401614,66
1660029143.14545,1348507.2401716,68
1660029143.14545,1348507.2401811,52
1660029143.14545,1348507.2401909,30
1660029143.14545,1348507.2401984,16
1660029143.14545,1348507.2402043,9
1660029143.14545,1348507.2402121,14
1660029143.14545,1348507.2402186,26
1660029143.76847,1348507.2402226,23
1660029143.76847,1348507.240226,16
1660029143.76847,1348507.2402291,4
1660029143.76847,1348507.2402331,-7
1660029143.76847,1348507.2402383,-2
1660029143.76847,1348507.2402432,11
1660029143.76847,1348507.2402478,23
1660029143.76847,1348507.240251,21
1660029143.76847,1348507.2402541,7
1660029143.76847,1348507.2402582,4
1660029143.76847,1348507.2402646,23
1660029143.76847,1348507.240271,30
1660029143.76847,1348507.2402772,18
1660029143.76847,1348507.240282,28
1660029143.76847,1348507.2402855,40
1660029143.76847,1348507.2402888,35
1660029143.76847,1348507.2402923,23
1660029143.76847,1348507.2402957,2
1660029143.76847,1348507.2403014,-14
1660029143.76847,1348507.240308,-4
1660029143.76847,1348507.2403137,7
1660029143.76847,1348507.2403179,4
1660029143.76847,1348507.2403232,16
1660029143.76847,1348507.2403272,35
1660029143.76847,1348507.2403309,40
1660029143.76847,1348507.2403353,42
1660029143.76847,1348507.2403389,44
1660029143.76847,1348507.2403426,52
1660029143.76847,1348507.2403462,63
1660029143.76847,1348507.2403497,75
1660029143.76847,1348507.2403532,71
1660029143.76847,1348507.2403568,61
1660029143.76847,1348507.2403602,66
1660029143.76847,1348507.2403645,75
1660029143.76847,1348507.2403683,80
1660029143.76847,1348507.2403744,89
1660029143.76847,1348507.2403782,92
1660029143.76847,1348507.2403833,85
1660029143.76847,1348507.2403872,87
1660029143.76847,1348507.2403922,125
1660029143.76847,1348507.2403959,234
1660029143.76847,1348507.2404019,414
1660029143.76847,1348507.2404055,485
1660029143.76847,1348507.2404107,298
1660029143.76847,1348507.2404143,52
1660029143.76847,1348507.2404193,2
1660029143.76847,1348507.240423,63
1660029143.76847,1348507.2404286,63
1660029143.76847,1348507.2404323,30
1660029143.76847,1348507.2404374,23
1660029143.77824,1348507.240441,40
1660029143.77824,1348507.2404462,63
1660029143.77824,1348507.2404498,63
1660029143.77824,1348507.2404549,42
1660029143.77824,1348507.2404586,42
1660029143.77824,1348507.2404636,49
1660029143.77824,1348507.2404673,37
1660029143.77824,1348507.2404727,35
1660029143.77824,1348507.2404763,44
1660029143.77824,1348507.2404813,40
1660029143.77824,1348507.2404848,42
1660029143.77824,1348507.2404885,49
1660029143.77824,1348507.2404937,56
1660029143.77824,1348507.2404973,78
1660029143.77824,1348507.8735443,87
1660029143.77824,1348507.8735619,75
1660029143.77824,1348507.8735666,68
1660029143.77824,1348507.8735722,73
1660029143.77824,1348507.8735761,71
1660029143.77824,1348507.8735813,56
1660029143.77824,1348507.873585,52
1660029143.77824,1348507.8735903,52
1660029143.77824,1348507.873594,21
1660029143.77824,1348507.8735992,-11
1660029144.2533,1348507.8736031,-2
1660029144.2533,1348507.8736067,11
1660029144.2533,1348507.8736103,0
1660029144.2533,1348507.8736138,-11
1660029144.2533,1348507.8736173,-18
1660029144.2533,1348507.8736214,-23
1660029144.2533,1348507.8736298,-30
1660029144.2533,1348507.8736581,-35
1660029144.2533,1348507.8736622,-35
1660029144.2533,1348507.8736657,-42
1660029144.2533,1348507.8736693,-54
1660029144.2533,1348507.8736728,-52
1660029144.2533,1348507.8736763,-40
1660029144.2533,1348507.8736797,-23
1660029144.2533,1348507.8736832,-16
1660029144.2533,1348507.8736865,-21
1660029144.2533,1348507.87369,-16
1660029144.2533,1348507.8736934,9
1660029144.2533,1348507.8736969,18
1660029144.2533,1348507.8737142,14
1660029144.2533,1348507.8737258,23
1660029144.2533,1348507.8737295,30
1660029144.2533,1348507.8737329,33
1660029144.2533,1348507.8737362,33
1660029144.2533,1348507.8737394,33
1660029144.2533,1348507.8737428,44
1660029144.2533,1348507.873746,56
1660029144.2533,1348507.8737499,61
1660029144.2533,1348507.8737541,63
1660029144.2533,1348507.8737576,68
1660029144.2533,1348507.8737612,80
1660029144.2533,1348507.8737646,94
1660029144.2533,1348507.8737682,92
1660029144.2533,1348507.8737717,78
1660029144.2533,1348507.8737754,80
1660029144.2533,1348507.8737787,99
1660029144.2533,1348507.8737818,99
1660029144.2533,1348507.873786,80
1660029144.2533,1348507.8737892,78
1660029144.2533,1348507.8737924,87
1660029144.2533,1348507.8737956,85
1660029144.2533,1348507.8738002,113
1660029144.2533,1348507.8738046,248
1660029144.2533,1348507.8738094,426
1660029144.2533,1348507.8738128,433
1660029144.2533,1348507.8738163,217
1660029144.2533,1348507.8738209,26
1660029144.2533,1348507.8738255,28
1660029144.2533,1348507.8738303,85
1660029144.2533,1348507.8738346,66
1660029144.26527,1348507.8738383,52
1660029144.26527,1348507.8738427,68
1660029144.26527,1348507.8738468,66
1660029144.26527,1348507.8738507,66
1660029144.26527,1348507.873855,89
1660029144.26527,1348507.873861,97
1660029144.26527,1348507.8738656,75
1660029144.26527,1348507.8738699,66
1660029144.26527,1348507.8738738,73
1660029144.26527,1348507.8738836,78
1660029144.26527,1348507.8738935,71
1660029144.26527,1348507.8738992,63
1660029144.26527,1348507.8739041,80
1660029144.26527,1348508.3612521,108
1660029144.26527,1348508.3612763,106
1660029144.26527,1348508.361291,97
1660029144.26527,1348508.3613055,101
1660029144.26527,1348508.3613198,101
1660029144.26527,1348508.361334,99
1660029144.26527,1348508.3613471,97
1660029144.26527,1348508.3613606,82
1660029144.26527,1348508.3613699,71
1660029144.26527,1348508.3613737,71
1660029144.26527,1348508.361379,71
1660029144.88947,1348508.3613823,59
1660029144.88947,1348508.3613855,40
1660029144.88947,1348508.3613884,28
1660029144.88947,1348508.3613914,40
1660029144.88947,1348508.3613943,47
1660029144.88947,1348508.3613976,44
1660029144.88947,1348508.3614033,35
1660029144.88947,1348508.3614093,16
1660029144.88947,1348508.3614126,9
1660029144.88947,1348508.3614177,23
1660029144.88947,1348508.3614208,44
1660029144.88947,1348508.3614242,49
1660029144.88947,1348508.3614292,30
1660029144.88947,1348508.3614324,16
1660029144.88947,1348508.3614357,16
1660029144.88947,1348508.3614389,16
1660029144.88947,1348508.3614421,37
1660029144.88947,1348508.3614479,59
1660029144.88947,1348508.361451,47
1660029144.88947,1348508.3614542,35
1660029144.88947,1348508.3614576,47
1660029144.88947,1348508.3614618,54
1660029144.88947,1348508.3614676,54
1660029144.88947,1348508.3614723,66
1660029144.88947,1348508.3614769,82
1660029144.88947,1348508.3614828,87
1660029144.88947,1348508.3614865,80
1660029144.88947,1348508.3614914,73
1660029144.88947,1348508.3614956,78
1660029144.88947,1348508.3615006,92
1660029144.88947,1348508.3615057,104
1660029144.88947,1348508.3615173,108
1660029144.88947,1348508.3615264,106
1660029144.88947,1348508.3615326,92
1660029144.88947,1348508.3615386,80
1660029144.88947,1348508.3615432,99
1660029144.88947,1348508.3615512,132
1660029144.88947,1348508.3615609,137
1660029144.88947,1348508.3615649,113
1660029144.88947,1348508.3615702,104
1660029144.88947,1348508.3615776,106
1660029144.88947,1348508.3615904,127
1660029144.88947,1348508.3616035,243
1660029144.88947,1348508.3616166,457
1660029144.88947,1348508.3616299,554
1660029144.88947,1348508.3616429,374
1660029144.88947,1348508.361656,99
1660029144.88947,1348508.361669,28
1660029144.88947,1348508.361682,108
1660029144.88947,1348508.3616951,120
1660029144.90044,1348508.361708,87
1660029144.90044,1348508.3617213,94
1660029144.90044,1348508.3617343,104
1660029144.90044,1348508.3617474,104
1660029144.90044,1348508.3617604,111
1660029144.90044,1348508.3617734,111
1660029144.90044,1348508.3617864,101
1660029144.90044,1348508.3617995,87
1660029144.90044,1348508.3618127,85
1660029144.90044,1348508.3618259,99
1660029144.90044,1348508.3618389,94
1660029144.90044,1348508.361852,75
1660029144.90044,1348508.9950413,89
1660029144.90044,1348508.9950597,106
1660029144.90044,1348508.9950654,94
1660029144.90044,1348508.995072,92
1660029144.90044,1348508.9950765,89
1660029144.90044,1348508.9950827,71
1660029144.90044,1348508.995088,71
1660029144.90044,1348508.9950949,75
1660029144.90044,1348508.9950985,47
1660029144.90044,1348508.9951017,23
1660029144.90044,1348508.9951064,23
1660029144.90044,1348508.9951119,28
1660029145.3834,1348508.9951249,37
1660029145.3834,1348508.9951328,40
1660029145.3834,1348508.995139,11
1660029145.3834,1348508.9951489,-18
1660029145.3834,1348508.9951593,-2
1660029145.3834,1348508.9951669,30
1660029145.3834,1348508.9951724,26
1660029145.3834,1348508.9951799,21
1660029145.3834,1348508.9951876,26
1660029145.3834,1348508.9951953,26
1660029145.3834,1348508.9952037,33
1660029145.3834,1348508.995214,47
1660029145.3834,1348508.9952249,61
1660029145.3834,1348508.9952333,80
1660029145.3834,1348508.9952434,73
1660029145.3834,1348508.9952542,61
1660029145.3834,1348508.9952617,87
1660029145.3834,1348508.9952678,101
1660029145.3834,1348508.9952769,73
1660029145.3834,1348508.9952816,66
1660029145.3834,1348508.99529,80
1660029145.3834,1348508.9952984,80
1660029145.3834,1348508.9953041,87
1660029145.3834,1348508.9953131,97
1660029145.3834,1348508.9953185,106
1660029145.3834,1348508.9953323,116
1660029145.3834,1348508.9953423,113
1660029145.3834,1348508.9953505,106
1660029145.3834,1348508.9953616,123
1660029145.3834,1348508.9953705,151
1660029145.3834,1348508.995382,161
1660029145.3834,1348508.9953929,144
1660029145.3834,1348508.9953987,127
1660029145.3834,1348508.9954117,132
1660029145.3834,1348508.9954226,146
1660029145.3834,1348508.9954308,139
1660029145.3834,1348508.9954431,134
1660029145.3834,1348508.9954559,156
1660029145.3834,1348508.9954686,175
1660029145.3834,1348508.9954804,156
1660029145.3834,1348508.9954941,142
1660029145.3834,1348508.9955013,232
1660029145.3834,1348508.9955065,438
1660029145.3834,1348508.9955099,573
1660029145.3834,1348508.9955145,445
1660029145.3834,1348508.9955177,165
1660029145.3834,1348508.9955225,56
1660029145.3834,1348508.9955267,137
1660029145.3834,1348508.99553,149
1660029145.3834,1348508.9955331,85
1660029145.39437,1348508.9955362,92
1660029145.39437,1348508.995539,111
1660029145.39437,1348508.995542,111
1660029145.39437,1348508.9955449,113
1660029145.39437,1348508.9955477,99
1660029145.39437,1348508.995553,94
1660029145.39437,1348508.9955565,108
1660029145.39437,1348508.9955624,97
1660029145.39437,1348508.9955661,78
1660029145.39437,1348508.9955728,82
1660029145.39437,1348508.9955782,78
1660029145.39437,1348509.4818839,66
1660029145.39437,1348509.481908,73
1660029145.39437,1348509.4819118,99
1660029145.39437,1348509.4819152,116
1660029145.39437,1348509.4819185,94
1660029145.39437,1348509.4819218,73
1660029145.39437,1348509.4819251,92
1660029145.39437,1348509.4819284,120
1660029145.39437,1348509.4819317,113
1660029145.39437,1348509.4819349,89
1660029145.39437,1348509.4819402,73
1660029145.39437,1348509.4819435,54
1660029145.39437,1348509.4819468,42
1660029145.91774,1348509.4819501,37
1660029145.91774,1348509.4819535,35
1660029145.91774,1348509.4819568,47
1660029145.91774,1348509.4819601,52
1660029145.91774,1348509.4819634,18
1660029145.91774,1348509.4819669,0
1660029145.91774,1348509.4819702,33
1660029145.91774,1348509.4819734,54
1660029145.91774,1348509.4819768,35
1660029145.91774,1348509.4819801,21
1660029145.91774,1348509.4819833,28
1660029145.91774,1348509.4819865,35
1660029145.91774,1348509.4819909,35
1660029145.91774,1348509.4819962,40
1660029145.91774,1348509.4819996,44
1660029145.91774,1348509.4820044,44
1660029145.91774,1348509.4820077,47
1660029145.91774,1348509.482011,52
1660029145.91774,1348509.4820143,59
1660029145.91774,1348509.4820196,68
1660029145.91774,1348509.4820231,75
1660029145.91774,1348509.482028,80
1660029145.91774,1348509.4820315,85
1660029145.91774,1348509.4820443,87
1660029145.91774,1348509.482049,82
1660029145.91774,1348509.4820524,71
1660029145.91774,1348509.4820571,78
1660029145.91774,1348509.4820624,111
1660029145.91774,1348509.4820658,137
1660029145.91774,1348509.4820707,125
1660029145.91774,1348509.482074,104
1660029145.91774,1348509.4820776,111
1660029145.91774,1348509.4820824,125
1660029145.91774,1348509.4820857,120
1660029145.91774,1348509.4820891,111
1660029145.91774,1348509.482094,113
1660029145.91774,1348509.4820972,123
1660029145.91774,1348509.4821007,113

1660029145.91774,1348509.4821055,113
1660029145.91774,1348509.4821089,189
1660029145.91774,1348509.4821123,371
1660029145.91774,1348509.4821172,513
1660029145.91774,1348509.4821205,412
1660029145.91774,1348509.4821239,142
1660029145.91774,1348509.4821286,21
1660029145.91774,1348509.4821334,92
1660029145.91774,1348509.4821366,108
1660029145.91774,1348509.4821403,56
1660029145.91774,1348509.482145,66
1660029145.91774,1348509.4821483,80
1660029145.92771,1348509.4821517,59
1660029145.92771,1348509.4821565,61
1660029145.92771,1348509.4821612,75
1660029145.92771,1348509.4821644,73
1660029145.92771,1348509.4821678,66
1660029145.92771,1348509.4821725,73
1660029145.92771,1348509.4821772,97
1660029145.92771,1348509.4821805,97
1660029145.92771,1348509.4821839,71
1660029145.92771,1348509.4821888,68
1660029145.92771,1348510.0183362,92
1660029145.92771,1348510.0183488,87
1660029145.92771,1348510.0183523,75
1660029145.92771,1348510.0183564,87
1660029145.92771,1348510.0183589,82
1660029145.92771,1348510.0183612,71
1660029145.92771,1348510.0183636,82
1660029145.92771,1348510.018366,73
1660029145.92771,1348510.0183683,33
1660029145.92771,1348510.0183706,14
1660029145.92771,1348510.0183729,14
1660029145.92771,1348510.0183752,0
1660029145.92771,1348510.0183775,0
1660029145.92771,1348510.0183813,-4
1660029146.59968,1348510.0183947,-37
1660029146.59968,1348510.0184002,-61
1660029146.59968,1348510.0184023,-54
1660029146.59968,1348510.0184043,-42
1660029146.59968,1348510.0184063,-33
1660029146.59968,1348510.0184082,-21
1660029146.59968,1348510.0184102,-16
1660029146.59968,1348510.0184121,-16
1660029146.59968,1348510.0184141,-9
1660029146.59968,1348510.0184161,-2
1660029146.59968,1348510.018418,2
1660029146.59968,1348510.01842,16
1660029146.59968,1348510.0184219,26
1660029146.59968,1348510.0184238,26
1660029146.59968,1348510.0184257,28
1660029146.59968,1348510.0184276,30
1660029146.59968,1348510.0184296,26
1660029146.59968,1348510.0184315,26
1660029146.59968,1348510.0184334,42
1660029146.59968,1348510.0184354,54
1660029146.59968,1348510.0184373,49
1660029146.59968,1348510.0184394,42
1660029146.59968,1348510.0184412,49
1660029146.59968,1348510.0184433,61
1660029146.59968,1348510.0184454,71
1660029146.59968,1348510.0184486,82
1660029146.59968,1348510.0184507,94
1660029146.59968,1348510.0184528,87
1660029146.59968,1348510.0184548,71
1660029146.59968,1348510.0184568,73
1660029146.59968,1348510.0184589,80
1660029146.59968,1348510.018461,75
1660029146.59968,1348510.0184631,63
1660029146.59968,1348510.0184652,56
1660029146.59968,1348510.0184673,66
1660029146.59968,1348510.0184695,73
1660029146.59968,1348510.0184715,73
1660029146.59968,1348510.0184737,172
1660029146.59968,1348510.0184758,386
1660029146.59968,1348510.0184779,473
1660029146.59968,1348510.0184801,298
1660029146.59968,1348510.0184843,47
1660029146.59968,1348510.0184914,-28
1660029146.59968,1348510.0184952,44
1660029146.59968,1348510.0184986,54
1660029146.59968,1348510.0185006,7
1660029146.59968,1348510.0185028,23
1660029146.59968,1348510.0185048,49
1660029146.59968,1348510.018507,47
1660029146.59968,1348510.0185091,49
1660029146.61065,1348510.0185112,42
1660029146.61065,1348510.0185133,30
1660029146.61065,1348510.0185153,37
1660029146.61065,1348510.0185174,52
1660029146.61065,1348510.0185195,56
1660029146.61065,1348510.0185216,63
1660029146.61065,1348510.0185237,66
1660029146.61065,1348510.0185258,66
1660029146.61065,1348510.0185279,73
1660029146.61065,1348510.7007029,82
1660029146.61065,1348510.7007162,85
1660029146.61065,1348510.7007194,75
1660029146.61065,1348510.7007237,63
1660029146.61065,1348510.7007261,44
1660029146.61065,1348510.7007285,11
1660029146.61065,1348510.7007311,-18
1660029146.61065,1348510.7007335,-11
1660029146.61065,1348510.7007358,-2
1660029146.61065,1348510.7007382,-16
1660029146.61065,1348510.7007405,-47
1660029146.61065,1348510.7007429,-68
1660029146.61065,1348510.7007452,-54
1660029146.61065,1348510.7007476,-40
1660029146.61065,1348510.70075,-59
1660029147.1326,1348510.7007523,-63
1660029147.1326,1348510.7007546,-42
1660029147.1326,1348510.7007567,-33
1660029147.1326,1348510.700759,-33
1660029147.1326,1348510.7007611,-21
1660029147.1326,1348510.7007632,-9
1660029147.1326,1348510.7007654,-9
1660029147.1326,1348510.7007676,-9
1660029147.1326,1348510.7007699,0
1660029147.1326,1348510.7007719,9
1660029147.1326,1348510.700774,11
1660029147.1326,1348510.7007768,14
1660029147.1326,1348510.7007791,26
1660029147.1326,1348510.7007814,40
1660029147.1326,1348510.7007837,44
1660029147.1326,1348510.7007858,44
1660029147.1326,1348510.700788,44
1660029147.1326,1348510.7007902,42
1660029147.1326,1348510.7007925,37
1660029147.1326,1348510.7007948,40
1660029147.1326,1348510.700797,49
1660029147.1326,1348510.7007993,56
1660029147.1326,1348510.7008016,75
1660029147.1326,1348510.7008039,97
1660029147.1326,1348510.7008061,85
1660029147.1326,1348510.7008084,66
1660029147.1326,1348510.7008107,78
1660029147.1326,1348510.7008128,85
1660029147.1326,1348510.700815,73
1660029147.1326,1348510.7008172,78
1660029147.1326,1348510.7008195,94
1660029147.1326,1348510.7008216,101
1660029147.1326,1348510.7008239,85
1660029147.1326,1348510.7008261,56
1660029147.1326,1348510.7008284,80
1660029147.1326,1348510.7008307,232
1660029147.1326,1348510.700833,426
1660029147.1326,1348510.7008352,414
1660029147.1326,1348510.7008375,175
1660029147.1326,1348510.7008398,0
1660029147.1326,1348510.7008419,42
1660029147.1326,1348510.7008442,92
1660029147.1326,1348510.7008483,40
1660029147.1326,1348510.7008506,37
1660029147.1326,1348510.7008528,89
1660029147.1326,1348510.7008588,82
1660029147.1326,1348510.700871,61
1660029147.1326,1348510.7008773,75
1660029147.1326,1348510.7008877,87
1660029147.1326,1348510.7008994,85
1660029147.14457,1348510.7009125,87
1660029147.14457,1348510.7009222,104
1660029147.14457,1348510.7009299,113
1660029147.14457,1348510.7009341,94
1660029147.14457,1348510.7009394,78
1660029147.14457,1348510.7009488,101
1660029147.14457,1348510.700955,116
1660029147.14457,1348510.7009573,111
1660029147.14457,1348511.23713,116
1660029147.14457,1348511.2371447,113
1660029147.14457,1348511.2371486,101
1660029147.14457,1348511.2371539,101
1660029147.14457,1348511.2371593,101
1660029147.14457,1348511.2371627,106
1660029147.14457,1348511.2371661,106
1660029147.14457,1348511.2371693,87
1660029147.14457,1348511.2371725,75
1660029147.14457,1348511.2371758,73
1660029147.14457,1348511.2371791,49
1660029147.14457,1348511.2371823,33
1660029147.14457,1348511.2371856,42
1660029147.14457,1348511.2371889,26
1660029147.14457,1348511.2371922,-4
1660029147.14457,1348511.2371955,-7
1660029147.62089,1348511.2371988,2
1660029147.62089,1348511.2372022,4
1660029147.62089,1348511.2372056,9
1660029147.62089,1348511.2372089,2
1660029147.62089,1348511.2372122,-23
1660029147.62089,1348511.2372154,-35
1660029147.62089,1348511.2372187,-23
1660029147.62089,1348511.2372219,-11
1660029147.62089,1348511.2372251,-4
1660029147.62089,1348511.2372284,-7
1660029147.62089,1348511.2372317,-16
1660029147.62089,1348511.2372349,-23
1660029147.62089,1348511.2372381,-18
1660029147.62089,1348511.2372414,-11
1660029147.62089,1348511.2372446,-9
1660029147.62089,1348511.2372479,2
1660029147.62089,1348511.2372511,9
1660029147.62089,1348511.2372543,2
1660029147.62089,1348511.2372576,-2
1660029147.62089,1348511.2372609,11
1660029147.62089,1348511.2372641,35
1660029147.62089,1348511.2372674,49
1660029147.62089,1348511.2372706,44
1660029147.62089,1348511.2372739,33
1660029147.62089,1348511.2372771,33
1660029147.62089,1348511.2372804,23
1660029147.62089,1348511.2372836,-4
1660029147.62089,1348511.2372868,2
1660029147.62089,1348511.23729,35
1660029147.62089,1348511.2372933,28
1660029147.62089,1348511.2372965,-7
1660029147.62089,1348511.2373006,2
1660029147.62089,1348511.2373039,106
1660029147.62089,1348511.2373072,303
1660029147.62089,1348511.2373105,426
1660029147.62089,1348511.2373138,307
1660029147.62089,1348511.237317,56
1660029147.62089,1348511.2373202,-54
1660029147.62089,1348511.2373235,21
1660029147.62089,1348511.2373268,61
1660029147.62089,1348511.23733,16
1660029147.62089,1348511.2373333,14
1660029147.62089,1348511.2373365,40
1660029147.62089,1348511.2373397,35
1660029147.62089,1348511.2373431,30
1660029147.62089,1348511.2373463,40
1660029147.62089,1348511.2373495,42
1660029147.62089,1348511.2373527,47
1660029147.62089,1348511.237356,71
1660029147.62089,1348511.2373593,89
1660029147.63186,1348511.2373627,82
1660029147.63186,1348511.2373659,82
1660029147.63186,1348511.2373692,99
1660029147.63186,1348511.2373725,108
1660029147.63186,1348511.2373765,104
1660029147.63186,1348511.2373805,104
1660029147.63186,1348511.2373839,106
1660029147.63186,1348511.7254045,106
1660029147.63186,1348511.7254207,101
1660029147.63186,1348511.7254251,101
1660029147.63186,1348511.7254288,111
1660029147.63186,1348511.7254327,104
1660029147.63186,1348511.7254363,82
1660029147.63186,1348511.72544,71
1660029147.63186,1348511.7254436,80
1660029147.63186,1348511.7254472,89
1660029147.63186,1348511.7254507,71
1660029147.63186,1348511.7254542,40
1660029147.63186,1348511.7254577,16
1660029147.63186,1348511.725461,23
1660029147.63186,1348511.7254644,26
1660029147.63186,1348511.7254678,2
1660029147.63186,1348511.7254711,2
1660029147.63186,1348511.7254744,21
1660029148.20708,1348511.7254777,11
1660029148.20708,1348511.7254811,-9
1660029148.20708,1348511.7254843,-7
1660029148.20708,1348511.7254876,4
1660029148.20708,1348511.7254908,9
1660029148.20708,1348511.725494,7
1660029148.20708,1348511.7254973,-11
1660029148.20708,1348511.7255005,-40
1660029148.20708,1348511.7255037,-37
1660029148.20708,1348511.7255069,-16
1660029148.20708,1348511.7255102,-23
1660029148.20708,1348511.7255135,-18
1660029148.20708,1348511.7255167,2
1660029148.20708,1348511.72552,-4
1660029148.20708,1348511.7255232,-26
1660029148.20708,1348511.7255264,-9
1660029148.20708,1348511.7255297,7
1660029148.20708,1348511.7255329,2
1660029148.20708,1348511.7255362,-2
1660029148.20708,1348511.7255394,-7
1660029148.20708,1348511.7255427,-18
1660029148.20708,1348511.725546,-16
1660029148.20708,1348511.7255492,2
1660029148.20708,1348511.7255524,9
1660029148.20708,1348511.7255556,7
1660029148.20708,1348511.7255589,14
1660029148.20708,1348511.7255621,16
1660029148.20708,1348511.7255654,7
1660029148.20708,1348511.7255687,4
1660029148.20708,1348511.7255721,82
1660029148.20708,1348511.7255753,272
1660029148.20708,1348511.7255787,421
1660029148.20708,1348511.7255819,338
1660029148.20708,1348511.7255851,78
1660029148.20708,1348511.7255884,-61
1660029148.20708,1348511.7255917,9
1660029148.20708,1348511.7255949,59
1660029148.20708,1348511.7255983,18
1660029148.20708,1348511.7256015,18
1660029148.20708,1348511.7256048,49
1660029148.20708,1348511.725608,42
1660029148.20708,1348511.7256113,33
1660029148.20708,1348511.7256145,49
1660029148.20708,1348511.7256179,56
1660029148.20708,1348511.7256211,56
1660029148.20708,1348511.7256242,80
1660029148.20708,1348511.7256275,97
1660029148.20708,1348511.7256307,89
1660029148.20708,1348511.7256341,97
1660029148.20708,1348511.7256375,116
1660029148.21705,1348511.7256407,116
1660029148.21705,1348511.725644,113
1660029148.21705,1348511.7256472,123
1660029148.21705,1348511.7256504,132
1660029148.21705,1348511.7256537,132
1660029148.21705,1348511.725657,137
1660029148.21705,1348512.3097412,132
1660029148.21705,1348512.3097548,116
1660029148.21705,1348512.3097574,101
1660029148.21705,1348512.3097596,101
1660029148.21705,1348512.3097618,113
1660029148.21705,1348512.3097638,113
1660029148.21705,1348512.3097658,101
1660029148.21705,1348512.309768,80
1660029148.21705,1348512.3097701,47
1660029148.21705,1348512.3097722,23
1660029148.21705,1348512.3097752,14
1660029148.21705,1348512.3097824,18
1660029148.21705,1348512.3097912,26
1660029148.21705,1348512.3097955,18
1660029148.21705,1348512.3098024,-4
1660029148.21705,1348512.3098077,-14
1660029148.21705,1348512.3098182,7
1660029148.21705,1348512.3098237,21
1660029148.74094,1348512.309826,2
1660029148.74094,1348512.3098281,-11
1660029148.74094,1348512.3098302,-21
1660029148.74094,1348512.3098321,-35
1660029148.74094,1348512.3098344,-30
1660029148.74094,1348512.3098413,-9
1660029148.74094,1348512.3098505,-9
1660029148.74094,1348512.3098585,-28
1660029148.74094,1348512.3098628,-44
1660029148.74094,1348512.309867,-52
1660029148.74094,1348512.3098729,-47
1660029148.74094,1348512.3098776,-28
1660029148.74094,1348512.3098856,-16
1660029148.74094,1348512.309892,-21
1660029148.74094,1348512.309898,-18
1660029148.74094,1348512.3099072,-16
1660029148.74094,1348512.3099162,-9
1660029148.74094,1348512.3099202,9
1660029148.74094,1348512.3099339,14
1660029148.74094,1348512.3099446,-4
1660029148.74094,1348512.3099523,0
1660029148.74094,1348512.3099583,18
1660029148.74094,1348512.3099676,18
1660029148.74094,1348512.3099752,14
1660029148.74094,1348512.3099816,4
1660029148.74094,1348512.3099907,-11
1660029148.74094,1348512.3099983,30
1660029148.74094,1348512.3100077,201
1660029148.74094,1348512.3100146,371
1660029148.74094,1348512.3100281,319
1660029148.74094,1348512.3100385,94
1660029148.74094,1348512.3100486,-23
1660029148.74094,1348512.3100597,7
1660029148.74094,1348512.3100685,35
1660029148.74094,1348512.3100771,23
1660029148.74094,1348512.3100884,21
1660029148.74094,1348512.3100964,28
1660029148.74094,1348512.31011,26
1660029148.74094,1348512.3101228,23
1660029148.74094,1348512.3101318,35
1660029148.74094,1348512.3101387,54
1660029148.74094,1348512.3101501,59
1660029148.74094,1348512.310161,63
1660029148.74094,1348512.3101671,89
1660029148.74094,1348512.3101709,99
1660029148.74094,1348512.3101745,85
1660029148.74094,1348512.3101781,78
1660029148.74094,1348512.3101819,87
1660029148.74094,1348512.310188,97
1660029148.74094,1348512.3101916,113
1660029148.76787,1348512.3101954,134
1660029148.76787,1348512.3101989,139
1660029148.76787,1348512.3102041,130
1660029148.76787,1348512.3102075,120
1660029148.76787,1348512.3102108,116
1660029148.76787,1348512.8463988,108
1660029148.76787,1348512.8464499,92
1660029148.76787,1348512.8464681,71
1660029148.76787,1348512.8464825,66
1660029148.76787,1348512.8464932,80
1660029148.76787,1348512.8464975,80
1660029148.76787,1348512.8465034,68
1660029148.76787,1348512.846529,71
1660029148.76787,1348512.8465359,80
1660029148.76787,1348512.8465381,78
1660029148.76787,1348512.8465401,66
1660029148.76787,1348512.8465422,33
1660029148.76787,1348512.8465627,21
1660029148.76787,1348512.8465848,44
1660029148.76787,1348512.8465878,42
1660029148.76787,1348512.8465901,35
1660029148.76787,1348512.8465921,54
1660029148.76787,1348512.8465943,37
1660029148.76787,1348512.8465965,-4
1660029149.29432,1348512.8465996,-2
1660029149.29432,1348512.846611,-2
1660029149.29432,1348512.8466161,-28
1660029149.29432,1348512.8466183,-23
1660029149.29432,1348512.8466203,-9
1660029149.29432,1348512.8466222,-28
1660029149.29432,1348512.8466241,-42
1660029149.29432,1348512.8466392,-23
1660029149.29432,1348512.846646,-9
1660029149.29432,1348512.8466508,-16
1660029149.29432,1348512.8466529,-23
1660029149.29432,1348512.846655,-18
1660029149.29432,1348512.8466571,-4
1660029149.29432,1348512.8466592,-4
1660029149.29432,1348512.8466613,-9
1660029149.29432,1348512.8466635,-9
1660029149.29432,1348512.8466656,-16
1660029149.29432,1348512.8466676,-21
1660029149.29432,1348512.8466696,-14
1660029149.29432,1348512.8466718,-4
1660029149.29432,1348512.8466739,4
1660029149.29432,1348512.846676,21
1660029149.29432,1348512.8466782,18
1660029149.29432,1348512.8466807,26
1660029149.29432,1348512.8466829,146
1660029149.29432,1348512.8466852,345
1660029149.29432,1348512.8466873,386
1660029149.29432,1348512.8466894,196
1660029149.29432,1348512.8466964,2
1660029149.29432,1348512.8467069,-14
1660029149.29432,1348512.8467182,33
1660029149.29432,1348512.8467279,33
1660029149.29432,1348512.8467321,35
1660029149.29432,1348512.8467374,42
1660029149.29432,1348512.8467412,49
1660029149.29432,1348512.8467461,59
1660029149.29432,1348512.8467497,56
1660029149.29432,1348512.8467642,56
1660029149.29432,1348512.8467688,71
1660029149.29432,1348512.8467731,87
1660029149.29432,1348512.8467753,85
1660029149.29432,1348512.8467837,82
1660029149.29432,1348512.8467914,111
1660029149.29432,1348512.8467985,127
1660029149.29432,1348512.8468022,116
1660029149.29432,1348512.8468074,111
1660029149.29432,1348512.846812,120
1660029149.29432,1348512.8468173,125
1660029149.29432,1348512.8468206,123
1660029149.29432,1348512.8468243,125
1660029149.32124,1348512.8468279,137
1660029149.32124,1348512.8468317,134
1660029149.32124,1348512.8468367,123
1660029149.32124,1348512.8468538,130
1660029149.32124,1348513.3823941,130
1660029149.32124,1348513.3824141,116
1660029149.32124,1348513.382423,116
1660029149.32124,1348513.3824299,125
1660029149.32124,1348513.3824345,127
1660029149.32124,1348513.3824403,123
1660029149.32124,1348513.3824446,113
1660029149.32124,1348513.3824503,104
1660029149.32124,1348513.3824558,92
1660029149.32124,1348513.3824607,85
1660029149.32124,1348513.3824673,85
1660029149.32124,1348513.3824731,99
1660029149.32124,1348513.3824786,113
1660029149.32124,1348513.3824829,82
1660029149.32124,1348513.3824888,28
1660029149.32124,1348513.3824933,30
1660029149.32124,1348513.3824971,52
1660029149.32124,1348513.382501,35
1660029149.32124,1348513.3825048,37
1660029149.32124,1348513.3825086,68
1660029149.91505,1348513.3825125,63
1660029149.91505,1348513.3825163,40
1660029149.91505,1348513.3825202,42
1660029149.91505,1348513.3825242,49
1660029149.91505,1348513.3825277,37
1660029149.91505,1348513.3825314,30
1660029149.91505,1348513.3825349,42
1660029149.91505,1348513.3825404,42
1660029149.91505,1348513.3825467,26
1660029149.91505,1348513.3825508,21
1660029149.91505,1348513.382557,40
1660029149.91505,1348513.382561,54
1660029149.91505,1348513.3825648,59
1660029149.91505,1348513.3825686,61
1660029149.91505,1348513.3825735,49
1660029149.91505,1348513.3825777,33
1660029149.91505,1348513.3825837,37
1660029149.91505,1348513.3825961,56
1660029149.91505,1348513.3826001,66
1660029149.91505,1348513.3826056,61
1660029149.91505,1348513.3826094,40
1660029149.91505,1348513.3826157,42
1660029149.91505,1348513.3826203,153
1660029149.91505,1348513.3826267,350
1660029149.91505,1348513.3826328,485
1660029149.91505,1348513.382637,419
1660029149.91505,1348513.3826406,149
1660029149.91505,1348513.3826444,-26
1660029149.91505,1348513.3826482,56
1660029149.91505,1348513.382652,125
1660029149.91505,1348513.3826577,68
1660029149.91505,1348513.3826616,56
1660029149.91505,1348513.3826653,92
1660029149.91505,1348513.3826708,89
1660029149.91505,1348513.3826758,87
1660029149.91505,1348513.3826812,101
1660029149.91505,1348513.3826848,97
1660029149.91505,1348513.3826885,82
1660029149.91505,1348513.3826922,92
1660029149.91505,1348513.3826976,111
1660029149.91505,1348513.3827021,125
1660029149.91505,1348513.3827076,125
1660029149.91505,1348513.3827114,137
1660029149.91505,1348513.3827164,153
1660029149.91505,1348513.3827201,153
1660029149.91505,1348513.3827253,151
1660029149.91505,1348513.382729,165
1660029149.91505,1348513.3827348,187
1660029149.91505,1348513.3827387,172
1660029149.91505,1348513.382744,156
1660029149.92602,1348513.3827476,175
1660029149.92602,1348513.3827665,184
1660029149.92602,1348513.3827701,170
1660029149.92602,1348514.0160611,161
1660029149.92602,1348514.0160733,163
1660029149.92602,1348514.0160774,170
1660029149.92602,1348514.0160825,153
1660029149.92602,1348514.0160845,120
1660029149.92602,1348514.0160874,99
1660029149.92602,1348514.0160895,92
1660029149.92602,1348514.0160916,97
1660029149.92602,1348514.0160943,104
1660029149.92602,1348514.0160965,92
1660029149.92602,1348514.0160986,80
1660029149.92602,1348514.0161007,71
1660029149.92602,1348514.0161028,61
1660029149.92602,1348514.0161049,73
1660029149.92602,1348514.016107,87
1660029149.92602,1348514.0161103,80
1660029149.92602,1348514.0161217,59
1660029149.92602,1348514.016128,40
1660029149.92602,1348514.0161343,49
1660029149.92602,1348514.0161444,78
1660029149.92602,1348514.0161501,71
1660029150.44775,1348514.0161523,59
1660029150.44775,1348514.0161544,75
1660029150.44775,1348514.0161565,73
1660029150.44775,1348514.0161586,68
1660029150.44775,1348514.0161607,92
1660029150.44775,1348514.0161627,101
1660029150.44775,1348514.0161647,82
1660029150.44775,1348514.0161666,68
1660029150.44775,1348514.0161686,63
1660029150.44775,1348514.0161705,59
1660029150.44775,1348514.0161726,61
1660029150.44775,1348514.0161747,59
1660029150.44775,1348514.0161766,54
1660029150.44775,1348514.0161785,73
1660029150.44775,1348514.0161804,99
1660029150.44775,1348514.0161826,87
1660029150.44775,1348514.0161904,54
1660029150.44775,1348514.0161986,47
1660029150.44775,1348514.0162058,56
1660029150.44775,1348514.0162126,73
1660029150.44775,1348514.0162269,87
1660029150.44775,1348514.0162573,80
1660029150.44775,1348514.0162682,66
1660029150.44775,1348514.0162787,97
1660029150.44775,1348514.0162912,220
1660029150.44775,1348514.0163067,404
1660029150.44775,1348514.0163142,485
1660029150.44775,1348514.0163215,310
1660029150.44775,1348514.0163326,42
1660029150.44775,1348514.0163439,-26
1660029150.44775,1348514.0163584,66
1660029150.44775,1348514.0163674,80
1660029150.44775,1348514.0163699,33
1660029150.44775,1348514.0163758,47
1660029150.44775,1348514.016387,71
1660029150.44775,1348514.0163928,63
1660029150.44775,1348514.016402,73
1660029150.44775,1348514.0164082,94
1660029150.44775,1348514.0164204,94
1660029150.44775,1348514.0164319,87
1660029150.44775,1348514.0164393,97
1660029150.44775,1348514.0164507,106
1660029150.44775,1348514.0164609,101
1660029150.44775,1348514.016468,106
1660029150.44775,1348514.0164774,127
1660029150.44775,1348514.0164872,137
1660029150.44775,1348514.0164925,132
1660029150.44775,1348514.0165023,142
1660029150.44775,1348514.0165123,158
1660029150.44775,1348514.0165248,158
1660029150.46769,1348514.0165378,142
1660029150.46769,1348514.0165502,113
1660029150.46769,1348514.5536328,104
1660029150.46769,1348514.5536537,113
1660029150.46769,1348514.5536628,101
1660029150.46769,1348514.5536687,87
1660029150.46769,1348514.553677,97
1660029150.46769,1348514.5536839,87
1660029150.46769,1348514.5536918,54
1660029150.46769,1348514.5536985,49
1660029150.46769,1348514.5537073,68
1660029150.46769,1348514.5537157,78
1660029150.46769,1348514.5537218,78
1660029150.46769,1348514.5537302,78
1660029150.46769,1348514.5537392,89
1660029150.46769,1348514.5537455,82
1660029150.46769,1348514.5537497,44
1660029150.46769,1348514.5537535,28
1660029150.46769,1348514.5537601,49
1660029150.46769,1348514.5537684,54
1660029150.46769,1348514.5537805,49
1660029150.46769,1348514.5537917,44
1660029150.46769,1348514.5538011,14
1660029150.46769,1348514.553808,-7
1660029151.0392,1348514.5538164,14
1660029151.0392,1348514.5538229,30
1660029151.0392,1348514.5538287,21
1660029151.0392,1348514.5538703,21
1660029151.0392,1348514.5538912,21
1660029151.0392,1348514.5539312,7
1660029151.0392,1348514.5539619,7
1660029151.0392,1348514.5539733,23
1660029151.0392,1348514.5539855,16
1660029151.0392,1348514.553997,2
1660029151.0392,1348514.554008,9
1660029151.0392,1348514.5540132,9
1660029151.0392,1348514.5540169,-2
1660029151.0392,1348514.5540202,0
1660029151.0392,1348514.5540237,14
1660029151.0392,1348514.5540269,9
1660029151.0392,1348514.5540305,-4
1660029151.0392,1348514.5540357,-9
1660029151.0392,1348514.5540427,0
1660029151.0392,1348514.5540495,9
1660029151.0392,1348514.5540578,16
1660029151.0392,1348514.5540648,28
1660029151.0392,1348514.5540696,33
1660029151.0392,1348514.5540747,21
1660029151.0392,1348514.5540812,18
1660029151.0392,1348514.5540865,30
1660029151.0392,1348514.554092,33
1660029151.0392,1348514.5540979,37
1660029151.0392,1348514.5541056,56
1660029151.0392,1348514.5541171,56
1660029151.0392,1348514.5541288,42
1660029151.0392,1348514.5541412,63
1660029151.0392,1348514.554152,179
1660029151.0392,1348514.5541587,378
1660029151.0392,1348514.5541627,473
1660029151.0392,1348514.5541675,310
1660029151.0392,1348514.5541897,66
1660029151.0392,1348514.5541997,-4
1660029151.0392,1348514.5542114,54
1660029151.0392,1348514.554221,68
1660029151.0392,1348514.5542313,44
1660029151.0392,1348514.5542408,66
1660029151.0392,1348514.5542475,73
1660029151.0392,1348514.5542549,37
1660029151.0392,1348514.5542594,21
1660029151.0392,1348514.554263,40
1660029151.0392,1348514.5542666,52
1660029151.0392,1348514.5542701,47
1660029151.0392,1348514.5542738,44
1660029151.0392,1348514.5542773,47
1660029151.05024,1348514.5542809,63
1660029151.05024,1348515.1374099,80
1660029151.05024,1348515.1374626,71
1660029151.05024,1348515.1374692,63
1660029151.05024,1348515.1374747,82
1660029151.05024,1348515.137479,101
1660029151.05024,1348515.1374821,101
1660029151.05024,1348515.1374851,108
1660029151.05024,1348515.1374881,116
1660029151.05024,1348515.1374911,106
1660029151.05024,1348515.137494,99
1660029151.05024,1348515.1374969,80
1660029151.05024,1348515.1374998,47
1660029151.05024,1348515.1375029,37
1660029151.05024,1348515.1375057,49
1660029151.05024,1348515.1375085,42
1660029151.05024,1348515.1375114,23
1660029151.05024,1348515.1375143,9
1660029151.05024,1348515.1375173,-2
1660029151.05024,1348515.1375204,-14
1660029151.05024,1348515.1375232,-11
1660029151.05024,1348515.1375261,-9
1660029151.05024,1348515.137529,-18
1660029151.05024,1348515.1375319,-18
1660029151.61877,1348515.1375359,4
1660029151.61877,1348515.1375426,14
1660029151.61877,1348515.1375468,11
1660029151.61877,1348515.1375508,16
1660029151.61877,1348515.1375552,18
1660029151.61877,1348515.1375585,11
1660029151.61877,1348515.1375615,-9
1660029151.61877,1348515.1375643,-37
1660029151.61877,1348515.1375679,-37
1660029151.61877,1348515.1375742,-11
1660029151.61877,1348515.1375779,4
1660029151.61877,1348515.1375837,0
1660029151.61877,1348515.1375875,0
1660029151.61877,1348515.1375929,7
1660029151.61877,1348515.1375966,-4
1660029151.61877,1348515.1376019,-9
1660029151.61877,1348515.1376055,11
1660029151.61877,1348515.1376092,14
1660029151.61877,1348515.1376127,11
1660029151.61877,1348515.1376833,33
1660029151.61877,1348515.1376927,35
1660029151.61877,1348515.1376956,18
1660029151.61877,1348515.1376979,21
1660029151.61877,1348515.1377001,35
1660029151.61877,1348515.1377023,52
1660029151.61877,1348515.1377044,59
1660029151.61877,1348515.1377066,52
1660029151.61877,1348515.1377087,49
1660029151.61877,1348515.1377107,47
1660029151.61877,1348515.1377128,42
1660029151.61877,1348515.1377149,52
1660029151.61877,1348515.137717,78
1660029151.61877,1348515.1377192,80
1660029151.61877,1348515.1377213,80
1660029151.61877,1348515.1377235,101
1660029151.61877,1348515.1377256,92
1660029151.61877,1348515.1377276,40
1660029151.61877,1348515.1377298,37
1660029151.61877,1348515.1377319,66
1660029151.61877,1348515.1377352,56
1660029151.61877,1348515.1377494,47
1660029151.61877,1348515.137756,59
1660029151.61877,1348515.1377607,68
1660029151.61877,1348515.1377633,97
1660029151.61877,1348515.1377724,201
1660029151.61877,1348515.1377816,383
1660029151.61877,1348515.1377953,480
1660029151.61877,1348515.1378038,324
1660029151.61877,1348515.1378108,78
1660029151.61877,1348515.137814,28
1660029151.62969,1348515.7218541,94
1660029151.62969,1348515.721872,82
1660029151.62969,1348515.7218879,54
1660029151.62969,1348515.7219019,75
1660029151.62969,1348515.7219156,92
1660029151.62969,1348515.7219295,92
1660029151.62969,1348515.7219441,101
1660029151.62969,1348515.7219497,99
1660029151.62969,1348515.7219541,68
1660029151.62969,1348515.7219632,66
1660029151.62969,1348515.7219705,92
1660029151.62969,1348515.7219744,97
1660029151.62969,1348515.7219783,101
1660029151.62969,1348515.7219823,99
1660029151.62969,1348515.721986,63
1660029151.62969,1348515.7219898,44
1660029151.62969,1348515.7219973,63
1660029151.62969,1348515.7220024,78
1660029151.62969,1348515.7220063,87
1660029151.62969,1348515.722012,101
1660029151.62969,1348515.7220159,101
1660029151.62969,1348515.7220205,89
1660029151.62969,1348515.7220252,89
1660029151.62969,1348515.7220289,89
1660029152.15257,1348515.7220325,82
1660029152.15257,1348515.722036,80
1660029152.15257,1348515.7220394,73
1660029152.15257,1348515.7220427,66
1660029152.15257,1348515.7220468,68
1660029152.15257,1348515.7220519,56
1660029152.15257,1348515.7220582,33
1660029152.15257,1348515.7220641,28
1660029152.15257,1348515.7220696,35
1660029152.15257,1348515.7220761,42
1660029152.15257,1348515.7220801,49
1660029152.15257,1348515.7220834,66
1660029152.15257,1348515.7220867,87
1660029152.15257,1348515.7220903,89
1660029152.15257,1348515.7220939,75
1660029152.15257,1348515.7220984,80
1660029152.15257,1348515.722103,87
1660029152.15257,1348515.7221106,73
1660029152.15257,1348515.72212,73
1660029152.15257,1348515.722126,89
1660029152.15257,1348515.7221312,101
1660029152.15257,1348515.7221359,108
1660029152.15257,1348515.7221423,104
1660029152.15257,1348515.7221461,106
1660029152.15257,1348515.7221503,116
1660029152.15257,1348515.7221561,108
1660029152.15257,1348515.7221726,99
1660029152.15257,1348515.7221861,97
1660029152.15257,1348515.7221963,82
1660029152.15257,1348515.7222055,75
1660029152.15257,1348515.7222138,87
1660029152.15257,1348515.7222227,99
1660029152.15257,1348515.7222324,99
1660029152.15257,1348515.7222393,104
1660029152.15257,1348515.7222454,97
1660029152.15257,1348515.7222568,87
1660029152.15257,1348515.7222637,111
1660029152.15257,1348515.7222704,125
1660029152.15257,1348515.7222746,108
1660029152.15257,1348515.7222778,108
1660029152.15257,1348515.7222839,123
1660029152.15257,1348515.7222899,118
1660029152.15257,1348515.7222991,120
1660029152.15257,1348515.7223111,123
1660029152.15257,1348515.7223189,116
1660029152.15257,1348515.722327,127
1660029152.15257,1348515.7223386,151
1660029152.15257,1348515.7223527,149
1660029152.15257,1348515.7223655,146
1660029152.15257,1348516.2593498,158
1660029152.16454,1348516.2593684,144
1660029152.16454,1348516.259376,127
1660029152.16454,1348516.2593828,156
1660029152.16454,1348516.259386,172
1660029152.16454,1348516.259389,149
1660029152.16454,1348516.259392,137
1660029152.16454,1348516.2593948,168
1660029152.16454,1348516.2593978,296
1660029152.16454,1348516.2594008,509
1660029152.16454,1348516.2594036,610
1660029152.16454,1348516.2594065,414
1660029152.16454,1348516.2594093,113
1660029152.16454,1348516.2594122,33
1660029152.16454,1348516.2594151,111
1660029152.16454,1348516.2594179,118
1660029152.16454,1348516.2594208,71
1660029152.16454,1348516.2594237,66
1660029152.16454,1348516.2594266,59
1660029152.16454,1348516.2594296,49
1660029152.16454,1348516.2594324,66
1660029152.16454,1348516.2594353,71
1660029152.16454,1348516.2594381,66
1660029152.16454,1348516.259441,49
1660029152.16454,1348516.2594439,14
1660029152.64786,1348516.2594472,4
1660029152.64786,1348516.2594537,28
1660029152.64786,1348516.2594605,33
1660029152.64786,1348516.2594675,33
1660029152.64786,1348516.2594747,47
1660029152.64786,1348516.259481,42
1660029152.64786,1348516.2594852,35
1660029152.64786,1348516.2594878,47
1660029152.64786,1348516.2594905,49
1660029152.64786,1348516.2594932,49
1660029152.64786,1348516.2594959,63
1660029152.64786,1348516.2594985,63
1660029152.64786,1348516.2595011,59
1660029152.64786,1348516.2595038,63
1660029152.64786,1348516.2595065,68
1660029152.64786,1348516.2595091,66
1660029152.64786,1348516.259513,52
1660029152.64786,1348516.2595158,40
1660029152.64786,1348516.2595187,28
1660029152.64786,1348516.2595216,16
1660029152.64786,1348516.2595244,21
1660029152.64786,1348516.2595274,30
1660029152.64786,1348516.2595303,26
1660029152.64786,1348516.2595331,26
1660029152.64786,1348516.2595361,30
1660029152.64786,1348516.259539,28
1660029152.64786,1348516.2595418,37
1660029152.64786,1348516.2595447,54
1660029152.64786,1348516.2595474,63
1660029152.64786,1348516.2595502,68
1660029152.64786,1348516.259553,66
1660029152.64786,1348516.2595557,66
1660029152.64786,1348516.2595584,78
1660029152.64786,1348516.2595611,82
1660029152.64786,1348516.2595651,80
1660029152.64786,1348516.2595717,87
1660029152.64786,1348516.2595788,94
1660029152.64786,1348516.2595884,92
1660029152.64786,1348516.2595969,92
1660029152.64786,1348516.2596085,97
1660029152.64786,1348516.2596214,99
1660029152.64786,1348516.2596307,99
1660029152.64786,1348516.2596372,101
1660029152.64786,1348516.2596408,101
1660029152.64786,1348516.2596527,101
1660029152.64786,1348516.2596665,106
1660029152.64786,1348516.2596801,111
1660029152.64786,1348516.2596936,106
1660029152.64786,1348516.7458853,104
1660029152.64786,1348516.7459051,108
1660029152.65883,1348516.7459183,104
1660029152.65883,1348516.7459213,85
1660029152.65883,1348516.7459235,89
1660029152.65883,1348516.7459257,116
1660029152.65883,1348516.7459279,111
1660029152.65883,1348516.74593,85
1660029152.65883,1348516.7459322,59
1660029152.65883,1348516.7459345,49
1660029152.65883,1348516.7459379,54
1660029152.65883,1348516.7459487,63
1660029152.65883,1348516.7459548,71
1660029152.65883,1348516.745961,75
1660029152.65883,1348516.7459718,75
1660029152.65883,1348516.7459805,63
1660029152.65883,1348516.7459919,63
1660029152.65883,1348516.7459976,75
1660029152.65883,1348516.7459999,80
1660029152.65883,1348516.746002,75
1660029152.65883,1348516.746004,59
1660029152.65883,1348516.7460062,42
1660029152.65883,1348516.746011,63
1660029152.65883,1348516.7460243,163
1660029152.65883,1348516.7460367,343
1660029152.65883,1348516.7460426,426
1660029153.3253,1348516.7460459,234
1660029153.3253,1348516.7460492,-26
1660029153.3253,1348516.7460524,-75
1660029153.3253,1348516.7460557,-7
1660029153.3253,1348516.7460589,-11
1660029153.3253,1348516.7460619,-35
1660029153.3253,1348516.7460652,-9
1660029153.3253,1348516.7460685,-7
1660029153.3253,1348516.7460717,-28
1660029153.3253,1348516.746075,-23
1660029153.3253,1348516.7460781,-21
1660029153.3253,1348516.7460813,-44
1660029153.3253,1348516.7460847,-49
1660029153.3253,1348516.7460892,-33
1660029153.3253,1348516.7460923,-30
1660029153.3253,1348516.7460953,-28
1660029153.3253,1348516.7460983,-9
1660029153.3253,1348516.7461012,2
1660029153.3253,1348516.7461043,0
1660029153.3253,1348516.7461071,16
1660029153.3253,1348516.7461105,52
1660029153.3253,1348516.7461138,59
1660029153.3253,1348516.7461167,49
1660029153.3253,1348516.7461197,54
1660029153.3253,1348516.7461228,56
1660029153.3253,1348516.746126,49
1660029153.3253,1348516.7461293,52
1660029153.3253,1348516.7461333,63
1660029153.3253,1348516.7461384,59
1660029153.3253,1348516.7461427,54
1660029153.3253,1348516.7461462,49
1660029153.3253,1348516.7461496,35
1660029153.3253,1348516.7461546,30
1660029153.3253,1348516.7461589,49
1660029153.3253,1348516.7461624,59
1660029153.3253,1348516.7461659,47
1660029153.3253,1348516.7461696,49
1660029153.3253,1348516.7461729,71
1660029153.3253,1348516.7461759,68
1660029153.3253,1348516.7461792,52
1660029153.3253,1348516.7461824,49
1660029153.3253,1348516.7461856,59
1660029153.3253,1348516.7461888,75
1660029153.3253,1348516.746192,78
1660029153.3253,1348516.7461953,59
1660029153.3253,1348516.7461986,59
1660029153.3253,1348516.7462019,82
1660029153.3253,1348517.4290105,87
1660029153.3253,1348517.4290308,82
1660029153.3253,1348517.4290374,82
1660029153.33528,1348517.429041,78
1660029153.33528,1348517.4290449,54
1660029153.33528,1348517.42905,26
1660029153.33528,1348517.4290537,35
1660029153.33528,1348517.4290585,66
1660029153.33528,1348517.429062,61
1660029153.33528,1348517.4290658,40
1660029153.33528,1348517.4290748,30
1660029153.33528,1348517.4290785,14
1660029153.33528,1348517.4290836,-4
1660029153.33528,1348517.4290912,4
1660029153.33528,1348517.4291016,23
1660029153.33528,1348517.429112,21
1660029153.33528,1348517.4291188,18
1660029153.33528,1348517.4291277,26
1660029153.33528,1348517.4291371,28
1660029153.33528,1348517.4291432,23
1660029153.33528,1348517.4291459,21
1660029153.33528,1348517.4291533,21
1660029153.33528,1348517.4291641,28
1660029153.33528,1348517.4291683,37
1660029153.33528,1348517.4291704,28
1660029153.33528,1348517.4291726,9
1660029153.33528,1348517.4291789,-2
1660029153.81563,1348517.4291901,2
1660029153.81563,1348517.4291937,9

1660029153.81563,1348517.4291964,-2
1660029153.81563,1348517.4292058,-16
1660029153.81563,1348517.4292135,-14
1660029153.81563,1348517.4292269,-11
1660029153.81563,1348517.429233,-9
1660029153.81563,1348517.4292355,54
1660029153.81563,1348517.4292377,227
1660029153.81563,1348517.4292441,400
1660029153.81563,1348517.4292555,345
1660029153.81563,1348517.4292663,87
1660029153.81563,1348517.4292761,-68
1660029153.81563,1348517.4292875,-16
1660029153.81563,1348517.4292958,33
1660029153.81563,1348517.4293023,0
1660029153.81563,1348517.4293086,-4
1660029153.81563,1348517.4293148,23
1660029153.81563,1348517.4293243,30
1660029153.81563,1348517.4293326,35
1660029153.81563,1348517.4293386,44
1660029153.81563,1348517.4293453,47
1660029153.81563,1348517.4293493,54
1660029153.81563,1348517.4293558,66
1660029153.81563,1348517.4293597,73
1660029153.81563,1348517.4293658,80
1660029153.81563,1348517.4293704,89
1660029153.81563,1348517.4293762,94
1660029153.81563,1348517.4293801,99
1660029153.81563,1348517.4293846,106
1660029153.81563,1348517.4293916,106
1660029153.81563,1348517.4293951,108
1660029153.81563,1348517.4293981,120
1660029153.81563,1348517.4294014,118
1660029153.81563,1348517.4294045,101
1660029153.81563,1348517.4294076,111
1660029153.81563,1348517.4294109,127
1660029153.81563,1348517.4294139,123
1660029153.81563,1348517.4294171,111
1660029153.81563,1348517.4294197,108
1660029153.81563,1348517.4294229,106
1660029153.81563,1348517.4294261,94
1660029153.81563,1348517.4294292,89
1660029153.81563,1348517.4294328,89
1660029153.81563,1348517.4294361,94
1660029153.81563,1348517.4294407,116
1660029153.81563,1348517.9159544,127
1660029153.81563,1348517.9159773,108
1660029153.81563,1348517.9159926,92
1660029153.81563,1348517.9160075,97
1660029153.8256,1348517.9160215,116
1660029153.8256,1348517.9160349,137
1660029153.8256,1348517.9160489,142
1660029153.8256,1348517.9160624,120
1660029153.8256,1348517.9160761,106
1660029153.8256,1348517.9160899,104
1660029153.8256,1348517.916104,108
1660029153.8256,1348517.9161173,123
1660029153.8256,1348517.9161316,130
1660029153.8256,1348517.9161453,104
1660029153.8256,1348517.916159,63
1660029153.8256,1348517.9161818,56
1660029153.8256,1348517.9161844,71
1660029153.8256,1348517.9161864,61
1660029153.8256,1348517.9161886,42
1660029153.8256,1348517.9161905,40
1660029153.8256,1348517.9161925,35
1660029153.8256,1348517.9161943,30
1660029153.8256,1348517.9162194,37
1660029153.8256,1348517.9162214,23
1660029153.8256,1348517.9162234,-2
1660029153.8256,1348517.9162266,-9
1660029153.8256,1348517.9162288,-33
1660029153.8256,1348517.9162309,-61
1660029154.34749,1348517.916233,-40
1660029154.34749,1348517.916235,-26
1660029154.34749,1348517.9162409,-37
1660029154.34749,1348517.9162507,-14
1660029154.34749,1348517.916255,4
1660029154.34749,1348517.9162573,-11
1660029154.34749,1348517.9162593,-16
1660029154.34749,1348517.9162613,-2
1660029154.34749,1348517.9162632,7
1660029154.34749,1348517.916266,21
1660029154.34749,1348517.9162741,26
1660029154.34749,1348517.9162811,4
1660029154.34749,1348517.9162952,4
1660029154.34749,1348517.9163087,30
1660029154.34749,1348517.9163178,49
1660029154.34749,1348517.9163205,134
1660029154.34749,1348517.9163228,317
1660029154.34749,1348517.916325,466
1660029154.34749,1348517.9163271,407
1660029154.34749,1348517.9163292,144
1660029154.34749,1348517.9163313,-44
1660029154.34749,1348517.9163334,-4
1660029154.34749,1348517.9163359,47
1660029154.34749,1348517.9163382,18
1660029154.34749,1348517.9163403,30
1660029154.34749,1348517.9163424,52
1660029154.34749,1348517.9163446,37
1660029154.34749,1348517.9163467,35
1660029154.34749,1348517.9163489,42
1660029154.34749,1348517.9163511,47
1660029154.34749,1348517.9163532,61
1660029154.34749,1348517.9163552,82
1660029154.34749,1348517.9163573,94
1660029154.34749,1348517.9163594,87
1660029154.34749,1348517.9163615,87
1660029154.34749,1348517.9163636,106
1660029154.34749,1348517.9163657,111
1660029154.34749,1348517.9163679,108
1660029154.34749,1348517.91637,120
1660029154.34749,1348517.9163721,127
1660029154.34749,1348517.9163744,130
1660029154.34749,1348517.9163765,146
1660029154.34749,1348517.9163786,144
1660029154.34749,1348517.9163807,127
1660029154.34749,1348517.9163827,137
1660029154.34749,1348518.4524009,139
1660029154.34749,1348518.452421,123
1660029154.34749,1348518.4524381,127
1660029154.34749,1348518.4524521,123
1660029154.34749,1348518.4524659,97
1660029154.35846,1348518.4524814,94
1660029154.35846,1348518.4524925,101
1660029154.35846,1348518.4525023,73
1660029154.35846,1348518.4525088,63
1660029154.35846,1348518.4525168,80
1660029154.35846,1348518.4525255,56
1660029154.35846,1348518.4525324,26
1660029154.35846,1348518.4525452,30
1660029154.35846,1348518.4525553,30
1660029154.35846,1348518.452562,18
1660029154.35846,1348518.4525746,21
1660029154.35846,1348518.4525849,7
1660029154.35846,1348518.4525918,-26
1660029154.35846,1348518.4526044,-37
1660029154.35846,1348518.4526148,-26
1660029154.35846,1348518.4526202,-35
1660029154.35846,1348518.4526355,-47
1660029154.35846,1348518.4526481,-30
1660029154.35846,1348518.4526537,-33
1660029154.35846,1348518.4526584,-47
1660029154.35846,1348518.4526619,-47
1660029154.35846,1348518.4526682,-42
1660029154.35846,1348518.4526716,-21
1660029154.35846,1348518.4526778,7
1660029154.93505,1348518.4526827,2
1660029154.93505,1348518.4526884,-14
1660029154.93505,1348518.4526938,-18
1660029154.93505,1348518.4526996,-14
1660029154.93505,1348518.4527059,0
1660029154.93505,1348518.4527125,16
1660029154.93505,1348518.4527212,11
1660029154.93505,1348518.4527275,2
1660029154.93505,1348518.4527351,14
1660029154.93505,1348518.4527393,21
1660029154.93505,1348518.4527474,18
1660029154.93505,1348518.4527536,23
1660029154.93505,1348518.4527622,40
1660029154.93505,1348518.4527696,37
1660029154.93505,1348518.4527786,21
1660029154.93505,1348518.4527866,23
1660029154.93505,1348518.4527901,49
1660029154.93505,1348518.4527949,54
1660029154.93505,1348518.4528016,47
1660029154.93505,1348518.4528049,59
1660029154.93505,1348518.45281,61
1660029154.93505,1348518.4528178,52
1660029154.93505,1348518.4528246,97
1660029154.93505,1348518.4528277,251
1660029154.93505,1348518.4528307,452
1660029154.93505,1348518.4528338,497
1660029154.93505,1348518.4528369,265
1660029154.93505,1348518.4528399,9
1660029154.93505,1348518.4528428,9
1660029154.93505,1348518.4528459,106
1660029154.93505,1348518.4528488,85
1660029154.93505,1348518.452852,56
1660029154.93505,1348518.4528549,78
1660029154.93505,1348518.4528579,85
1660029154.93505,1348518.4528608,75
1660029154.93505,1348518.4528638,59
1660029154.93505,1348518.4528668,56
1660029154.93505,1348518.4528697,85
1660029154.93505,1348518.4528727,94
1660029154.93505,1348518.4528759,87
1660029154.93505,1348518.4528788,97
1660029154.93505,1348518.4528817,106
1660029154.93505,1348518.4528847,106
1660029154.93505,1348518.4528876,123
1660029154.93505,1348519.0389477,144
1660029154.93505,1348519.0389607,142
1660029154.93505,1348519.0389639,120
1660029154.93505,1348519.0389666,111
1660029154.93505,1348519.0389691,116
1660029154.93505,1348519.0389715,127
1660029154.94702,1348519.0389736,120
1660029154.94702,1348519.0389757,85
1660029154.94702,1348519.0389778,49
1660029154.94702,1348519.0389798,35
1660029154.94702,1348519.0389818,30
1660029154.94702,1348519.038984,21
1660029154.94702,1348519.038986,14
1660029154.94702,1348519.0389881,9
1660029154.94702,1348519.0389904,-23
1660029154.94702,1348519.0389928,-54
1660029154.94702,1348519.0389952,-33
1660029154.94702,1348519.0389975,-16
1660029154.94702,1348519.0389997,-44
1660029154.94702,1348519.039002,-52
1660029154.94702,1348519.0390044,-35
1660029154.94702,1348519.0390067,-42
1660029154.94702,1348519.0390091,-40
1660029154.94702,1348519.0390115,-16
1660029154.94702,1348519.0390137,-2
1660029154.94702,1348519.0390159,-7
1660029154.94702,1348519.0390182,-21
1660029154.94702,1348519.0390207,-35
1660029154.94702,1348519.0390229,-28
1660029154.94702,1348519.0390253,-11
1660029155.47555,1348519.0390275,-18
1660029155.47555,1348519.0390297,-28
1660029155.47555,1348519.0390318,-21
1660029155.47555,1348519.039034,-9
1660029155.47555,1348519.039036,9
1660029155.47555,1348519.039038,14
1660029155.47555,1348519.0390402,2
1660029155.47555,1348519.0390424,9
1660029155.47555,1348519.0390446,16
1660029155.47555,1348519.0390466,21
1660029155.47555,1348519.0390487,23
1660029155.47555,1348519.0390508,16
1660029155.47555,1348519.0390529,14
1660029155.47555,1348519.039055,23
1660029155.47555,1348519.0390572,40
1660029155.47555,1348519.0390592,59
1660029155.47555,1348519.0390612,68
1660029155.47555,1348519.0390639,56
1660029155.47555,1348519.0390678,42
1660029155.47555,1348519.0390739,52
1660029155.47555,1348519.0390787,63
1660029155.47555,1348519.0390856,61
1660029155.47555,1348519.0390907,61
1660029155.47555,1348519.0390979,73
1660029155.47555,1348519.0391012,78
1660029155.47555,1348519.0391042,63
1660029155.47555,1348519.0391071,78
1660029155.47555,1348519.03911,208
1660029155.47555,1348519.0391129,412
1660029155.47555,1348519.0391158,464
1660029155.47555,1348519.0391188,253
1660029155.47555,1348519.0391216,16
1660029155.47555,1348519.0391245,-2
1660029155.47555,1348519.0391274,75
1660029155.47555,1348519.0391303,56
1660029155.47555,1348519.0391332,11
1660029155.47555,1348519.0391362,28
1660029155.47555,1348519.0391391,49
1660029155.47555,1348519.0391421,59
1660029155.47555,1348519.039145,71
1660029155.47555,1348519.0391479,66
1660029155.47555,1348519.0391508,52
1660029155.47555,1348519.0391537,61
1660029155.47555,1348519.5734297,71
1660029155.47555,1348519.5734443,63
1660029155.47555,1348519.5734492,63
1660029155.47555,1348519.573456,68
1660029155.47555,1348519.5734594,59
1660029155.47555,1348519.5734644,61
1660029155.47555,1348519.5734699,73
1660029155.48851,1348519.5734746,80
1660029155.48851,1348519.5734777,85
1660029155.48851,1348519.5734811,89
1660029155.48851,1348519.5734846,78
1660029155.48851,1348519.5734899,66
1660029155.48851,1348519.5734935,59
1660029155.48851,1348519.5734987,47
1660029155.48851,1348519.5735021,54
1660029155.48851,1348519.5735058,54
1660029155.48851,1348519.5735111,18
1660029155.48851,1348519.5735161,-21
1660029155.48851,1348519.5735214,-26
1660029155.48851,1348519.5735264,-9
1660029155.48851,1348519.5735299,-9
1660029155.48851,1348519.5735336,-28
1660029155.48851,1348519.5735373,-47
1660029155.48851,1348519.5735441,-68
1660029155.48851,1348519.5735488,-89
1660029155.48851,1348519.5735522,-92
1660029155.48851,1348519.5735557,-66
1660029155.48851,1348519.5735592,-49
1660029155.48851,1348519.5735628,-61
1660029155.48851,1348519.5735663,-66
1660029155.48851,1348519.5735699,-52
1660029156.06084,1348519.5735735,-40
1660029156.06084,1348519.5735771,-42
1660029156.06084,1348519.5735805,-47
1660029156.06084,1348519.5735839,-52
1660029156.06084,1348519.5735873,-44
1660029156.06084,1348519.5735907,-26
1660029156.06084,1348519.5735948,-23
1660029156.06084,1348519.5735989,-16
1660029156.06084,1348519.5736019,9
1660029156.06084,1348519.5736048,30
1660029156.06084,1348519.5736077,26
1660029156.06084,1348519.5736106,16
1660029156.06084,1348519.5736134,18
1660029156.06084,1348519.5736164,26
1660029156.06084,1348519.5736193,42
1660029156.06084,1348519.5736222,52
1660029156.06084,1348519.5736251,49
1660029156.06084,1348519.5736279,44
1660029156.06084,1348519.5736308,35
1660029156.06084,1348519.5736337,26
1660029156.06084,1348519.5736365,30
1660029156.06084,1348519.5736394,42
1660029156.06084,1348519.5736423,30
1660029156.06084,1348519.5736452,7
1660029156.06084,1348519.573648,2
1660029156.06084,1348519.573651,7
1660029156.06084,1348519.5736539,7
1660029156.06084,1348519.5736568,49
1660029156.06084,1348519.5736596,198
1660029156.06084,1348519.5736625,364
1660029156.06084,1348519.5736654,338
1660029156.06084,1348519.5736682,118
1660029156.06084,1348519.5736711,-40
1660029156.06084,1348519.573674,-14
1660029156.06084,1348519.5736769,18
1660029156.06084,1348519.5736798,-2
1660029156.06084,1348519.5736827,-16
1660029156.06084,1348519.5736856,-23
1660029156.06084,1348519.5736884,-21
1660029156.06084,1348519.5736914,-4
1660029156.06084,1348519.5736942,2
1660029156.06084,1348519.5736971,0
1660029156.06084,1348520.1583698,0
1660029156.06084,1348520.1583831,14
1660029156.06084,1348520.1583911,42
1660029156.06084,1348520.1584011,59
1660029156.06084,1348520.158414,44
1660029156.06084,1348520.1584291,44
1660029156.06084,1348520.1584382,61
1660029156.06084,1348520.1584408,56
1660029156.07155,1348520.1584429,37
1660029156.07155,1348520.1584478,42
1660029156.07155,1348520.1584588,59
1660029156.07155,1348520.1584659,85
1660029156.07155,1348520.1584703,97
1660029156.07155,1348520.1584772,56
1660029156.07155,1348520.1584887,4
1660029156.07155,1348520.1584931,2
1660029156.07155,1348520.1584968,9
1660029156.07155,1348520.1585005,-4
1660029156.07155,1348520.1585125,-2
1660029156.07155,1348520.1585217,4
1660029156.07155,1348520.1585242,-2
1660029156.07155,1348520.1585264,-14
1660029156.07155,1348520.1585286,-26
1660029156.07155,1348520.1585313,-18
1660029156.07155,1348520.1585407,7
1660029156.07155,1348520.1585499,11
1660029156.07155,1348520.158553,4
1660029156.07155,1348520.1585551,21
1660029156.07155,1348520.1585572,30
1660029156.07155,1348520.1585593,28
1660029156.07155,1348520.1585614,44
1660029156.07155,1348520.1585638,37
1660029156.69544,1348520.1585732,18
1660029156.69544,1348520.1585805,44
1660029156.69544,1348520.158583,75
1660029156.69544,1348520.158585,75
1660029156.69544,1348520.1585878,68
1660029156.69544,1348520.1585958,68
1660029156.69544,1348520.1586059,66
1660029156.69544,1348520.1586147,66
1660029156.69544,1348520.1586173,75
1660029156.69544,1348520.1586195,68
1660029156.69544,1348520.1586216,56
1660029156.69544,1348520.1586237,61
1660029156.69544,1348520.1586259,63
1660029156.69544,1348520.158628,94
1660029156.69544,1348520.1586301,111
1660029156.69544,1348520.1586322,59
1660029156.69544,1348520.1586344,30
1660029156.69544,1348520.1586367,54
1660029156.69544,1348520.1586388,63
1660029156.69544,1348520.1586409,59
1660029156.69544,1348520.1586429,40
1660029156.69544,1348520.158645,28
1660029156.69544,1348520.1586471,59
1660029156.69544,1348520.1586495,75
1660029156.69544,1348520.1586572,132
1660029156.69544,1348520.158668,326
1660029156.69544,1348520.1586779,449
1660029156.69544,1348520.1586868,310
1660029156.69544,1348520.158694,71
1660029156.69544,1348520.1586965,-33
1660029156.69544,1348520.1586988,30
1660029156.69544,1348520.1587009,73
1660029156.69544,1348520.1587029,21
1660029156.69544,1348520.1587056,16
1660029156.69544,1348520.1587142,54
1660029156.69544,1348520.1587248,35
1660029156.69544,1348520.1587328,0
1660029156.69544,1348520.1587404,14
1660029156.69544,1348520.1587491,37
1660029156.69544,1348520.1587587,37
1660029156.69544,1348520.1587657,52
1660029156.69544,1348520.7930611,80
1660029156.69544,1348520.7930745,56
1660029156.69544,1348520.7930771,21
1660029156.69544,1348520.7930795,47
1660029156.69544,1348520.7930818,92
1660029156.69544,1348520.7930839,68
1660029156.69544,1348520.793086,33
1660029156.69544,1348520.7930881,75
1660029156.69544,1348520.7930902,113
1660029156.70641,1348520.7930922,68
1660029156.70641,1348520.7930943,18
1660029156.70641,1348520.7930965,-7
1660029156.70641,1348520.7930986,-33
1660029156.70641,1348520.7931007,-33
1660029156.70641,1348520.7931028,-21
1660029156.70641,1348520.793118,-30
1660029156.70641,1348520.7931201,-54
1660029156.70641,1348520.7931221,-104
1660029156.70641,1348520.7931243,-125
1660029156.70641,1348520.7931399,-75
1660029156.70641,1348520.7931421,-49
1660029156.70641,1348520.7931441,-75
1660029156.70641,1348520.7931462,-89
1660029156.70641,1348520.7931483,-87
1660029156.70641,1348520.7931505,-80
1660029156.70641,1348520.7931526,-71
1660029156.70641,1348520.7931547,-47
1660029156.70641,1348520.7931567,-26
1660029156.70641,1348520.7931589,-33
1660029156.70641,1348520.7931611,-49
1660029156.70641,1348520.7931632,-54
1660029156.70641,1348520.7931652,-44
1660029156.70641,1348520.7931673,-16
1660029157.22961,1348520.7931694,-9
1660029157.22961,1348520.7931714,-35
1660029157.22961,1348520.7931734,-40
1660029157.22961,1348520.7931753,-37
1660029157.22961,1348520.7931774,-42
1660029157.22961,1348520.7931795,-26
1660029157.22961,1348520.7931816,0
1660029157.22961,1348520.7931835,0
1660029157.22961,1348520.7931855,-35
1660029157.22961,1348520.7931875,-66
1660029157.22961,1348520.7931894,-59
1660029157.22961,1348520.7931915,-59
1660029157.22961,1348520.7931934,-78
1660029157.22961,1348520.7932091,-52
1660029157.22961,1348520.7932307,-26
1660029157.22961,1348520.7932396,-47
1660029157.22961,1348520.793249,-33
1660029157.22961,1348520.7932582,63
1660029157.22961,1348520.7932667,224
1660029157.22961,1348520.7932703,307
1660029157.22961,1348520.7932726,134
1660029157.22961,1348520.7932748,-130
1660029157.22961,1348520.7932772,-175
1660029157.22961,1348520.7932813,-73
1660029157.22961,1348520.7932852,-59
1660029157.22961,1348520.7932911,-80
1660029157.22961,1348520.7932955,-37
1660029157.22961,1348520.7933024,-14
1660029157.22961,1348520.7933074,-37
1660029157.22961,1348520.7933129,-42
1660029157.22961,1348520.7933171,-26
1660029157.22961,1348520.7933242,-18
1660029157.22961,1348520.7933286,-16
1660029157.22961,1348520.7933348,11
1660029157.22961,1348520.7933402,35
1660029157.22961,1348520.7933448,21
1660029157.22961,1348520.7933728,23
1660029157.22961,1348520.7933828,61
1660029157.22961,1348520.793388,89
1660029157.22961,1348520.7933978,92
1660029157.22961,1348521.3296496,82
1660029157.22961,1348521.3296679,89
1660029157.22961,1348521.3296774,125
1660029157.22961,1348521.3296902,149
1660029157.22961,1348521.3297012,134
1660029157.22961,1348521.3297095,116
1660029157.22961,1348521.3297227,113
1660029157.22961,1348521.3297363,106
1660029157.22961,1348521.3297503,92
1660029157.22961,1348521.3297639,75
1660029157.23959,1348521.3297776,59
1660029157.23959,1348521.3297922,54
1660029157.23959,1348521.3297998,63
1660029157.23959,1348521.3298039,47
1660029157.23959,1348521.3298114,7
1660029157.23959,1348521.3298176,4
1660029157.23959,1348521.3298239,23
1660029157.23959,1348521.3298318,30
1660029157.23959,1348521.329839,44
1660029157.23959,1348521.3298443,42
1660029157.23959,1348521.3298479,18
1660029157.23959,1348521.329853,28
1660029157.23959,1348521.3298562,47
1660029157.23959,1348521.3298595,35
1660029157.23959,1348521.329863,28
1660029157.23959,1348521.3298697,35
1660029157.23959,1348521.3298729,42
1660029157.23959,1348521.3298759,44
1660029157.23959,1348521.3298789,44
1660029157.23959,1348521.3298819,66
1660029157.23959,1348521.3298848,85
1660029157.23959,1348521.3298878,68
1660029157.23959,1348521.3298907,82
1660029157.23959,1348521.3298937,120
1660029157.71344,1348521.3298976,118
1660029157.71344,1348521.3299044,87
1660029157.71344,1348521.3299083,75
1660029157.71344,1348521.3299127,78
1660029157.71344,1348521.3299162,73
1660029157.71344,1348521.329927,73
1660029157.71344,1348521.3299312,73
1660029157.71344,1348521.3299349,82
1660029157.71344,1348521.3299387,99
1660029157.71344,1348521.3299424,89
1660029157.71344,1348521.329948,111
1660029157.71344,1348521.3299525,274
1660029157.71344,1348521.329956,461
1660029157.71344,1348521.3299593,381
1660029157.71344,1348521.3299629,92
1660029157.71344,1348521.3299663,-37
1660029157.71344,1348521.3299698,26
1660029157.71344,1348521.329975,37
1660029157.71344,1348521.3299784,14
1660029157.71344,1348521.3299837,47
1660029157.71344,1348521.3299871,63
1660029157.71344,1348521.3299902,52
1660029157.71344,1348521.3299936,56
1660029157.71344,1348521.3299979,71
1660029157.71344,1348521.3300031,71
1660029157.71344,1348521.3300075,54
1660029157.71344,1348521.330013,40
1660029157.71344,1348521.3300164,56
1660029157.71344,1348521.3300197,75
1660029157.71344,1348521.3300231,61
1660029157.71344,1348521.3300268,63
1660029157.71344,1348521.3300318,104
1660029157.71344,1348521.3300353,120
1660029157.71344,1348521.3300388,108
1660029157.71344,1348521.3300423,132
1660029157.71344,1348521.3300457,156
1660029157.71344,1348521.3300492,127
1660029157.71344,1348521.3300544,108
1660029157.71344,1348521.330058,120
1660029157.71344,1348521.8160517,116
1660029157.71344,1348521.8160701,75
1660029157.71344,1348521.8160789,47
1660029157.71344,1348521.8160882,49
1660029157.71344,1348521.8160946,40
1660029157.71344,1348521.816101,9
1660029157.71344,1348521.8161073,2
1660029157.71344,1348521.8161148,9
1660029157.71344,1348521.8161231,9
1660029157.71344,1348521.8161301,18
1660029157.71344,1348521.8161345,33
1660029157.72404,1348521.8161386,30
1660029157.72404,1348521.8161428,21
1660029157.72404,1348521.8161516,21
1660029157.72404,1348521.8161577,30
1660029157.72404,1348521.8161653,42
1660029157.72404,1348521.8161705,35
1660029157.72404,1348521.816176,2
1660029157.72404,1348521.8161841,-23
1660029157.72404,1348521.8161902,-14
1660029157.72404,1348521.8161987,9
1660029157.72404,1348521.8162071,7
1660029157.72404,1348521.8162161,-7
1660029157.72404,1348521.8162228,-7
1660029157.72404,1348521.8162336,2
1660029157.72404,1348521.8162392,4
1660029157.72404,1348521.8162415,11
1660029157.72404,1348521.8162441,40
1660029157.72404,1348521.8162468,56
1660029157.72404,1348521.8162489,26
1660029157.72404,1348521.8162511,-23
1660029157.72404,1348521.8162547,-28
1660029157.72404,1348521.8162675,2
1660029157.72404,1348521.816275,4
1660029157.72404,1348521.8162828,-4
1660029158.29405,1348521.8162941,7
1660029158.29405,1348521.8163017,0
1660029158.29405,1348521.8163082,-28
1660029158.29405,1348521.8163151,-18
1660029158.29405,1348521.816322,78
1660029158.29405,1348521.8163285,286
1660029158.29405,1348521.8163348,428
1660029158.29405,1348521.8163419,260
1660029158.29405,1348521.8163491,-49
1660029158.29405,1348521.8164096,-125
1660029158.29405,1348521.8164215,-26
1660029158.29405,1348521.8164332,-11
1660029158.29405,1348521.81644,-40
1660029158.29405,1348521.8164486,-7
1660029158.29405,1348521.8164549,11
1660029158.29405,1348521.8164636,-4
1660029158.29405,1348521.8164709,-4
1660029158.29405,1348521.8165017,14
1660029158.29405,1348521.8165126,18
1660029158.29405,1348521.8165216,23
1660029158.29405,1348521.816536,30
1660029158.29405,1348521.8165491,33
1660029158.29405,1348521.8165624,44
1660029158.29405,1348521.8165756,56
1660029158.29405,1348521.8165902,61
1660029158.29405,1348521.8165987,66
1660029158.29405,1348521.8166097,75
1660029158.29405,1348521.816662,85
1660029158.29405,1348521.8166739,97
1660029158.29405,1348521.816678,106
1660029158.29405,1348521.8166813,113
1660029158.29405,1348521.8166846,113
1660029158.29405,1348521.8166878,94
1660029158.29405,1348521.816691,66
1660029158.29405,1348521.8166942,42
1660029158.29405,1348521.8166973,26
1660029158.29405,1348521.8167005,7
1660029158.29405,1348521.8167039,-9
1660029158.29405,1348522.4015714,-26
1660029158.29405,1348522.4015906,-42
1660029158.29405,1348522.4015962,-52
1660029158.29405,1348522.4016027,-49
1660029158.29405,1348522.4016084,-49
1660029158.29405,1348522.4016151,-49
1660029158.29405,1348522.4016198,-56
1660029158.29405,1348522.4016288,-82
1660029158.29405,1348522.4016377,-106
1660029158.29405,1348522.4016438,-101
1660029158.29405,1348522.40165,-89
1660029158.29405,1348522.4016553,-87
1660029158.30302,1348522.4016628,-87
1660029158.30302,1348522.4016703,-99
1660029158.30302,1348522.4016784,-120
1660029158.30302,1348522.4016845,-120
1660029158.30302,1348522.4016963,-101
1660029158.30302,1348522.4017063,-85
1660029158.30302,1348522.4017126,-87
1660029158.30302,1348522.4017196,-92
1660029158.30302,1348522.4017231,-75
1660029158.30302,1348522.4017278,-66
1660029158.30302,1348522.4017369,-63
1660029158.30302,1348522.401744,-54
1660029158.30302,1348522.4017518,-40
1660029158.30302,1348522.4017583,-35
1660029158.30302,1348522.4017668,-21
1660029158.30302,1348522.4017775,-7
1660029158.30302,1348522.4017871,-11
1660029158.30302,1348522.4017986,-37
1660029158.30302,1348522.4018083,-59
1660029158.30302,1348522.4018122,-49
1660029158.30302,1348522.4018162,-37
1660029158.30302,1348522.4018207,-44
1660029158.30302,1348522.4018267,-37
1660029158.30302,1348522.401831,-18
1660029158.88759,1348522.401838,-14
1660029158.88759,1348522.4018421,37
1660029158.88759,1348522.4018461,208
1660029158.88759,1348522.4018504,421
1660029158.88759,1348522.401855,421
1660029158.88759,1348522.4018592,142
1660029158.88759,1348522.4018639,-116
1660029158.88759,1348522.4018691,-125
1660029158.88759,1348522.4018735,-18
1660029158.88759,1348522.4018804,4
1660029158.88759,1348522.4018884,-18
1660029158.88759,1348522.4018936,-7
1660029158.88759,1348522.4018984,4
1660029158.88759,1348522.401905,2
1660029158.88759,1348522.401911,11
1660029158.88759,1348522.4019171,28
1660029158.88759,1348522.4019215,37
1660029158.88759,1348522.401928,42
1660029158.88759,1348522.4019339,49
1660029158.88759,1348522.401937,66
1660029158.88759,1348522.4019405,82
1660029158.88759,1348522.401947,89
1660029158.88759,1348522.4019504,97
1660029158.88759,1348522.4019535,116
1660029158.88759,1348522.4019584,127
1660029158.88759,1348522.4019641,144
1660029158.88759,1348522.4019676,165
1660029158.88759,1348522.4019734,179
1660029158.88759,1348522.4019801,168
1660029158.88759,1348522.4019892,149
1660029158.88759,1348522.4019934,144
1660029158.88759,1348522.4019986,134
1660029158.88759,1348522.4020053,113
1660029158.88759,1348522.4020136,106
1660029158.88759,1348522.4020188,89
1660029158.88759,1348522.4020286,61
1660029158.88759,1348522.4020347,54
1660029158.88759,1348522.9866983,54
1660029158.88759,1348522.9867226,49
1660029158.88759,1348522.986743,52
1660029158.88759,1348522.9867578,56
1660029158.88759,1348522.9867699,61
1660029158.88759,1348522.9868481,63
1660029158.88759,1348522.9868587,52
1660029158.88759,1348522.9868631,54
1660029158.88759,1348522.9868683,80
1660029158.88759,1348522.9868746,82
1660029158.88759,1348522.986878,40
1660029158.88759,1348522.9868814,0
1660029158.88759,1348522.9868848,2
1660029158.90155,1348522.9868883,14
1660029158.90155,1348522.9868912,21
1660029158.90155,1348522.9868945,30
1660029158.90155,1348522.9868978,14
1660029158.90155,1348522.9869015,-21
1660029158.90155,1348522.9869051,-18
1660029158.90155,1348522.9869108,2
1660029158.90155,1348522.9869143,0
1660029158.90155,1348522.9869192,-9
1660029158.90155,1348522.9869226,-28
1660029158.90155,1348522.9869281,-35
1660029158.90155,1348522.9869317,-16
1660029158.90155,1348522.9869348,-7
1660029158.90155,1348522.9869381,-9
1660029158.90155,1348522.9869413,4
1660029158.90155,1348522.9869445,21
1660029158.90155,1348522.986948,23
1660029158.90155,1348522.9869515,33
1660029158.90155,1348522.9869549,52
1660029158.90155,1348522.9869583,47
1660029158.90155,1348522.9869617,28
1660029158.90155,1348522.9869652,28
1660029158.90155,1348522.9869692,40
1660029158.90155,1348522.9869725,40
1660029159.36847,1348522.9869758,42
1660029159.36847,1348522.9869789,52
1660029159.36847,1348522.986982,68
1660029159.36847,1348522.9869852,73
1660029159.36847,1348522.9869885,85
1660029159.36847,1348522.9869917,198
1660029159.36847,1348522.986995,433
1660029159.36847,1348522.9869982,556
1660029159.36847,1348522.9870014,376
1660029159.36847,1348522.9870045,97
1660029159.36847,1348522.9870075,0
1660029159.36847,1348522.987011,40
1660029159.36847,1348522.9870146,54
1660029159.36847,1348522.9870189,52
1660029159.36847,1348522.9870226,75
1660029159.36847,1348522.9870288,85
1660029159.36847,1348522.9870326,80
1660029159.36847,1348522.9870359,85
1660029159.36847,1348522.9870394,94
1660029159.36847,1348522.9870447,106
1660029159.36847,1348522.987049,123
1660029159.36847,1348522.9870525,127
1660029159.36847,1348522.9870562,130
1660029159.36847,1348522.98706,139
1660029159.36847,1348522.9870635,139
1660029159.36847,1348522.9870667,142
1660029159.36847,1348522.9870699,163
1660029159.36847,1348522.9870733,175
1660029159.36847,1348522.9870764,175
1660029159.36847,1348522.9870797,194
1660029159.36847,1348522.9870832,213
1660029159.36847,1348522.987087,208
1660029159.36847,1348522.9870906,191
1660029159.36847,1348522.9870941,179
1660029159.36847,1348522.9870973,168
1660029159.36847,1348522.9871007,149
1660029159.36847,1348523.4739814,123
1660029159.36847,1348523.4740029,101
1660029159.36847,1348523.4740187,97
1660029159.36847,1348523.4740236,97
1660029159.36847,1348523.4740278,97
1660029159.36847,1348523.4740327,92
1660029159.36847,1348523.4740367,75
1660029159.36847,1348523.4740419,49
1660029159.36847,1348523.474046,30
1660029159.36847,1348523.4740492,28
1660029159.36847,1348523.4740523,37
1660029159.36847,1348523.4740588,42
1660029159.36847,1348523.4740638,44
1660029159.36847,1348523.474067,44
1660029159.37944,1348523.4740702,33
1660029159.37944,1348523.4740736,18
1660029159.37944,1348523.4740789,21
1660029159.37944,1348523.4740843,30
1660029159.37944,1348523.4740882,28
1660029159.37944,1348523.4740934,11
1660029159.37944,1348523.4740971,-14
1660029159.37944,1348523.4741025,-30
1660029159.37944,1348523.4741081,-26
1660029159.37944,1348523.4741128,-14
1660029159.37944,1348523.4741177,-23
1660029159.37944,1348523.4741209,-35
1660029159.37944,1348523.474124,-44
1660029159.37944,1348523.4741273,-52
1660029159.37944,1348523.4741329,-40
1660029159.37944,1348523.4741363,-14
1660029159.37944,1348523.4741414,4
1660029159.37944,1348523.4741447,7
1660029159.37944,1348523.4741483,-2
1660029159.37944,1348523.4741533,-14
1660029159.37944,1348523.4741582,-9
1660029159.37944,1348523.474164,0
1660029159.37944,1348523.4741685,16
1660029159.37944,1348523.4741743,52
1660029160.01059,1348523.4741789,68
1660029160.01059,1348523.4741824,49
1660029160.01059,1348523.4741863,44
1660029160.01059,1348523.4741904,59
1660029160.01059,1348523.4741939,68
1660029160.01059,1348523.4741974,73
1660029160.01059,1348523.4742009,80
1660029160.01059,1348523.4742039,89
1660029160.01059,1348523.474207,94
1660029160.01059,1348523.4742107,97
1660029160.01059,1348523.4742139,97
1660029160.01059,1348523.474217,94
1660029160.01059,1348523.4742211,104
1660029160.01059,1348523.4742239,104
1660029160.01059,1348523.4742265,75
1660029160.01059,1348523.4742291,85
1660029160.01059,1348523.4742317,132
1660029160.01059,1348523.4742343,139
1660029160.01059,1348523.474237,191
1660029160.01059,1348523.4742409,397
1660029160.01059,1348523.4742436,568
1660029160.01059,1348523.4742464,447
1660029160.01059,1348523.4742493,161
1660029160.01059,1348523.474252,2
1660029160.01059,1348523.4742548,7
1660029160.01059,1348523.4742576,40
1660029160.01059,1348523.4742602,52
1660029160.01059,1348523.474263,61
1660029160.01059,1348523.4742657,66
1660029160.01059,1348523.4742684,71
1660029160.01059,1348523.4742715,75
1660029160.01059,1348523.4742742,66
1660029160.01059,1348523.474277,71
1660029160.01059,1348523.4742799,92
1660029160.01059,1348523.4742827,97
1660029160.01059,1348524.1080643,89
1660029160.01059,1348524.1080829,97
1660029160.01059,1348524.10809,111
1660029160.01059,1348524.1080975,111
1660029160.01059,1348524.1081043,92
1660029160.01059,1348524.1081092,92
1660029160.01059,1348524.1081131,104
1660029160.01059,1348524.1081159,99
1660029160.01059,1348524.1081189,97
1660029160.01059,1348524.1081229,108
1660029160.01059,1348524.1081281,92
1660029160.01059,1348524.1081335,75
1660029160.01059,1348524.108137,68
1660029160.01059,1348524.1081434,28
1660029160.01059,1348524.1081493,-11
1660029160.02156,1348524.1081586,-35
1660029160.02156,1348524.1081665,-52
1660029160.02156,1348524.1081723,-30
1660029160.02156,1348524.1081878,-2
1660029160.02156,1348524.1081948,-21
1660029160.02156,1348524.1081981,-49
1660029160.02156,1348524.1082005,-40
1660029160.02156,1348524.1082027,-21
1660029160.02156,1348524.1082059,-23
1660029160.02156,1348524.1082089,-26
1660029160.02156,1348524.1082177,-11
1660029160.02156,1348524.1082323,-16
1660029160.02156,1348524.1082432,-30
1660029160.02156,1348524.1082504,-16
1660029160.02156,1348524.10826,-2
1660029160.02156,1348524.1082703,-7
1660029160.02156,1348524.1082804,-2
1660029160.02156,1348524.1082904,0
1660029160.02156,1348524.1083041,-2
1660029160.02156,1348524.108315,4
1660029160.02156,1348524.1083236,14
1660029160.02156,1348524.1083295,14
1660029160.02156,1348524.108343,26
1660029160.02156,1348524.1083847,37
1660029160.54502,1348524.1083973,30
1660029160.54502,1348524.1084077,35
1660029160.54502,1348524.1084159,44
1660029160.54502,1348524.1084235,35
1660029160.54502,1348524.1084288,30
1660029160.54502,1348524.1084362,40
1660029160.54502,1348524.1084411,49
1660029160.54502,1348524.1084451,66
1660029160.54502,1348524.1084505,68
1660029160.54502,1348524.108456,47
1660029160.54502,1348524.1084607,42
1660029160.54502,1348524.1084659,61
1660029160.54502,1348524.1084719,49
1660029160.54502,1348524.1085048,42
1660029160.54502,1348524.1085191,82
1660029160.54502,1348524.1085329,101
1660029160.54502,1348524.1085466,89
1660029160.54502,1348524.1085589,104
1660029160.54502,1348524.1085688,116
1660029160.54502,1348524.1085811,101
1660029160.54502,1348524.1085905,106
1660029160.54502,1348524.1085979,123
1660029160.54502,1348524.1086063,116
1660029160.54502,1348524.1086148,97
1660029160.54502,1348524.1086229,92
1660029160.54502,1348524.1086299,92
1660029160.54502,1348524.1086422,94
1660029160.54502,1348524.1086519,101
1660029160.54502,1348524.1086575,101
1660029160.54502,1348524.1086643,130
1660029160.54502,1348524.1086676,272
1660029160.54502,1348524.1086707,516
1660029160.54502,1348524.1086735,632
1660029160.54502,1348524.1086763,433
1660029160.54502,1348524.6452275,118
1660029160.54502,1348524.6452514,-9
1660029160.54502,1348524.6452616,26
1660029160.54502,1348524.645268,49
1660029160.54502,1348524.645273,52
1660029160.54502,1348524.6452796,59
1660029160.54502,1348524.6452831,49
1660029160.54502,1348524.6452962,44
1660029160.54502,1348524.6453079,56
1660029160.54502,1348524.6453153,61
1660029160.54502,1348524.6453224,66
1660029160.54502,1348524.6453325,73
1660029160.54502,1348524.6453365,80
1660029160.54502,1348524.6453395,63
1660029160.54502,1348524.6453498,28
1660029160.54502,1348524.645358,44
1660029160.55499,1348524.6453605,97
1660029160.55499,1348524.645364,116
1660029160.55499,1348524.6453699,113
1660029160.55499,1348524.6453738,113
1660029160.55499,1348524.6453778,104
1660029160.55499,1348524.6453829,104
1660029160.55499,1348524.645385,113
1660029160.55499,1348524.6453872,111
1660029160.55499,1348524.6453892,104
1660029160.55499,1348524.6453914,89
1660029160.55499,1348524.6453934,52
1660029160.55499,1348524.6453956,0
1660029160.55499,1348524.6454011,-7
1660029160.55499,1348524.6454119,21
1660029160.55499,1348524.6454165,16
1660029160.55499,1348524.6454186,-16
1660029160.55499,1348524.645422,-30
1660029160.55499,1348524.6454349,-28
1660029160.55499,1348524.6454408,-28
1660029160.55499,1348524.6454431,-40
1660029160.55499,1348524.6454452,-47
1660029160.55499,1348524.6454472,-35
1660029160.55499,1348524.6454528,-33
1660029160.55499,1348524.6454643,-44
1660029161.12719,1348524.6454697,-44
1660029161.12719,1348524.6454718,-42
1660029161.12719,1348524.645474,-23
1660029161.12719,1348524.6454773,-2
1660029161.12719,1348524.6454894,4
1660029161.12719,1348524.645497,2
1660029161.12719,1348524.6455014,-4
1660029161.12719,1348524.645505,-4
1660029161.12719,1348524.6455097,11
1660029161.12719,1348524.6455165,30
1660029161.12719,1348524.6455257,30
1660029161.12719,1348524.6455396,23
1660029161.12719,1348524.6455489,26
1660029161.12719,1348524.6455514,35
1660029161.12719,1348524.6455535,49
1660029161.12719,1348524.6455556,56
1660029161.12719,1348524.645559,47
1660029161.12719,1348524.6455716,54
1660029161.12719,1348524.6455775,68
1660029161.12719,1348524.6455797,63
1660029161.12719,1348524.6455819,66
1660029161.12719,1348524.6455839,78
1660029161.12719,1348524.6455897,78
1660029161.12719,1348524.6456011,82
1660029161.12719,1348524.6456118,97
1660029161.12719,1348524.6456221,87
1660029161.12719,1348524.6456348,63
1660029161.12719,1348524.6456485,68
1660029161.12719,1348524.645662,89
1660029161.12719,1348524.6456755,94
1660029161.12719,1348524.645689,75
1660029161.12719,1348524.6457025,61
1660029161.12719,1348524.645716,78
1660029161.12719,1348525.2305034,85
1660029161.12719,1348525.23052,63
1660029161.12719,1348525.2305253,73
1660029161.12719,1348525.2305298,101
1660029161.12719,1348525.2305363,89
1660029161.12719,1348525.2305406,68
1660029161.12719,1348525.230545,82

1660029161.12719,1348525.230549,97
1660029161.12719,1348525.2305527,118
1660029161.12719,1348525.2305568,246
1660029161.12719,1348525.2305643,466
1660029161.12719,1348525.2305715,561
1660029161.12719,1348525.2305769,393
1660029161.12719,1348525.2305804,104
1660029161.12719,1348525.2305846,-30
1660029161.12719,1348525.2305904,18
1660029161.12719,1348525.2305953,49
1660029161.13616,1348525.2306014,18
1660029161.13616,1348525.2306055,28
1660029161.13616,1348525.2306096,49
1660029161.13616,1348525.2306145,47
1660029161.13616,1348525.2306201,42
1660029161.13616,1348525.230625,33
1660029161.13616,1348525.2306293,7
1660029161.13616,1348525.230634,2
1660029161.13616,1348525.2306381,23
1660029161.13616,1348525.2306445,40
1660029161.13616,1348525.2306488,47
1660029161.13616,1348525.230655,49
1660029161.13616,1348525.2306589,61
1660029161.13616,1348525.2306644,75
1660029161.13616,1348525.2306699,82
1660029161.13616,1348525.2306755,94
1660029161.13616,1348525.2306798,113
1660029161.13616,1348525.2306858,132
1660029161.13616,1348525.2306918,139
1660029161.13616,1348525.2306979,113
1660029161.13616,1348525.2307029,82
1660029161.13616,1348525.230707,85
1660029161.13616,1348525.2307114,82
1660029161.13616,1348525.2307225,47
1660029161.99983,1348525.2307289,21
1660029161.99983,1348525.2307328,18
1660029161.99983,1348525.2307364,4
1660029161.99983,1348525.2307403,0
1660029161.99983,1348525.230744,11
1660029161.99983,1348525.2307477,14
1660029161.99983,1348525.2307524,11
1660029161.99983,1348525.2307568,9
1660029161.99983,1348525.2307602,11
1660029161.99983,1348525.2307636,28
1660029161.99983,1348525.230767,40
1660029161.99983,1348525.2307703,40
1660029161.99983,1348525.2307739,47
1660029161.99983,1348525.2307775,44
1660029161.99983,1348525.2307812,44
1660029161.99983,1348525.2307862,63
1660029161.99983,1348525.2307896,66
1660029161.99983,1348525.2307931,42
1660029161.99983,1348525.2307969,35
1660029161.99983,1348525.2308007,47
1660029161.99983,1348525.2308044,40
1660029161.99983,1348525.2308099,35
1660029161.99983,1348525.2308138,44
1660029161.99983,1348525.2308192,56
1660029161.99983,1348525.2308231,82
1660029161.99983,1348525.2308299,89
1660029161.99983,1348525.2308352,68
1660029161.99983,1348525.2308389,66
1660029161.99983,1348525.2308425,87
1660029161.99983,1348525.230846,85
1660029161.99983,1348525.2308494,71
1660029161.99983,1348525.2308532,85
1660029161.99983,1348526.106844,99
1660029161.99983,1348526.106856,94
1660029161.99983,1348526.1068585,108
1660029161.99983,1348526.1068608,118
1660029161.99983,1348526.106863,118
1660029161.99983,1348526.106865,118
1660029161.99983,1348526.1068671,104
1660029161.99983,1348526.1068692,73
1660029161.99983,1348526.1068713,61
1660029161.99983,1348526.1068734,85
1660029161.99983,1348526.1068755,108
1660029161.99983,1348526.1068783,104
1660029161.99983,1348526.1068852,101
1660029161.99983,1348526.1068943,106
1660029161.99983,1348526.1069134,82
1660029161.99983,1348526.1069364,75
1660029161.99983,1348526.1069442,104
1660029161.99983,1348526.1069487,104
1660029162.0098,1348526.1069556,80
1660029162.0098,1348526.1069598,73
1660029162.0098,1348526.1069657,61
1660029162.0098,1348526.1069696,49
1660029162.0098,1348526.1069738,61
1660029162.0098,1348526.106982,75
1660029162.0098,1348526.1069863,75
1660029162.0098,1348526.1070895,120
1660029162.0098,1348526.1071071,291
1660029162.0098,1348526.1071125,492
1660029162.0098,1348526.1071162,473
1660029162.0098,1348526.1071197,206
1660029162.0098,1348526.1071232,-35
1660029162.0098,1348526.107127,-66
1660029162.0098,1348526.1071309,-9
1660029162.0098,1348526.1071342,-11
1660029162.0098,1348526.1071393,-35
1660029162.0098,1348526.107145,-26
1660029162.0098,1348526.1071482,-26
1660029162.0098,1348526.1071514,-28
1660029162.0098,1348526.1071547,-14
1660029162.0098,1348526.1071579,-7
1660029162.0098,1348526.1071612,4
1660029162.0098,1348526.1071644,16
1660029162.24323,1348526.1071693,16
1660029162.24323,1348526.1071726,23
1660029162.24323,1348526.107176,37
1660029162.24323,1348526.1071793,44
1660029162.24323,1348526.1071825,61
1660029162.24323,1348526.1071857,82
1660029162.24323,1348526.1071889,94
1660029162.24323,1348526.1071921,94
1660029162.24323,1348526.1071953,97
1660029162.24323,1348526.1071986,106
1660029162.24323,1348526.1072018,108
1660029162.24323,1348526.107205,89
1660029162.24323,1348526.1072082,80
1660029162.24323,1348526.1072114,82
1660029162.24323,1348526.1072146,63
1660029162.24323,1348526.1072181,44
1660029162.24323,1348526.1072213,33
1660029162.24323,1348526.1072245,21
1660029162.24323,1348526.1072433,9
1660029162.24323,1348526.1072633,7
1660029162.24323,1348526.1072691,9
1660029162.24323,1348526.1072729,16
1660029162.24323,1348526.1072767,33
1660029162.24323,1348526.1072805,47
1660029162.24323,1348526.107284,42
1660029162.24323,1348526.1072875,23
1660029162.24323,1348526.107291,37
1660029162.24323,1348526.1072946,73
1660029162.24323,1348526.1072981,78
1660029162.24323,1348526.1073016,61
1660029162.24323,1348526.1073051,68
1660029162.24323,1348526.3511167,80
1660029162.24323,1348526.3511381,78
1660029162.24323,1348526.3511471,99
1660029162.24323,1348526.3511548,137
1660029162.24323,1348526.3511603,116
1660029162.24323,1348526.3511634,73
1660029162.24323,1348526.3511666,78
1660029162.24323,1348526.3511697,101
1660029162.24323,1348526.3511732,101
1660029162.24323,1348526.3511766,92
1660029162.24323,1348526.351181,116
1660029162.24323,1348526.3511861,130
1660029162.24323,1348526.3511914,101
1660029162.24323,1348526.3511963,101
1660029162.24323,1348526.3512008,118
1660029162.24323,1348526.3512043,78
1660029162.24323,1348526.3512089,30
1660029162.24323,1348526.3512146,71
1660029162.24323,1348526.3512203,132
1660029162.2542,1348526.3512242,106
1660029162.2542,1348526.3512292,73
1660029162.2542,1348526.3512346,89
1660029162.2542,1348526.3512387,92
1660029162.2542,1348526.3512424,89
1660029162.2542,1348526.351246,99
1660029162.2542,1348526.3512495,85
1660029162.2542,1348526.3512529,78
1660029162.2542,1348526.3512564,99
1660029162.2542,1348526.351262,99
1660029162.2542,1348526.3512651,97
1660029162.2542,1348526.3512695,118
1660029162.2542,1348526.3512761,108
1660029162.2542,1348526.3512807,92
1660029162.2542,1348526.3512892,108
1660029162.2542,1348526.3512939,82
1660029162.2542,1348526.3512997,42
1660029162.2542,1348526.3513046,101
1660029162.2542,1348526.3513105,149
1660029162.2542,1348526.3513141,87
1660029162.2542,1348526.3513175,52
1660029162.2542,1348526.3513227,66
1660029162.2542,1348526.3513299,71
1660029162.2542,1348526.3513363,118
1660029162.92913,1348526.351344,172
1660029162.92913,1348526.3513483,187
1660029162.92913,1348526.3513516,341
1660029162.92913,1348526.3513549,596
1660029162.92913,1348526.351358,535
1660029162.92913,1348526.3513611,203
1660029162.92913,1348526.3513642,49
1660029162.92913,1348526.3513675,71
1660029162.92913,1348526.35142,111
1660029162.92913,1348526.3514288,149
1660029162.92913,1348526.3514396,125
1660029162.92913,1348526.3514435,101
1660029162.92913,1348526.351449,158
1660029162.92913,1348526.3514526,198
1660029162.92913,1348526.3514562,175
1660029162.92913,1348526.3514597,168
1660029162.92913,1348526.3514632,170
1660029162.92913,1348526.351467,153
1660029162.92913,1348526.3514731,168
1660029162.92913,1348526.3514768,175
1660029162.92913,1348526.3514822,163
1660029162.92913,1348526.351487,196
1660029162.92913,1348526.3514922,220
1660029162.92913,1348526.3515035,215
1660029162.92913,1348526.3515135,217
1660029162.92913,1348526.3515359,206
1660029162.92913,1348526.3515437,241
1660029162.92913,1348526.3515521,300
1660029162.92913,1348526.3515612,277
1660029162.92913,1348526.3515666,236
1660029162.92913,1348527.0332555,229
1660029162.92913,1348527.0332737,198
1660029162.92913,1348527.0332839,158
1660029162.92913,1348527.0332925,151
1660029162.92913,1348527.0333176,149
1660029162.92913,1348527.0333244,132
1660029162.92913,1348527.0333285,118
1660029162.92913,1348527.0333344,97
1660029162.92913,1348527.0333422,66
1660029162.92913,1348527.0333476,63
1660029162.92913,1348527.0333842,63
1660029162.92913,1348527.0333933,59
1660029162.92913,1348527.0333998,82
1660029162.92913,1348527.0334057,94
1660029162.92913,1348527.0334095,71
1660029162.92913,1348527.0334153,63
1660029162.92913,1348527.0334228,75
1660029162.92913,1348527.0334463,71
1660029162.92913,1348527.0334523,56
1660029162.92913,1348527.0334562,47
1660029162.94309,1348527.0334594,33
1660029162.94309,1348527.0334625,23
1660029162.94309,1348527.0334667,2
1660029162.94309,1348527.0334703,-11
1660029162.94309,1348527.0334738,28
1660029162.94309,1348527.0334796,56
1660029162.94309,1348527.033483,16
1660029162.94309,1348527.0334865,7
1660029162.94309,1348527.0334902,44
1660029162.94309,1348527.0334939,37
1660029162.94309,1348527.0334976,14
1660029162.94309,1348527.0335014,35
1660029162.94309,1348527.0335056,42
1660029162.94309,1348527.0335095,30
1660029162.94309,1348527.0335132,37
1660029162.94309,1348527.0335174,40
1660029162.94309,1348527.0335209,23
1660029162.94309,1348527.0335253,7
1660029162.94309,1348527.0335289,9
1660029162.94309,1348527.0335346,37
1660029162.94309,1348527.0335401,35
1660029162.94309,1348527.0335476,4
1660029162.94309,1348527.0335557,30
1660029162.94309,1348527.0335611,71
1660029163.37519,1348527.0335657,59
1660029163.37519,1348527.0335713,61
1660029163.37519,1348527.0335781,97
1660029163.37519,1348527.0335847,101
1660029163.37519,1348527.0335915,97
1660029163.37519,1348527.0335986,113
1660029163.37519,1348527.0336057,123
1660029163.37519,1348527.0336115,116
1660029163.37519,1348527.0336167,104
1660029163.37519,1348527.0336208,106
1660029163.37519,1348527.0336448,113
1660029163.37519,1348527.0336524,116
1660029163.37519,1348527.033658,116
1660029163.37519,1348527.033691,111
1660029163.37519,1348527.0336974,104
1660029163.37519,1348527.0337048,123
1660029163.37519,1348527.033711,198
1660029163.37519,1348527.0337168,367
1660029163.37519,1348527.0337224,549
1660029163.37519,1348527.0337256,549
1660029163.37519,1348527.0337386,338
1660029163.37519,1348527.0337514,120
1660029163.37519,1348527.0337647,59
1660029163.37519,1348527.0337766,78
1660029163.37519,1348527.0337865,66
1660029163.37519,1348527.0337994,73
1660029163.37519,1348527.0338123,116
1660029163.37519,1348527.0338256,111
1660029163.37519,1348527.0338384,78
1660029163.37519,1348527.4736664,89
1660029163.37519,1348527.4736836,111
1660029163.37519,1348527.4736918,97
1660029163.37519,1348527.4736984,78
1660029163.37519,1348527.4737032,68
1660029163.37519,1348527.4737106,56
1660029163.37519,1348527.4737139,44
1660029163.37519,1348527.4737169,54
1660029163.37519,1348527.4737225,89
1660029163.37519,1348527.4737295,106
1660029163.37519,1348527.4737358,94
1660029163.37519,1348527.4737443,104
1660029163.37519,1348527.473753,130
1660029163.37519,1348527.4737591,144
1660029163.37519,1348527.4737658,130
1660029163.37519,1348527.4737722,108
1660029163.37519,1348527.4737801,87
1660029163.37519,1348527.4737862,52
1660029163.37519,1348527.4737953,28
1660029163.37519,1348527.4738016,26
1660029163.37519,1348527.4738093,23
1660029163.38616,1348527.4738159,21
1660029163.38616,1348527.4738247,11
1660029163.38616,1348527.4738316,-11
1660029163.38616,1348527.4738399,-33
1660029163.38616,1348527.4738464,-37
1660029163.38616,1348527.4738533,-30
1660029163.38616,1348527.473858,-26
1660029163.38616,1348527.4738707,-33
1660029163.38616,1348527.4738841,-40
1660029163.38616,1348527.473892,-30
1660029163.38616,1348527.4738979,-23
1660029163.38616,1348527.4739021,-21
1660029163.38616,1348527.4739088,4
1660029163.38616,1348527.4739134,49
1660029163.38616,1348527.4739229,59
1660029163.38616,1348527.4739321,44
1660029163.38616,1348527.4739358,54
1660029163.38616,1348527.4739391,68
1660029163.38616,1348527.4739507,73
1660029163.38616,1348527.4739564,87
1660029163.38616,1348527.4739596,92
1660029163.38616,1348527.4739629,85
1660029163.38616,1348527.4739672,85
1660029163.38616,1348527.47397,99
