Time,TimeLsl,Value
1660032267.75904,1351630.2090055,51
1660032267.75904,1351630.2090258,47
1660032267.75904,1351630.2090339,35
1660032267.75904,1351630.2090387,14
1660032267.75904,1351630.2090454,-23
1660032267.75904,1351630.2090498,-23
1660032267.75904,1351630.2090559,7
1660032267.75904,1351630.2090619,-2
1660032267.75904,1351630.2090689,-9
1660032267.75904,1351630.2090759,21
1660032267.75904,1351630.2090823,25
1660032267.75904,1351630.2090874,7
1660032267.75904,1351630.2090939,16
1660032267.75904,1351630.2090997,32
1660032267.75904,1351630.2091038,30
1660032267.75904,1351630.2091089,28
1660032267.75904,1351630.2091172,28
1660032267.75904,1351630.2091255,30
1660032267.75904,1351630.2091322,42
1660032267.75904,1351630.2091374,35
1660032267.75904,1351630.2091415,25
1660032267.75904,1351630.2091465,23
1660032267.75904,1351630.2091546,14
1660032267.75904,1351630.209161,9
1660032267.75904,1351630.2091697,7
1660032267.75904,1351630.2091758,18
1660032267.75904,1351630.2091818,35
1660032267.75904,1351630.209187,28
1660032267.75904,1351630.2091955,21
1660032267.75904,1351630.2092015,32
1660032267.75904,1351630.2092086,37
1660032267.75904,1351630.2092149,49
1660032267.75904,1351630.209223,58
1660032267.75904,1351630.2092312,56
1660032267.75904,1351630.2092378,49
1660032267.75904,1351630.2092456,37
1660032267.75904,1351630.2092509,47
1660032267.75904,1351630.2092574,75
1660032267.75904,1351630.2092618,82
1660032267.75904,1351630.2092688,80
1660032267.75904,1351630.209275,87
1660032267.75904,1351630.2092792,84
1660032267.75904,1351630.209285,82
1660032267.75904,1351630.2092894,89
1660032267.75904,1351630.2092981,98
1660032267.75904,1351630.2093069,103
1660032267.75904,1351630.2093135,103
1660032267.75904,1351630.2093199,103
1660032267.75904,1351630.2093287,113
1660032267.75904,1351630.2093358,115
1660032267.87773,1351630.2093437,115
1660032267.87773,1351630.2093521,113
1660032267.87773,1351630.2093584,96
1660032267.87773,1351630.2093645,89
1660032267.87773,1351630.2093696,117
1660032267.87773,1351630.2093757,136
1660032267.87773,1351630.2093828,127
1660032267.87773,1351630.2093901,124
1660032267.87773,1351630.2093944,141
1660032267.87773,1351630.2094007,155
1660032267.87773,1351630.2094059,148
1660032267.87773,1351630.2094117,127
1660032267.87773,1351630.2094186,129
1660032267.87773,1351630.2094265,139
1660032267.87773,1351630.2094336,131
1660032267.87773,1351630.2094422,124
1660032267.87773,1351630.2094495,124
1660032267.87773,1351630.2094571,131
1660032267.87773,1351630.2094653,122
1660032267.87773,1351630.2094733,103
1660032267.87773,1351630.2094815,190
1660032267.87773,1351630.209488,435
1660032267.87773,1351630.2094968,603
1660032267.87773,1351630.7940086,473
1660032267.87773,1351630.7940255,167
1660032267.87773,1351630.7940333,4
1660032267.87773,1351630.7940398,73
1660032267.87773,1351630.794044,127
1660032267.87773,1351630.7940488,80
1660032267.87773,1351630.7940549,80
1660032267.87773,1351630.794061,96
1660032267.87773,1351630.7940674,58
1660032267.87773,1351630.7940733,54
1660032267.87773,1351630.7940782,75
1660032267.87773,1351630.7940828,44
1660032267.87773,1351630.7940949,14
1660032267.87773,1351630.7941024,16
1660032267.87773,1351630.7941075,7
1660032267.87773,1351630.7941129,11
1660032267.87773,1351630.7941184,40
1660032267.87773,1351630.7941218,54
1660032267.87773,1351630.7941264,47
1660032267.87773,1351630.7941321,35
1660032267.87773,1351630.7941366,21
1660032267.87773,1351630.7941402,23
1660032267.87773,1351630.7941452,49
1660032267.87773,1351630.7941486,51
1660032267.87773,1351630.7941522,28
1660032267.87773,1351630.7941578,18
1660032267.87773,1351630.7941617,23
1660032267.91463,1351630.7941658,21
1660032267.91463,1351630.7941686,18
1660032267.91463,1351630.7941717,25
1660032267.91463,1351630.7941758,32
1660032267.91463,1351630.7941803,28
1660032267.91463,1351630.7941839,18
1660032267.91463,1351630.7941874,21
1660032267.91463,1351630.7941908,30
1660032267.91463,1351630.7941942,40
1660032267.91463,1351630.7941991,47
1660032267.91463,1351630.7942028,56
1660032267.91463,1351630.7942088,63
1660032267.91463,1351630.7942131,54
1660032267.91463,1351630.7942186,56
1660032267.91463,1351630.7942225,77
1660032267.91463,1351630.7942279,82
1660032267.91463,1351630.7942317,77
1660032267.91463,1351630.7942372,80
1660032267.91463,1351630.7942409,87
1660032267.91463,1351630.7942468,82
1660032267.91463,1351630.7942504,80
1660032267.91463,1351630.7942556,98
1660032267.91463,1351630.7942591,115
1660032267.91463,1351630.7942665,115
1660032267.91463,1351630.7942701,106
1660032267.91463,1351630.7942735,108
1660032267.91463,1351630.7942768,110
1660032267.91463,1351630.7942824,108
1660032267.91463,1351630.794286,113
1660032267.91463,1351630.7942918,117
1660032267.91463,1351630.7942952,108
1660032267.91463,1351630.7943005,101
1660032267.91463,1351630.7943037,103
1660032267.91463,1351630.7943073,108
1660032267.91463,1351630.7943125,120
1660032267.91463,1351630.7943159,129
1660032267.91463,1351630.7943196,120
1660032267.91463,1351630.7943245,106
1660032267.91463,1351630.7943297,115
1660032267.91463,1351630.7943348,143
1660032267.91463,1351630.7943395,153
1660032267.91463,1351630.7943452,136
1660032267.91463,1351630.7943491,124
1660032267.91463,1351630.7943543,124
1660032267.91463,1351630.7943586,127
1660032267.91463,1351630.7943652,136
1660032267.91463,1351631.3307003,150
1660032267.91463,1351631.3307182,139
1660032267.91463,1351631.3307289,110
1660032267.91463,1351631.3307361,91
1660032267.94056,1351631.3307441,94
1660032267.94056,1351631.330752,188
1660032267.94056,1351631.330757,395
1660032267.94056,1351631.330763,558
1660032267.94056,1351631.3307691,482
1660032267.94056,1351631.3307746,183
1660032267.94056,1351631.3307797,-32
1660032267.94056,1351631.3307841,23
1660032267.94056,1351631.330791,106
1660032267.94056,1351631.3307953,44
1660032267.94056,1351631.3308021,18
1660032267.94056,1351631.3308069,54
1660032267.94056,1351631.3308132,40
1660032267.94056,1351631.330819,14
1660032267.94056,1351631.330827,23
1660032267.94056,1351631.3308363,37
1660032267.94056,1351631.3308438,54
1660032267.94056,1351631.33085,63
1660032267.94056,1351631.3308577,42
1660032267.94056,1351631.3308627,32
1660032267.94056,1351631.3308681,51
1660032267.94056,1351631.3308718,51
1660032267.94056,1351631.330877,51
1660032267.94056,1351631.3308836,70
1660032267.94056,1351631.3308868,70
1660032267.94056,1351631.3308982,70
1660032267.94056,1351631.3309067,80
1660032267.94056,1351631.3309103,80
1660032267.94056,1351631.3309163,87
1660032267.94056,1351631.3309203,115
1660032267.94056,1351631.3309256,108
1660032267.94056,1351631.3309305,82
1660032267.94056,1351631.3309385,84
1660032267.94056,1351631.3309439,94
1660032267.94056,1351631.330951,80
1660032267.94056,1351631.3309574,75
1660032267.94056,1351631.3309615,87
1660032267.94056,1351631.3309664,87
1660032267.94056,1351631.3309704,68
1660032267.94056,1351631.3309734,63
1660032267.94056,1351631.3309765,75
1660032267.94056,1351631.3309795,80
1660032267.94056,1351631.3309824,87
1660032267.94056,1351631.3309853,120
1660032267.94056,1351631.3309883,127
1660032267.94056,1351631.3309911,94
1660032267.94056,1351631.3309941,89
1660032267.94056,1351631.330997,110
1660032267.94056,1351631.331001,117
1660032267.94056,1351631.3310068,108
1660032267.95452,1351631.3310098,91
1660032267.95452,1351631.3310128,91
1660032267.95452,1351631.3310157,115
1660032267.95452,1351631.3310186,136
1660032267.95452,1351631.3310216,134
1660032267.95452,1351631.3310245,124
1660032267.95452,1351631.3310276,136
1660032267.95452,1351631.3310305,143
1660032267.95452,1351631.3310336,127
1660032267.95452,1351631.3310365,117
1660032267.95452,1351631.3310394,120
1660032267.95452,1351631.3310423,131
1660032267.95452,1351631.3310452,157
1660032267.95452,1351631.3310482,150
1660032267.95452,1351631.3310512,120
1660032267.95452,1351631.3310541,113
1660032267.95452,1351631.331057,127
1660032267.95452,1351631.3310599,129
1660032267.95452,1351631.3310628,110
1660032267.95452,1351631.8665929,96
1660032267.95452,1351631.8666114,115
1660032267.95452,1351631.8666181,136
1660032268.31032,1351631.8666242,136
1660032268.31032,1351631.8666303,139
1660032268.31032,1351631.8666346,139
1660032268.31032,1351631.8666387,120
1660032268.31032,1351631.8666419,96
1660032268.31032,1351631.8666454,94
1660032268.31032,1351631.8666501,103
1660032268.31032,1351631.8666549,103
1660032268.31032,1351631.866659,89
1660032268.31032,1351631.8666646,82
1660032268.31032,1351631.8666726,82
1660032268.31032,1351631.8666826,77
1660032268.31032,1351631.8666896,94
1660032268.31032,1351631.8666991,209
1660032268.31032,1351631.8667065,405
1660032268.31032,1351631.8667149,457
1660032268.31032,1351631.866726,230
1660032268.31032,1351631.8667362,-21
1660032268.31032,1351631.8667415,-49
1660032268.31032,1351631.8667547,11
1660032268.31032,1351631.8667653,-2
1660032268.31032,1351631.866773,2
1660032268.31032,1351631.866784,47
1660032268.31032,1351631.8667943,28
1660032268.31032,1351631.8668009,2
1660032268.31032,1351631.8668136,40
1660032268.31032,1351631.8668238,61
1660032268.31032,1351631.8668301,49
1660032268.31032,1351631.8668422,35
1660032268.31032,1351631.8668524,35
1660032268.31032,1351631.8668579,75
1660032268.31032,1351631.8668718,120
1660032268.31032,1351631.8668753,103
1660032268.31032,1351631.8668783,87
1660032268.31032,1351631.8668842,108
1660032268.31032,1351631.8668993,122
1660032268.31032,1351631.8669105,113
1660032268.31032,1351631.8669215,108
1660032268.31032,1351631.8669288,115
1660032268.31032,1351631.8669344,127
1660032268.31032,1351631.8669398,127
1660032268.31032,1351631.8669462,127
1660032268.31032,1351631.8669517,127
1660032268.31032,1351631.8669567,124
1660032268.31032,1351631.8669615,110
1660032268.31032,1351631.8669689,84
1660032268.31032,1351631.8669776,87
1660032268.31032,1351631.8669837,115
1660032268.31032,1351631.8669895,103
1660032268.31032,1351631.8669938,70
1660032268.32287,1351631.867001,96
1660032268.32287,1351631.8670063,120
1660032268.32287,1351631.867014,106
1660032268.32287,1351631.8670211,113
1660032268.32287,1351631.867025,113
1660032268.32287,1351631.8670309,98
1660032268.32287,1351631.8670345,117
1660032268.32287,1351631.8670411,134
1660032268.32287,1351631.8670487,101
1660032268.32287,1351631.8670542,77
1660032268.32287,1351631.8670581,96
1660032268.32287,1351631.8670633,103
1660032268.32287,1351631.8670671,98
1660032268.32287,1351631.8670732,96
1660032268.32287,1351631.8670782,94
1660032268.32287,1351631.8670914,103
1660032268.32287,1351631.867101,106
1660032268.32287,1351631.8671078,94
1660032268.32287,1351631.8671139,84
1660032268.32287,1351631.8671203,75
1660032268.32287,1351632.4033479,84
1660032268.32287,1351632.4033652,113
1660032268.32287,1351632.4034029,108
1660032268.32287,1351632.4034095,77
1660032268.84279,1351632.4034141,80
1660032268.84279,1351632.4034186,106
1660032268.84279,1351632.4034228,96
1660032268.84279,1351632.4034264,80
1660032268.84279,1351632.40343,87
1660032268.84279,1351632.4034335,63
1660032268.84279,1351632.403437,21
1660032268.84279,1351632.4034405,9
1660032268.84279,1351632.403444,16
1660032268.84279,1351632.4034474,44
1660032268.84279,1351632.4034507,82
1660032268.84279,1351632.403454,75
1660032268.84279,1351632.4034574,30
1660032268.84279,1351632.4034611,0
1660032268.84279,1351632.4034648,4
1660032268.84279,1351632.4034685,14
1660032268.84279,1351632.4034721,4
1660032268.84279,1351632.4034758,-4
1660032268.84279,1351632.4034794,-7
1660032268.84279,1351632.4034839,-21
1660032268.84279,1351632.4034908,-11
1660032268.84279,1351632.4034977,61
1660032268.84279,1351632.4035041,216
1660032268.84279,1351632.4035106,398
1660032268.84279,1351632.4035174,426
1660032268.84279,1351632.4035244,179
1660032268.84279,1351632.4035301,-84
1660032268.84279,1351632.4035336,-84
1660032268.84279,1351632.4035371,9
1660032268.84279,1351632.4035404,-11
1660032268.84279,1351632.4035437,-47
1660032268.84279,1351632.4035469,-18
1660032268.84279,1351632.4035504,-11
1660032268.84279,1351632.4035538,-16
1660032268.84279,1351632.4035571,2
1660032268.84279,1351632.4035604,25
1660032268.84279,1351632.4035636,28
1660032268.84279,1351632.4035669,11
1660032268.84279,1351632.4035703,11
1660032268.84279,1351632.4035738,28
1660032268.84279,1351632.4035778,25
1660032268.84279,1351632.4035815,51
1660032268.84279,1351632.4035847,94
1660032268.84279,1351632.403588,82
1660032268.84279,1351632.4035913,54
1660032268.84279,1351632.4035946,87
1660032268.84279,1351632.4035982,122
1660032268.84279,1351632.4036016,108
1660032268.84279,1351632.4036051,91
1660032268.84279,1351632.4036089,94
1660032268.86872,1351632.4036122,82
1660032268.86872,1351632.4036156,70
1660032268.86872,1351632.4036189,73
1660032268.86872,1351632.4036223,61
1660032268.86872,1351632.4036256,56
1660032268.86872,1351632.4036291,68
1660032268.86872,1351632.4036356,65
1660032268.86872,1351632.4036389,47
1660032268.86872,1351632.4036424,30
1660032268.86872,1351632.4036476,40
1660032268.86872,1351632.403651,56
1660032268.86872,1351632.4036545,61
1660032268.86872,1351632.4036596,51
1660032268.86872,1351632.4036631,35
1660032268.86872,1351632.4036682,51
1660032268.86872,1351632.4036719,80
1660032268.86872,1351632.4036774,77
1660032268.86872,1351632.4036808,65
1660032268.86872,1351632.4036841,73
1660032268.86872,1351632.9397365,82
1660032268.86872,1351632.9397569,82
1660032268.86872,1351632.9397713,82
1660032268.86872,1351632.9397808,87
1660032268.86872,1351632.9397877,73
1660032269.47477,1351632.9397966,65
1660032269.47477,1351632.9398016,73
1660032269.47477,1351632.939807,56
1660032269.47477,1351632.9398118,47
1660032269.47477,1351632.9398187,54
1660032269.47477,1351632.9398249,40
1660032269.47477,1351632.9398317,32
1660032269.47477,1351632.939841,51
1660032269.47477,1351632.9398514,28
1660032269.47477,1351632.9398586,-7
1660032269.47477,1351632.9398672,4
1660032269.47477,1351632.9398717,32
1660032269.47477,1351632.939874,32
1660032269.47477,1351632.9398762,23
1660032269.47477,1351632.9398785,14
1660032269.47477,1351632.9398807,0
1660032269.47477,1351632.9398828,4
1660032269.47477,1351632.9398849,9
1660032269.47477,1351632.939887,2
1660032269.47477,1351632.9398891,28
1660032269.47477,1351632.9398912,54
1660032269.47477,1351632.9398941,25
1660032269.47477,1351632.9399069,-7
1660032269.47477,1351632.9399132,-7
1660032269.47477,1351632.9399155,4
1660032269.47477,1351632.9399178,21
1660032269.47477,1351632.93992,21
1660032269.47477,1351632.9399264,9
1660032269.47477,1351632.9399372,14
1660032269.47477,1351632.939942,25
1660032269.47477,1351632.9399442,37
1660032269.47477,1351632.9399463,136
1660032269.47477,1351632.9399484,348
1660032269.47477,1351632.9399509,468
1660032269.47477,1351632.939961,339
1660032269.47477,1351632.939969,91
1660032269.47477,1351632.9399715,-28
1660032269.47477,1351632.9399737,21
1660032269.47477,1351632.939976,56
1660032269.47477,1351632.9399857,30
1660032269.47477,1351632.9399943,25
1660032269.47477,1351632.9399969,30
1660032269.47477,1351632.939999,18
1660032269.47477,1351632.9400011,18
1660032269.47477,1351632.9400033,30
1660032269.47477,1351632.9400055,16
1660032269.47477,1351632.9400076,9
1660032269.47477,1351632.9400098,35
1660032269.47477,1351632.9400119,54
1660032269.47477,1351632.940014,44
1660032269.5007,1351632.940016,49
1660032269.5007,1351632.9400181,68
1660032269.5007,1351632.9400202,70
1660032269.5007,1351632.9400224,73
1660032269.5007,1351632.9400245,94
1660032269.5007,1351632.9400267,106
1660032269.5007,1351632.9400287,103
1660032269.5007,1351632.9400307,106
1660032269.5007,1351632.9400328,103
1660032269.5007,1351632.9400348,101
1660032269.5007,1351632.940037,98
1660032269.5007,1351632.9400391,89
1660032269.5007,1351632.9400412,89
1660032269.5007,1351632.9400434,91
1660032269.5007,1351632.9400455,87
1660032269.5007,1351632.9400475,77
1660032269.5007,1351632.9400496,73
1660032269.5007,1351632.9400517,73
1660032269.5007,1351633.5736157,77
1660032269.5007,1351633.5736391,89
1660032269.5007,1351633.5736565,70
1660032269.5007,1351633.5736933,47
1660032269.5007,1351633.5737065,49
1660032269.5007,1351633.573714,54
1660032270.00961,1351633.5737191,49
1660032270.00961,1351633.5737259,56
1660032270.00961,1351633.5737309,68
1660032270.00961,1351633.5737366,47
1660032270.00961,1351633.573741,28
1660032270.00961,1351633.5737481,42
1660032270.00961,1351633.5737542,44
1660032270.00961,1351633.5737594,30
1660032270.00961,1351633.5737629,32
1660032270.00961,1351633.5737659,28
1660032270.00961,1351633.57377,11
1660032270.00961,1351633.5737731,25
1660032270.00961,1351633.5737764,56
1660032270.00961,1351633.5737794,47
1660032270.00961,1351633.5737847,32
1660032270.00961,1351633.5737904,40
1660032270.00961,1351633.5737958,42
1660032270.00961,1351633.5738008,47
1660032270.00961,1351633.5738053,54
1660032270.00961,1351633.5738114,49
1660032270.00961,1351633.5738207,51
1660032270.00961,1351633.5738276,65
1660032270.00961,1351633.5738342,58
1660032270.00961,1351633.5738417,40
1660032270.00961,1351633.573849,25
1660032270.00961,1351633.5738572,25
1660032270.00961,1351633.5738652,28
1660032270.00961,1351633.5738718,37
1660032270.00961,1351633.5738801,42
1660032270.00961,1351633.5738863,35
1660032270.00961,1351633.5738957,44
1660032270.00961,1351633.5739027,68
1660032270.00961,1351633.573911,68
1660032270.00961,1351633.5739171,42
1660032270.00961,1351633.5739255,16
1660032270.00961,1351633.5739321,21
1660032270.00961,1351633.5739402,35
1660032270.00961,1351633.5739466,37
1660032270.00961,1351633.573955,28
1660032270.00961,1351633.5739615,16
1660032270.00961,1351633.5739702,18
1660032270.00961,1351633.5739773,28
1660032270.00961,1351633.5739841,65
1660032270.00961,1351633.5739907,214
1660032270.00961,1351633.5739952,426
1660032270.00961,1351633.574001,478
1660032270.00961,1351633.5740057,263
1660032270.00961,1351633.5740144,9
1660032270.00961,1351633.5740223,-28
1660032270.00961,1351633.5740302,51
1660032270.02058,1351633.5740372,51
1660032270.02058,1351633.574046,25
1660032270.02058,1351633.5740528,42
1660032270.02058,1351633.5740593,42
1660032270.02058,1351633.5740654,35
1660032270.02058,1351633.574076,51
1660032270.02058,1351633.5740866,65
1660032270.02058,1351633.5740993,65
1660032270.02058,1351633.5741091,70
1660032270.02058,1351633.5741165,87
1660032270.02058,1351633.5741247,96
1660032270.02058,1351633.574132,96
1660032270.02058,1351633.5741412,84
1660032270.02058,1351633.5741481,84
1660032270.02058,1351633.5741525,117
1660032270.02058,1351633.5741584,146
1660032270.02058,1351633.5741645,134
1660032270.02058,1351634.1095648,129
1660032270.02058,1351634.1095835,146
1660032270.02058,1351634.109589,146
1660032270.02058,1351634.1095928,129
1660032270.02058,1351634.109596,120
1660032270.02058,1351634.1095989,127
1660032270.02058,1351634.1096019,127
1660032270.54096,1351634.1096076,120
1660032270.54096,1351634.109614,110
1660032270.54096,1351634.1096205,91
1660032270.54096,1351634.1096266,87
1660032270.54096,1351634.1096326,89
1660032270.54096,1351634.109639,68
1660032270.54096,1351634.1096455,44
1660032270.54096,1351634.1096517,54
1660032270.54096,1351634.1096582,68
1660032270.54096,1351634.1096651,73
1660032270.54096,1351634.1096692,82
1660032270.54096,1351634.1096741,70
1660032270.54096,1351634.109678,44
1660032270.54096,1351634.1096808,32
1660032270.54096,1351634.1096837,42
1660032270.54096,1351634.1096878,56
1660032270.54096,1351634.1096931,61
1660032270.54096,1351634.1096979,56
1660032270.54096,1351634.1097037,54
1660032270.54096,1351634.1097069,49
1660032270.54096,1351634.1097112,56
1660032270.54096,1351634.1097171,65
1660032270.54096,1351634.1097226,61
1660032270.54096,1351634.1097269,68
1660032270.54096,1351634.1097304,65
1660032270.54096,1351634.1097344,40
1660032270.54096,1351634.1097379,25
1660032270.54096,1351634.1097421,30
1660032270.54096,1351634.1097466,18
1660032270.54096,1351634.109753,4
1660032270.54096,1351634.1097572,11
1660032270.54096,1351634.1097609,18
1660032270.54096,1351634.1097645,11
1660032270.54096,1351634.1097696,9
1660032270.54096,1351634.1097743,16
1660032270.54096,1351634.1097823,25
1660032270.54096,1351634.1097923,25
1660032270.54096,1351634.109799,23
1660032270.54096,1351634.1098036,18
1660032270.54096,1351634.1098089,23
1660032270.54096,1351634.1098125,42
1660032270.54096,1351634.1098182,61
1660032270.54096,1351634.1098225,68
1660032270.54096,1351634.1098262,70
1660032270.54096,1351634.1098314,58
1660032270.54096,1351634.1098351,40
1660032270.54096,1351634.1098402,49
1660032270.54096,1351634.1098439,82
1660032270.54096,1351634.109849,91
1660032270.54096,1351634.1098532,75
1660032270.55194,1351634.109858,65
1660032270.55194,1351634.1098617,65
1660032270.55194,1351634.1098653,80
1660032270.55194,1351634.1098707,131
1660032270.55194,1351634.1098745,278
1660032270.55194,1351634.1098799,457
1660032270.55194,1351634.1098836,471
1660032270.55194,1351634.1098887,266
1660032270.55194,1351634.1098926,68
1660032270.55194,1351634.1098977,37
1660032270.55194,1351634.1099014,70
1660032270.55194,1351634.1099067,68
1660032270.55194,1351634.1099104,58
1660032270.55194,1351634.109916,51
1660032270.55194,1351634.1099196,61
1660032270.55194,1351634.1099248,91
1660032270.55194,1351634.6460347,98
1660032270.55194,1351634.6460524,87
1660032270.55194,1351634.6460566,89
1660032270.55194,1351634.6460595,84
1660032270.55194,1351634.6460646,94
1660032270.55194,1351634.6460673,117
1660032270.55194,1351634.6460699,122
1660032270.55194,1351634.6460745,120
1660032271.18301,1351634.6460774,131
1660032271.18301,1351634.64608,127
1660032271.18301,1351634.6460826,103
1660032271.18301,1351634.6460852,98
1660032271.18301,1351634.6460878,110
1660032271.18301,1351634.6460904,134
1660032271.18301,1351634.646093,157
1660032271.18301,1351634.6460963,143
1660032271.18301,1351634.6460988,96
1660032271.18301,1351634.6461015,75
1660032271.18301,1351634.6461042,87
1660032271.18301,1351634.6461067,89
1660032271.18301,1351634.6461093,70
1660032271.18301,1351634.6461119,54
1660032271.18301,1351634.6461145,63
1660032271.18301,1351634.6461179,80
1660032271.18301,1351634.6461223,63
1660032271.18301,1351634.6461253,18
1660032271.18301,1351634.646128,7
1660032271.18301,1351634.6461305,11
1660032271.18301,1351634.6461338,4
1660032271.18301,1351634.6461363,21
1660032271.18301,1351634.6461389,49
1660032271.18301,1351634.6461415,47
1660032271.18301,1351634.646144,32
1660032271.18301,1351634.6461467,40
1660032271.18301,1351634.6461492,56
1660032271.18301,1351634.6461518,58
1660032271.18301,1351634.6461811,42
1660032271.18301,1351634.6461856,37
1660032271.18301,1351634.6461889,56
1660032271.18301,1351634.6461919,51
1660032271.18301,1351634.6461947,44
1660032271.18301,1351634.6461974,68
1660032271.18301,1351634.6462,65
1660032271.18301,1351634.6462027,28
1660032271.18301,1351634.6462071,32
1660032271.18301,1351634.6462112,68
1660032271.18301,1351634.6462163,77
1660032271.18301,1351634.6462229,77
1660032271.18301,1351634.6462307,73
1660032271.18301,1351634.646241,61
1660032271.18301,1351634.6462456,65
1660032271.18301,1351634.6462506,87
1660032271.18301,1351634.6462567,89
1660032271.18301,1351634.6462653,58
1660032271.18301,1351634.6462761,44
1660032271.18301,1351634.6462872,73
1660032271.18301,1351634.6462958,98
1660032271.18301,1351634.6463065,89
1660032271.19597,1351634.6463177,89
1660032271.19597,1351634.6463254,101
1660032271.19597,1351634.6463358,87
1660032271.19597,1351634.6463464,65
1660032271.19597,1351634.646352,80
1660032271.19597,1351634.6463682,106
1660032271.19597,1351634.6463772,108
1660032271.19597,1351634.6463863,94
1660032271.19597,1351634.6463941,96
1660032271.19597,1351634.6464005,110
1660032271.19597,1351634.6464093,108
1660032271.19597,1351634.6464179,106
1660032271.19597,1351634.6464263,167
1660032271.19597,1351634.6464322,332
1660032271.19597,1351634.6464446,523
1660032271.19597,1351635.2805552,541
1660032271.19597,1351635.2805742,315
1660032271.19597,1351635.2805809,77
1660032271.19597,1351635.2805847,51
1660032271.19597,1351635.2805899,117
1660032271.19597,1351635.2805932,101
1660032271.19597,1351635.2805965,68
1660032271.19597,1351635.2806014,70
1660032271.19597,1351635.280607,75
1660032271.66602,1351635.2806105,87
1660032271.66602,1351635.280614,103
1660032271.66602,1351635.2806175,96
1660032271.66602,1351635.2806216,68
1660032271.66602,1351635.2806259,56
1660032271.66602,1351635.2806303,65
1660032271.66602,1351635.2806337,82
1660032271.66602,1351635.2806367,89
1660032271.66602,1351635.2806402,73
1660032271.66602,1351635.2806433,70
1660032271.66602,1351635.2806487,91
1660032271.66602,1351635.2806531,103
1660032271.66602,1351635.2806577,101
1660032271.66602,1351635.280666,96
1660032271.66602,1351635.2806693,94
1660032271.66602,1351635.2806796,103
1660032271.66602,1351635.2806826,127
1660032271.66602,1351635.2806849,129
1660032271.66602,1351635.280687,113
1660032271.66602,1351635.2806892,103
1660032271.66602,1351635.2806919,94
1660032271.66602,1351635.2806998,77
1660032271.66602,1351635.2807085,75
1660032271.66602,1351635.2807136,84
1660032271.66602,1351635.2807179,77
1660032271.66602,1351635.2807232,68
1660032271.66602,1351635.2807268,73
1660032271.66602,1351635.2807324,65
1660032271.66602,1351635.2807518,61
1660032271.66602,1351635.2807624,77
1660032271.66602,1351635.2807717,80
1660032271.66602,1351635.2807784,68
1660032271.66602,1351635.2807836,56
1660032271.66602,1351635.2807895,56
1660032271.66602,1351635.2807979,63
1660032271.66602,1351635.2808041,56
1660032271.66602,1351635.2808108,49
1660032271.66602,1351635.2808156,68
1660032271.66602,1351635.2808259,70
1660032271.66602,1351635.2808331,56
1660032271.66602,1351635.280842,49
1660032271.66602,1351635.2808553,30
1660032271.66602,1351635.2808652,30
1660032271.66602,1351635.2808706,51
1660032271.66602,1351635.2808834,49
1660032271.66602,1351635.2808954,42
1660032271.66602,1351635.280905,58
1660032271.66602,1351635.2809115,65
1660032271.66602,1351635.2809179,54
1660032271.66602,1351635.2809251,54
1660032271.68597,1351635.2809313,70
1660032271.68597,1351635.2809378,77
1660032271.68597,1351635.2809415,75
1660032271.68597,1351635.2809468,77
1660032271.68597,1351635.28095,70
1660032271.68597,1351635.2809533,58
1660032271.68597,1351635.2809569,75
1660032271.68597,1351635.2809606,87
1660032271.68597,1351635.280966,80
1660032271.68597,1351635.2809733,91
1660032271.68597,1351635.2809809,117
1660032271.68597,1351635.2809863,127
1660032271.68597,1351635.2809895,117
1660032271.68597,1351635.2809946,101
1660032271.68597,1351635.7666523,84
1660032271.68597,1351635.7666693,89
1660032271.68597,1351635.7666743,113
1660032271.68597,1351635.7666828,108
1660032271.68597,1351635.766687,94
1660032271.68597,1351635.7666907,103
1660032271.68597,1351635.7666942,122
1660032271.68597,1351635.7666974,179
1660032271.68597,1351635.7667014,327
1660032271.68597,1351635.7667054,494
1660032272.34688,1351635.7667094,478
1660032272.34688,1351635.7667135,216
1660032272.34688,1351635.7667176,-7
1660032272.34688,1351635.7667217,18
1660032272.34688,1351635.7667258,103
1660032272.34688,1351635.7667299,61
1660032272.34688,1351635.7667352,-7
1660032272.34688,1351635.766739,9
1660032272.34688,1351635.7667428,44
1660032272.34688,1351635.7667464,35
1660032272.34688,1351635.7667499,30
1660032272.34688,1351635.7667534,51
1660032272.34688,1351635.7667571,49
1660032272.34688,1351635.7667604,30
1660032272.34688,1351635.7667641,25
1660032272.34688,1351635.7667678,54
1660032272.34688,1351635.7667712,91
1660032272.34688,1351635.7667752,101
1660032272.34688,1351635.7667791,84
1660032272.34688,1351635.7667842,73
1660032272.34688,1351635.7667881,80
1660032272.34688,1351635.7667937,96
1660032272.34688,1351635.7667965,101
1660032272.34688,1351635.7667995,91
1660032272.34688,1351635.7668024,82
1660032272.34688,1351635.7668139,63
1660032272.34688,1351635.7668167,63
1660032272.34688,1351635.7668194,82
1660032272.34688,1351635.7668222,77
1660032272.34688,1351635.766825,61
1660032272.34688,1351635.7668277,47
1660032272.34688,1351635.7668305,25
1660032272.34688,1351635.7668332,14
1660032272.34688,1351635.7668361,16
1660032272.34688,1351635.7668388,23
1660032272.34688,1351635.7668416,37
1660032272.34688,1351635.7668443,28
1660032272.34688,1351635.766847,-7
1660032272.34688,1351635.7668497,-2
1660032272.34688,1351635.7668527,11
1660032272.34688,1351635.7668556,-9
1660032272.34688,1351635.7668583,-7
1660032272.34688,1351635.7668609,21
1660032272.34688,1351635.7668646,16
1660032272.34688,1351635.7668684,2
1660032272.34688,1351635.7668785,9
1660032272.34688,1351635.7668838,9
1660032272.34688,1351635.7668888,4
1660032272.34688,1351635.7669018,16
1660032272.34688,1351635.7669422,25
1660032272.36085,1351635.7669552,18
1660032272.36085,1351635.7669627,14
1660032272.36085,1351635.7669693,23
1660032272.36085,1351635.7669788,32
1660032272.36085,1351635.767004,28
1660032272.36085,1351635.7670125,30
1660032272.36085,1351635.7670177,42
1660032272.36085,1351635.7670235,47
1660032272.36085,1351635.767027,54
1660032272.36085,1351635.7670304,65
1660032272.36085,1351635.767035,63
1660032272.36085,1351635.7670385,58
1660032272.36085,1351635.7670433,63
1660032272.36085,1351636.4491705,63
1660032272.36085,1351636.449191,54
1660032272.36085,1351636.4492092,58
1660032272.36085,1351636.4492228,70
1660032272.36085,1351636.4492363,54
1660032272.36085,1351636.4492446,49
1660032272.36085,1351636.4492499,61
1660032272.36085,1351636.4492543,49
1660032272.36085,1351636.4492583,42
1660032272.36085,1351636.4492617,47
1660032272.36085,1351636.449265,40
1660032272.83841,1351636.4492689,44
1660032272.83841,1351636.4492726,42
1660032272.83841,1351636.4492764,14
1660032272.83841,1351636.4492802,14
1660032272.83841,1351636.4492838,35
1660032272.83841,1351636.4492874,54
1660032272.83841,1351636.4492909,136
1660032272.83841,1351636.4492964,320
1660032272.83841,1351636.4493003,464
1660032272.83841,1351636.4493043,372
1660032272.83841,1351636.4493104,103
1660032272.83841,1351636.4493146,-23
1660032272.83841,1351636.4493187,63
1660032272.83841,1351636.4493238,96
1660032272.83841,1351636.4493275,37
1660032272.83841,1351636.449332,51
1660032272.83841,1351636.4493369,87
1660032272.83841,1351636.4493408,63
1660032272.83841,1351636.4493447,61
1660032272.83841,1351636.4493486,96
1660032272.83841,1351636.4493524,94
1660032272.83841,1351636.4493572,73
1660032272.83841,1351636.4493613,82
1660032272.83841,1351636.4493653,94
1660032272.83841,1351636.4493705,96
1660032272.83841,1351636.4493743,113
1660032272.83841,1351636.4493783,124
1660032272.83841,1351636.4493822,120
1660032272.83841,1351636.4493861,131
1660032272.83841,1351636.4493904,148
1660032272.83841,1351636.4493944,141
1660032272.83841,1351636.4493982,131
1660032272.83841,1351636.4494022,146
1660032272.83841,1351636.4494063,153
1660032272.83841,1351636.44941,127
1660032272.83841,1351636.4494143,110
1660032272.83841,1351636.4494182,124
1660032272.83841,1351636.4494244,129
1660032272.83841,1351636.4494301,103
1660032272.83841,1351636.4494344,87
1660032272.83841,1351636.4494388,87
1660032272.83841,1351636.4494431,84
1660032272.83841,1351636.4494493,73
1660032272.83841,1351636.4494534,75
1660032272.83841,1351636.4494574,77
1660032272.83841,1351636.4494616,56
1660032272.83841,1351636.4494673,37
1660032272.83841,1351636.4494713,49
1660032272.83841,1351636.4494766,68
1660032272.83841,1351636.4494814,61
1660032272.84938,1351636.4494853,56
1660032272.84938,1351636.4494911,65
1660032272.84938,1351636.4494953,58
1660032272.84938,1351636.4495011,40
1660032272.84938,1351636.4495064,37
1660032272.84938,1351636.4495125,54
1660032272.84938,1351636.4495165,65
1660032272.84938,1351636.449522,63
1660032272.84938,1351636.4495259,47
1660032272.84938,1351636.4495314,30
1660032272.84938,1351636.4495353,30
1660032272.84938,1351636.4495413,32
1660032272.84938,1351636.9370568,42
1660032272.84938,1351636.9370697,65
1660032272.84938,1351636.9370743,73
1660032272.84938,1351636.9370765,54
1660032272.84938,1351636.9370786,47
1660032272.84938,1351636.9370807,49
1660032272.84938,1351636.9370828,63
1660032272.84938,1351636.9370848,84
1660032272.84938,1351636.9370868,77
1660032272.84938,1351636.9370889,54
1660032272.84938,1351636.9370908,44
1660032272.84938,1351636.9370929,44
1660032273.36939,1351636.937095,68
1660032273.36939,1351636.9370969,96
1660032273.36939,1351636.9371003,94
1660032273.36939,1351636.9371108,77
1660032273.36939,1351636.9371179,63
1660032273.36939,1351636.9371205,56
1660032273.36939,1351636.9371227,63
1660032273.36939,1351636.9371259,77
1660032273.36939,1351636.9371383,84
1660032273.36939,1351636.9371478,65
1660032273.36939,1351636.9371532,49
1660032273.36939,1351636.9371554,73
1660032273.36939,1351636.9371583,89
1660032273.36939,1351636.9371604,106
1660032273.36939,1351636.9371665,228
1660032273.36939,1351636.9371777,419
1660032273.36939,1351636.9371829,438
1660032273.36939,1351636.9371861,223
1660032273.36939,1351636.9371882,23
1660032273.36939,1351636.9371948,0
1660032273.36939,1351636.9372058,44
1660032273.36939,1351636.9372106,47
1660032273.36939,1351636.9372128,32
1660032273.36939,1351636.937215,37
1660032273.36939,1351636.937221,42
1660032273.36939,1351636.9372321,35
1660032273.36939,1351636.9372372,40
1660032273.36939,1351636.9372402,58
1660032273.36939,1351636.9372422,61
1660032273.36939,1351636.9372456,44
1660032273.36939,1351636.9372581,51
1660032273.36939,1351636.937264,80
1660032273.36939,1351636.9372664,94
1660032273.36939,1351636.9372686,94
1660032273.36939,1351636.9372715,87
1660032273.36939,1351636.9372816,77
1660032273.36939,1351636.9372916,98
1660032273.36939,1351636.9372943,143
1660032273.36939,1351636.9373213,146
1660032273.36939,1351636.9373364,117
1660032273.36939,1351636.9373469,120
1660032273.36939,1351636.9373559,124
1660032273.36939,1351636.937366,101
1660032273.36939,1351636.937376,84
1660032273.36939,1351636.937384,77
1660032273.36939,1351636.9373906,61
1660032273.36939,1351636.9374018,47
1660032273.36939,1351636.9374145,47
1660032273.36939,1351636.9374262,47
1660032273.36939,1351636.9374398,37
1660032273.39033,1351636.937454,25
1660032273.39033,1351636.937467,16
1660032273.39033,1351636.9374808,7
1660032273.39033,1351636.9374898,14
1660032273.39033,1351636.9374923,28
1660032273.39033,1351636.9374992,21
1660032273.39033,1351636.93751,9
1660032273.39033,1351636.9375147,14
1660032273.39033,1351636.9375169,16
1660032273.39033,1351636.9375189,14
1660032273.39033,1351636.937521,9
1660032273.39033,1351637.4751583,9
1660032273.39033,1351637.4751709,25
1660032273.39033,1351637.475174,32
1660032273.39033,1351637.4751767,25
1660032273.39033,1351637.4751793,30
1660032273.39033,1351637.4751816,44
1660032273.39033,1351637.475184,47
1660032273.39033,1351637.4751864,40
1660032273.39033,1351637.4751887,42
1660032273.39033,1351637.475191,47
1660032273.39033,1351637.4751933,44
1660032273.39033,1351637.4751956,35
1660032273.39033,1351637.4751979,28
1660032273.96153,1351637.4752002,21
1660032273.96153,1351637.4752024,4
1660032273.96153,1351637.4752048,-4
1660032273.96153,1351637.475208,23
1660032273.96153,1351637.4752184,37
1660032273.96153,1351637.4752251,4
1660032273.96153,1351637.4752276,-21
1660032273.96153,1351637.4752297,-7
1660032273.96153,1351637.4752317,9
1660032273.96153,1351637.4752338,21
1660032273.96153,1351637.4752358,51
1660032273.96153,1351637.4752379,49
1660032273.96153,1351637.4752399,-4
1660032273.96153,1351637.4752434,-14
1660032273.96153,1351637.4752463,28
1660032273.96153,1351637.4752485,35
1660032273.96153,1351637.4752506,30
1660032273.96153,1351637.4752561,49
1660032273.96153,1351637.4752643,40
1660032273.96153,1351637.4752739,23
1660032273.96153,1351637.4752785,51
1660032273.96153,1351637.4752848,134
1660032273.96153,1351637.4752892,294
1660032273.96153,1351637.475297,431
1660032273.96153,1351637.4753046,360
1660032273.96153,1351637.4753112,113
1660032273.96153,1351637.4753156,-35
1660032273.96153,1351637.4753213,18
1660032273.96153,1351637.4753248,63
1660032273.96153,1351637.4753282,35
1660032273.96153,1351637.4753316,37
1660032273.96153,1351637.475335,54
1660032273.96153,1351637.4753383,37
1660032273.96153,1351637.4753415,25
1660032273.96153,1351637.4753448,47
1660032273.96153,1351637.475348,65
1660032273.96153,1351637.4753516,58
1660032273.96153,1351637.475355,58

1660032273.96153,1351637.4753603,70
1660032273.96153,1351637.4753639,82
1660032273.96153,1351637.4753688,87
1660032273.96153,1351637.4753723,77
1660032273.96153,1351637.4753783,75
1660032273.96153,1351637.4753836,84
1660032273.96153,1351637.475388,91
1660032273.96153,1351637.4753937,108
1660032273.96153,1351637.4754,120
1660032273.96153,1351637.475407,120
1660032273.96153,1351637.4754129,122
1660032273.96153,1351637.4754174,113
1660032273.9725,1351637.4754219,84
1660032273.9725,1351637.4754256,73
1660032273.9725,1351637.4754308,73
1660032273.9725,1351637.4754349,70
1660032273.9725,1351637.4754412,54
1660032273.9725,1351637.4754456,49
1660032273.9725,1351637.475451,65
1660032273.9725,1351637.4754586,58
1660032273.9725,1351637.475465,40
1660032273.9725,1351637.4754706,47
1660032273.9725,1351638.0579042,54
1660032273.9725,1351638.0579238,51
1660032273.9725,1351638.0579388,61
1660032273.9725,1351638.0579519,56
1660032273.9725,1351638.057961,30
1660032273.9725,1351638.057972,16
1660032273.9725,1351638.0579848,16
1660032273.9725,1351638.0579981,21
1660032273.9725,1351638.0580066,32
1660032273.9725,1351638.0580092,30
1660032273.9725,1351638.0580114,4
1660032273.9725,1351638.0580135,14
1660032273.9725,1351638.0580157,44
1660032273.9725,1351638.0580178,40
1660032274.50327,1351638.0580199,28
1660032274.50327,1351638.058022,21
1660032274.50327,1351638.058024,-4
1660032274.50327,1351638.058026,-14
1660032274.50327,1351638.0580281,11
1660032274.50327,1351638.05803,25
1660032274.50327,1351638.0580328,2
1660032274.50327,1351638.0580349,-11
1660032274.50327,1351638.0580368,2
1660032274.50327,1351638.0580388,7
1660032274.50327,1351638.0580408,-4
1660032274.50327,1351638.0580429,0
1660032274.50327,1351638.058045,7
1660032274.50327,1351638.0580519,2
1660032274.50327,1351638.058062,-2
1660032274.50327,1351638.0580746,9
1660032274.50327,1351638.0580877,32
1660032274.50327,1351638.0580939,47
1660032274.50327,1351638.0580962,56
1660032274.50327,1351638.0581015,61
1660032274.50327,1351638.0581119,47
1660032274.50327,1351638.0581213,35
1660032274.50327,1351638.0581259,51
1660032274.50327,1351638.0581299,47
1660032274.50327,1351638.0581322,37
1660032274.50327,1351638.0581343,68
1660032274.50327,1351638.0581365,73
1660032274.50327,1351638.0581386,56
1660032274.50327,1351638.0581407,82
1660032274.50327,1351638.0581428,157
1660032274.50327,1351638.058145,315
1660032274.50327,1351638.0581503,471
1660032274.50327,1351638.0581608,402
1660032274.50327,1351638.0581717,131
1660032274.50327,1351638.0581824,-35
1660032274.50327,1351638.0581918,25
1660032274.50327,1351638.0581972,84
1660032274.50327,1351638.0582049,44
1660032274.50327,1351638.058209,44
1660032274.50327,1351638.0582161,82
1660032274.50327,1351638.0582246,70
1660032274.50327,1351638.0582293,47
1660032274.50327,1351638.0582333,65
1660032274.50327,1351638.0582368,94
1660032274.50327,1351638.0582405,94
1660032274.50327,1351638.0582454,89
1660032274.50327,1351638.058249,82
1660032274.50327,1351638.0582523,82
1660032274.50327,1351638.0582616,103
1660032274.50327,1351638.0582661,124
1660032274.51724,1351638.0582757,127
1660032274.51724,1351638.0582835,131
1660032274.51724,1351638.0582952,134
1660032274.51724,1351638.058303,139
1660032274.51724,1351638.058308,146
1660032274.51724,1351638.0583114,136
1660032274.51724,1351638.058318,120
1660032274.51724,1351638.0583239,129
1660032274.51724,1351638.0583338,127
1660032274.51724,1351638.5946294,103
1660032274.51724,1351638.594649,82
1660032274.51724,1351638.59466,75
1660032274.51724,1351638.5946693,73
1660032274.51724,1351638.5946752,68
1660032274.51724,1351638.5946872,61
1660032274.51724,1351638.5946986,40
1660032274.51724,1351638.594708,49
1660032274.51724,1351638.5947188,77
1660032274.51724,1351638.5947298,68
1660032274.51724,1351638.594738,68
1660032274.51724,1351638.5947484,70
1660032274.51724,1351638.5947578,35
1660032274.51724,1351638.5947625,14
1660032274.51724,1351638.5947786,28
1660032275.03283,1351638.5947937,23
1660032275.03283,1351638.5948002,4
1660032275.03283,1351638.594805,16
1660032275.03283,1351638.5948094,14
1660032275.03283,1351638.5948139,-21
1660032275.03283,1351638.5948209,-21
1660032275.03283,1351638.5948294,4
1660032275.03283,1351638.5948346,0
1660032275.03283,1351638.59484,-2
1660032275.03283,1351638.5948454,7
1660032275.03283,1351638.5948515,2
1660032275.03283,1351638.5948562,-2
1660032275.03283,1351638.5948604,2
1660032275.03283,1351638.5948648,2
1660032275.03283,1351638.5948696,-2
1660032275.03283,1351638.5948751,-2
1660032275.03283,1351638.5948799,-7
1660032275.03283,1351638.5948849,-4
1660032275.03283,1351638.5948926,7
1660032275.03283,1351638.5948972,18
1660032275.03283,1351638.5949017,25
1660032275.03283,1351638.5949063,28
1660032275.03283,1351638.5949109,30
1660032275.03283,1351638.5949168,32
1660032275.03283,1351638.5949215,40
1660032275.03283,1351638.5949274,44
1660032275.03283,1351638.5949317,32
1660032275.03283,1351638.5949374,23
1660032275.03283,1351638.5949421,28
1660032275.03283,1351638.5949476,35
1660032275.03283,1351638.594952,35
1660032275.03283,1351638.5949561,30
1660032275.03283,1351638.594962,42
1660032275.03283,1351638.5949662,58
1660032275.03283,1351638.5949706,54
1660032275.03283,1351638.5949747,47
1660032275.03283,1351638.5949811,89
1660032275.03283,1351638.5949876,219
1660032275.03283,1351638.5949934,398
1660032275.03283,1351638.5949996,459
1660032275.03283,1351638.5950042,303
1660032275.03283,1351638.5950107,63
1660032275.03283,1351638.5950168,-9
1660032275.03283,1351638.5950213,68
1660032275.03283,1351638.5950272,75
1660032275.03283,1351638.5950325,23
1660032275.03283,1351638.5950386,37
1660032275.03283,1351638.5950449,58
1660032275.03283,1351638.5950496,47
1660032275.03283,1351638.5950558,61
1660032275.04679,1351638.5950603,87
1660032275.04679,1351638.5950661,68
1660032275.04679,1351638.5950706,65
1660032275.04679,1351638.5950765,94
1660032275.04679,1351638.5950811,94
1660032275.04679,1351638.5950872,87
1660032275.04679,1351638.5950918,115
1660032275.04679,1351638.5950977,131
1660032275.04679,1351639.1307401,127
1660032275.04679,1351639.1307589,136
1660032275.04679,1351639.1307651,153
1660032275.04679,1351639.1307707,160
1660032275.04679,1351639.1307768,162
1660032275.04679,1351639.1307821,160
1660032275.04679,1351639.1307913,150
1660032275.04679,1351639.1307999,143
1660032275.04679,1351639.1308075,139
1660032275.04679,1351639.1308139,113
1660032275.04679,1351639.1308223,73
1660032275.04679,1351639.1308276,54
1660032275.04679,1351639.1308311,54
1660032275.04679,1351639.1308343,56
1660032275.04679,1351639.1308374,58
1660032275.04679,1351639.1308409,28
1660032275.6619,1351639.1308448,-7
1660032275.6619,1351639.1308491,4
1660032275.6619,1351639.1308531,28
1660032275.6619,1351639.1308564,11
1660032275.6619,1351639.1308596,0
1660032275.6619,1351639.1308629,32
1660032275.6619,1351639.1308663,37
1660032275.6619,1351639.1308695,14
1660032275.6619,1351639.130873,11
1660032275.6619,1351639.1308763,14
1660032275.6619,1351639.1308794,40
1660032275.6619,1351639.1308827,80
1660032275.6619,1351639.1308857,54
1660032275.6619,1351639.1308888,18
1660032275.6619,1351639.1308918,44
1660032275.6619,1351639.1308951,54
1660032275.6619,1351639.1308982,23
1660032275.6619,1351639.1309014,18
1660032275.6619,1351639.1309048,30
1660032275.6619,1351639.1309079,51
1660032275.6619,1351639.1309113,61
1660032275.6619,1351639.1309146,42
1660032275.6619,1351639.1309181,40
1660032275.6619,1351639.1309216,75
1660032275.6619,1351639.130925,82
1660032275.6619,1351639.1309291,44
1660032275.6619,1351639.1309337,37
1660032275.6619,1351639.1309383,63
1660032275.6619,1351639.1309451,75
1660032275.6619,1351639.1309517,87
1660032275.6619,1351639.13096,96
1660032275.6619,1351639.1309664,84
1660032275.6619,1351639.1309703,73
1660032275.6619,1351639.1309735,101
1660032275.6619,1351639.1309764,139
1660032275.6619,1351639.1309813,117
1660032275.6619,1351639.1309879,65
1660032275.6619,1351639.1309972,61
1660032275.6619,1351639.1310088,91
1660032275.6619,1351639.1310176,115
1660032275.6619,1351639.1310229,117
1660032275.6619,1351639.1310377,113
1660032275.6619,1351639.1310505,110
1660032275.6619,1351639.1310629,98
1660032275.6619,1351639.1310729,98
1660032275.6619,1351639.1310787,190
1660032275.6619,1351639.1310925,376
1660032275.6619,1351639.1311051,523
1660032275.6619,1351639.1311198,454
1660032275.6619,1351639.131132,228
1660032275.67287,1351639.1311418,70
1660032275.67287,1351639.1311471,73
1660032275.67287,1351639.1311608,120
1660032275.67287,1351639.1311734,122
1660032275.67287,1351639.1311826,103
1660032275.67287,1351639.1311957,101
1660032275.67287,1351639.1312087,122
1660032275.67287,1351639.7648335,143
1660032275.67287,1351639.7648507,134
1660032275.67287,1351639.7648595,131
1660032275.67287,1351639.764865,150
1660032275.67287,1351639.7648725,146
1660032275.67287,1351639.7648808,129
1660032275.67287,1351639.7648876,131
1660032275.67287,1351639.7648922,131
1660032275.67287,1351639.7648965,113
1660032275.67287,1351639.7649021,103
1660032275.67287,1351639.7649059,129
1660032275.67287,1351639.7649114,157
1660032275.67287,1351639.7649158,143
1660032275.67287,1351639.7649208,106
1660032275.67287,1351639.7649244,106
1660032275.67287,1351639.764928,131
1660032275.67287,1351639.7649333,131
1660032276.24585,1351639.7649379,115
1660032276.24585,1351639.7649415,120
1660032276.24585,1351639.7649449,115
1660032276.24585,1351639.7649485,89
1660032276.24585,1351639.7649533,77
1660032276.24585,1351639.7649576,73
1660032276.24585,1351639.7649614,63
1660032276.24585,1351639.7649651,58
1660032276.24585,1351639.7649684,73
1660032276.24585,1351639.764972,75
1660032276.24585,1351639.7649757,40
1660032276.24585,1351639.7649792,9
1660032276.24585,1351639.7649829,7
1660032276.24585,1351639.7649867,30
1660032276.24585,1351639.7649907,77
1660032276.24585,1351639.7649943,91
1660032276.24585,1351639.7649981,63
1660032276.24585,1351639.7650018,61
1660032276.24585,1351639.7650053,77
1660032276.24585,1351639.7650183,80
1660032276.24585,1351639.7650233,65
1660032276.24585,1351639.7650289,56
1660032276.24585,1351639.7650331,58
1660032276.24585,1351639.7650385,58
1660032276.24585,1351639.7650438,75
1660032276.24585,1351639.7650477,77
1660032276.24585,1351639.7650517,51
1660032276.24585,1351639.7650573,30
1660032276.24585,1351639.7650612,37
1660032276.24585,1351639.7650652,63
1660032276.24585,1351639.7650704,61
1660032276.24585,1351639.7650752,44
1660032276.24585,1351639.7650792,75
1660032276.24585,1351639.7650847,91
1660032276.24585,1351639.7650896,68
1660032276.24585,1351639.7650949,63
1660032276.24585,1351639.765099,89
1660032276.24585,1351639.765103,103
1660032276.24585,1351639.7651085,108
1660032276.24585,1351639.7651128,113
1660032276.24585,1351639.7651183,108
1660032276.24585,1351639.7651236,106
1660032276.24585,1351639.7651276,98
1660032276.24585,1351639.7651331,82
1660032276.24585,1351639.7651384,96
1660032276.24585,1351639.765143,127
1660032276.24585,1351639.7651484,129
1660032276.24585,1351639.7651523,117
1660032276.24585,1351639.7651577,110
1660032276.24585,1351639.7651616,113
1660032276.25682,1351639.7651655,204
1660032276.25682,1351639.7651709,391
1660032276.25682,1351639.7651758,513
1660032276.25682,1351639.7651813,466
1660032276.25682,1351639.7651851,263
1660032276.25682,1351639.7651891,73
1660032276.25682,1351640.3497914,91
1660032276.25682,1351640.3498089,162
1660032276.25682,1351640.3498144,87
1660032276.25682,1351640.3498198,28
1660032276.25682,1351640.349823,106
1660032276.25682,1351640.3498262,169
1660032276.25682,1351640.3498308,148
1660032276.25682,1351640.3498383,129
1660032276.25682,1351640.3498431,127
1660032276.25682,1351640.3498485,108
1660032276.25682,1351640.3498522,113
1660032276.25682,1351640.3498552,150
1660032276.25682,1351640.3498581,167
1660032276.25682,1351640.3498626,162
1660032276.25682,1351640.3498681,160
1660032276.25682,1351640.3498748,134
1660032276.25682,1351640.349878,115
1660032276.25682,1351640.3498821,148
1660032276.78622,1351640.3498858,176
1660032276.78622,1351640.3498892,160
1660032276.78622,1351640.3498926,141
1660032276.78622,1351640.349896,129
1660032276.78622,1351640.3498996,103
1660032276.78622,1351640.3499044,82
1660032276.78622,1351640.3499079,75
1660032276.78622,1351640.3499108,80
1660032276.78622,1351640.3499139,82
1660032276.78622,1351640.3499173,51
1660032276.78622,1351640.3499212,25
1660032276.78622,1351640.3499264,58
1660032276.78622,1351640.3499306,89
1660032276.78622,1351640.3499366,73
1660032276.78622,1351640.3499426,56
1660032276.78622,1351640.3499471,63
1660032276.78622,1351640.34995,47
1660032276.78622,1351640.349953,25
1660032276.78622,1351640.3499559,35
1660032276.78622,1351640.3499588,58
1660032276.78622,1351640.3499617,70
1660032276.78622,1351640.3499649,75
1660032276.78622,1351640.3499681,70
1660032276.78622,1351640.3499713,61
1660032276.78622,1351640.3499747,49
1660032276.78622,1351640.3499786,61
1660032276.78622,1351640.349985,89
1660032276.78622,1351640.3499903,84
1660032276.78622,1351640.3499947,54
1660032276.78622,1351640.350002,61
1660032276.78622,1351640.3500096,89
1660032276.78622,1351640.3500152,84
1660032276.78622,1351640.3500192,61
1660032276.78622,1351640.3500256,54
1660032276.78622,1351640.3500317,49
1660032276.78622,1351640.3500378,37
1660032276.78622,1351640.3500433,47
1660032276.78622,1351640.3500485,68
1660032276.78622,1351640.3500558,61
1660032276.78622,1351640.3500623,51
1660032276.78622,1351640.3500667,51
1660032276.78622,1351640.3500715,44
1660032276.78622,1351640.3500761,44
1660032276.78622,1351640.3500796,56
1660032276.78622,1351640.3500851,77
1660032276.78622,1351640.35009,91
1660032276.78622,1351640.3500966,77
1660032276.78622,1351640.3501011,61
1660032276.78622,1351640.3501055,75
1660032276.78622,1351640.3501085,84
1660032276.80517,1351640.3501117,63
1660032276.80517,1351640.3501164,61
1660032276.80517,1351640.3501198,82
1660032276.80517,1351640.3501246,82
1660032276.80517,1351640.3501277,56
1660032276.80517,1351640.8877518,68
1660032276.80517,1351640.8877726,157
1660032276.80517,1351640.8877846,320
1660032276.80517,1351640.8877914,482
1660032276.80517,1351640.8877936,499
1660032276.80517,1351640.8877957,287
1660032276.80517,1351640.8877979,37
1660032276.80517,1351640.8878,9
1660032276.80517,1351640.8878021,91
1660032276.80517,1351640.8878042,82
1660032276.80517,1351640.8878063,49
1660032276.80517,1351640.8878084,49
1660032276.80517,1351640.8878104,14
1660032276.80517,1351640.8878126,-14
1660032276.80517,1351640.8878151,14
1660032276.80517,1351640.8878247,30
1660032276.80517,1351640.8878321,25
1660032276.80517,1351640.8878346,54
1660032276.80517,1351640.8878368,54
1660032277.32929,1351640.8878389,9
1660032277.32929,1351640.8878414,4
1660032277.32929,1351640.887851,28
1660032277.32929,1351640.887856,35
1660032277.32929,1351640.8878582,63
1660032277.32929,1351640.8878608,80
1660032277.32929,1351640.8878707,61
1660032277.32929,1351640.8878775,58
1660032277.32929,1351640.8878874,80
1660032277.32929,1351640.8878944,94
1660032277.32929,1351640.8879085,94
1660032277.32929,1351640.8879257,96
1660032277.32929,1351640.8879391,84
1660032277.32929,1351640.8879485,58
1660032277.32929,1351640.8879562,49
1660032277.32929,1351640.8879655,49
1660032277.32929,1351640.8879703,44
1660032277.32929,1351640.8879807,54
1660032277.32929,1351640.8879841,56
1660032277.32929,1351640.887987,44
1660032277.32929,1351640.8879899,44
1660032277.32929,1351640.8879928,54
1660032277.32929,1351640.8879957,68
1660032277.32929,1351640.8880018,82
1660032277.32929,1351640.8880136,75
1660032277.32929,1351640.8880225,63
1660032277.32929,1351640.8880348,68
1660032277.32929,1351640.8880456,77
1660032277.32929,1351640.8880506,82
1660032277.32929,1351640.8880529,82
1660032277.32929,1351640.8880601,84
1660032277.32929,1351640.8880725,82
1660032277.32929,1351640.8880827,80
1660032277.32929,1351640.8880916,84
1660032277.32929,1351640.8881746,89
1660032277.32929,1351640.8881836,89
1660032277.32929,1351640.8881882,89
1660032277.32929,1351640.8881935,98
1660032277.32929,1351640.8881987,94
1660032277.32929,1351640.8882065,75
1660032277.32929,1351640.8882124,68
1660032277.32929,1351640.8882182,70
1660032277.32929,1351640.8882236,65
1660032277.32929,1351640.8882278,56
1660032277.32929,1351640.8882333,51
1660032277.32929,1351640.8882373,51
1660032277.32929,1351640.8882454,70
1660032277.32929,1351640.8882535,91
1660032277.32929,1351640.888262,77
1660032277.32929,1351640.8882679,54
1660032277.34579,1351640.8882711,61
1660032277.34579,1351640.8882745,70
1660032277.34579,1351640.8882799,80
1660032277.34579,1351640.8882832,96
1660032277.34579,1351641.4226484,108
1660032277.34579,1351641.4226664,96
1660032277.34579,1351641.4226708,80
1660032277.34579,1351641.4226768,65
1660032277.34579,1351641.4226804,58
1660032277.34579,1351641.4226844,63
1660032277.34579,1351641.4226933,70
1660032277.34579,1351641.4226995,75
1660032277.34579,1351641.4227076,70
1660032277.34579,1351641.4227119,63
1660032277.34579,1351641.4227151,96
1660032277.34579,1351641.422718,235
1660032277.34579,1351641.4227213,438
1660032277.34579,1351641.4227244,530
1660032277.34579,1351641.4227273,379
1660032277.34579,1351641.4227304,108
1660032277.34579,1351641.4227337,-11
1660032277.34579,1351641.4227373,58
1660032277.34579,1351641.4227407,89
1660032277.34579,1351641.4227465,51
1660032277.85519,1351641.4227535,61
1660032277.85519,1351641.4227582,73
1660032277.85519,1351641.4227648,49
1660032277.85519,1351641.4227715,42
1660032277.85519,1351641.4227782,58
1660032277.85519,1351641.4227851,58
1660032277.85519,1351641.4227893,56
1660032277.85519,1351641.422794,61
1660032277.85519,1351641.4228018,56
1660032277.85519,1351641.4228083,51
1660032277.85519,1351641.4228185,77
1660032277.85519,1351641.4228264,98
1660032277.85519,1351641.4228394,96
1660032277.85519,1351641.4228525,106
1660032277.85519,1351641.4228656,117
1660032277.85519,1351641.4228787,117
1660032277.85519,1351641.4228919,120
1660032277.85519,1351641.4229052,131
1660032277.85519,1351641.4229186,143
1660032277.85519,1351641.4229317,143
1660032277.85519,1351641.42294,129
1660032277.85519,1351641.4229426,113
1660032277.85519,1351641.4229447,101
1660032277.85519,1351641.4229469,103
1660032277.85519,1351641.422949,98
1660032277.85519,1351641.4229522,94
1660032277.85519,1351641.4229649,113
1660032277.85519,1351641.4229764,110
1660032277.85519,1351641.4229916,84
1660032277.85519,1351641.4229993,89
1660032277.85519,1351641.4230018,98
1660032277.85519,1351641.423004,91
1660032277.85519,1351641.4230061,91
1660032277.85519,1351641.4230085,101
1660032277.85519,1351641.4230179,103
1660032277.85519,1351641.4230269,106
1660032277.85519,1351641.4230295,106
1660032277.85519,1351641.4230317,108
1660032277.85519,1351641.4230371,106
1660032277.85519,1351641.4230482,110
1660032277.85519,1351641.4230518,120
1660032277.85519,1351641.4230613,115
1660032277.85519,1351641.4230693,113
1660032277.85519,1351641.4230825,120
1660032277.85519,1351641.4230957,127
1660032277.85519,1351641.4231091,134
1660032277.85519,1351641.4231222,131
1660032277.85519,1351641.4231353,124
1660032277.85519,1351641.4231486,122
1660032277.85519,1351641.423161,115
1660032277.87314,1351641.4231714,96
1660032277.87314,1351641.4231786,84
1660032277.87314,1351641.4231891,87
1660032277.87314,1351641.9586268,82
1660032277.87314,1351641.9586439,77
1660032277.87314,1351641.9586572,96
1660032277.87314,1351641.9586706,110
1660032277.87314,1351641.9586841,103
1660032277.87314,1351641.9586927,89
1660032277.87314,1351641.9586954,84
1660032277.87314,1351641.9586976,82
1660032277.87314,1351641.9586997,87
1660032277.87314,1351641.9587018,106
1660032277.87314,1351641.9587039,127
1660032277.87314,1351641.958706,124
1660032277.87314,1351641.9587081,82
1660032277.87314,1351641.9587102,58
1660032277.87314,1351641.9587126,80
1660032277.87314,1351641.9587171,96
1660032277.87314,1351641.9587236,91
1660032277.87314,1351641.9587293,94
1660032277.87314,1351641.9587362,80
1660032277.87314,1351641.9587397,47
1660032277.87314,1351641.9587426,80
1660032278.40333,1351641.9587455,216
1660032278.40333,1351641.9587485,407
1660032278.40333,1351641.9587513,530
1660032278.40333,1351641.9587541,433
1660032278.40333,1351641.958757,167
1660032278.40333,1351641.9587598,9
1660032278.40333,1351641.9587627,61
1660032278.40333,1351641.9587657,108
1660032278.40333,1351641.9587684,68
1660032278.40333,1351641.9587713,65
1660032278.40333,1351641.958774,89
1660032278.40333,1351641.95878,80
1660032278.40333,1351641.9587908,77
1660032278.40333,1351641.9587963,106
1660032278.40333,1351641.9588007,122
1660032278.40333,1351641.9588057,120
1660032278.40333,1351641.9588155,124
1660032278.40333,1351641.9588214,124
1660032278.40333,1351641.9588244,113
1660032278.40333,1351641.9588273,115
1660032278.40333,1351641.9588357,134
1660032278.40333,1351641.9588473,148
1660032278.40333,1351641.9588527,157
1660032278.40333,1351641.9588557,167
1660032278.40333,1351641.9588579,167
1660032278.40333,1351641.95886,169
1660032278.40333,1351641.958862,183
1660032278.40333,1351641.9588641,179
1660032278.40333,1351641.9588662,169
1660032278.40333,1351641.9588682,160
1660032278.40333,1351641.9588703,148
1660032278.40333,1351641.9588724,146
1660032278.40333,1351641.9588745,148
1660032278.40333,1351641.9588766,134
1660032278.40333,1351641.9588787,120
1660032278.40333,1351641.9588808,131
1660032278.40333,1351641.9588831,139
1660032278.40333,1351641.9588852,127
1660032278.40333,1351641.9588873,124
1660032278.40333,1351641.9588894,129
1660032278.40333,1351641.9588916,113
1660032278.40333,1351641.9588937,96
1660032278.40333,1351641.958896,94
1660032278.40333,1351641.9589041,96
1660032278.40333,1351641.958919,87
1660032278.40333,1351641.958931,82
1660032278.40333,1351641.9589408,94
1660032278.40333,1351641.9589481,103
1660032278.40333,1351641.9589572,94
1660032278.40333,1351641.9589642,82
1660032278.42129,1351641.958973,77
1660032278.42129,1351641.9589791,84
1660032278.42129,1351642.4948504,94
1660032278.42129,1351642.4948634,82
1660032278.42129,1351642.4948683,73
1660032278.42129,1351642.4948732,77
1660032278.42129,1351642.4948756,70
1660032278.42129,1351642.494879,54
1660032278.42129,1351642.4948812,58
1660032278.42129,1351642.4948836,61
1660032278.42129,1351642.4948859,40
1660032278.42129,1351642.4948882,23
1660032278.42129,1351642.4948906,25
1660032278.42129,1351642.494893,32
1660032278.42129,1351642.4948959,35
1660032278.42129,1351642.494903,28
1660032278.42129,1351642.4949143,14
1660032278.42129,1351642.4949197,-2
1660032278.42129,1351642.4949218,-7
1660032278.42129,1351642.4949246,11
1660032278.42129,1351642.4949268,37
1660032278.42129,1351642.494929,40
1660032278.42129,1351642.4949361,28
1660032278.42129,1351642.4949472,18
1660032278.98219,1351642.4949507,7
1660032278.98219,1351642.4949536,7
1660032278.98219,1351642.4949564,23
1660032278.98219,1351642.4949592,28
1660032278.98219,1351642.494962,32
1660032278.98219,1351642.4949657,56
1660032278.98219,1351642.4949768,63
1660032278.98219,1351642.4949845,110
1660032278.98219,1351642.494987,287
1660032278.98219,1351642.494989,466
1660032278.98219,1351642.4949911,412
1660032278.98219,1351642.4949964,169
1660032278.98219,1351642.4950077,-7
1660032278.98219,1351642.4950128,4
1660032278.98219,1351642.4950157,54
1660032278.98219,1351642.4950178,40
1660032278.98219,1351642.4950238,23
1660032278.98219,1351642.495035,35
1660032278.98219,1351642.4950402,54
1660032278.98219,1351642.4950435,61
1660032278.98219,1351642.4950456,54
1660032278.98219,1351642.4950477,47
1660032278.98219,1351642.4950498,65
1660032278.98219,1351642.4950566,87
1660032278.98219,1351642.4950673,89
1660032278.98219,1351642.4950704,80
1660032278.98219,1351642.4950733,82
1660032278.98219,1351642.4950811,101
1660032278.98219,1351642.4950929,113
1660032278.98219,1351642.4951048,122
1660032278.98219,1351642.4951179,134
1660032278.98219,1351642.495125,136
1660032278.98219,1351642.4951273,127
1660032278.98219,1351642.4951295,110
1660032278.98219,1351642.4951316,101
1660032278.98219,1351642.4951346,110
1660032278.98219,1351642.4951431,115
1660032278.98219,1351642.4951513,101
1660032278.98219,1351642.4951557,91
1660032278.98219,1351642.4951614,82
1660032278.98219,1351642.495166,54
1660032278.98219,1351642.4951764,37
1660032278.98219,1351642.4951808,49
1660032278.98219,1351642.4951831,51
1660032278.98219,1351642.4951853,37
1660032278.98219,1351642.4951875,51
1660032278.98219,1351642.4951896,73
1660032278.98219,1351642.4951922,68
1660032278.98219,1351642.4952016,61
1660032278.98219,1351642.4952111,70
1660032279.00313,1351642.4952148,68
1660032279.00313,1351643.0799768,61
1660032279.00313,1351643.0799947,70
1660032279.00313,1351643.0800041,77
1660032279.00313,1351643.0800095,68
1660032279.00313,1351643.0800159,49
1660032279.00313,1351643.0800223,37
1660032279.00313,1351643.0800282,40
1660032279.00313,1351643.0800314,49
1660032279.00313,1351643.0800354,54
1660032279.00313,1351643.0800382,54
1660032279.00313,1351643.0800411,51
1660032279.00313,1351643.0800449,35
1660032279.00313,1351643.0800509,4
1660032279.00313,1351643.0800591,-23
1660032279.00313,1351643.080067,-23
1660032279.00313,1351643.0800737,-4
1660032279.00313,1351643.080093,-4
1660032279.00313,1351643.0801038,-7
1660032279.00313,1351643.0801113,2
1660032279.00313,1351643.0801153,11
1660032279.00313,1351643.0801207,11
1660032279.00313,1351643.0801245,-7
1660032279.00313,1351643.0801295,-21
1660032279.56316,1351643.0801348,-23
1660032279.56316,1351643.0801387,-23
1660032279.56316,1351643.0801425,2
1660032279.56316,1351643.0801468,25
1660032279.56316,1351643.080151,25
1660032279.56316,1351643.0801546,28
1660032279.56316,1351643.0801582,28
1660032279.56316,1351643.0801617,23
1660032279.56316,1351643.0801651,25
1660032279.56316,1351643.0801686,28
1660032279.56316,1351643.0801721,32
1660032279.56316,1351643.0801753,37
1660032279.56316,1351643.0801788,25
1660032279.56316,1351643.0801823,35
1660032279.56316,1351643.0801857,73
1660032279.56316,1351643.0801893,122
1660032279.56316,1351643.0801928,266
1660032279.56316,1351643.0801964,475
1660032279.56316,1351643.0802001,492
1660032279.56316,1351643.0802039,240
1660032279.56316,1351643.080208,-9
1660032279.56316,1351643.0802126,-16
1660032279.56316,1351643.0802184,77
1660032279.56316,1351643.0802233,65
1660032279.56316,1351643.0802269,28
1660032279.56316,1351643.0802323,37
1660032279.56316,1351643.0802377,32
1660032279.56316,1351643.0802417,18
1660032279.56316,1351643.080246,35
1660032279.56316,1351643.0802496,47
1660032279.56316,1351643.0802532,35
1660032279.56316,1351643.0802566,28
1660032279.56316,1351643.08026,42
1660032279.56316,1351643.0802636,61
1660032279.56316,1351643.0802672,63
1660032279.56316,1351643.0802706,73
1660032279.56316,1351643.080274,98
1660032279.56316,1351643.0802783,113
1660032279.56316,1351643.0802821,113
1660032279.56316,1351643.0802873,110
1660032279.56316,1351643.0802906,108
1660032279.56316,1351643.0802934,115
1660032279.56316,1351643.0802999,127
1660032279.56316,1351643.080306,127
1660032279.56316,1351643.0803095,115
1660032279.56316,1351643.0803229,110
1660032279.56316,1351643.0803344,110
1660032279.56316,1351643.0803473,98
1660032279.56316,1351643.0803617,84
1660032279.56316,1351643.0804028,77
1660032279.57612,1351643.6648592,77
1660032279.57612,1351643.6648783,77
1660032279.57612,1351643.6648922,77
1660032279.57612,1351643.6649043,80
1660032279.57612,1351643.6649108,75
1660032279.57612,1351643.6649176,65
1660032279.57612,1351643.6649247,80
1660032279.57612,1351643.6649324,96
1660032279.57612,1351643.6649429,68
1660032279.57612,1351643.6649536,32
1660032279.57612,1351643.6649596,37
1660032279.57612,1351643.6649657,47
1660032279.57612,1351643.6649697,44
1660032279.57612,1351643.6649822,54
1660032279.57612,1351643.6649911,49
1660032279.57612,1351643.6649957,16
1660032279.57612,1351643.6650025,-2
1660032279.57612,1351643.6650066,14
1660032279.57612,1351643.6650197,23
1660032279.57612,1351643.6650314,16
1660032279.57612,1351643.6650361,11
1660032279.57612,1351643.6650414,0
1660032279.57612,1351643.6650446,-11
1660032279.57612,1351643.6650477,0
1660032280.24262,1351643.6650509,16
1660032280.24262,1351643.6650539,9
1660032280.24262,1351643.6650572,0
1660032280.24262,1351643.6650605,-2
1660032280.24262,1351643.6650635,-2
1660032280.24262,1351643.6650665,7
1660032280.24262,1351643.6650706,4
1660032280.24262,1351643.665074,2
1660032280.24262,1351643.6650777,11
1660032280.24262,1351643.6650813,14
1660032280.24262,1351643.6650845,30
1660032280.24262,1351643.6650881,61
1660032280.24262,1351643.6650916,56
1660032280.24262,1351643.6651014,40
1660032280.24262,1351643.6651049,44
1660032280.24262,1351643.6651085,49
1660032280.24262,1351643.665112,37
1660032280.24262,1351643.6651154,28
1660032280.24262,1351643.665119,35
1660032280.24262,1351643.6651224,44
1660032280.24262,1351643.665126,30
1660032280.24262,1351643.6651295,23
1660032280.24262,1351643.665133,84
1660032280.24262,1351643.6651366,254
1660032280.24262,1351643.6651402,428
1660032280.24262,1351643.6651437,409
1660032280.24262,1351643.6651474,181
1660032280.24262,1351643.6651512,-11
1660032280.24262,1351643.6651546,7
1660032280.24262,1351643.6651581,73
1660032280.24262,1351643.6651635,51
1660032280.24262,1351643.6651669,44
1660032280.24262,1351643.6651704,65
1660032280.24262,1351643.6651741,58
1660032280.24262,1351643.6651777,56
1660032280.24262,1351643.6651811,73
1660032280.24262,1351643.665185,80
1660032280.24262,1351643.6651885,75
1660032280.24262,1351643.6651919,84
1660032280.24262,1351643.6651954,101
1660032280.24262,1351643.6651987,110
1660032280.24262,1351643.6652025,117
1660032280.24262,1351643.665206,122
1660032280.24262,1351643.6652094,124
1660032280.24262,1351643.6652128,146
1660032280.24262,1351643.6652162,167
1660032280.24262,1351643.6652198,164
1660032280.24262,1351643.6652232,157
1660032280.24262,1351643.6652266,162
1660032280.24262,1351644.3481951,169
1660032280.25758,1351644.348214,162
1660032280.25758,1351644.3482208,155
1660032280.25758,1351644.3482255,153
1660032280.25758,1351644.3482311,134
1660032280.25758,1351644.3482355,120
1660032280.25758,1351644.3482423,117
1660032280.25758,1351644.3482493,110
1660032280.25758,1351644.3482582,101
1660032280.25758,1351644.3482657,89
1660032280.25758,1351644.3482717,98
1660032280.25758,1351644.3482755,108
1660032280.25758,1351644.3482823,82
1660032280.25758,1351644.3482903,63
1660032280.25758,1351644.3482979,80
1660032280.25758,1351644.3483005,89
1660032280.25758,1351644.3483028,89
1660032280.25758,1351644.3483049,84
1660032280.25758,1351644.348307,63
1660032280.25758,1351644.3483091,47
1660032280.25758,1351644.3483111,58
1660032280.25758,1351644.3483131,63
1660032280.25758,1351644.3483152,58
1660032280.25758,1351644.3483173,77
1660032280.25758,1351644.3483193,77
1660032280.69226,1351644.3483214,61
1660032280.69226,1351644.3483248,70
1660032280.69226,1351644.3483267,84
1660032280.69226,1351644.3483286,82
1660032280.69226,1351644.3483305,87
1660032280.69226,1351644.3483326,87
1660032280.69226,1351644.3483345,73
1660032280.69226,1351644.3483364,63
1660032280.69226,1351644.3483384,61
1660032280.69226,1351644.3483403,49
1660032280.69226,1351644.3483428,40
1660032280.69226,1351644.3483498,44
1660032280.69226,1351644.3483565,42
1660032280.69226,1351644.348361,35
1660032280.69226,1351644.3483647,40
1660032280.69226,1351644.3483707,51
1660032280.69226,1351644.3483749,56
1660032280.69226,1351644.3483815,65
1660032280.69226,1351644.348387,77
1660032280.69226,1351644.3484,80
1660032280.69226,1351644.3484095,80
1660032280.69226,1351644.3484171,68
1660032280.69226,1351644.3484285,68
1660032280.69226,1351644.3484396,80
1660032280.69226,1351644.3484472,89
1660032280.69226,1351644.3484546,91
1660032280.69226,1351644.3484613,91
1660032280.69226,1351644.3484649,96
1660032280.69226,1351644.3484684,101
1660032280.69226,1351644.3484739,124
1660032280.69226,1351644.3484797,233
1660032280.69226,1351644.3484836,424
1660032280.69226,1351644.3484899,504
1660032280.69226,1351644.3484934,351
1660032280.69226,1351644.3484997,127
1660032280.69226,1351644.3485063,47
1660032280.69226,1351644.3485115,87
1660032280.69226,1351644.3485162,103
1660032280.69226,1351644.3485194,89
1660032280.69226,1351644.3485248,101
1660032280.69226,1351644.348528,115
1660032280.69226,1351644.348531,113
1660032280.69226,1351644.3485342,110
1660032280.69226,1351644.3485373,96
1660032280.69226,1351644.3485406,89
1660032280.69226,1351644.3485437,103
1660032280.69226,1351644.348547,113
1660032280.69226,1351644.3485504,127
1660032280.69226,1351644.7858645,141
1660032280.69226,1351644.7858764,141
1660032280.70722,1351644.7858792,141
1660032280.70722,1351644.7858814,148
1660032280.70722,1351644.7858835,155
1660032280.70722,1351644.7858856,167
1660032280.70722,1351644.7858877,176
1660032280.70722,1351644.7858898,167
1660032280.70722,1351644.7858919,155
1660032280.70722,1351644.7858944,164
1660032280.70722,1351644.7858975,171
1660032280.70722,1351644.7859058,157
1660032280.70722,1351644.7859139,139
1660032280.70722,1351644.7859199,127
1660032280.70722,1351644.7859304,110
1660032280.70722,1351644.7859355,101
1660032280.70722,1351644.7859376,82
1660032280.70722,1351644.7859398,63
1660032280.70722,1351644.7859467,63
1660032280.70722,1351644.7859577,65
1660032280.70722,1351644.785963,61
1660032280.70722,1351644.7859653,51
1660032280.70722,1351644.7859674,30
1660032280.70722,1351644.7859696,30
1660032280.70722,1351644.7859773,54
1660032280.70722,1351644.7859879,63
1660032281.26767,1351644.7859915,40
1660032281.26767,1351644.7859945,-2
1660032281.26767,1351644.7859982,-18
1660032281.26767,1351644.7860088,0
1660032281.26767,1351644.7860142,11
1660032281.26767,1351644.7860172,7
1660032281.26767,1351644.7860205,7
1660032281.26767,1351644.7860288,18
1660032281.26767,1351644.7860399,16
1660032281.26767,1351644.78605,0
1660032281.26767,1351644.7860599,0
1660032281.26767,1351644.7860659,11
1660032281.26767,1351644.7860799,21
1660032281.26767,1351644.7860903,14
1660032281.26767,1351644.7860978,-14
1660032281.26767,1351644.786109,-23
1660032281.26767,1351644.7861196,-9
1660032281.26767,1351644.7861267,-9
1660032281.26767,1351644.7861379,-14
1660032281.26767,1351644.7861481,-2
1660032281.26767,1351644.7861579,-4
1660032281.26767,1351644.7861641,-4
1660032281.26767,1351644.7861697,23
1660032281.26767,1351644.7861742,44
1660032281.26767,1351644.7861804,30
1660032281.26767,1351644.7861877,16
1660032281.26767,1351644.7861956,11
1660032281.26767,1351644.7862008,16
1660032281.26767,1351644.7862083,37
1660032281.26767,1351644.7862125,47
1660032281.26767,1351644.7862254,35
1660032281.26767,1351644.7862455,37
1660032281.26767,1351644.7862552,40
1660032281.26767,1351644.786262,32
1660032281.26767,1351644.7862702,87
1660032281.26767,1351644.7862844,249
1660032281.26767,1351644.7862967,424
1660032281.26767,1351644.786306,419
1660032281.26767,1351644.7863168,207
1660032281.26767,1351644.7863266,11
1660032281.26767,1351644.78633,-9
1660032281.26767,1351644.7863416,35
1660032281.26767,1351644.7863532,47
1660032281.26767,1351644.7863568,56
1660032281.26767,1351644.7863607,63
1660032281.26767,1351644.7863744,54
1660032281.26767,1351644.7863825,40
1660032281.26767,1351645.3713445,58
1660032281.26767,1351645.3713639,75
1660032281.26767,1351645.3713682,68
1660032281.28163,1351645.3713721,75
1660032281.28163,1351645.3713754,91
1660032281.28163,1351645.3713784,89
1660032281.28163,1351645.3713813,91
1660032281.28163,1351645.3713844,103
1660032281.28163,1351645.3713873,108
1660032281.28163,1351645.3713902,124
1660032281.28163,1351645.3713934,134
1660032281.28163,1351645.3713964,120
1660032281.28163,1351645.3714002,101
1660032281.28163,1351645.3714035,96
1660032281.28163,1351645.371407,96
1660032281.28163,1351645.3714102,101
1660032281.28163,1351645.3714134,106
1660032281.28163,1351645.3714168,89
1660032281.28163,1351645.3714201,40
1660032281.28163,1351645.3714234,-4
1660032281.28163,1351645.3714267,-11
1660032281.28163,1351645.3714322,-9
1660032281.28163,1351645.3714375,-18
1660032281.28163,1351645.3714407,-21
1660032281.28163,1351645.3714443,-11
1660032281.28163,1351645.3714476,-9
1660032281.28163,1351645.3714508,-2
1660032281.80738,1351645.3714541,16
1660032281.80738,1351645.3714574,16

1660032281.80738,1351645.3714606,11
1660032281.80738,1351645.3714642,25
1660032281.80738,1351645.3714674,35
1660032281.80738,1351645.3714707,32
1660032281.80738,1351645.371474,25
1660032281.80738,1351645.3714774,23
1660032281.80738,1351645.3714809,32
1660032281.80738,1351645.3714842,47
1660032281.80738,1351645.3714875,49
1660032281.80738,1351645.3714909,51
1660032281.80738,1351645.3714944,61
1660032281.80738,1351645.3715036,61
1660032281.80738,1351645.3715091,56
1660032281.80738,1351645.3715179,58
1660032281.80738,1351645.3715277,61
1660032281.80738,1351645.3715374,54
1660032281.80738,1351645.371544,51
1660032281.80738,1351645.3715493,61
1660032281.80738,1351645.3715534,58
1660032281.80738,1351645.3715582,44
1660032281.80738,1351645.3715664,32
1660032281.80738,1351645.3715753,18
1660032281.80738,1351645.37158,21
1660032281.80738,1351645.3715841,42
1660032281.80738,1351645.3715883,51
1660032281.80738,1351645.3715924,56
1660032281.80738,1351645.3715969,68
1660032281.80738,1351645.3716013,65
1660032281.80738,1351645.3716058,54
1660032281.80738,1351645.3716123,47
1660032281.80738,1351645.3716167,51
1660032281.80738,1351645.3716212,54
1660032281.80738,1351645.3716255,49
1660032281.80738,1351645.3716298,56
1660032281.80738,1351645.3716341,70
1660032281.80738,1351645.3716386,63
1660032281.80738,1351645.371644,58
1660032281.80738,1351645.3716499,160
1660032281.80738,1351645.3716542,362
1660032281.80738,1351645.3716586,513
1660032281.80738,1351645.371663,440
1660032281.80738,1351645.3716672,171
1660032281.80738,1351645.3716717,-9
1660032281.80738,1351645.371676,35
1660032281.80738,1351645.9070263,87
1660032281.80738,1351645.9070421,49
1660032281.80738,1351645.9070506,42
1660032281.80738,1351645.9070554,70
1660032281.83331,1351645.9070613,68
1660032281.83331,1351645.9070657,49
1660032281.83331,1351645.9070718,54
1660032281.83331,1351645.9070769,77
1660032281.83331,1351645.9070828,84
1660032281.83331,1351645.907087,73
1660032281.83331,1351645.9070927,80
1660032281.83331,1351645.9070966,89
1660032281.83331,1351645.9071026,80
1660032281.83331,1351645.9071079,75
1660032281.83331,1351645.907114,82
1660032281.83331,1351645.907118,56
1660032281.83331,1351645.9071236,30
1660032281.83331,1351645.9071285,63
1660032281.83331,1351645.9071345,94
1660032281.83331,1351645.9071384,75
1660032281.83331,1351645.9071438,65
1660032281.83331,1351645.9071478,61
1660032281.83331,1351645.9071518,44
1660032281.83331,1351645.9071576,37
1660032281.83331,1351645.907163,30
1660032281.83331,1351645.9071685,21
1660032281.83331,1351645.9071724,28
1660032281.83331,1351645.907178,21
1660032282.35061,1351645.9071829,0
1660032282.35061,1351645.9071878,7
1660032282.35061,1351645.9071932,35
1660032282.35061,1351645.9071983,40
1660032282.35061,1351645.9072026,30
1660032282.35061,1351645.9072096,40
1660032282.35061,1351645.9072165,44
1660032282.35061,1351645.9072217,32
1660032282.35061,1351645.9072258,37
1660032282.35061,1351645.9072353,56
1660032282.35061,1351645.9072431,75
1660032282.35061,1351645.9072497,77
1660032282.35061,1351645.9072646,58
1660032282.35061,1351645.9072737,40
1660032282.35061,1351645.9072801,42
1660032282.35061,1351645.9072841,63
1660032282.35061,1351645.9073245,70
1660032282.35061,1351645.9073337,54
1660032282.35061,1351645.9073395,54
1660032282.35061,1351645.9073453,73
1660032282.35061,1351645.9073518,68
1660032282.35061,1351645.9073576,63
1660032282.35061,1351645.9073609,80
1660032282.35061,1351645.9073643,82
1660032282.35061,1351645.9073674,58
1660032282.35061,1351645.9073708,42
1660032282.35061,1351645.9073742,49
1660032282.35061,1351645.9073776,44
1660032282.35061,1351645.9073817,28
1660032282.35061,1351645.9073915,40
1660032282.35061,1351645.9073971,49
1660032282.35061,1351645.907402,42
1660032282.35061,1351645.9074072,56
1660032282.35061,1351645.9074114,77
1660032282.35061,1351645.9074172,70
1660032282.35061,1351645.907421,56
1660032282.35061,1351645.9074244,51
1660032282.35061,1351645.9074281,49
1660032282.35061,1351645.9074325,49
1660032282.35061,1351645.9074367,61
1660032282.35061,1351645.9074408,63
1660032282.35061,1351645.9074437,61
1660032282.35061,1351645.9074467,61
1660032282.35061,1351645.9074497,68
1660032282.35061,1351645.9074527,117
1660032282.35061,1351646.4437584,266
1660032282.35061,1351646.4437729,447
1660032282.35061,1351646.4437778,475
1660032282.35061,1351646.4437803,270
1660032282.35061,1351646.4437825,23
1660032282.36457,1351646.4437847,-28
1660032282.36457,1351646.4437868,47
1660032282.36457,1351646.4437888,61
1660032282.36457,1351646.4437909,28
1660032282.36457,1351646.4437936,25
1660032282.36457,1351646.443796,44
1660032282.36457,1351646.4437981,44
1660032282.36457,1351646.4438001,7
1660032282.36457,1351646.4438023,-11
1660032282.36457,1351646.4438043,28
1660032282.36457,1351646.4438066,56
1660032282.36457,1351646.4438129,42
1660032282.36457,1351646.443825,40
1660032282.36457,1351646.4438288,40
1660032282.36457,1351646.443831,21
1660032282.36457,1351646.4438332,28
1660032282.36457,1351646.4438353,47
1660032282.36457,1351646.4438375,61
1660032282.36457,1351646.4438396,80
1660032282.36457,1351646.4438417,77
1660032282.36457,1351646.4438444,68
1660032282.36457,1351646.4438548,87
1660032282.36457,1351646.4438634,96
1660032282.36457,1351646.4438661,82
1660032282.92912,1351646.4438682,82
1660032282.92912,1351646.4438704,82
1660032282.92912,1351646.4438723,63
1660032282.92912,1351646.4438743,44
1660032282.92912,1351646.4438795,40
1660032282.92912,1351646.4438895,35
1660032282.92912,1351646.4438937,40
1660032282.92912,1351646.4438958,54
1660032282.92912,1351646.4438979,58
1660032282.92912,1351646.4439,49
1660032282.92912,1351646.443902,42
1660032282.92912,1351646.443904,56
1660032282.92912,1351646.4439061,70
1660032282.92912,1351646.4439089,65
1660032282.92912,1351646.4439149,61
1660032282.92912,1351646.4439263,65
1660032282.92912,1351646.4439319,68
1660032282.92912,1351646.4439352,77
1660032282.92912,1351646.4439374,96
1660032282.92912,1351646.4439396,96
1660032282.92912,1351646.4439418,75
1660032282.92912,1351646.4439439,73
1660032282.92912,1351646.443946,77
1660032282.92912,1351646.4439481,73
1660032282.92912,1351646.4439501,70
1660032282.92912,1351646.4439524,75
1660032282.92912,1351646.4439545,77
1660032282.92912,1351646.4439567,80
1660032282.92912,1351646.4439588,84
1660032282.92912,1351646.4439609,87
1660032282.92912,1351646.4439629,80
1660032282.92912,1351646.4439651,77
1660032282.92912,1351646.4439671,82
1660032282.92912,1351646.4439691,75
1660032282.92912,1351646.4439712,49
1660032282.92912,1351646.4439733,25
1660032282.92912,1351646.4439756,28
1660032282.92912,1351646.4439777,47
1660032282.92912,1351646.4439798,49
1660032282.92912,1351646.4439819,40
1660032282.92912,1351646.443984,37
1660032282.92912,1351646.4439862,37
1660032282.92912,1351646.4439883,40
1660032282.92912,1351646.4439904,35
1660032282.92912,1351647.0287057,21
1660032282.92912,1351647.0287232,21
1660032282.92912,1351647.0287329,32
1660032282.92912,1351647.0287392,37
1660032282.92912,1351647.0287457,35
1660032282.92912,1351647.0287519,35
1660032282.9408,1351647.0287598,44
1660032282.9408,1351647.0287677,63
1660032282.9408,1351647.0287758,134
1660032282.9408,1351647.0287782,292
1660032282.9408,1351647.0287806,433
1660032282.9408,1351647.0287829,372
1660032282.9408,1351647.028785,124
1660032282.9408,1351647.0287872,-37
1660032282.9408,1351647.0287893,-9
1660032282.9408,1351647.0287914,16
1660032282.9408,1351647.0287935,-25
1660032282.9408,1351647.0287957,-23
1660032282.9408,1351647.0287977,11
1660032282.9408,1351647.0288007,14
1660032282.9408,1351647.0288111,0
1660032282.9408,1351647.0288193,9
1660032282.9408,1351647.0288219,28
1660032282.9408,1351647.0288241,21
1660032282.9408,1351647.0288262,21
1660032282.9408,1351647.0288284,47
1660032282.9408,1351647.0288305,58
1660032282.9408,1351647.0288327,44
1660032282.9408,1351647.0288348,42
1660032282.9408,1351647.028838,73
1660032283.46956,1351647.0288505,98
1660032283.46956,1351647.0288545,101
1660032283.46956,1351647.0288566,106
1660032283.46956,1351647.0288592,115
1660032283.46956,1351647.0288659,113
1660032283.46956,1351647.0288723,117
1660032283.46956,1351647.0288765,124
1660032283.46956,1351647.0288812,115
1660032283.46956,1351647.0288886,108
1660032283.46956,1351647.0288939,110
1660032283.46956,1351647.028901,91
1660032283.46956,1351647.0289043,63
1660032283.46956,1351647.0289139,61
1660032283.46956,1351647.0289187,77
1660032283.46956,1351647.0289288,80
1660032283.46956,1351647.0289368,80
1660032283.46956,1351647.0289397,82
1660032283.46956,1351647.0289418,75
1660032283.46956,1351647.0289448,75
1660032283.46956,1351647.0289554,89
1660032283.46956,1351647.0289627,96
1660032283.46956,1351647.028965,91
1660032283.46956,1351647.0289672,96
1660032283.46956,1351647.0289693,101
1660032283.46956,1351647.0289771,94
1660032283.46956,1351647.0289875,82
1660032283.46956,1351647.0289908,77
1660032283.46956,1351647.0289965,80
1660032283.46956,1351647.0290089,87
1660032283.46956,1351647.0290172,96
1660032283.46956,1351647.0290222,89
1660032283.46956,1351647.0290293,80
1660032283.46956,1351647.0290363,89
1660032283.46956,1351647.0290452,80
1660032283.46956,1351647.0290502,51
1660032283.46956,1351647.0290549,40
1660032283.46956,1351647.0290584,54
1660032283.46956,1351647.0290624,61
1660032283.46956,1351647.029066,63
1660032283.46956,1351647.0290701,70
1660032283.46956,1351647.0290743,70
1660032283.46956,1351647.0290779,58
1660032283.46956,1351647.0290816,47
1660032283.46956,1351647.5645661,40
1660032283.46956,1351647.5645908,30
1660032283.46956,1351647.5646035,28
1660032283.46956,1351647.5646104,35
1660032283.46956,1351647.5646173,49
1660032283.46956,1351647.5646264,61
1660032283.46956,1351647.5646352,65
1660032283.48452,1351647.5646423,63
1660032283.48452,1351647.5646515,44
1660032283.48452,1351647.5646576,35
1660032283.48452,1351647.5646658,49
1660032283.48452,1351647.5646725,40
1660032283.48452,1351647.5646812,14
1660032283.48452,1351647.5646878,14
1660032283.48452,1351647.5646963,14
1660032283.48452,1351647.5647054,-9
1660032283.48452,1351647.5647139,9
1660032283.48452,1351647.5647212,131
1660032283.48452,1351647.5647301,299
1660032283.48452,1351647.5647374,384
1660032283.48452,1351647.5647457,285
1660032283.48452,1351647.5647515,56
1660032283.48452,1351647.5647591,-70
1660032283.48452,1351647.5647645,-16
1660032283.48452,1351647.5647724,21
1660032283.48452,1351647.5647795,-14
1660032283.48452,1351647.5647865,-11
1660032283.48452,1351647.5647906,7
1660032283.48452,1351647.5647947,11
1660032283.48452,1351647.5647991,16
1660032283.48452,1351647.5648079,16
1660032284.05419,1351647.564816,16
1660032284.05419,1351647.5648233,32
1660032284.05419,1351647.5648326,54
1660032284.05419,1351647.5648397,58
1660032284.05419,1351647.5648434,56
1660032284.05419,1351647.5648466,75
1660032284.05419,1351647.5648496,94
1660032284.05419,1351647.5648593,84
1660032284.05419,1351647.5648621,84
1660032284.05419,1351647.5648664,101
1660032284.05419,1351647.5648691,108
1660032284.05419,1351647.5648718,115
1660032284.05419,1351647.5648746,127
1660032284.05419,1351647.5648774,134
1660032284.05419,1351647.5648801,124
1660032284.05419,1351647.5648828,91
1660032284.05419,1351647.5648856,73
1660032284.05419,1351647.5648882,77
1660032284.05419,1351647.564891,70
1660032284.05419,1351647.5648938,56
1660032284.05419,1351647.5648965,51
1660032284.05419,1351647.5648991,51
1660032284.05419,1351647.5649019,58
1660032284.05419,1351647.5649045,70
1660032284.05419,1351647.5649073,68
1660032284.05419,1351647.56491,42
1660032284.05419,1351647.5649128,28
1660032284.05419,1351647.5649216,40
1660032284.05419,1351647.5649327,44
1660032284.05419,1351647.5649466,54
1660032284.05419,1351647.5649599,73
1660032284.05419,1351647.5649733,73
1660032284.05419,1351647.5649869,56
1660032284.05419,1351647.5650004,63
1660032284.05419,1351647.5650137,84
1660032284.05419,1351647.5650274,84
1660032284.05419,1351647.5650409,70
1660032284.05419,1351647.5650544,65
1660032284.05419,1351647.5650678,65
1660032284.05419,1351647.5650813,68
1660032284.05419,1351647.5650949,70
1660032284.05419,1351647.5651083,80
1660032284.05419,1351648.1496652,87
1660032284.05419,1351648.1496778,75
1660032284.05419,1351648.149682,58
1660032284.05419,1351648.1496849,70
1660032284.05419,1351648.1496874,84
1660032284.05419,1351648.1496898,65
1660032284.05419,1351648.1496921,44
1660032284.05419,1351648.1496957,49
1660032284.06815,1351648.1497024,37
1660032284.06815,1351648.1497085,2
1660032284.06815,1351648.149713,-9
1660032284.06815,1351648.1497194,2
1660032284.06815,1351648.1497253,2
1660032284.06815,1351648.1497292,-9
1660032284.06815,1351648.1497316,-18
1660032284.06815,1351648.1497344,-11
1660032284.06815,1351648.1497366,-11
1660032284.06815,1351648.1497387,-21
1660032284.06815,1351648.149744,-23
1660032284.06815,1351648.1497557,-25
1660032284.06815,1351648.1497596,-25
1660032284.06815,1351648.1497618,-32
1660032284.06815,1351648.1497639,-35
1660032284.06815,1351648.1497659,-16
1660032284.06815,1351648.1497686,-2
1660032284.06815,1351648.1497786,-2
1660032284.06815,1351648.1497878,0
1660032284.06815,1351648.1497903,56
1660032284.06815,1351648.1497925,226
1660032284.06815,1351648.149795,421
1660032284.06815,1351648.149797,433
1660032284.06815,1351648.1498032,202
1660032284.59772,1351648.1498146,-32
1660032284.59772,1351648.1498182,-40
1660032284.59772,1351648.1498204,32
1660032284.59772,1351648.1498225,9
1660032284.59772,1351648.1498245,-18
1660032284.59772,1351648.1498265,16
1660032284.59772,1351648.1498286,32
1660032284.59772,1351648.1498306,18
1660032284.59772,1351648.1498327,16
1660032284.59772,1351648.14984,23
1660032284.59772,1351648.1498499,28
1660032284.59772,1351648.1498557,35
1660032284.59772,1351648.1498598,51
1660032284.59772,1351648.1498619,63
1660032284.59772,1351648.1498655,68
1660032284.59772,1351648.1498781,73
1660032284.59772,1351648.149884,65
1660032284.59772,1351648.1498871,51
1660032284.59772,1351648.1498892,61
1660032284.59772,1351648.1498913,87
1660032284.59772,1351648.149894,91
1660032284.59772,1351648.1499038,87
1660032284.59772,1351648.1499128,91
1660032284.59772,1351648.1499154,94
1660032284.59772,1351648.1499175,82
1660032284.59772,1351648.1499197,75
1660032284.59772,1351648.1499224,82
1660032284.59772,1351648.1499323,73
1660032284.59772,1351648.1499414,61
1660032284.59772,1351648.1499439,63
1660032284.59772,1351648.1499461,61
1660032284.59772,1351648.1499484,51
1660032284.59772,1351648.1499559,61
1660032284.59772,1351648.1499665,70
1660032284.59772,1351648.1499701,51
1660032284.59772,1351648.1499739,51
1660032284.59772,1351648.1499761,80
1660032284.59772,1351648.1499835,73
1660032284.59772,1351648.149994,44
1660032284.59772,1351648.1499985,56
1660032284.59772,1351648.1500097,75
1660032284.59772,1351648.6863944,63
1660032284.59772,1351648.6864126,61
1660032284.59772,1351648.6864175,80
1660032284.59772,1351648.6864197,87
1660032284.59772,1351648.6864228,70
1660032284.59772,1351648.686425,61
1660032284.59772,1351648.6864271,63
1660032284.59772,1351648.6864292,61
1660032284.59772,1351648.6864313,54
1660032284.61767,1351648.6864349,65
1660032284.61767,1351648.6864458,87
1660032284.61767,1351648.6864546,75
1660032284.61767,1351648.6864616,30
1660032284.61767,1351648.6864673,14
1660032284.61767,1351648.6864749,35
1660032284.61767,1351648.6864813,47
1660032284.61767,1351648.6864883,28
1660032284.61767,1351648.6864944,2
1660032284.61767,1351648.6865006,-9
1660032284.61767,1351648.6865046,-14
1660032284.61767,1351648.6865088,-14
1660032284.61767,1351648.6865132,-11
1660032284.61767,1351648.6865195,-9
1660032284.61767,1351648.6865239,-7
1660032284.61767,1351648.6865297,-16
1660032284.61767,1351648.6865339,-16
1660032284.61767,1351648.6865406,0
1660032284.61767,1351648.6865451,2
1660032284.61767,1351648.6865495,-7
1660032284.61767,1351648.6865558,11
1660032284.61767,1351648.686562,25
1660032284.61767,1351648.6865685,4
1660032284.61767,1351648.6865747,-9
1660032285.12858,1351648.6865826,9
1660032285.12858,1351648.6865882,23
1660032285.12858,1351648.6865924,21
1660032285.12858,1351648.6865982,23
1660032285.12858,1351648.686604,28
1660032285.12858,1351648.6866083,28
1660032285.12858,1351648.6866124,30
1660032285.12858,1351648.6866173,30
1660032285.12858,1351648.6866227,110
1660032285.12858,1351648.6866287,318
1660032285.12858,1351648.6866326,459
1660032285.12858,1351648.6866368,332
1660032285.12858,1351648.6866429,68
1660032285.12858,1351648.686647,-54
1660032285.12858,1351648.6866511,9
1660032285.12858,1351648.6866551,49
1660032285.12858,1351648.6866593,4
1660032285.12858,1351648.6866637,2
1660032285.12858,1351648.6866702,49
1660032285.12858,1351648.6866742,49
1660032285.12858,1351648.6866782,28
1660032285.12858,1351648.6866827,49
1660032285.12858,1351648.6866869,70
1660032285.12858,1351648.6866911,58
1660032285.12858,1351648.6866954,58
1660032285.12858,1351648.6866996,84
1660032285.12858,1351648.6867037,89
1660032285.12858,1351648.6867081,70
1660032285.12858,1351648.6867121,77
1660032285.12858,1351648.6867173,110
1660032285.12858,1351648.6867216,110
1660032285.12858,1351648.6867276,94
1660032285.12858,1351648.686732,117
1660032285.12858,1351648.6867361,146
1660032285.12858,1351648.6867404,134
1660032285.12858,1351648.6867444,117
1660032285.12858,1351648.6867487,122
1660032285.12858,1351648.6867554,129
1660032285.12858,1351648.6867599,108
1660032285.12858,1351648.6867642,87
1660032285.12858,1351649.2222594,98
1660032285.12858,1351649.2222801,108
1660032285.12858,1351649.2222952,87
1660032285.12858,1351649.2223099,77
1660032285.12858,1351649.2223234,75
1660032285.12858,1351649.2223372,58
1660032285.12858,1351649.2223504,70
1660032285.12858,1351649.2223637,91
1660032285.12858,1351649.222377,70
1660032285.12858,1351649.2223904,25
1660032285.14254,1351649.2224036,23
1660032285.14254,1351649.222417,49
1660032285.14254,1351649.2224318,44
1660032285.14254,1351649.2224452,32
1660032285.14254,1351649.2224582,40
1660032285.14254,1351649.2224755,21
1660032285.14254,1351649.2225342,-2
1660032285.14254,1351649.22255,14
1660032285.14254,1351649.2225585,32
1660032285.14254,1351649.2225673,25
1660032285.14254,1351649.2225745,14
1660032285.14254,1351649.2225777,18
1660032285.14254,1351649.2225807,21
1660032285.14254,1351649.2225835,7
1660032285.14254,1351649.2225864,11
1660032285.14254,1351649.2225893,28
1660032285.14254,1351649.2225921,14
1660032285.14254,1351649.2225956,-4
1660032285.14254,1351649.2226014,4
1660032285.14254,1351649.2226062,21
1660032285.14254,1351649.2226092,23
1660032285.14254,1351649.2226121,18
1660032285.14254,1351649.2226151,7
1660032285.14254,1351649.2226181,-2
1660032285.7563,1351649.2226214,-9
1660032285.7563,1351649.2226279,-11
1660032285.7563,1351649.222636,-2
1660032285.7563,1351649.2226427,14
1660032285.7563,1351649.2226485,32
1660032285.7563,1351649.2226525,35
1660032285.7563,1351649.2226558,23
1660032285.7563,1351649.2226588,18
1660032285.7563,1351649.2226621,23
1660032285.7563,1351649.2226652,25
1660032285.7563,1351649.2226686,54
1660032285.7563,1351649.222672,91
1660032285.7563,1351649.2226752,91
1660032285.7563,1351649.2226784,75
1660032285.7563,1351649.2226818,68
1660032285.7563,1351649.2226851,68
1660032285.7563,1351649.2226881,75
1660032285.7563,1351649.2226912,70
1660032285.7563,1351649.2226944,61
1660032285.7563,1351649.222698,75
1660032285.7563,1351649.2227017,94
1660032285.7563,1351649.2227051,91
1660032285.7563,1351649.2227085,91
1660032285.7563,1351649.222712,157
1660032285.7563,1351649.2227153,336
1660032285.7563,1351649.2227189,506
1660032285.7563,1351649.2227234,464
1660032285.7563,1351649.2227268,219
1660032285.7563,1351649.2227315,32
1660032285.7563,1351649.2227371,58
1660032285.7563,1351649.2227406,115
1660032285.7563,1351649.2227457,82
1660032285.7563,1351649.2227492,75
1660032285.7563,1351649.2227547,117
1660032285.7563,1351649.2227581,117
1660032285.7563,1351649.2227629,91
1660032285.7563,1351649.2227662,101
1660032285.7563,1351649.2227709,113
1660032285.7563,1351649.2227743,101
1660032285.7563,1351649.85752,106
1660032285.7563,1351649.8575406,127
1660032285.7563,1351649.8575508,134
1660032285.7563,1351649.8575581,134
1660032285.7563,1351649.857563,146
1660032285.7563,1351649.8575696,143
1660032285.7563,1351649.8575812,122
1660032285.7563,1351649.8575907,122
1660032285.7563,1351649.8575984,139
1660032285.7563,1351649.8576061,141
1660032285.7563,1351649.8576119,148
1660032285.77226,1351649.8576193,155
1660032285.77226,1351649.8576236,124
1660032285.77226,1351649.857635,91
1660032285.77226,1351649.8576404,96
1660032285.77226,1351649.8576463,96
1660032285.77226,1351649.8576521,84
1660032285.77226,1351649.8576561,75
1660032285.77226,1351649.8576619,68
1660032285.77226,1351649.8576667,51
1660032285.77226,1351649.8576733,40
1660032285.77226,1351649.8576782,56
1660032285.77226,1351649.8576831,70
1660032285.77226,1351649.8576871,51
1660032285.77226,1351649.8576912,54
1660032285.77226,1351649.8576973,87
1660032285.77226,1351649.8577025,73
1660032285.77226,1351649.857708,35
1660032285.77226,1351649.8577127,47
1660032285.77226,1351649.8577239,75
1660032285.77226,1351649.8577353,77
1660032285.77226,1351649.8577464,70
1660032285.77226,1351649.8577568,80
1660032285.77226,1351649.8577699,75
1660032285.77226,1351649.8577834,54
1660032286.38681,1351649.8577962,61
1660032286.38681,1351649.8578039,84
1660032286.38681,1351649.8578114,75
1660032286.38681,1351649.8578182,54
1660032286.38681,1351649.8578238,63
1660032286.38681,1351649.857829,82
1660032286.38681,1351649.8578354,80
1660032286.38681,1351649.8578446,63
1660032286.38681,1351649.8578527,58
1660032286.38681,1351649.857866,77
1660032286.38681,1351649.8578752,89
1660032286.38681,1351649.8578861,80
1660032286.38681,1351649.8578971,84
1660032286.38681,1351649.8579048,98
1660032286.38681,1351649.8579104,98
1660032286.38681,1351649.8579233,87
1660032286.38681,1351649.8579337,84
1660032286.38681,1351649.8579402,101
1660032286.38681,1351649.8579485,117
1660032286.38681,1351649.8579549,120
1660032286.38681,1351649.8579641,115
1660032286.38681,1351649.8579719,110
1660032286.38681,1351649.8579786,110
1660032286.38681,1351649.8579876,120
1660032286.38681,1351649.8579967,124
1660032286.38681,1351649.8580034,115
1660032286.38681,1351649.8580094,129
1660032286.38681,1351649.8580152,148
1660032286.38681,1351649.8580243,153
1660032286.38681,1351649.8580325,157
1660032286.38681,1351649.8580393,155
1660032286.38681,1351649.8580461,141
1660032286.38681,1351649.858051,136
1660032286.38681,1351649.8580581,136
1660032286.38681,1351649.8580653,136
1660032286.38681,1351649.8580733,150
1660032286.38681,1351649.8580809,167
1660032286.38681,1351649.8580874,153
1660032286.38681,1351650.4898048,136
1660032286.38681,1351650.4898266,134
1660032286.38681,1351650.4898405,160
1660032286.38681,1351650.4898536,296
1660032286.38681,1351650.4898667,504
1660032286.38681,1351650.489874,551
1660032286.38681,1351650.4898765,372
1660032286.38681,1351650.4898787,148
1660032286.38681,1351650.4898808,54
1660032286.38681,1351650.4898829,82
1660032286.38681,1351650.489885,110
1660032286.38681,1351650.4898871,106
1660032286.39978,1351650.4898892,106
1660032286.39978,1351650.4898912,108
1660032286.39978,1351650.4898932,101
1660032286.39978,1351650.4898953,87
1660032286.39978,1351650.4898973,98
1660032286.39978,1351650.4898994,134
1660032286.39978,1351650.4899016,120
1660032286.39978,1351650.4899037,80
1660032286.39978,1351650.4899058,84
1660032286.39978,1351650.4899078,87
1660032286.39978,1351650.4899099,70
1660032286.39978,1351650.4899119,77
1660032286.39978,1351650.489914,98
1660032286.39978,1351650.4899161,103
1660032286.39978,1351650.4899182,98
1660032286.39978,1351650.4899203,89
1660032286.39978,1351650.4899225,82
1660032286.39978,1351650.4899245,89
1660032286.39978,1351650.4899266,103
1660032286.39978,1351650.4899286,89
1660032286.39978,1351650.4899307,77
1660032286.39978,1351650.4899329,75
1660032286.39978,1351650.489935,51
1660032286.39978,1351650.489937,35
1660032286.83347,1351650.4899391,42
1660032286.83347,1351650.4899411,37
1660032286.83347,1351650.4899431,21
1660032286.83347,1351650.4899452,14
1660032286.83347,1351650.4899471,14
1660032286.83347,1351650.4899491,11
1660032286.83347,1351650.4899511,18
1660032286.83347,1351650.489953,25
1660032286.83347,1351650.4899551,21
1660032286.83347,1351650.489957,18
1660032286.83347,1351650.489959,21
1660032286.83347,1351650.489961,30
1660032286.83347,1351650.489963,40
1660032286.83347,1351650.489965,47
1660032286.83347,1351650.4899725,56
1660032286.83347,1351650.4899817,58
1660032286.83347,1351650.4899852,56
1660032286.83347,1351650.4899874,63
1660032286.83347,1351650.4899895,65
1660032286.83347,1351650.4899916,61
1660032286.83347,1351650.4899937,65
1660032286.83347,1351650.4899959,75
1660032286.83347,1351650.489998,84
1660032286.83347,1351650.4900005,91
1660032286.83347,1351650.4900028,89
1660032286.83347,1351650.4900049,82
1660032286.83347,1351650.490007,80
1660032286.83347,1351650.490009,87
1660032286.83347,1351650.4900113,91
1660032286.83347,1351650.4900193,89
1660032286.83347,1351650.4900292,77
1660032286.83347,1351650.4900349,77
1660032286.83347,1351650.4900409,103
1660032286.83347,1351650.4900461,120
1660032286.83347,1351650.49005,115
1660032286.83347,1351650.4900573,108
1660032286.83347,1351650.4900613,108
1660032286.83347,1351650.9294992,108
1660032286.83347,1351650.9295207,110
1660032286.83347,1351650.9295362,115
1660032286.83347,1351650.9295502,117
1660032286.83347,1351650.9295603,124
1660032286.83347,1351650.9295675,124
1660032286.83347,1351650.9295767,131
1660032286.83347,1351650.929581,146
1660032286.83347,1351650.9295877,148
1660032286.83347,1351650.9295937,136
1660032286.83347,1351650.9296033,117
1660032286.83347,1351650.9296086,115
1660032286.83347,1351650.9296182,131
1660032286.84523,1351650.929631,120
1660032286.84523,1351650.9296442,103
1660032286.84523,1351650.9296578,127
1660032286.84523,1351650.9296649,122
1660032286.84523,1351650.9296691,98
1660032286.84523,1351650.9296731,160
1660032286.84523,1351650.9296777,320
1660032286.84523,1351650.9296834,480
1660032286.84523,1351650.9296926,497
1660032286.84523,1351650.9296987,280
1660032286.84523,1351650.9297042,25
1660032286.84523,1351650.9297097,11
1660032286.84523,1351650.9297147,113
1660032286.84523,1351650.9297187,87
1660032286.84523,1351650.9297247,40
1660032286.84523,1351650.9297301,58
1660032286.84523,1351650.9297362,63
1660032286.84523,1351650.92974,51
1660032286.84523,1351650.9297431,47
1660032286.84523,1351650.9297463,28
1660032286.84523,1351650.929751,16
1660032286.84523,1351650.929754,37
1660032286.84523,1351650.9297568,63
1660032286.84523,1351650.9297597,56
1660032287.4086,1351650.9297625,56
1660032287.4086,1351650.9297654,96
1660032287.4086,1351650.9297681,110
1660032287.4086,1351650.929771,84
1660032287.4086,1351650.9297737,101
1660032287.4086,1351650.9297763,146
1660032287.4086,1351650.9297788,136
1660032287.4086,1351650.9297814,106
1660032287.4086,1351650.929784,106
1660032287.4086,1351650.9297865,120
1660032287.4086,1351650.9297891,120
1660032287.4086,1351650.9297917,103
1660032287.4086,1351650.9297943,77
1660032287.4086,1351650.9297969,70
1660032287.4086,1351650.9297995,75
1660032287.4086,1351650.9298025,42
1660032287.4086,1351650.9298054,2
1660032287.4086,1351650.9298083,21
1660032287.4086,1351650.9298112,54
1660032287.4086,1351650.929814,49
1660032287.4086,1351650.9298194,32
1660032287.4086,1351650.9298319,30
1660032287.4086,1351650.929845,42
1660032287.4086,1351650.9298591,47
1660032287.4086,1351650.929872,51
1660032287.4086,1351650.9298855,65
1660032287.4086,1351650.9298992,56
1660032287.4086,1351650.9299114,47
1660032287.4086,1351650.9299247,75
1660032287.4086,1351650.9299376,98
1660032287.4086,1351650.9299514,80
1660032287.4086,1351650.9299643,75
1660032287.4086,1351650.9299778,91
1660032287.4086,1351650.9299914,84
1660032287.4086,1351650.930005,63
1660032287.4086,1351650.9300183,80
1660032287.4086,1351651.5150467,120
1660032287.4086,1351651.5150662,113
1660032287.4086,1351651.515081,82
1660032287.4086,1351651.5150969,103
1660032287.4086,1351651.5151126,120
1660032287.4086,1351651.5151258,84
1660032287.4086,1351651.5151387,82
1660032287.4086,1351651.5151457,110
1660032287.4086,1351651.5151576,89
1660032287.4086,1351651.5151659,54
1660032287.4086,1351651.5151712,68
1660032287.4086,1351651.5151778,96
1660032287.4086,1351651.5151826,96
1660032287.4086,1351651.5151893,80
1660032287.42954,1351651.5151946,75
1660032287.42954,1351651.5152043,63
1660032287.42954,1351651.515214,47
1660032287.42954,1351651.5152239,54
1660032287.42954,1351651.5152307,75
1660032287.42954,1351651.5152395,80
1660032287.42954,1351651.5152459,77
1660032287.42954,1351651.5152549,75
1660032287.42954,1351651.515261,75
1660032287.42954,1351651.5152718,84
1660032287.42954,1351651.5152836,89
1660032287.42954,1351651.5152926,89
1660032287.42954,1351651.5153073,94
1660032287.42954,1351651.5153208,96
1660032287.42954,1351651.5153335,94
1660032287.42954,1351651.5153488,98
1660032287.42954,1351651.5153622,115
1660032287.42954,1351651.5153705,153
1660032287.42954,1351651.5153731,268
1660032287.42954,1351651.5153753,445
1660032287.42954,1351651.5153774,499
1660032287.42954,1351651.5153795,308
1660032287.42954,1351651.5153816,80
1660032287.42954,1351651.5153836,44
1660032288.00651,1351651.5153857,110
1660032288.00651,1351651.5153929,108
1660032288.00651,1351651.515395,98
1660032288.00651,1351651.5153969,122
1660032288.00651,1351651.5153989,115
1660032288.00651,1351651.5154008,98
1660032288.00651,1351651.5154028,113
1660032288.00651,1351651.5154048,120
1660032288.00651,1351651.5154067,103
1660032288.00651,1351651.5154086,108
1660032288.00651,1351651.5154106,122
1660032288.00651,1351651.5154126,115
1660032288.00651,1351651.5154155,108
1660032288.00651,1351651.515425,117
1660032288.00651,1351651.5154321,124
1660032288.00651,1351651.5154391,122
1660032288.00651,1351651.5154527,131
1660032288.00651,1351651.5154648,148
1660032288.00651,1351651.5154764,164
1660032288.00651,1351651.5154819,162
1660032288.00651,1351651.5154907,150
1660032288.00651,1351651.5154997,143
1660032288.00651,1351651.5155064,141
1660032288.00651,1351651.5155116,160
1660032288.00651,1351651.5155155,174
1660032288.00651,1351651.5155221,153
1660032288.00651,1351651.5155264,124
1660032288.00651,1351651.5155327,103
1660032288.00651,1351651.5155378,87
1660032288.00651,1351651.5155466,75
1660032288.00651,1351651.5155536,77
1660032288.00651,1351651.5155582,89
1660032288.00651,1351651.5155659,80
1660032288.00651,1351651.5155704,49
1660032288.00651,1351651.5155828,44
1660032288.00651,1351652.099056,61
1660032288.00651,1351652.0990744,65
1660032288.00651,1351652.0990898,80
1660032288.00651,1351652.099103,94
1660032288.00651,1351652.0991162,91
1660032288.00651,1351652.0991252,84
1660032288.00651,1351652.0991278,68
1660032288.00651,1351652.09913,61
1660032288.00651,1351652.0991321,70
1660032288.00651,1351652.0991341,77
1660032288.00651,1351652.0991363,70
1660032288.00651,1351652.0991384,56
1660032288.00651,1351652.0991405,47
1660032288.00651,1351652.0991426,63
1660032288.00651,1351652.0991446,77
1660032288.01947,1351652.0991467,73
1660032288.01947,1351652.0991488,73
1660032288.01947,1351652.099151,68
1660032288.01947,1351652.0991532,47
1660032288.01947,1351652.0991553,42
1660032288.01947,1351652.0991574,56
1660032288.01947,1351652.0991594,56
1660032288.01947,1351652.0991615,51
1660032288.01947,1351652.0991637,49
1660032288.01947,1351652.0991657,32
1660032288.01947,1351652.099168,21
1660032288.01947,1351652.09917,40
1660032288.01947,1351652.0991721,51
1660032288.01947,1351652.0991741,35
1660032288.01947,1351652.0991761,23
1660032288.01947,1351652.0991783,47
1660032288.01947,1351652.0991804,80
1660032288.01947,1351652.0991826,89
1660032288.01947,1351652.0991846,91
1660032288.01947,1351652.0991868,110
1660032288.01947,1351652.0991888,108
1660032288.01947,1351652.0991909,84
1660032288.01947,1351652.099193,73
1660032288.01947,1351652.0991951,73
1660032288.48097,1351652.0991972,87
1660032288.48097,1351652.0991992,94
1660032288.48097,1351652.0992012,87
1660032288.48097,1351652.0992031,94
1660032288.48097,1351652.0992051,106
1660032288.48097,1351652.0992073,110
1660032288.48097,1351652.0992093,174
1660032288.48097,1351652.0992113,355
1660032288.48097,1351652.0992132,513
1660032288.48097,1351652.0992151,449
1660032288.48097,1351652.099217,207
1660032288.48097,1351652.0992191,30
1660032288.48097,1351652.099221,35
1660032288.48097,1351652.0992244,94
1660032288.48097,1351652.0992366,103
1660032288.48097,1351652.0992431,89
1660032288.48097,1351652.0992477,96
1660032288.48097,1351652.0992499,110
1660032288.48097,1351652.0992521,108
1660032288.48097,1351652.0992598,94
1660032288.48097,1351652.0992702,91
1660032288.48097,1351652.0992737,94
1660032288.48097,1351652.0992774,96
1660032288.48097,1351652.0992796,103
1660032288.48097,1351652.0992877,94
1660032288.48097,1351652.0992981,77
1660032288.48097,1351652.0993017,94
1660032288.48097,1351652.0993054,106
1660032288.48097,1351652.0993075,96
1660032288.48097,1351652.0993097,113
1660032288.48097,1351652.0993119,146
1660032288.48097,1351652.0993141,153
1660032288.48097,1351652.0993162,146
1660032288.48097,1351652.0993184,141
1660032288.48097,1351652.5872358,134
1660032288.48097,1351652.5872564,134
1660032288.48097,1351652.5872713,117
1660032288.48097,1351652.5872859,91
1660032288.48097,1351652.5872946,80
1660032288.48097,1351652.5872973,70
1660032288.48097,1351652.5872994,56
1660032288.48097,1351652.5873015,49
1660032288.48097,1351652.5873036,44
1660032288.48097,1351652.5873056,37
1660032288.48097,1351652.5873077,23
1660032288.48097,1351652.5873098,28
1660032288.48097,1351652.5873119,56
1660032288.48097,1351652.5873139,51
1660032288.48097,1351652.5873209,18
1660032288.48097,1351652.5873322,-7
1660032288.49394,1351652.5873379,4
1660032288.49394,1351652.5873412,14
1660032288.49394,1351652.5873434,7
1660032288.49394,1351652.5873456,23
1660032288.49394,1351652.5873476,21
1660032288.49394,1351652.5873498,-21
1660032288.49394,1351652.587352,-21
1660032288.49394,1351652.5873541,14
1660032288.49394,1351652.5873562,7
1660032288.49394,1351652.5873583,-11
1660032288.49394,1351652.5873603,11
1660032288.49394,1351652.587363,25
1660032288.49394,1351652.5873652,11
1660032288.49394,1351652.5873672,16
1660032288.49394,1351652.5873693,30
1660032288.49394,1351652.5873714,16
1660032288.49394,1351652.5873735,0
1660032288.49394,1351652.5873756,7
1660032288.49394,1351652.5873777,18
1660032288.49394,1351652.5873798,32
1660032288.49394,1351652.5873819,61
1660032288.49394,1351652.5873839,63
1660032288.49394,1351652.5873861,42
1660032288.49394,1351652.5873881,49
1660032289.06795,1351652.5873902,65
1660032289.06795,1351652.5873923,49
1660032289.06795,1351652.5873943,44
1660032289.06795,1351652.5873962,84
1660032289.06795,1351652.5873983,129
1660032289.06795,1351652.5874003,122
1660032289.06795,1351652.5874023,75
1660032289.06795,1351652.5874042,65
1660032289.06795,1351652.5874062,101
1660032289.06795,1351652.5874082,110
1660032289.06795,1351652.5874101,108
1660032289.06795,1351652.587412,113
1660032289.06795,1351652.5874178,96
1660032289.06795,1351652.5874284,96
1660032289.06795,1351652.5874339,136
1660032289.06795,1351652.5874435,204
1660032289.06795,1351652.5874512,353
1660032289.06795,1351652.5874639,492
1660032289.06795,1351652.587477,402
1660032289.06795,1351652.5874855,124
1660032289.06795,1351652.5874882,-21
1660032289.06795,1351652.5874903,42
1660032289.06795,1351652.5874925,77
1660032289.06795,1351652.5874945,28
1660032289.06795,1351652.5874967,42
1660032289.06795,1351652.5874987,75
1660032289.06795,1351652.5875009,58
1660032289.06795,1351652.587503,49
1660032289.06795,1351652.5875052,54
1660032289.06795,1351652.5875073,49
1660032289.06795,1351652.5875094,49
1660032289.06795,1351652.5875115,49
1660032289.06795,1351652.5875136,47
1660032289.06795,1351653.1709484,47
1660032289.06795,1351653.1709646,61
1660032289.06795,1351653.1709716,80
1660032289.06795,1351653.1709766,80
1660032289.06795,1351653.17098,73
1660032289.06795,1351653.1709835,56
1660032289.06795,1351653.1709882,47

1660032289.06795,1351653.170993,84
1660032289.06795,1351653.1709963,108
1660032289.06795,1351653.1709996,73
1660032289.06795,1351653.1710046,68
1660032289.06795,1351653.1710093,89
1660032289.06795,1351653.1710141,58
1660032289.06795,1351653.1710174,25
1660032289.06795,1351653.1710207,35
1660032289.06795,1351653.1710255,23
1660032289.06795,1351653.1710289,-7
1660032289.07992,1351653.1710323,-7
1660032289.07992,1351653.1710371,-9
1660032289.07992,1351653.1710405,-7
1660032289.07992,1351653.1710451,9
1660032289.07992,1351653.1710493,-4
1660032289.07992,1351653.1710529,-32
1660032289.07992,1351653.1710575,-21
1660032289.07992,1351653.1710609,4
1660032289.07992,1351653.1710657,18
1660032289.07992,1351653.1710691,21
1660032289.07992,1351653.1710724,14
1660032289.07992,1351653.1710772,11
1660032289.07992,1351653.1710805,32
1660032289.07992,1351653.1710853,47
1660032289.07992,1351653.1710904,44
1660032289.07992,1351653.1710951,40
1660032289.07992,1351653.1710985,37
1660032289.07992,1351653.1711032,56
1660032289.07992,1351653.1711073,65
1660032289.07992,1351653.1711122,37
1660032289.07992,1351653.1711163,30
1660032289.07992,1351653.171121,70
1660032289.07992,1351653.1711243,106
1660032289.07992,1351653.1711292,98
1660032289.65699,1351653.1711326,68
1660032289.65699,1351653.1711367,54
1660032289.65699,1351653.17114,73
1660032289.65699,1351653.1711433,96
1660032289.65699,1351653.1711465,98
1660032289.65699,1351653.1711497,94
1660032289.65699,1351653.1711529,89
1660032289.65699,1351653.1711561,77
1660032289.65699,1351653.1711592,61
1660032289.65699,1351653.1711624,68
1660032289.65699,1351653.1711672,87
1660032289.65699,1351653.1711705,82
1660032289.65699,1351653.1711739,80
1660032289.65699,1351653.1711773,103
1660032289.65699,1351653.1711821,103
1660032289.65699,1351653.1711855,56
1660032289.65699,1351653.1711888,51
1660032289.65699,1351653.1711936,98
1660032289.65699,1351653.1711976,113
1660032289.65699,1351653.171201,101
1660032289.65699,1351653.1712057,96
1660032289.65699,1351653.1712089,75
1660032289.65699,1351653.1712136,82
1660032289.65699,1351653.1712175,169
1660032289.65699,1351653.1712223,322
1660032289.65699,1351653.1712256,464
1660032289.65699,1351653.1712302,457
1660032289.65699,1351653.1712351,242
1660032289.65699,1351653.1712397,25
1660032289.65699,1351653.1712432,0
1660032289.65699,1351653.1712479,75
1660032289.65699,1351653.1712513,103
1660032289.65699,1351653.7560164,94
1660032289.65699,1351653.756036,80
1660032289.65699,1351653.7560444,63
1660032289.65699,1351653.75605,63
1660032289.65699,1351653.7560565,87
1660032289.65699,1351653.7560612,103
1660032289.65699,1351653.7560663,87
1660032289.65699,1351653.7560731,68
1660032289.65699,1351653.7560796,65
1660032289.65699,1351653.7560862,54
1660032289.65699,1351653.7560908,47
1660032289.65699,1351653.7560972,47
1660032289.65699,1351653.7561024,49
1660032289.65699,1351653.7561084,77
1660032289.65699,1351653.7561125,77
1660032289.65699,1351653.7561164,44
1660032289.65699,1351653.7561218,70
1660032289.65699,1351653.7561254,113
1660032289.6676,1351653.7561293,98
1660032289.6676,1351653.7561347,75
1660032289.6676,1351653.7561394,77
1660032289.6676,1351653.7561432,94
1660032289.6676,1351653.7561484,82
1660032289.6676,1351653.7561515,30
1660032289.6676,1351653.7561547,14
1660032289.6676,1351653.7561596,40
1660032289.6676,1351653.7561633,23
1660032289.6676,1351653.7561683,-7
1660032289.6676,1351653.7561727,0
1660032289.6676,1351653.7561782,16
1660032289.6676,1351653.7561827,25
1660032289.6676,1351653.7561877,32
1660032289.6676,1351653.7561909,35
1660032289.6676,1351653.7561957,23
1660032289.6676,1351653.7561989,11
1660032289.6676,1351653.7562024,35
1660032289.6676,1351653.7562077,61
1660032289.6676,1351653.7562112,63
1660032289.6676,1351653.756215,63
1660032289.6676,1351653.7562185,51
1660032289.6676,1351653.7562222,25
1660032289.6676,1351653.7562278,25
1660032290.1919,1351653.7562316,51
1660032290.1919,1351653.7562352,58
1660032290.1919,1351653.7562387,40
1660032290.1919,1351653.7562421,35
1660032290.1919,1351653.7562456,42
1660032290.1919,1351653.7562491,30
1660032290.1919,1351653.7562527,32
1660032290.1919,1351653.7562563,61
1660032290.1919,1351653.7562599,68
1660032290.1919,1351653.7562635,65
1660032290.1919,1351653.7562672,61
1660032290.1919,1351653.7562726,49
1660032290.1919,1351653.7562758,51
1660032290.1919,1351653.756279,68
1660032290.1919,1351653.7562823,73
1660032290.1919,1351653.7562857,68
1660032290.1919,1351653.7562891,65
1660032290.1919,1351653.7562926,61
1660032290.1919,1351653.7562981,58
1660032290.1919,1351653.7563014,65
1660032290.1919,1351653.7563049,70
1660032290.1919,1351653.7563101,70
1660032290.1919,1351653.7563153,75
1660032290.1919,1351653.7563206,80
1660032290.1919,1351653.7563244,91
1660032290.1919,1351653.7563281,101
1660032290.1919,1351653.7563317,108
1660032290.1919,1351653.7563353,108
1660032290.1919,1351653.7563407,101
1660032290.1919,1351653.7563443,89
1660032290.1919,1351653.7563511,91
1660032290.1919,1351654.2939802,103
1660032290.1919,1351654.2939995,101
1660032290.1919,1351654.2940098,101
1660032290.1919,1351654.294018,106
1660032290.1919,1351654.2940253,91
1660032290.1919,1351654.2940319,101
1660032290.1919,1351654.2940403,197
1660032290.1919,1351654.2940488,369
1660032290.1919,1351654.294062,461
1660032290.1919,1351654.2940753,334
1660032290.1919,1351654.2940887,98
1660032290.1919,1351654.2941025,-16
1660032290.1919,1351654.2941169,14
1660032290.1919,1351654.2941297,47
1660032290.1919,1351654.2941429,35
1660032290.1919,1351654.2941555,42
1660032290.1919,1351654.294167,51
1660032290.1919,1351654.2941809,25
1660032290.1919,1351654.2941915,0
1660032290.20287,1351654.2942004,4
1660032290.20287,1351654.2942069,9
1660032290.20287,1351654.2942192,2
1660032290.20287,1351654.2942293,4
1660032290.20287,1351654.2942367,14
1660032290.20287,1351654.2942425,21
1660032290.20287,1351654.2942512,35
1660032290.20287,1351654.2942571,49
1660032290.20287,1351654.2942632,58
1660032290.20287,1351654.2942665,65
1660032290.20287,1351654.2942695,82
1660032290.20287,1351654.2942723,96
1660032290.20287,1351654.2942753,98
1660032290.20287,1351654.2942783,94
1660032290.20287,1351654.2942812,80
1660032290.20287,1351654.294284,61
1660032290.20287,1351654.2942869,65
1660032290.20287,1351654.2942898,65
1660032290.20287,1351654.2942926,40
1660032290.20287,1351654.2942956,21
1660032290.20287,1351654.2942985,11
1660032290.20287,1351654.2943019,-11
1660032290.20287,1351654.294314,-14
1660032290.20287,1351654.2943211,-7
1660032290.82327,1351654.2943263,-18
1660032290.82327,1351654.2943303,-14
1660032290.82327,1351654.2943338,9
1660032290.82327,1351654.2943373,14
1660032290.82327,1351654.2943409,14
1660032290.82327,1351654.2943444,32
1660032290.82327,1351654.2943481,37
1660032290.82327,1351654.2943516,21
1660032290.82327,1351654.2943551,23
1660032290.82327,1351654.2943584,51
1660032290.82327,1351654.2943617,61
1660032290.82327,1351654.2943651,56
1660032290.82327,1351654.2943722,56
1660032290.82327,1351654.2943768,54
1660032290.82327,1351654.2943808,44
1660032290.82327,1351654.2943847,51
1660032290.82327,1351654.2943946,70
1660032290.82327,1351654.2944062,84
1660032290.82327,1351654.2944207,84
1660032290.82327,1351654.2944339,77
1660032290.82327,1351654.294447,70
1660032290.82327,1351654.2944612,70
1660032290.82327,1351654.2944746,70
1660032290.82327,1351654.2944877,84
1660032290.82327,1351654.2945001,94
1660032290.82327,1351654.2945118,70
1660032290.82327,1351654.2945253,63
1660032290.82327,1351654.2945382,87
1660032290.82327,1351654.2945498,91
1660032290.82327,1351654.2945642,80
1660032290.82327,1351654.9277295,68
1660032290.82327,1351654.9277488,54
1660032290.82327,1351654.9277587,51
1660032290.82327,1351654.9277684,61
1660032290.82327,1351654.9277768,68
1660032290.82327,1351654.927785,65
1660032290.82327,1351654.9277937,73
1660032290.82327,1351654.9278017,108
1660032290.82327,1351654.9278099,122
1660032290.82327,1351654.9278185,80
1660032290.82327,1351654.9278279,61
1660032290.82327,1351654.9278338,73
1660032290.82327,1351654.9278378,51
1660032290.82327,1351654.9278441,44
1660032290.82327,1351654.927851,75
1660032290.82327,1351654.9278577,54
1660032290.82327,1351654.9278641,11
1660032290.82327,1351654.9278721,40
1660032290.82327,1351654.9278808,91
1660032290.82327,1351654.9278891,209
1660032290.84344,1351654.9278973,412
1660032290.84344,1351654.927904,471
1660032290.84344,1351654.9279107,261
1660032290.84344,1351654.9279192,16
1660032290.84344,1351654.9279282,-25
1660032290.84344,1351654.9279347,28
1660032290.84344,1351654.9279402,-2
1660032290.84344,1351654.9279475,-44
1660032290.84344,1351654.9279549,-16
1660032290.84344,1351654.927962,2
1660032290.84344,1351654.9279701,-14
1660032290.84344,1351654.9279766,-9
1660032290.84344,1351654.9279837,4
1660032290.84344,1351654.9279912,4
1660032290.84344,1351654.9279982,0
1660032290.84344,1351654.9280032,4
1660032290.84344,1351654.9280122,11
1660032290.84344,1351654.9280188,28
1660032290.84344,1351654.9280233,58
1660032290.84344,1351654.9280294,68
1660032290.84344,1351654.9280364,65
1660032290.84344,1351654.9280434,84
1660032290.84344,1351654.9280521,91
1660032290.84344,1351654.9280736,82
1660032291.36712,1351654.9280828,101
1660032291.36712,1351654.9280861,120
1660032291.36712,1351654.9280889,106
1660032291.36712,1351654.9280916,101
1660032291.36712,1351654.9280943,108
1660032291.36712,1351654.9280971,94
1660032291.36712,1351654.9280997,65
1660032291.36712,1351654.9281023,58
1660032291.36712,1351654.9281067,51
1660032291.36712,1351654.9281123,23
1660032291.36712,1351654.9281165,18
1660032291.36712,1351654.9281192,44
1660032291.36712,1351654.9281219,42
1660032291.36712,1351654.9281245,7
1660032291.36712,1351654.9281274,-2
1660032291.36712,1351654.9281329,37
1660032291.36712,1351654.9281594,61
1660032291.36712,1351654.9281674,61
1660032291.36712,1351654.9281713,77
1660032291.36712,1351654.9281749,94
1660032291.36712,1351654.9281784,80
1660032291.36712,1351654.928182,63
1660032291.36712,1351654.9281855,96
1660032291.36712,1351654.928189,124
1660032291.36712,1351654.9281926,113
1660032291.36712,1351654.928196,115
1660032291.36712,1351654.9281995,131
1660032291.36712,1351654.9282129,131
1660032291.36712,1351654.9282201,129
1660032291.36712,1351655.4640528,153
1660032291.36712,1351655.464075,174
1660032291.36712,1351655.4640858,162
1660032291.36712,1351655.4640938,127
1660032291.36712,1351655.4641028,131
1660032291.36712,1351655.4641189,176
1660032291.36712,1351655.4641284,181
1660032291.36712,1351655.4641328,167
1660032291.36712,1351655.4641392,164
1660032291.36712,1351655.4641434,160
1660032291.36712,1351655.4641493,169
1660032291.36712,1351655.4641542,181
1660032291.36712,1351655.4641604,164
1660032291.36712,1351655.4641648,141
1660032291.36712,1351655.4641705,110
1660032291.36712,1351655.4641748,110
1660032291.36712,1351655.4641792,155
1660032291.36712,1351655.4641849,162
1660032291.36712,1351655.4641886,136
1660032291.36712,1351655.4641945,164
1660032291.36712,1351655.4641994,202
1660032291.37809,1351655.4642051,183
1660032291.37809,1351655.4642097,148
1660032291.37809,1351655.4642159,134
1660032291.37809,1351655.4642206,98
1660032291.37809,1351655.4642266,73
1660032291.37809,1351655.4642311,96
1660032291.37809,1351655.4642369,127
1660032291.37809,1351655.4642422,143
1660032291.37809,1351655.4642485,153
1660032291.37809,1351655.4642525,207
1660032291.37809,1351655.4642582,372
1660032291.37809,1351655.4642626,577
1660032291.37809,1351655.4642688,593
1660032291.37809,1351655.4642737,353
1660032291.37809,1351655.4642817,120
1660032291.37809,1351655.4642859,108
1660032291.37809,1351655.4642954,171
1660032291.37809,1351655.4643,150
1660032291.37809,1351655.464306,131
1660032291.37809,1351655.4643186,153
1660032291.37809,1351655.4643233,160
1660032291.37809,1351655.4643293,174
1660032291.37809,1351655.4643339,171
