Time,TimeLsl,Value
1658828958.07103,148310.3654843,125
1658828958.07103,148310.3655008,149
1658828958.07103,148310.3655061,170
1658828958.07103,148310.3655136,194
1658828958.07103,148310.3655188,218
1658828958.07103,148310.3655249,234
1658828958.07103,148310.3655289,237
1658828958.07103,148310.3655341,227
1658828958.07103,148310.3655393,208
1658828958.07103,148310.365545,182
1658828958.07103,148310.365549,156
1658828958.07103,148310.3655542,132
1658828958.07103,148310.3655595,97
1658828958.07103,148310.3655652,61
1658828958.07103,148310.3655694,33
1658828958.07103,148310.365575,-2
1658828958.07103,148310.3655794,-33
1658828958.07103,148310.3655854,-33
1658828958.07103,148310.3655898,-28
1658828958.07103,148310.3655956,-33
1658828958.07103,148310.365601,-28
1658828958.07103,148310.365605,-21
1658828958.07103,148310.3656119,-21
1658828958.07103,148310.3656159,-14
1658828958.07103,148310.3656218,4
1658828958.07103,148310.3656273,18
1658828958.07103,148310.3656332,30
1658828958.07103,148310.3656375,40
1658828958.07103,148310.3656433,37
1658828958.07103,148310.3656488,35
1658828958.07103,148310.3656547,47
1658828958.07103,148310.3656587,56
1658828958.07103,148310.3656627,54
1658828958.07103,148310.3656668,47
1658828958.07103,148310.3656728,40
1658828958.07103,148310.365677,35
1658828958.07103,148310.3656811,33
1658828958.07103,148310.3656852,35
1658828958.07103,148310.365691,37
1658828958.07103,148310.365695,40
1658828958.07103,148310.3657005,40
1658828958.07103,148310.3657051,52
1658828958.07103,148310.3657092,78
1658828958.07103,148310.3657147,83
1658828958.07103,148310.3657188,59
1658828958.07103,148310.3657241,42
1658828958.07103,148310.3657292,42
1658828958.07103,148310.3657348,37
1658828958.07103,148310.3657388,33
1658828958.07103,148310.3657445,40
1658828958.19114,148310.3657497,45
1658828958.19114,148310.3657538,9
1658828958.19114,148310.3657594,-68
1658828958.19114,148310.3657634,-30
1658828958.19114,148310.3657674,303
1658828958.19114,148310.3657731,763
1658828958.19114,148310.3657771,1031
1658828958.19114,148310.3657811,837
1658828958.19114,148310.365787,163
1658828958.19114,148310.3657911,-239
1658828958.19114,148310.3657957,-23
1658828958.19114,148310.3658002,92
1658828958.19114,148310.3658042,-26
1658828958.19114,148310.3658103,-4
1658828958.19114,148310.3658159,54
1658828958.19114,148310.365826,28
1658828958.19114,148310.3658317,30
1658828958.19114,148310.3658361,56
1658828958.19114,148310.365842,61
1658828958.19114,148310.365846,71
1658828958.19114,148310.3658514,92
1658828958.19114,148310.3658563,109
1658828958.19114,148310.3658619,123
1658828958.19114,148310.8995199,139
1658828958.19114,148310.8995397,161
1658828958.19114,148310.8995472,187
1658828958.19114,148310.8995519,211
1658828958.19114,148310.8995564,230
1658828958.19114,148310.8995606,234
1658828958.19114,148310.8995646,225
1658828958.19114,148310.8995684,211
1658828958.19114,148310.8995724,201
1658828958.19114,148310.8995764,187
1658828958.19114,148310.8995806,166
1658828958.19114,148310.8995847,135
1658828958.19114,148310.8995886,80
1658828958.19114,148310.8995925,30
1658828958.19114,148310.8995964,11
1658828958.19114,148310.8996003,0
1658828958.19114,148310.899604,-14
1658828958.19114,148310.899608,-16
1658828958.19114,148310.899612,-18
1658828958.19114,148310.8996159,-26
1658828958.19114,148310.8996197,-30
1658828958.19114,148310.8996234,-28
1658828958.19114,148310.8996273,-21
1658828958.19114,148310.8996311,-9
1658828958.19114,148310.8996349,-7
1658828958.19114,148310.8996388,-9
1658828958.19114,148310.8996426,-2
1658828958.24106,148310.8996461,11
1658828958.24106,148310.8996503,18
1658828958.24106,148310.8996541,23
1658828958.24106,148310.8996577,23
1658828958.24106,148310.8996638,14
1658828958.24106,148310.8996678,16
1658828958.24106,148310.8996734,26
1658828958.24106,148310.8996773,28
1658828958.24106,148310.8996829,23
1658828958.24106,148310.8996876,21
1658828958.24106,148310.8996921,16
1658828958.24106,148310.8996977,9
1658828958.24106,148310.8997015,11
1658828958.24106,148310.8997054,14
1658828958.24106,148310.8997109,11
1658828958.24106,148310.8997149,18
1658828958.24106,148310.8997188,40
1658828958.24106,148310.8997243,56
1658828958.24106,148310.8997289,45
1658828958.24106,148310.8997343,28
1658828958.24106,148310.8997392,26
1658828958.24106,148310.8997452,28
1658828958.24106,148310.8997492,30
1658828958.24106,148310.8997546,33
1658828958.24106,148310.8997585,37
1658828958.24106,148310.8997625,30
1658828958.24106,148310.8997682,-26
1658828958.24106,148310.8997721,-73
1658828958.24106,148310.8997774,104
1658828958.24106,148310.8997834,538
1658828958.24106,148310.8997893,944
1658828958.24106,148310.8997933,1017
1658828958.24106,148310.8997974,524
1658828958.24106,148310.899803,-149
1658828958.24106,148310.8998071,-187
1658828958.24106,148310.8998126,87
1658828958.24106,148310.8998168,33
1658828958.24106,148310.8998223,-40
1658828958.24106,148310.8998266,35
1658828958.24106,148310.899832,45
1658828958.24106,148310.899836,18
1658828958.24106,148310.8998414,47
1658828958.24106,148310.8998463,66
1658828958.24106,148310.8998528,61
1658828958.24106,148310.8998582,71
1658828958.24106,148310.8998622,94
1658828958.24106,148311.4855148,111
1658828958.24106,148311.4855345,130
1658828958.51395,148311.4855399,154
1658828958.51395,148311.4855442,173
1658828958.51395,148311.4855478,196
1658828958.51395,148311.4855514,218
1658828958.51395,148311.485555,232
1658828958.51395,148311.4855589,237
1658828958.51395,148311.4855656,232
1658828958.51395,148311.4855713,206
1658828958.51395,148311.4855755,177
1658828958.51395,148311.4855791,163
1658828958.51395,148311.4855826,139
1658828958.51395,148311.4855858,97
1658828958.51395,148311.4855895,52
1658828958.51395,148311.4855926,14
1658828958.51395,148311.4855959,-18
1658828958.51395,148311.4856004,-33
1658828958.51395,148311.4856046,-35
1658828958.51395,148311.4856086,-35
1658828958.51395,148311.4856116,-33
1658828958.51395,148311.4856151,-30
1658828958.51395,148311.4856212,-30
1658828958.51395,148311.485627,-23
1658828958.51395,148311.4856325,-11
1658828958.51395,148311.4856376,0
1658828958.51395,148311.4856441,9
1658828958.51395,148311.4856517,16
1658828958.51395,148311.4856589,21
1658828958.51395,148311.4856649,23
1658828958.51395,148311.485671,26
1658828958.51395,148311.4856746,30
1658828958.51395,148311.4856797,37
1658828958.51395,148311.4856838,42
1658828958.51395,148311.4856879,40
1658828958.51395,148311.4856911,40
1658828958.51395,148311.4856971,42
1658828958.51395,148311.4857019,35
1658828958.51395,148311.485708,23
1658828958.51395,148311.4857136,16
1658828958.51395,148311.4857167,9
1658828958.51395,148311.4857207,0
1658828958.51395,148311.4857264,4
1658828958.51395,148311.4857314,11
1658828958.51395,148311.4857346,9
1658828958.51395,148311.4857396,21
1658828958.51395,148311.4857438,54
1658828958.51395,148311.4857515,66
1658828958.51395,148311.4857588,49
1658828958.51395,148311.4857655,33
1658828958.51395,148311.4857728,33
1658828958.51395,148311.4857779,42
1658828958.57396,148311.4857818,47
1658828958.57396,148311.4857848,47
1658828958.57396,148311.4857879,45
1658828958.57396,148311.4857908,42
1658828958.57396,148311.4857937,-11
1658828958.57396,148311.4857967,-45
1658828958.57396,148311.4857997,161
1658828958.57396,148311.4858026,609
1658828958.57396,148311.4858056,996
1658828958.57396,148311.4858085,1017
1658828958.57396,148311.485812,469
1658828958.57396,148311.4858184,-185
1658828958.57396,148311.4858236,-168
1658828958.57396,148311.4858295,90
1658828958.57396,148311.4858334,16
1658828958.57396,148311.4858474,-35
1658828958.57396,148311.4858613,42
1658828958.57396,148311.4858758,40
1658828958.57396,148311.4858871,18
1658828958.57396,148311.4858965,45
1658828958.57396,148311.4859015,61
1658828958.57396,148312.0215593,64
1658828958.57396,148312.0215775,85
1658828958.57396,148312.0215859,104
1658828959.06955,148312.0215929,116
1658828959.06955,148312.0215976,135
1658828959.06955,148312.0216018,158
1658828959.06955,148312.0216081,170
1658828959.06955,148312.021613,189
1658828959.06955,148312.021617,215
1658828959.06955,148312.0216206,225
1658828959.06955,148312.0216241,227
1658828959.06955,148312.0216277,222
1658828959.06955,148312.0216338,196
1658828959.06955,148312.021639,170
1658828959.06955,148312.0216463,156
1658828959.06955,148312.0216777,137
1658828959.06955,148312.0216882,104
1658828959.06955,148312.0216937,71
1658828959.06955,148312.0216995,37
1658828959.06955,148312.0217042,4
1658828959.06955,148312.0217105,-14
1658828959.06955,148312.0217171,-23
1658828959.06955,148312.0217207,-28
1658828959.06955,148312.0217252,-33
1658828959.06955,148312.0217295,-37
1658828959.06955,148312.0217331,-42
1658828959.06955,148312.0217371,-40
1658828959.06955,148312.0217438,-26
1658828959.06955,148312.0217507,-14
1658828959.06955,148312.0217568,-4
1658828959.06955,148312.0217603,7
1658828959.06955,148312.0217663,16
1658828959.06955,148312.0217708,23
1658828959.06955,148312.021777,26
1658828959.06955,148312.0217844,26
1658828959.06955,148312.021789,26
1658828959.06955,148312.021793,23
1658828959.06955,148312.0217968,21
1658828959.06955,148312.0218015,21
1658828959.06955,148312.021806,23
1658828959.06955,148312.0218103,18
1658828959.06955,148312.0218148,18
1658828959.06955,148312.0218194,23
1658828959.06955,148312.0218238,21
1658828959.06955,148312.0218281,14
1658828959.06955,148312.0218795,11
1658828959.06955,148312.0218889,9
1658828959.06955,148312.0218949,4
1658828959.06955,148312.0218997,9
1658828959.06955,148312.0219041,16
1658828959.06955,148312.021909,21
1658828959.06955,148312.0219133,23
1658828959.06955,148312.0219178,37
1658828959.09249,148312.0219224,64
1658828959.09249,148312.021927,73
1658828959.09249,148312.0219312,54
1658828959.09249,148312.0219352,37
1658828959.09249,148312.0219394,40
1658828959.09249,148312.0219436,47
1658828959.09249,148312.0219504,47
1658828959.09249,148312.0219564,54
1658828959.09249,148312.0219624,64
1658828959.09249,148312.0219685,37
1658828959.09249,148312.0219737,-16
1658828959.09249,148312.0219784,42
1658828959.09249,148312.0219827,374
1658828959.09249,148312.0219869,839
1658828959.09249,148312.0220068,1114
1658828959.09249,148312.022022,903
1658828959.09249,148312.0220275,182
1658828959.09249,148312.0220316,-272
1658828959.09249,148312.0220353,-56
1658828959.09249,148312.0220391,80
1658828959.09249,148312.6078828,-37
1658828959.09249,148312.6079069,-11
1658828959.09249,148312.6079176,45
1658828959.09249,148312.6079242,7
1658828959.60004,148312.6079325,14
1658828959.60004,148312.6079392,54
1658828959.60004,148312.6079452,56
1658828959.60004,148312.6079518,66
1658828959.60004,148312.6079584,85
1658828959.60004,148312.6079641,83
1658828959.60004,148312.6079727,90
1658828959.60004,148312.6079813,118
1658828959.60004,148312.6079872,137
1658828959.60004,148312.6079954,156
1658828959.60004,148312.6080012,185
1658828959.60004,148312.6080095,192
1658828959.60004,148312.6080159,185
1658828959.60004,148312.6080237,189
1658828959.60004,148312.6080305,192
1658828959.60004,148312.6080387,177
1658828959.60004,148312.6080455,158
1658828959.60004,148312.6080535,132
1658828959.60004,148312.6080603,104
1658828959.60004,148312.608069,78
1658828959.60004,148312.6080755,47
1658828959.60004,148312.6080838,18
1658828959.60004,148312.6080899,-2
1658828959.60004,148312.6080983,-18
1658828959.60004,148312.6081044,-30
1658828959.60004,148312.6081126,-30
1658828959.60004,148312.6081186,-30
1658828959.60004,148312.6081264,-35
1658828959.60004,148312.6081324,-37
1658828959.60004,148312.6081402,-35
1658828959.60004,148312.6081465,-26
1658828959.60004,148312.6081547,-11
1658828959.60004,148312.6081635,4
1658828959.60004,148312.6081709,9
1658828959.60004,148312.6081743,11
1658828959.60004,148312.6081779,21
1658828959.60004,148312.6081828,28
1658828959.60004,148312.6081881,28
1658828959.60004,148312.6081913,28
1658828959.60004,148312.6081945,30
1658828959.60004,148312.6081997,28
1658828959.60004,148312.6082032,26
1658828959.60004,148312.6082083,21
1658828959.60004,148312.6082118,23
1658828959.60004,148312.6082174,26
1658828959.60004,148312.6082232,26
1658828959.60004,148312.6082327,28
1658828959.60004,148312.608241,28
1658828959.60004,148312.6082494,28
1658828959.60004,148312.6082576,28
1658828959.616,148312.6082662,28
1658828959.616,148312.6082727,28
1658828959.616,148312.6082809,28
1658828959.616,148312.6082895,21
1658828959.616,148312.608296,23
1658828959.616,148312.6083039,30
1658828959.616,148312.6083121,35
1658828959.616,148312.6083206,45
1658828959.616,148312.6083293,71
1658828959.616,148312.6083375,92
1658828959.616,148312.6083461,80
1658828959.616,148312.6083541,56
1658828959.616,148312.6083605,49
1658828959.616,148312.6083694,54
1658828959.616,148312.6083774,59
1658828959.616,148312.6083859,64
1658828959.616,148312.6083939,66
1658828959.616,148312.6084017,71
1658828959.616,148312.6084101,45
1658828959.616,148313.1423083,9
1658828959.616,148313.1423252,130
1658828959.616,148313.1423298,517
1658828959.616,148313.1423352,956
1658828959.616,148313.1423383,1129
1658828960.22152,148313.1423416,763
1658828960.22152,148313.1423449,4
1658828960.22152,148313.1423481,-272
1658828960.22152,148313.1423514,18
1658828960.22152,148313.1423545,75
1658828960.22152,148313.1423577,-37
1658828960.22152,148313.142361,18
1658828960.22152,148313.1423644,42
1658828960.22152,148313.1423691,-4
1658828960.22152,148313.1423727,16
1658828960.22152,148313.1423771,49
1658828960.22152,148313.1423841,45
1658828960.22152,148313.1423893,54
1658828960.22152,148313.1423966,73
1658828960.22152,148313.1424015,83
1658828960.22152,148313.142414,99
1658828960.22152,148313.142422,128
1658828960.22152,148313.1424287,154
1658828960.22152,148313.1424326,175
1658828960.22152,148313.1424392,194
1658828960.22152,148313.1424427,196
1658828960.22152,148313.1424557,196
1658828960.22152,148313.1424656,199
1658828960.22152,148313.1424745,192
1658828960.22152,148313.1424794,175
1658828960.22152,148313.1424863,151
1658828960.22152,148313.1424902,125
1658828960.22152,148313.1424954,99
1658828960.22152,148313.1425,68
1658828960.22152,148313.1425068,33
1658828960.22152,148313.1425144,-2
1658828960.22152,148313.1425188,-26
1658828960.22152,148313.1425251,-40
1658828960.22152,148313.1425306,-49
1658828960.22152,148313.1425336,-52
1658828960.22152,148313.1425365,-47
1658828960.22152,148313.1425394,-42
1658828960.22152,148313.1425423,-37
1658828960.22152,148313.1425452,-30
1658828960.22152,148313.1425481,-21
1658828960.22152,148313.142551,-9
1658828960.22152,148313.1425539,2
1658828960.22152,148313.1425568,11
1658828960.22152,148313.1425598,26
1658828960.22152,148313.1425626,35
1658828960.22152,148313.1425655,33
1658828960.22152,148313.1425687,37
1658828960.22152,148313.1425741,45
1658828960.22152,148313.142577,47
1658828960.22152,148313.14258,52
1658828960.23963,148313.1425829,54
1658828960.23963,148313.1425858,42
1658828960.23963,148313.1425887,30
1658828960.23963,148313.1425918,33
1658828960.23963,148313.1425946,37
1658828960.23963,148313.1425975,37
1658828960.23963,148313.1426004,40
1658828960.23963,148313.1426032,37
1658828960.23963,148313.1426062,37
1658828960.23963,148313.1426091,42
1658828960.23963,148313.142612,45
1658828960.23963,148313.1426149,35
1658828960.23963,148313.1426179,26
1658828960.23963,148313.1426207,23
1658828960.23963,148313.1426236,26
1658828960.23963,148313.1426265,35
1658828960.23963,148313.1426293,47
1658828960.23963,148313.1426321,64
1658828960.23963,148313.7759738,97
1658828960.23963,148313.7759923,111
1658828960.23963,148313.7760067,90
1658828960.23963,148313.7760161,68
1658828960.23963,148313.7760279,71
1658828960.23963,148313.7760403,80
1658828960.71164,148313.776054,83
1658828960.71164,148313.7760591,83
1658828960.71164,148313.7760648,80
1658828960.71164,148313.77607,52
1658828960.71164,148313.7760738,4
1658828960.71164,148313.7760774,56
1658828960.71164,148313.7760809,362
1658828960.71164,148313.7760845,816
1658828960.71164,148313.7760883,1103
1658828960.71164,148313.7760947,915
1658828960.71164,148313.7760985,199
1658828960.71164,148313.7761031,-306
1658828960.71164,148313.7761068,-102
1658828960.71164,148313.7761102,78
1658828960.71164,148313.7761136,-47
1658828960.71164,148313.776117,-37
1658828960.71164,148313.7761209,33
1658828960.71164,148313.7761245,7
1658828960.71164,148313.7761282,0
1658828960.71164,148313.7761321,26
1658828960.71164,148313.7761356,28
1658828960.71164,148313.776139,26
1658828960.71164,148313.7761422,40
1658828960.71164,148313.7761457,59
1658828960.71164,148313.7761496,78
1658828960.71164,148313.776154,99
1658828960.71164,148313.7761591,123
1658828960.71164,148313.7761629,149
1658828960.71164,148313.7761665,173
1658828960.71164,148313.7761704,192
1658828960.71164,148313.7761765,206
1658828960.71164,148313.7761806,213
1658828960.71164,148313.7761865,206
1658828960.71164,148313.7761905,194
1658828960.71164,148313.7761944,175
1658828960.71164,148313.7761979,154
1658828960.71164,148313.7762016,132
1658828960.71164,148313.7762054,99
1658828960.71164,148313.7762091,66
1658828960.71164,148313.7762127,40
1658828960.71164,148313.7762165,14
1658828960.71164,148313.7762208,-4
1658828960.71164,148313.7762284,-14
1658828960.71164,148313.7762375,-28
1658828960.71164,148313.7762462,-37
1658828960.71164,148313.7762549,-30
1658828960.71164,148313.7762634,-26
1658828960.71164,148313.7762725,-23
1658828960.71164,148313.7762814,-16
1658828960.71164,148313.7762871,-2
1658828960.72262,148313.776294,9
1658828960.72262,148313.7763012,18
1658828960.72262,148313.77631,23
1658828960.72262,148313.7763188,26
1658828960.72262,148313.7763273,30
1658828960.72262,148313.7763353,40
1658828960.72262,148313.7763437,45
1658828960.72262,148313.7763521,45
1658828960.72262,148313.7763599,49
1658828960.72262,148313.7763659,52
1658828960.72262,148313.7763717,52
1658828960.72262,148313.7763827,52
1658828960.72262,148313.776396,49
1658828960.72262,148313.7764044,49
1658828960.72262,148313.7764107,54
1658828960.72262,148313.7764221,54
1658828960.72262,148313.7764277,47
1658828960.72262,148314.263933,42
1658828960.72262,148314.2639513,40
1658828960.72262,148314.2639614,40
1658828960.72262,148314.2639685,47
1658828960.72262,148314.2639742,52
1658828960.72262,148314.2639823,42
1658828960.72262,148314.2639893,47
1658828961.25442,148314.2639961,78
1658828961.25442,148314.2640018,102
1658828961.25442,148314.2640074,94
1658828961.25442,148314.2640147,83
1658828961.25442,148314.2640203,75
1658828961.25442,148314.2640302,59
1658828961.25442,148314.2640398,47
1658828961.25442,148314.2640508,59
1658828961.25442,148314.2640653,66
1658828961.25442,148314.2640757,42
1658828961.25442,148314.2640818,-14
1658828961.25442,148314.2640954,-4
1658828961.25442,148314.2641062,263
1658828961.25442,148314.2641139,725
1658828961.25442,148314.2641224,1053
1658828961.25442,148314.2641298,939
1658828961.25442,148314.2641323,277
1658828961.25442,148314.2641346,-287
1658828961.25442,148314.2641383,-156
1658828961.25442,148314.2641502,40
1658828961.25442,148314.2641576,-66
1658828961.25442,148314.2641629,-68
1658828961.25442,148314.2641706,4
1658828961.25442,148314.2641768,-23
1658828961.25442,148314.2641832,-37
1658828961.25442,148314.2641885,0
1658828961.25442,148314.2641954,11
1658828961.25442,148314.2641995,14
1658828961.25442,148314.2642052,35
1658828961.25442,148314.2642101,54
1658828961.25442,148314.264216,64
1658828961.25442,148314.2642269,87
1658828961.25442,148314.2642356,118
1658828961.25442,148314.2642405,144
1658828961.25442,148314.2642455,163
1658828961.25442,148314.2642488,180
1658828961.25442,148314.2642521,185
1658828961.25442,148314.2642734,185
1658828961.25442,148314.264322,187
1658828961.25442,148314.2643296,182
1658828961.25442,148314.264336,163
1658828961.25442,148314.2643452,139
1658828961.25442,148314.2643524,113
1658828961.25442,148314.2643574,80
1658828961.25442,148314.2643639,49
1658828961.25442,148314.2643713,21
1658828961.25442,148314.2643787,0
1658828961.25442,148314.2643859,-16
1658828961.25442,148314.2643933,-21
1658828961.25442,148314.2644007,-26
1658828961.26738,148314.2644075,-28
1658828961.26738,148314.2644131,-26
1658828961.26738,148314.2644181,-18
1658828961.26738,148314.264424,-14
1658828961.26738,148314.2644299,-4
1658828961.26738,148314.2644348,7
1658828961.26738,148314.2644392,18
1658828961.26738,148314.2644434,28
1658828961.26738,148314.264448,35
1658828961.26738,148314.2644526,45
1658828961.26738,148314.2644573,52
1658828961.26738,148314.2644623,59
1658828961.26738,148314.2644677,61
1658828961.26738,148314.2644719,64
1658828961.26738,148314.2644775,66
1658828961.26738,148314.2644817,64
1658828961.26738,148314.7997532,66
1658828961.26738,148314.7997743,73
1658828961.26738,148314.7997848,68
1658828961.26738,148314.7998063,61
1658828961.26738,148314.7998268,59
1658828961.26738,148314.7998341,56
1658828961.26738,148314.7998387,54
1658828961.26738,148314.7998435,49
1658828961.88847,148314.7998468,35
1658828961.88847,148314.7998516,18
1658828961.88847,148314.799856,18
1658828961.88847,148314.799859,23
1658828961.88847,148314.7998622,26
1658828961.88847,148314.7998653,45
1658828961.88847,148314.7998695,61
1658828961.88847,148314.7998732,42
1658828961.88847,148314.7998816,18
1658828961.88847,148314.7998943,18
1658828961.88847,148314.7999035,26
1658828961.88847,148314.7999172,30
1658828961.88847,148314.7999317,37
1658828961.88847,148314.7999447,40
1658828961.88847,148314.7999577,11
1658828961.88847,148314.7999699,-47
1658828961.88847,148314.7999819,0
1658828961.88847,148314.7999939,317
1658828961.88847,148314.8000054,768
1658828961.88847,148314.8000202,1024
1658828961.88847,148314.8000291,794
1658828961.88847,148314.8000606,99
1658828961.88847,148314.8000708,-282
1658828961.88847,148314.8000758,-49
1658828961.88847,148314.800081,56
1658828961.88847,148314.8000847,-59
1658828961.88847,148314.8000899,-26
1658828961.88847,148314.8000935,16
1658828961.88847,148314.8000967,-21
1658828961.88847,148314.8000997,-11
1658828961.88847,148314.8001029,23
1658828961.88847,148314.8001084,21
1658828961.88847,148314.8001119,16
1658828961.88847,148314.8001151,35
1658828961.88847,148314.8001184,61
1658828961.88847,148314.8001256,83
1658828961.88847,148314.8001323,102
1658828961.88847,148314.8001359,123
1658828961.88847,148314.8001395,147
1658828961.88847,148314.8001429,168
1658828961.88847,148314.8001462,189
1658828961.88847,148314.8001497,206
1658828961.88847,148314.8001536,211
1658828961.88847,148314.8001571,208
1658828961.88847,148314.8001607,196
1658828961.88847,148314.8001641,173
1658828961.88847,148314.8001676,156
1658828961.88847,148314.8001709,142
1658828961.88847,148314.8001745,113
1658828961.88847,148314.800178,80
1658828961.90074,148314.8001815,52
1658828961.90074,148314.800185,28
1658828961.90074,148314.8001885,14
1658828961.90074,148314.8001918,9
1658828961.90074,148314.8001952,14
1658828961.90074,148314.8001985,14
1658828961.90074,148314.800202,11
1658828961.90074,148314.8002064,14
1658828961.90074,148314.8002108,18
1658828961.90074,148314.8002141,28
1658828961.90074,148314.8002173,40
1658828961.90074,148314.800236,52
1658828961.90074,148314.800241,61
1658828961.90074,148314.8002444,64
1658828961.90074,148314.8002668,64
1658828961.90074,148315.4340161,68
1658828961.90074,148315.4340346,75
1658828961.90074,148315.4340449,80
1658828961.90074,148315.4340538,85
1658828961.90074,148315.4340611,80
1658828961.90074,148315.4340888,61
1658828961.90074,148315.4341668,52
1658828961.90074,148315.4341765,54
1658828961.90074,148315.4341818,59
1658828962.42313,148315.4341848,56
1658828962.42313,148315.4341876,52
1658828962.42313,148315.4341904,42
1658828962.42313,148315.4341932,26
1658828962.42313,148315.4341959,11
1658828962.42313,148315.4341986,14
1658828962.42313,148315.4342014,21
1658828962.42313,148315.4342041,18
1658828962.42313,148315.4342069,18
1658828962.42313,148315.4342097,35
1658828962.42313,148315.4342125,59
1658828962.42313,148315.4342152,66
1658828962.42313,148315.4342179,56
1658828962.42313,148315.4342207,49
1658828962.42313,148315.4342234,49
1658828962.42313,148315.4342268,49
1658828962.42313,148315.4342295,47
1658828962.42313,148315.4342323,47
1658828962.42313,148315.434235,37
1658828962.42313,148315.4342379,-16
1658828962.42313,148315.4342407,-68
1658828962.42313,148315.4342435,75
1658828962.42313,148315.4342462,488
1658828962.42313,148315.4342489,910
1658828962.42313,148315.4342533,1020
1658828962.42313,148315.4342593,578
1658828962.42313,148315.4342627,-111
1658828962.42313,148315.4342656,-230
1658828962.42313,148315.4342684,35
1658828962.42313,148315.4342713,7
1658828962.42313,148315.434274,-71
1658828962.42313,148315.4342768,14
1658828962.42313,148315.4342796,23
1658828962.42313,148315.4342824,-14
1658828962.42313,148315.4342851,14
1658828962.42313,148315.4342879,37
1658828962.42313,148315.4342906,37
1658828962.42313,148315.4342934,54
1658828962.42313,148315.4342968,75
1658828962.42313,148315.4342996,90
1658828962.42313,148315.4343023,109
1658828962.42313,148315.4343051,132
1658828962.42313,148315.4343078,151
1658828962.42313,148315.4343106,173
1658828962.42313,148315.4343133,196
1658828962.42313,148315.434316,215
1658828962.42313,148315.4343192,222
1658828962.42313,148315.4343219,222
1658828962.42313,148315.4343247,211
1658828962.42313,148315.434329,196
1658828962.4351,148315.4343319,185
1658828962.4351,148315.4343348,173
1658828962.4351,148315.4343377,149
1658828962.4351,148315.4343407,120
1658828962.4351,148315.4343438,85
1658828962.4351,148315.4343474,54
1658828962.4351,148315.4343508,35
1658828962.4351,148315.4343542,28
1658828962.4351,148315.4343574,26
1658828962.4351,148315.4343606,21
1658828962.4351,148315.4343638,16
1658828962.4351,148315.4343669,21
1658828962.4351,148315.43437,26
1658828962.4351,148315.4343732,30
1658828962.4351,148315.9699118,42
1658828962.4351,148315.9699296,56
1658828962.4351,148315.9699345,61
1658828962.4351,148315.9699386,61
1658828962.4351,148315.9699768,68
1658828962.4351,148315.9699873,78
1658828962.4351,148315.9699947,80
1658828962.4351,148315.9700138,85
1658828962.4351,148315.9700204,78
1658828962.4351,148315.9700253,59
1658828962.95457,148315.9700305,56
1658828962.95457,148315.9700356,66
1658828962.95457,148315.9700403,61
1658828962.95457,148315.9700438,52
1658828962.95457,148315.970047,45
1658828962.95457,148315.9700504,23
1658828962.95457,148315.9700538,11
1658828962.95457,148315.9700572,16
1658828962.95457,148315.9700613,18
1658828962.95457,148315.9700645,14
1658828962.95457,148315.9700678,21
1658828962.95457,148315.9700709,30
1658828962.95457,148315.970074,35
1658828962.95457,148315.9700773,35
1658828962.95457,148315.9700806,26
1658828962.95457,148315.9700993,18
1658828962.95457,148315.9701057,21
1658828962.95457,148315.9701092,21
1658828962.95457,148315.9701124,16
1658828962.95457,148315.9701157,18
1658828962.95457,148315.9701191,4
1658828962.95457,148315.9701224,-64
1658828962.95457,148315.9701256,-75
1658828962.95457,148315.9701287,173
1658828962.95457,148315.9701319,614
1658828962.95457,148315.9701366,929
1658828962.95457,148315.9701396,825
1658828962.95457,148315.9701427,225
1658828962.95457,148315.9701459,-244
1658828962.95457,148315.9701497,-87
1658828962.95457,148315.9701532,71
1658828962.95457,148315.970159,-45
1658828962.95457,148315.9701643,-33
1658828962.95457,148315.9701694,40
1658828962.95457,148315.9701727,9
1658828962.95457,148315.9701761,0
1658828962.95457,148315.9701794,33
1658828962.95457,148315.9701843,42
1658828962.95457,148315.9701906,45
1658828962.95457,148315.9701958,68
1658828962.95457,148315.9702007,83
1658828962.95457,148315.9702041,97
1658828962.95457,148315.9702076,120
1658828962.95457,148315.9702109,144
1658828962.95457,148315.9702143,158
1658828962.95457,148315.9702195,180
1658828962.95457,148315.970224,201
1658828962.95457,148315.970229,211
1658828962.95457,148315.9702332,213
1658828962.95457,148315.9702367,206
1658828962.96554,148315.9702402,194
1658828962.96554,148315.9702439,180
1658828962.96554,148315.9702494,170
1658828962.96554,148315.9702531,147
1658828962.96554,148315.9702615,118
1658828962.96554,148315.970266,90
1658828962.96554,148315.9702697,61
1658828962.96554,148315.9702735,42
1658828962.96554,148315.9702789,30
1658828962.96554,148315.9702826,21
1658828962.96554,148315.9702864,18
1658828962.96554,148315.9702901,23
1658828962.96554,148315.9702933,23
1658828962.96554,148316.5077688,21
1658828962.96554,148316.5077819,28
1658828962.96554,148316.5077873,37
1658828962.96554,148316.5077921,47
1658828962.96554,148316.507795,56
1658828962.96554,148316.507798,64
1658828962.96554,148316.5078008,66
1658828962.96554,148316.5078036,71
1658828962.96554,148316.5078063,78
1658828962.96554,148316.507809,83
1658828962.96554,148316.5078117,85
1658828963.54363,148316.5078144,78
1658828963.54363,148316.507817,61
1658828963.54363,148316.5078195,45
1658828963.54363,148316.5078221,35
1658828963.54363,148316.5078246,28
1658828963.54363,148316.5078273,28
1658828963.54363,148316.5078298,28
1658828963.54363,148316.5078325,16
1658828963.54363,148316.5078351,2
1658828963.54363,148316.5078377,7
1658828963.54363,148316.5078403,16
1658828963.54363,148316.5078429,28
1658828963.54363,148316.5078454,45
1658828963.54363,148316.507848,45
1658828963.54363,148316.5078551,30
1658828963.54363,148316.5078674,26
1658828963.54363,148316.5078777,28
1658828963.54363,148316.5078837,33
1658828963.54363,148316.5078874,42
1658828963.54363,148316.5078924,45
1658828963.54363,148316.5078976,35
1658828963.54363,148316.5079027,-21
1658828963.54363,148316.5079069,-90
1658828963.54363,148316.5079103,33
1658828963.54363,148316.5079137,438
1658828963.54363,148316.5079171,854
1658828963.54363,148316.5079217,956
1658828963.54363,148316.5079253,531
1658828963.54363,148316.5079305,-111
1658828963.54363,148316.5079364,-194
1658828963.54363,148316.5079398,54
1658828963.54363,148316.5079434,16
1658828963.54363,148316.5079485,-56
1658828963.54363,148316.5079528,9
1658828963.54363,148316.5079578,9
1658828963.54363,148316.5079615,-18
1658828963.54363,148316.5079647,9
1658828963.54363,148316.5079682,30
1658828963.54363,148316.5079719,26
1658828963.54363,148316.507977,37
1658828963.54363,148316.5079804,59
1658828963.54363,148316.5079855,78
1658828963.54363,148316.507989,94
1658828963.54363,148316.5079925,116
1658828963.54363,148316.507996,142
1658828963.54363,148316.5079995,158
1658828963.54363,148316.5080047,173
1658828963.54363,148316.5080093,192
1658828963.54363,148316.5080143,201
1658828963.54363,148316.508018,194
1658828963.5536,148316.5080217,187
1658828963.5536,148316.5080252,175
1658828963.5536,148316.5080287,156
1658828963.5536,148316.5080337,142
1658828963.5536,148316.508038,123
1658828963.5536,148316.508043,94
1658828963.5536,148316.5080475,66
1658828963.5536,148316.508051,42
1658828963.5536,148316.5080543,28
1658828963.5536,148316.5080577,21
1658828963.5536,148316.5080624,16
1658828963.5536,148316.5080657,18
1658828963.5536,148317.0906069,16
1658828963.5536,148317.0906252,16
1658828963.5536,148317.0906343,21
1658828963.5536,148317.0906449,33
1658828963.5536,148317.0906519,37
1658828963.5536,148317.0906577,35
1658828963.5536,148317.0906642,40
1658828963.5536,148317.0906684,40
1658828963.5536,148317.0906757,26
1658828963.5536,148317.0906796,16
1658828963.5536,148317.0906846,21
1658828963.5536,148317.0906903,30
1658828964.07766,148317.0906967,33
1658828964.07766,148317.090701,30
1658828964.07766,148317.0907049,28
1658828964.07766,148317.0907092,18
1658828964.07766,148317.0907132,16
1658828964.07766,148317.090717,28
1658828964.07766,148317.0907208,33
1658828964.07766,148317.0907246,23
1658828964.07766,148317.0907285,21
1658828964.07766,148317.0907323,18
1658828964.07766,148317.0907362,21
1658828964.07766,148317.0907414,42
1658828964.07766,148317.0907455,54
1658828964.07766,148317.0907494,45
1658828964.07766,148317.0907532,35
1658828964.07766,148317.0907585,37
1658828964.07766,148317.0907636,45
1658828964.07766,148317.0907687,49
1658828964.07766,148317.0907748,56
1658828964.07766,148317.0907803,56
1658828964.07766,148317.0907853,18
1658828964.07766,148317.090791,-68
1658828964.07766,148317.0907958,-33
1658828964.07766,148317.0908013,296
1658828964.07766,148317.0908051,740
1658828964.07766,148317.0908103,977
1658828964.07766,148317.0908141,747
1658828964.07766,148317.090819,94
1658828964.07766,148317.0908234,-222
1658828964.07766,148317.0908285,4
1658828964.07766,148317.0908341,75
1658828964.07766,148317.0908377,-37
1658828964.07766,148317.0908413,2
1658828964.07766,148317.090845,40
1658828964.07766,148317.0908506,-2
1658828964.07766,148317.0908556,2
1658828964.07766,148317.0908594,33
1658828964.07766,148317.090863,33
1658828964.07766,148317.0908667,42
1658828964.07766,148317.0908704,66
1658828964.07766,148317.0908744,73
1658828964.07766,148317.0908796,85
1658828964.07766,148317.0909079,106
1658828964.07766,148317.0909179,128
1658828964.07766,148317.0909233,149
1658828964.07766,148317.0909299,173
1658828964.07766,148317.0909337,182
1658828964.07766,148317.0909391,185
1658828964.07766,148317.0909463,187
1658828964.07766,148317.0909524,180
1658828964.08863,148317.0909567,163
1658828964.08863,148317.0909632,151
1658828964.08863,148317.0909674,144
1658828964.08863,148317.0909712,125
1658828964.08863,148317.0909782,94
1658828964.08863,148317.0909867,66
1658828964.08863,148317.0909955,42
1658828964.08863,148317.0910033,23
1658828964.08863,148317.0910106,14
1658828964.08863,148317.0910172,9
1658828964.08863,148317.0910209,0
1658828964.08863,148317.628166,-7
1658828964.08863,148317.628184,-4
1658828964.08863,148317.6281885,4
1658828964.08863,148317.6281944,11
1658828964.08863,148317.6281987,23
1658828964.08863,148317.6282043,30
1658828964.08863,148317.628208,33
1658828964.08863,148317.628212,42
1658828964.08863,148317.6282185,54
1658828964.08863,148317.6282247,59
1658828964.08863,148317.6282289,59
1658828964.08863,148317.6282791,54
1658828964.08863,148317.6282873,42
1658828964.61548,148317.6283011,37
1658828964.61548,148317.6283134,45
1658828964.61548,148317.6283186,40
1658828964.61548,148317.6283223,37
1658828964.61548,148317.6283263,35
1658828964.61548,148317.62833,18
1658828964.61548,148317.6283335,9
1658828964.61548,148317.6283371,16
1658828964.61548,148317.6283406,21
1658828964.61548,148317.628344,26
1658828964.61548,148317.6283475,45
1658828964.61548,148317.628351,59
1658828964.61548,148317.6283544,54
1658828964.61548,148317.628358,47
1658828964.61548,148317.6283614,40
1658828964.61548,148317.628365,40
1658828964.61548,148317.6283685,45
1658828964.61548,148317.6283719,49
1658828964.61548,148317.6283754,49
1658828964.61548,148317.6283788,40
1658828964.61548,148317.6283823,-26
1658828964.61548,148317.6283858,-78
1658828964.61548,148317.6283892,120
1658828964.61548,148317.6283927,566
1658828964.61548,148317.6283962,932
1658828964.61548,148317.6283996,922
1658828964.61548,148317.628403,396
1658828964.61548,148317.6284065,-156
1658828964.61548,148317.6284099,-97
1658828964.61548,148317.6284134,106
1658828964.61548,148317.6284168,16
1658828964.61548,148317.6284203,-14
1658828964.61548,148317.6284237,56
1658828964.61548,148317.6284271,45
1658828964.61548,148317.6284305,23
1658828964.61548,148317.6284339,52
1658828964.61548,148317.6284373,64
1658828964.61548,148317.6284407,61

1658828964.61548,148317.6284442,78
1658828964.61548,148317.6284476,94
1658828964.61548,148317.628451,104
1658828964.61548,148317.6284544,118
1658828964.61548,148317.6284579,137
1658828964.61548,148317.6284613,149
1658828964.61548,148317.6284647,161
1658828964.61548,148317.6284682,177
1658828964.61548,148317.6284718,185
1658828964.61548,148317.6284752,175
1658828964.61548,148317.6284787,166
1658828964.61548,148317.6284822,156
1658828964.62644,148317.6284857,142
1658828964.62644,148317.6284891,125
1658828964.62644,148317.6284925,104
1658828964.62644,148317.6284961,75
1658828964.62644,148317.6284995,47
1658828964.62644,148317.6285032,23
1658828964.62644,148317.6285066,4
1658828964.62644,148317.6285101,-4
1658828964.62644,148317.6285135,-9
1658828964.62644,148317.6285241,-16
1658828964.62644,148318.1635396,-16
1658828964.62644,148318.1635572,-9
1658828964.62644,148318.163567,-9
1658828964.62644,148318.1635738,-4
1658828964.62644,148318.1635806,9
1658828964.62644,148318.1635889,18
1658828964.62644,148318.1635959,28
1658828964.62644,148318.1636084,37
1658828964.62644,148318.1636199,35
1658828964.62644,148318.1636259,21
1658828964.62644,148318.1636292,26
1658828964.62644,148318.1636313,35
1658828964.62644,148318.1636333,33
1658828964.62644,148318.1636353,35
1658828965.19921,148318.1636375,35
1658828965.19921,148318.1636455,14
1658828965.19921,148318.163654,2
1658828965.19921,148318.1636612,9
1658828965.19921,148318.163668,9
1658828965.19921,148318.1636725,0
1658828965.19921,148318.1636771,2
1658828965.19921,148318.1636825,4
1658828965.19921,148318.1636876,14
1658828965.19921,148318.1636925,35
1658828965.19921,148318.1637015,49
1658828965.19921,148318.1637098,49
1658828965.19921,148318.1637199,42
1658828965.19921,148318.1637286,40
1658828965.19921,148318.1637312,42
1658828965.19921,148318.1637333,42
1658828965.19921,148318.1637354,49
1658828965.19921,148318.1637375,64
1658828965.19921,148318.1637395,42
1658828965.19921,148318.163747,-42
1658828965.19921,148318.1637577,-64
1658828965.19921,148318.163762,185
1658828965.19921,148318.1637641,633
1658828965.19921,148318.1637662,958
1658828965.19921,148318.1637725,875
1658828965.19921,148318.1637833,279
1658828965.19921,148318.1637882,-199
1658828965.19921,148318.1637903,-47
1658828965.19921,148318.1637924,123
1658828965.19921,148318.163795,18
1658828965.19921,148318.1638054,16
1658828965.19921,148318.163813,78
1658828965.19921,148318.1638156,52
1658828965.19921,148318.1638177,40
1658828965.19921,148318.1638197,71
1658828965.19921,148318.1638218,83
1658828965.19921,148318.1638297,78
1658828965.19921,148318.1638429,85
1658828965.19921,148318.1638575,99
1658828965.19921,148318.1638706,109
1658828965.19921,148318.1638837,123
1658828965.19921,148318.1638969,147
1658828965.19921,148318.16391,168
1658828965.19921,148318.1639231,185
1658828965.19921,148318.1639362,192
1658828965.19921,148318.1639496,187
1658828965.19921,148318.1639627,177
1658828965.19921,148318.1639759,173
1658828965.19921,148318.163989,158
1658828965.19921,148318.1640021,139
1658828965.20918,148318.1640151,120
1658828965.20918,148318.1640279,99
1658828965.20918,148318.164041,73
1658828965.20918,148318.164056,47
1658828965.20918,148318.1640683,26
1658828965.20918,148318.1640765,7
1658828965.20918,148318.164081,-4
1658828965.20918,148318.1640851,-14
1658828965.20918,148318.164089,-18
1658828965.20918,148318.7482235,-16
1658828965.20918,148318.7482415,-9
1658828965.20918,148318.7482515,-7
1658828965.20918,148318.7482615,0
1658828965.20918,148318.7482682,9
1658828965.20918,148318.7482734,7
1658828965.20918,148318.7482818,0
1658828965.20918,148318.7482879,11
1658828965.20918,148318.7482944,26
1658828965.20918,148318.7483036,23
1658828965.20918,148318.7483072,16
1658828965.20918,148318.7483095,11
1658828965.20918,148318.7483114,2
1658828965.20918,148318.7483133,0
1658828965.20918,148318.7483152,9
1658828965.83247,148318.7483171,11
1658828965.83247,148318.748319,4
1658828965.83247,148318.7483216,2
1658828965.83247,148318.7483235,7
1658828965.83247,148318.7483254,9
1658828965.83247,148318.7483272,9
1658828965.83247,148318.7483291,14
1658828965.83247,148318.748331,23
1658828965.83247,148318.7483328,42
1658828965.83247,148318.7483348,59
1658828965.83247,148318.7483388,59
1658828965.83247,148318.7483466,52
1658828965.83247,148318.7483525,42
1658828965.83247,148318.748357,45
1658828965.83247,148318.7483623,56
1658828965.83247,148318.7483679,64
1658828965.83247,148318.7483744,66
1658828965.83247,148318.7483838,54
1658828965.83247,148318.7483919,-14
1658828965.83247,148318.7483992,-54
1658828965.83247,148318.7484066,158
1658828965.83247,148318.7484133,595
1658828965.83247,148318.7484198,937
1658828965.83247,148318.7484305,901
1658828965.83247,148318.7484427,346
1658828965.83247,148318.7484486,-192
1658828965.83247,148318.7484582,-80
1658828965.83247,148318.7484651,128
1658828965.83247,148318.7484763,21
1658828965.83247,148318.7484799,2
1658828965.83247,148318.748488,78
1658828965.83247,148318.748498,56
1658828965.83247,148318.7485086,42
1658828965.83247,148318.7485121,78
1658828965.83247,148318.7485156,85
1658828965.83247,148318.7485275,83
1658828965.83247,148318.7485387,94
1658828965.83247,148318.7485418,104
1658828965.83247,148318.748544,116
1658828965.83247,148318.7485501,142
1658828965.83247,148318.7485633,166
1658828965.83247,148318.7485727,177
1658828965.83247,148318.7485752,189
1658828965.83247,148318.7485812,206
1658828965.83247,148318.7485943,215
1658828965.83247,148318.7486024,218
1658828965.83247,148318.7486049,213
1658828965.83247,148318.7486078,199
1658828965.83247,148318.7486161,180
1658828965.83247,148318.7486285,163
1658828965.84023,148318.7486401,147
1658828965.84023,148318.7486533,118
1658828965.84023,148318.7486665,80
1658828965.84023,148318.7486794,54
1658828965.84023,148318.7486924,26
1658828965.84023,148318.7487175,0
1658828965.84023,148318.7487339,-4
1658828965.84023,148318.7487431,-4
1658828965.84023,148319.3820187,-14
1658828965.84023,148319.3820299,-23
1658828965.84023,148319.3820324,-26
1658828965.84023,148319.3820344,-26
1658828965.84023,148319.3820387,-14
1658828965.84023,148319.3820408,4
1658828965.84023,148319.3820438,16
1658828965.84023,148319.3820552,16
1658828965.84023,148319.3820612,11
1658828965.84023,148319.3820667,7
1658828965.84023,148319.3820702,9
1658828965.84023,148319.3820751,16
1658828965.84023,148319.3820813,18
1658828965.84023,148319.3820872,23
1658828965.84023,148319.3820938,18
1658828965.84023,148319.3821005,-9
1658828966.36572,148319.382106,-21
1658828966.36572,148319.3821097,0
1658828966.36572,148319.3821131,7
1658828966.36572,148319.3821169,-7
1658828966.36572,148319.3821204,0
1658828966.36572,148319.3821239,21
1658828966.36572,148319.3821278,33
1658828966.36572,148319.3821334,35
1658828966.36572,148319.3821392,28
1658828966.36572,148319.3821453,33
1658828966.36572,148319.3821497,45
1658828966.36572,148319.3821572,42
1658828966.36572,148319.3821635,37
1658828966.36572,148319.3821662,47
1658828966.36572,148319.3821682,49
1658828966.36572,148319.3821703,11
1658828966.36572,148319.3821723,-40
1658828966.36572,148319.3821743,66
1658828966.36572,148319.3821765,408
1658828966.36572,148319.3821833,749
1658828966.36572,148319.3821945,825
1658828966.36572,148319.3821976,438
1658828966.36572,148319.3821999,-147
1658828966.36572,148319.382202,-185
1658828966.36572,148319.3822042,104
1658828966.36572,148319.3822064,71
1658828966.36572,148319.3822084,-11
1658828966.36572,148319.3822276,61
1658828966.36572,148319.3822374,64
1658828966.36572,148319.3822463,30
1658828966.36572,148319.3822528,56
1658828966.36572,148319.382261,78
1658828966.36572,148319.3822674,73
1658828966.36572,148319.3822744,92
1658828966.36572,148319.3822795,113
1658828966.36572,148319.3822848,128
1658828966.36572,148319.3822888,151
1658828966.36572,148319.3822934,175
1658828966.36572,148319.382299,192
1658828966.36572,148319.3823032,218
1658828966.36572,148319.3823086,241
1658828966.36572,148319.382313,256
1658828966.36572,148319.3823187,260
1658828966.36572,148319.3823264,246
1658828966.36572,148319.382331,230
1658828966.36572,148319.3823352,220
1658828966.36572,148319.3823395,199
1658828966.36572,148319.3823436,168
1658828966.36572,148319.3823497,137
1658828966.36572,148319.3823543,94
1658828966.37369,148319.3823607,47
1658828966.37369,148319.3823651,26
1658828966.37369,148319.3823695,14
1658828966.37369,148319.3823735,4
1658828966.37369,148319.3823778,0
1658828966.37369,148319.3823845,-4
1658828966.37369,148319.3823892,-11
1658828966.37369,148319.9189543,-11
1658828966.37369,148319.9189709,-9
1658828966.37369,148319.918975,-7
1658828966.37369,148319.9189784,-2
1658828966.37369,148319.9189819,7
1658828966.37369,148319.9189851,14
1658828966.37369,148319.9189884,26
1658828966.37369,148319.9189926,33
1658828966.37369,148319.9189959,30
1658828966.37369,148319.9190009,35
1658828966.37369,148319.919008,47
1658828966.37369,148319.9190134,33
1658828966.37369,148319.9190201,7
1658828966.37369,148319.9190238,11
1658828966.37369,148319.9190292,23
1658828966.37369,148319.9190358,23
1658828966.37369,148319.9190406,16
1658828966.95639,148319.9190474,4
1658828966.95639,148319.9190543,0
1658828966.95639,148319.9190613,11
1658828966.95639,148319.9190681,26
1658828966.95639,148319.9190768,26
1658828966.95639,148319.9190875,21
1658828966.95639,148319.9190954,23
1658828966.95639,148319.919101,18
1658828966.95639,148319.9191058,16
1658828966.95639,148319.91912,26
1658828966.95639,148319.919132,37
1658828966.95639,148319.919142,26
1658828966.95639,148319.9191548,-30
1658828966.95639,148319.919168,-59
1658828966.95639,148319.919181,104
1658828966.95639,148319.919194,450
1658828966.95639,148319.919207,744
1658828966.95639,148319.9192199,756
1658828966.95639,148319.9192322,294
1658828966.95639,148319.9192415,-225
1658828966.95639,148319.9192492,-132
1658828966.95639,148319.9192559,109
1658828966.95639,148319.9192633,18
1658828966.95639,148319.91927,-18
1658828966.95639,148319.9192734,61
1658828966.95639,148319.9192766,52
1658828966.95639,148319.9192815,28
1658828966.95639,148319.9193025,59
1658828966.95639,148319.9193157,73
1658828966.95639,148319.9193251,73
1658828966.95639,148319.9193298,94
1658828966.95639,148319.919334,118
1658828966.95639,148319.9193383,128
1658828966.95639,148319.9193427,137
1658828966.95639,148319.9193483,161
1658828966.95639,148319.919353,189
1658828966.95639,148319.9193572,211
1658828966.95639,148319.9193655,227
1658828966.95639,148319.9193716,239
1658828966.95639,148319.9193777,234
1658828966.95639,148319.919385,213
1658828966.95639,148319.9193902,201
1658828966.95639,148319.9193939,187
1658828966.95639,148319.9193999,166
1658828966.95639,148319.9194042,139
1658828966.95639,148319.9194082,109
1658828966.95639,148319.9194119,73
1658828966.95639,148319.9194156,45
1658828966.95639,148319.9194192,23
1658828966.95639,148319.9194229,14
1658828966.96537,148319.9194285,9
1658828966.96537,148319.919433,0
1658828966.96537,148319.9194384,-7
1658828966.96537,148319.9194424,-2
1658828966.96537,148319.9194463,7
1658828966.96537,148319.9194517,11
1658828966.96537,148320.5044905,14
1658828966.96537,148320.5045095,21
1658828966.96537,148320.5045249,26
1658828966.96537,148320.5045401,30
1658828966.96537,148320.5045492,35
1658828966.96537,148320.5045517,37
1658828966.96537,148320.5045669,37
1658828966.96537,148320.5045688,37
1658828966.96537,148320.5045712,26
1658828966.96537,148320.5045908,7
1658828966.96537,148320.5046003,4
1658828966.96537,148320.504606,11
1658828966.96537,148320.5046082,14
1658828966.96537,148320.5046101,11
1658828966.96537,148320.5046129,7
1658828966.96537,148320.5046149,2
1658828966.96537,148320.5046212,4
1658828966.96537,148320.5046324,26
1658828967.48691,148320.504636,42
1658828967.48691,148320.5046381,42
1658828967.48691,148320.50464,30
1658828967.48691,148320.504642,11
1658828967.48691,148320.5046439,2
1658828967.48691,148320.5046459,14
1658828967.48691,148320.5046478,26
1658828967.48691,148320.5046497,23
1658828967.48691,148320.5046516,9
1658828967.48691,148320.5046537,-56
1658828967.48691,148320.5046556,-118
1658828967.48691,148320.5046575,45
1658828967.48691,148320.5046595,450
1658828967.48691,148320.5046614,816
1658828967.48691,148320.5046645,872
1658828967.48691,148320.5046671,403
1658828967.48691,148320.5046715,-182
1658828967.48691,148320.5046784,-158
1658828967.48691,148320.5046822,87
1658828967.48691,148320.5046852,18
1658828967.48691,148320.5046881,-30
1658828967.48691,148320.504691,45
1658828967.48691,148320.504694,40
1658828967.48691,148320.5047015,16
1658828967.48691,148320.504712,47
1658828967.48691,148320.5047155,66
1658828967.48691,148320.5047191,64
1658828967.48691,148320.5047221,83
1658828967.48691,148320.5047333,104
1658828967.48691,148320.50474,109
1658828967.48691,148320.5047424,120
1658828967.48691,148320.5047445,144
1658828967.48691,148320.5047466,168
1658828967.48691,148320.5047486,189
1658828967.48691,148320.5047507,206
1658828967.48691,148320.5047586,208
1658828967.48691,148320.504769,208
1658828967.48691,148320.5047725,201
1658828967.48691,148320.504776,189
1658828967.48691,148320.5047786,173
1658828967.48691,148320.5047885,154
1658828967.48691,148320.5047976,135
1658828967.48691,148320.5048001,106
1658828967.48691,148320.5048023,73
1658828967.48691,148320.5048043,49
1658828967.48691,148320.5048077,35
1658828967.48691,148320.5048209,23
1658828967.48691,148320.5048268,11
1658828967.48691,148320.5048292,0
1658828967.48691,148320.5048313,0
1658828967.49689,148320.5048334,4
1658828967.49689,148320.5048355,9
1658828967.49689,148320.5048416,16
1658828967.49689,148320.5048529,26
1658828967.49689,148320.504858,26
1658828967.49689,148321.0401366,30
1658828967.49689,148321.0401539,42
1658828967.49689,148321.0401639,54
1658828967.49689,148321.0401696,54
1658828967.49689,148321.0401767,52
1658828967.49689,148321.0401836,47
1658828967.49689,148321.0401923,37
1658828967.49689,148321.0401979,35
1658828967.49689,148321.0402084,35
1658828967.49689,148321.040212,28
1658828967.49689,148321.040215,23
1658828967.49689,148321.0402179,21
1658828967.49689,148321.0402208,18
1658828967.49689,148321.0402265,18
1658828967.49689,148321.0402378,14
1658828967.49689,148321.0402432,16
1658828967.49689,148321.0402453,37
1658828967.49689,148321.0402473,52
1658828967.49689,148321.0402495,37
1658828967.97553,148321.0402571,23
1658828967.97553,148321.040266,23
1658828967.97553,148321.0402691,23
1658828967.97553,148321.0402719,21
1658828967.97553,148321.0402788,14
1658828967.97553,148321.0402856,2
1658828967.97553,148321.0402899,-7
1658828967.97553,148321.0402948,-52
1658828967.97553,148321.0403004,-132
1658828967.97553,148321.0403054,-68
1658828967.97553,148321.0403272,291
1658828967.97553,148321.0403393,737
1658828967.97553,148321.0403484,960
1658828967.97553,148321.0403546,676
1658828967.97553,148321.0403629,-9
1658828967.97553,148321.0403675,-268
1658828967.97553,148321.0403733,-4
1658828967.97553,148321.0403777,42
1658828967.97553,148321.0403835,-71
1658828967.97553,148321.0403879,-26
1658828967.97553,148321.0403937,11
1658828967.97553,148321.040398,-14
1658828967.97553,148321.0404047,4
1658828967.97553,148321.0404089,30
1658828967.97553,148321.0404146,30
1658828967.97553,148321.0404188,40
1658828967.97553,148321.0404255,61
1658828967.97553,148321.0404295,78
1658828967.97553,148321.0404347,99
1658828967.97553,148321.0404382,116
1658828967.97553,148321.0404419,135
1658828967.97553,148321.0404471,158
1658828967.97553,148321.0404515,180
1658828967.97553,148321.0404552,192
1658828967.97553,148321.0404587,196
1658828967.97553,148321.0404623,192
1658828967.97553,148321.0404676,177
1658828967.97553,148321.0404712,163
1658828967.97553,148321.040476,149
1658828967.97553,148321.0404795,137
1658828967.97553,148321.0404885,120
1658828967.97553,148321.0404963,94
1658828967.97553,148321.0405008,66
1658828967.97553,148321.0405042,45
1658828967.97553,148321.0405072,26
1658828967.97553,148321.0405099,21
1658828967.97553,148321.0405126,18
1658828967.97553,148321.0405161,11
1658828967.97553,148321.0405211,9
1658828967.97553,148321.0405297,9
1658828967.99248,148321.0405401,11
1658828967.99248,148321.0405527,16
1658828967.99248,148321.0405604,21
1658828967.99248,148321.0405667,28
1658828967.99248,148321.5276556,37
1658828967.99248,148321.527669,45
1658828967.99248,148321.5276716,47
1658828967.99248,148321.5276738,49
1658828967.99248,148321.527676,47
1658828967.99248,148321.5276781,42
1658828967.99248,148321.5276801,45
1658828967.99248,148321.5276821,45
1658828967.99248,148321.5276841,23
1658828967.99248,148321.5276862,7
1658828967.99248,148321.5276882,11
1658828967.99248,148321.5276902,9
1658828967.99248,148321.5276924,0
1658828967.99248,148321.5276946,0
1658828967.99248,148321.5276973,-4
1658828967.99248,148321.527703,-11
1658828967.99248,148321.5277128,-7
1658828967.99248,148321.5277184,2
1658828967.99248,148321.5277281,21
1658828967.99248,148321.5277349,52
1658828968.57131,148321.5277426,52
1658828968.57131,148321.5277515,18
1658828968.57131,148321.5277609,-4
1658828968.57131,148321.527765,0
1658828968.57131,148321.5277671,9
1658828968.57131,148321.527774,16
1658828968.57131,148321.5277856,28
1658828968.57131,148321.5277968,30
1658828968.57131,148321.5278067,0
1658828968.57131,148321.5278134,-78
1658828968.57131,148321.5278261,-92
1658828968.57131,148321.5278364,168
1658828968.57131,148321.5278421,645
1658828968.57131,148321.5278521,1008
1658828968.57131,148321.5278556,939
1658828968.57131,148321.5278582,306
1658828968.57131,148321.5278656,-244
1658828968.57131,148321.5278767,-111
1658828968.57131,148321.5278811,80
1658828968.57131,148321.5278849,-23
1658828968.57131,148321.5278981,-33
1658828968.57131,148321.5279084,30
1658828968.57131,148321.527919,11
1658828968.57131,148321.5279299,11
1658828968.57131,148321.5279386,47
1658828968.57131,148321.527948,56
1658828968.57131,148321.5279596,59
1658828968.57131,148321.5279685,75
1658828968.57131,148321.5279763,92
1658828968.57131,148321.5279827,109
1658828968.57131,148321.5279862,130
1658828968.57131,148321.5279883,154
1658828968.57131,148321.5279904,173
1658828968.57131,148321.5279924,187
1658828968.57131,148321.5279945,204
1658828968.57131,148321.5279965,215
1658828968.57131,148321.5279995,213
1658828968.57131,148321.5280102,204
1658828968.57131,148321.5280174,192
1658828968.57131,148321.5280202,173
1658828968.57131,148321.5280224,156
1658828968.57131,148321.5280245,139
1658828968.57131,148321.5280265,111
1658828968.57131,148321.5280343,85
1658828968.57131,148321.5280476,64
1658828968.57131,148321.5280619,40
1658828968.57131,148321.5280757,18
1658828968.57131,148321.5280888,11
1658828968.57131,148321.5281221,9
1658828968.57131,148321.5281423,7
1658828968.58627,148321.528149,7
1658828968.58627,148321.5281535,9
1658828968.58627,148321.5281578,11
1658828968.58627,148322.1146645,23
1658828968.58627,148322.1146899,37
1658828968.58627,148322.1146927,47
1658828968.58627,148322.114695,49
1658828968.58627,148322.114697,42
1658828968.58627,148322.1146992,33
1658828968.58627,148322.1147012,23
1658828968.58627,148322.1147032,16
1658828968.58627,148322.1147054,9
1658828968.58627,148322.1147074,7
1658828968.58627,148322.1147094,7
1658828968.58627,148322.1147115,-7
1658828968.58627,148322.1147136,-23
1658828968.58627,148322.1147156,-21
1658828968.58627,148322.1147176,-14
1658828968.58627,148322.1147196,-18
1658828968.58627,148322.1147216,-30
1658828968.58627,148322.1147236,-30
1658828968.58627,148322.1147257,-26
1658828968.58627,148322.1147278,-21
1658828968.58627,148322.1147298,-18
1658828969.14402,148322.1147319,-18
1658828969.14402,148322.1147339,0
1658828969.14402,148322.1147359,35
1658828969.14402,148322.1147378,40
1658828969.14402,148322.1147397,16
1658828969.14402,148322.1147416,11
1658828969.14402,148322.1147434,16
1658828969.14402,148322.1147453,21
1658828969.14402,148322.1147472,28
1658828969.14402,148322.1147491,35
1658828969.14402,148322.114751,42
1658828969.14402,148322.1147534,26
1658828969.14402,148322.1147586,-37
1658828969.14402,148322.1147657,-42
1658828969.14402,148322.1147701,225
1658828969.14402,148322.1147768,697
1658828969.14402,148322.1147824,1034
1658828969.14402,148322.1147901,951
1658828969.14402,148322.1147948,313
1658828969.14402,148322.1148052,-251
1658828969.14402,148322.1148101,-106
1658828969.14402,148322.114814,109
1658828969.14402,148322.1148178,-7
1658828969.14402,148322.11482,-23
1658828969.14402,148322.1148221,61
1658828969.14402,148322.1148241,40
1658828969.14402,148322.1148261,21
1658828969.14402,148322.1148281,61
1658828969.14402,148322.1148301,78
1658828969.14402,148322.1148321,78
1658828969.14402,148322.1148342,99
1658828969.14402,148322.1148362,111
1658828969.14402,148322.1148382,113
1658828969.14402,148322.1148401,137
1658828969.14402,148322.1148422,168
1658828969.14402,148322.1148442,185
1658828969.14402,148322.1148462,204
1658828969.14402,148322.1148482,227
1658828969.14402,148322.1148502,234
1658828969.14402,148322.1148523,232
1658828969.14402,148322.1148543,227
1658828969.14402,148322.1148563,208
1658828969.14402,148322.1148583,189
1658828969.14402,148322.1148603,180
1658828969.14402,148322.1148623,163
1658828969.14402,148322.1148643,130
1658828969.14402,148322.1148663,90
1658828969.14402,148322.1148683,61
1658828969.14402,148322.1148703,37
1658828969.14402,148322.1148724,16
1658828969.15399,148322.1148744,11
1658828969.15399,148322.1148765,9
1658828969.15399,148322.6979996,-2
1658828969.15399,148322.698021,-21
1658828969.15399,148322.6980353,-21
1658828969.15399,148322.6980439,-9
1658828969.15399,148322.6980511,-4
1658828969.15399,148322.6980615,2
1658828969.15399,148322.6980682,9
1658828969.15399,148322.698073,7
1658828969.15399,148322.6980801,0
1658828969.15399,148322.6980866,-4
1658828969.15399,148322.6980972,-2
1658828969.15399,148322.6981065,2
1658828969.15399,148322.6981092,2
1658828969.15399,148322.6981115,2
1658828969.15399,148322.6981137,2
1658828969.15399,148322.6981158,0
1658828969.15399,148322.6981179,2
1658828969.15399,148322.6981201,9
1658828969.15399,148322.6981223,9
1658828969.15399,148322.6981243,7
1658828969.15399,148322.6981265,-2
1658828969.15399,148322.6981286,-21
1658828969.68586,148322.6981307,-26
1658828969.68586,148322.6981327,-16
1658828969.68586,148322.6981346,-14
1658828969.68586,148322.6981366,-9
1658828969.68586,148322.6981385,7
1658828969.68586,148322.6981405,30
1658828969.68586,148322.6981424,45
1658828969.68586,148322.6981443,37
1658828969.68586,148322.6981462,28
1658828969.68586,148322.6981482,30
1658828969.68586,148322.6981501,40
1658828969.68586,148322.698152,40
1658828969.68586,148322.698154,37
1658828969.68586,148322.6981559,52
1658828969.68586,148322.6981588,47
1658828969.68586,148322.6981677,0
1658828969.68586,148322.6981778,2
1658828969.68586,148322.6981813,218
1658828969.68586,148322.6981851,614
1658828969.68586,148322.6981871,920
1658828969.68586,148322.6981892,877
1658828969.68586,148322.6981912,317
1658828969.68586,148322.6981933,-249
1658828969.68586,148322.6981953,-125
1658828969.68586,148322.6981974,132
1658828969.68586,148322.6981995,21
1658828969.68586,148322.6982016,-21
1658828969.68586,148322.6982036,71
1658828969.68586,148322.6982057,59
1658828969.68586,148322.6982078,37
1658828969.68586,148322.6982099,75
1658828969.68586,148322.6982119,90
1658828969.68586,148322.698214,87
1658828969.68586,148322.6982161,111
1658828969.68586,148322.6982181,137
1658828969.68586,148322.6982201,149
1658828969.68586,148322.6982221,166
1658828969.68586,148322.6982242,189
1658828969.68586,148322.6982264,211
1658828969.68586,148322.6982285,232
1658828969.68586,148322.6982305,256
1658828969.68586,148322.6982326,272
1658828969.68586,148322.6982346,272
1658828969.68586,148322.6982366,265
1658828969.68586,148322.6982387,241
1658828969.68586,148322.6982408,206
1658828969.68586,148322.6982429,185
1658828969.68586,148322.6982449,170
1658828969.68586,148322.698247,132
1658828969.68586,148322.698249,85
1658828969.70581,148322.6982512,54
1658828969.70581,148323.2355346,35
1658828969.70581,148323.2355876,9
1658828969.70581,148323.2355953,-4
1658828969.70581,148323.2356022,-14
1658828969.70581,148323.2356115,-28
1658828969.70581,148323.2356185,-35
1658828969.70581,148323.2356256,-35
1658828969.70581,148323.2356326,-33
1658828969.70581,148323.2356394,-21
1658828969.70581,148323.2356434,-9
1658828969.70581,148323.2356471,-4
1658828969.70581,148323.2356507,-4
1658828969.70581,148323.2356545,-11
1658828969.70581,148323.2356583,-11
1658828969.70581,148323.235662,0
1658828969.70581,148323.2356657,7
1658828969.70581,148323.2356693,16
1658828969.70581,148323.2356731,16
1658828969.70581,148323.2356769,0
1658828969.70581,148323.2356804,-7
1658828969.70581,148323.2356839,-2
1658828969.70581,148323.2356881,-7
1658828969.70581,148323.2356951,-11
1658828970.27509,148323.2357021,-9
1658828970.27509,148323.235709,-7
1658828970.27509,148323.2357159,0
1658828970.27509,148323.2357226,0
1658828970.27509,148323.2357265,-11
1658828970.27509,148323.2357303,-7
1658828970.27509,148323.2357339,16
1658828970.27509,148323.2357376,42
1658828970.27509,148323.2357412,49
1658828970.27509,148323.2357448,37
1658828970.27509,148323.2357484,28
1658828970.27509,148323.2357519,33
1658828970.27509,148323.2357554,26
1658828970.27509,148323.2357938,16
1658828970.27509,148323.2358003,26
1658828970.27509,148323.2358047,47
1658828970.27509,148323.2358088,42
1658828970.27509,148323.235813,4
1658828970.27509,148323.2358172,47
1658828970.27509,148323.2358212,301
1658828970.27509,148323.2363373,638
1658828970.27509,148323.2363503,825
1658828970.27509,148323.236355,678
1658828970.27509,148323.2363589,113
1658828970.27509,148323.236363,-260
1658828970.27509,148323.2363673,-7
1658828970.27509,148323.236372,144
1658828970.27509,148323.2363769,-9
1658828970.27509,148323.2363814,11
1658828970.27509,148323.2363858,94
1658828970.27509,148323.23639,64
1658828970.27509,148323.2363941,59
1658828970.27509,148323.2363981,94
1658828970.27509,148323.2364032,94
1658828970.27509,148323.2364092,92
1658828970.27509,148323.2364133,116
1658828970.27509,148323.2364181,125
1658828970.27509,148323.2364222,130
1658828970.27509,148323.2364267,156
1658828970.27509,148323.2364334,182
1658828970.27509,148323.2364421,204
1658828970.27509,148323.2364465,230
1658828970.27509,148323.2364504,244
1658828970.27509,148323.2364553,244
1658828970.27509,148323.2364617,241
1658828970.27509,148323.236468,225
1658828970.27509,148323.2364732,206
1658828970.27509,148323.2364772,185
1658828970.27509,148323.2364809,161
1658828970.27509,148323.2368421,132
1658828970.29902,148323.8182517,94
1658828970.29902,148323.8182697,52
1658828970.29902,148323.8182798,9
1658828970.29902,148323.8182867,-14
1658828970.29902,148323.8182928,-28
1658828970.29902,148323.8182994,-37
1658828970.29902,148323.8183076,-45
1658828970.29902,148323.8183156,-54
1658828970.29902,148323.8183251,-66
1658828970.29902,148323.8183294,-75
1658828970.29902,148323.8183333,-68
1658828970.29902,148323.8183389,-52
1658828970.29902,148323.8183433,-37
1658828970.29902,148323.8183484,-26
1658828970.29902,148323.8183541,-18
1658828970.29902,148323.8183575,-14
1658828970.29902,148323.8183606,-4
1658828970.29902,148323.8183635,0
1658828970.29902,148323.8183664,7
1658828970.29902,148323.8183692,14
1658828970.29902,148323.8183721,14
1658828970.29902,148323.818375,2
1658828970.29902,148323.8183779,0
1658828970.29902,148323.8183808,2
1658828970.89916,148323.8183837,-4
1658828970.89916,148323.8183865,-4
1658828970.89916,148323.8183892,2
1658828970.89916,148323.818392,4
1658828970.89916,148323.8183948,2
1658828970.89916,148323.8184005,0
1658828970.89916,148323.818408,0
1658828970.89916,148323.818413,16
1658828970.89916,148323.8184176,35
1658828970.89916,148323.8184229,33
1658828970.89916,148323.8184304,26
1658828970.89916,148323.8184391,30
1658828970.89916,148323.8184483,35
1658828970.89916,148323.8184587,37
1658828970.89916,148323.8184664,45
1658828970.89916,148323.8184689,59
1658828970.89916,148323.8184711,47
1658828970.89916,148323.8184731,-4
1658828970.89916,148323.8184805,-7
1658828970.89916,148323.8184913,189
1658828970.89916,148323.8184949,529
1658828970.89916,148323.8184978,789
1658828970.89916,148323.8185014,780
1658828970.89916,148323.818512,310
1658828970.89916,148323.8185194,-182
1658828970.89916,148323.8185218,-75
1658828970.89916,148323.8185367,137
1658828970.89916,148323.818539,40
1658828970.89916,148323.8185454,0
1658828970.89916,148323.8185692,68
1658828970.89916,148323.8185734,59
1658828970.89916,148323.8185755,42
1658828970.89916,148323.8185774,73
1658828970.89916,148323.8185794,87
1658828970.89916,148323.8185816,78
1658828970.89916,148323.8185897,90
1658828970.89916,148323.8186003,111
1658828970.89916,148323.818603,128
1658828970.89916,148323.8186052,137
1658828970.89916,148323.8186074,151
1658828970.89916,148323.8186095,175
1658828970.89916,148323.8186115,204
1658828970.89916,148323.8186136,220
1658828970.89916,148323.8186161,227
1658828970.89916,148323.8186181,222
1658828970.89916,148323.8186201,211
1658828970.89916,148323.8186221,201
1658828970.89916,148323.8186242,180
1658828970.89916,148323.8186269,151
1658828970.89916,148324.4536749,123
1658828970.92111,148324.4536954,87
1658828970.92111,148324.4537097,40
1658828970.92111,148324.4537192,4
1658828970.92111,148324.4537262,-11
1658828970.92111,148324.4537369,-26
1658828970.92111,148324.4537434,-37
1658828970.92111,148324.453753,-42
1658828970.92111,148324.4537584,-37
1658828970.92111,148324.4537625,-30
1658828970.92111,148324.453767,-23
1658828970.92111,148324.4537706,-30
1658828970.92111,148324.4537744,-42
1658828970.92111,148324.4537788,-33
1658828970.92111,148324.4537826,-14
1658828970.92111,148324.4537871,-4
1658828970.92111,148324.4537917,0
1658828970.92111,148324.4537954,-9
1658828970.92111,148324.4537992,-26
1658828970.92111,148324.4538028,-21
1658828970.92111,148324.4538066,-2
1658828970.92111,148324.4538102,4
1658828970.92111,148324.4538142,7
1658828970.92111,148324.4538189,11
1658828970.92111,148324.4538234,7
1658828971.39149,148324.4538269,4
1658828971.39149,148324.4538312,9
1658828971.39149,148324.4538353,4
1658828971.39149,148324.4538391,4
1658828971.39149,148324.4538434,23
1658828971.39149,148324.4538471,40
1658828971.39149,148324.4538515,37
1658828971.39149,148324.4538559,37
1658828971.39149,148324.4538606,47
1658828971.39149,148324.4538651,52
1658828971.39149,148324.4538697,52
1658828971.39149,148324.4538737,59
1658828971.39149,148324.4538769,68
1658828971.39149,148324.4538807,71
1658828971.39149,148324.4538845,59
1658828971.39149,148324.4538881,0
1658828971.39149,148324.4538927,-40
1658828971.39149,148324.4538965,128
1658828971.39149,148324.4538997,519
1658828971.39149,148324.4539035,861
1658828971.39149,148324.4539073,880
1658828971.39149,148324.4539107,360
1658828971.39149,148324.4539146,-215
1658828971.39149,148324.4539182,-120
1658828971.39149,148324.4539225,135
1658828971.39149,148324.4539262,37
1658828971.39149,148324.4539322,-4
1658828971.39149,148324.4539368,83
1658828971.39149,148324.4539421,75
1658828971.39149,148324.4539477,45
1658828971.39149,148324.4539528,73
1658828971.39149,148324.4539574,90
1658828971.39149,148324.4539631,87
1658828971.39149,148324.4539665,104
1658828971.39149,148324.4539716,123
1658828971.39149,148324.453975,132
1658828971.39149,148324.4539788,142
1658828971.39149,148324.4539844,158
1658828971.39149,148324.4539879,180
1658828971.39149,148324.4539926,201
1658828971.39149,148324.4539965,220
1658828971.39149,148324.4540021,230
1658828971.39149,148324.4540059,225
1658828971.39149,148324.4540114,215
1658828971.39149,148324.4540158,199
1658828971.39149,148324.4540209,180
1658828971.39149,148324.454026,158
1658828971.39149,148324.4540309,123
1658828971.39149,148324.9404465,80
1658828971.39149,148324.9404649,47
1658828971.41359,148324.9404707,28
1658828971.41359,148324.9404749,18
1658828971.41359,148324.9404817,4
1658828971.41359,148324.9404884,-11
1658828971.41359,148324.9404951,-14
1658828971.41359,148324.9405023,-18
1658828971.41359,148324.940509,-28
1658828971.41359,148324.9405137,-23
1658828971.41359,148324.9405181,-9
1658828971.41359,148324.9405223,-7
1658828971.41359,148324.9405283,-2
1658828971.41359,148324.9405342,9
1658828971.41359,148324.9405437,9
1658828971.41359,148324.9405518,2
1658828971.41359,148324.9405555,4
1658828971.41359,148324.9405588,9
1658828971.41359,148324.940578,14
1658828971.41359,148324.9405917,16
1658828971.41359,148324.9405972,11
1658828971.41359,148324.940604,-2
1658828971.41359,148324.9406081,-14
1658828971.41359,148324.9406137,-11
1658828971.41359,148324.9406175,-4
1658828971.41359,148324.9406214,-7
1658828971.97238,148324.9406248,-11
1658828971.97238,148324.9406283,-16
1658828971.97238,148324.9406394,-23
1658828971.97238,148324.9406496,-14
1658828971.97238,148324.9406566,9
1658828971.97238,148324.9406622,37
1658828971.97238,148324.940673,47
1658828971.97238,148324.9406813,28
1658828971.97238,148324.9406895,14
1658828971.97238,148324.9407001,21
1658828971.97238,148324.9407109,21
1658828971.97238,148324.9407184,7
1658828971.97238,148324.9407291,-14
1658828971.97238,148324.9407397,-85
1658828971.97238,148324.9407472,-128
1658828971.97238,148324.9407573,90
1658828971.97238,148324.9407682,538
1658828971.97238,148324.9407761,915
1658828971.97238,148324.9407819,875
1658828971.97238,148324.9407923,244
1658828971.97238,148324.9407957,-301
1658828971.97238,148324.9407986,-120
1658828971.97238,148324.9408022,94
1658828971.97238,148324.9408136,-30
1658828971.97238,148324.9408297,-28
1658828971.97238,148324.940841,59
1658828971.97238,148324.9408512,18
1658828971.97238,148324.940864,-4
1658828971.97238,148324.9408772,37
1658828971.97238,148324.9408921,56
1658828971.97238,148324.9409044,59
1658828971.97238,148324.9409157,80
1658828971.97238,148324.9409254,99
1658828971.97238,148324.9409376,106
1658828971.97238,148324.9409466,113
1658828971.97238,148324.9409515,130
1658828971.97238,148324.9409618,154
1658828971.97238,148324.9409724,180
1658828971.97238,148324.9409826,196
1658828971.97238,148324.9409949,194
1658828971.97238,148324.9410033,180
1658828971.97238,148324.9410089,173
1658828971.97238,148324.9410226,185
1658828971.97238,148324.9410353,175
1658828971.97238,148324.9410476,135
1658828971.97238,148324.9410577,106
1658828971.97238,148324.9410637,94
1658828971.97238,148325.5248873,59
1658828971.97238,148325.5248987,18
1658828971.97238,148325.5249164,11
1658828971.99787,148325.5249186,7
1658828971.99787,148325.5249208,-23
1658828971.99787,148325.5249229,-35
1658828971.99787,148325.524925,-26
1658828971.99787,148325.5249272,-26
1658828971.99787,148325.5249292,-33
1658828971.99787,148325.5249313,-18
1658828971.99787,148325.5249334,-7
1658828971.99787,148325.5249355,-18
1658828971.99787,148325.5249376,-28
1658828971.99787,148325.5249397,-14
1658828971.99787,148325.5249418,2
1658828971.99787,148325.5249439,0
1658828971.99787,148325.5249579,7
1658828971.99787,148325.5249697,7
1658828971.99787,148325.5249759,-9
1658828971.99787,148325.5249798,-11
1658828971.99787,148325.5249833,-16
1658828971.99787,148325.5249901,-30
1658828971.99787,148325.524997,-30
1658828971.99787,148325.5250057,-9
1658828971.99787,148325.5250101,-2
1658828971.99787,148325.5250159,-4
1658828971.99787,148325.5250206,18
1658828972.56343,148325.5250244,45
1658828972.56343,148325.5250283,26

1658828972.56343,148325.5250327,-7
1658828972.56343,148325.5250372,-7
1658828972.56343,148325.5250414,4
1658828972.56343,148325.5250472,11
1658828972.56343,148325.5250518,11
1658828972.56343,148325.5250575,14
1658828972.56343,148325.5250631,21
1658828972.56343,148325.5250702,-28
1658828972.56343,148325.5250777,-85
1658828972.56343,148325.5250888,92
1658828972.56343,148325.5250944,524
1658828972.56343,148325.5250984,880
1658828972.56343,148325.5251105,825
1658828972.56343,148325.5251248,220
1658828972.56343,148325.5251416,-291
1658828972.56343,148325.5251568,-85
1658828972.56343,148325.5251645,154
1658828972.56343,148325.525169,16
1658828972.56343,148325.5251746,0
1658828972.56343,148325.5251797,92
1658828972.56343,148325.5251831,49
1658828972.56343,148325.5251874,21
1658828972.56343,148325.5251909,80
1658828972.56343,148325.5251942,102
1658828972.56343,148325.525199,90
1658828972.56343,148325.5252023,116
1658828972.56343,148325.5252057,135
1658828972.56343,148325.5252101,123
1658828972.56343,148325.5252255,139
1658828972.56343,148325.5252423,180
1658828972.56343,148325.5252553,192
1658828972.56343,148325.5252675,208
1658828972.56343,148325.5252781,244
1658828972.56343,148325.5252846,253
1658828972.56343,148325.5253114,225
1658828972.56343,148325.5253269,201
1658828972.56343,148325.5253354,185
1658828972.56343,148325.5253396,170
1658828972.56343,148325.5253449,177
1658828972.56343,148325.5253487,154
1658828972.56343,148325.5253525,97
1658828972.56343,148325.5253561,75
1658828972.56343,148325.5253598,83
1658828972.56343,148325.5253636,59
1658828972.56343,148326.1096723,28
1658828972.56343,148326.1096972,7
1658828972.56343,148326.109706,-23
1658828972.56343,148326.1097112,-26
1658828972.58335,148326.1097186,4
1658828972.58335,148326.1097247,11
1658828972.58335,148326.1097326,-14
1658828972.58335,148326.1097375,-7
1658828972.58335,148326.1097475,18
1658828972.58335,148326.1097538,11
1658828972.58335,148326.1097562,7
1658828972.58335,148326.1097583,14
1658828972.58335,148326.1097604,23
1658828972.58335,148326.1097633,23
1658828972.58335,148326.1097743,-21
1658828972.58335,148326.1097818,-59
1658828972.58335,148326.1097843,-21
1658828972.58335,148326.1097864,18
1658828972.58335,148326.1097886,4
1658828972.58335,148326.1097907,4
1658828972.58335,148326.1097988,7
1658828972.58335,148326.1098093,-18
1658828972.58335,148326.109812,-9
1658828972.58335,148326.1098141,11
1658828972.58335,148326.1098162,-11
1658828972.58335,148326.1098207,-11
1658828972.58335,148326.1098323,23
1658828972.58335,148326.109838,28
1658828973.053,148326.1098403,7
1658828973.053,148326.1098423,11
1658828973.053,148326.1098499,28
1658828973.053,148326.1098589,21
1658828973.053,148326.1098649,-47
1658828973.053,148326.1098736,-104
1658828973.053,148326.109881,52
1658828973.053,148326.1098904,441
1658828973.053,148326.1098975,801
1658828973.053,148326.1099058,820
1658828973.053,148326.1099138,310
1658828973.053,148326.1099195,-220
1658828973.053,148326.1099276,-130
1658828973.053,148326.1099358,99
1658828973.053,148326.109943,37
1658828973.053,148326.1099516,9
1658828973.053,148326.109959,40
1658828973.053,148326.1099652,37
1658828973.053,148326.1099702,54
1658828973.053,148326.1099758,68
1658828973.053,148326.1099841,75
1658828973.053,148326.1099949,94
1658828973.053,148326.1100418,102
1658828973.053,148326.1100575,92
1658828973.053,148326.1100624,104
1658828973.053,148326.1100668,135
1658828973.053,148326.1100722,163
1658828973.053,148326.1100767,192
1658828973.053,148326.1100815,211
1658828973.053,148326.110087,222
1658828973.053,148326.1100959,237
1658828973.053,148326.1101027,204
1658828973.053,148326.1101066,173
1658828973.053,148326.1101135,218
1658828973.053,148326.1101198,227
1658828973.053,148326.1101231,168
1658828973.053,148326.1101262,149
1658828973.053,148326.1101292,149
1658828973.053,148326.1101321,123
1658828973.053,148326.1101351,90
1658828973.053,148326.1101379,40
1658828973.053,148326.1101408,0
1658828973.053,148326.1101437,33
1658828973.053,148326.1101468,75
1658828973.053,148326.1101497,54
1658828973.053,148326.5973285,33
1658828973.053,148326.5973536,33
1658828973.053,148326.5973568,11
1658828973.053,148326.5973596,16
1658828973.053,148326.5973752,73
1658828973.07492,148326.5973773,102
1658828973.07492,148326.5973794,59
1658828973.07492,148326.5973824,40
1658828973.07492,148326.5973844,61
1658828973.07492,148326.5973865,49
1658828973.07492,148326.5973886,35
1658828973.07492,148326.5973906,71
1658828973.07492,148326.5973926,78
1658828973.07492,148326.5973952,18
1658828973.07492,148326.5973973,-2
1658828973.07492,148326.5973994,35
1658828973.07492,148326.5974014,26
1658828973.07492,148326.5974034,-9
1658828973.07492,148326.5974055,26
1658828973.07492,148326.5974075,54
1658828973.07492,148326.5974095,16
1658828973.07492,148326.5974115,7
1658828973.07492,148326.5974136,26
1658828973.07492,148326.5974156,4
1658828973.07492,148326.5974177,-23
1658828973.07492,148326.5974198,4
1658828973.07492,148326.5974218,49
1658828973.07492,148326.5974238,28
1658828973.07492,148326.5974258,-45
1658828973.63646,148326.5974278,-37
1658828973.63646,148326.5974298,208
1658828973.63646,148326.5974317,595
1658828973.63646,148326.5974336,818
1658828973.63646,148326.5974354,616
1658828973.63646,148326.5974374,16
1658828973.63646,148326.5974393,-287
1658828973.63646,148326.5974412,4
1658828973.63646,148326.5974431,135
1658828973.63646,148326.597445,-18
1658828973.63646,148326.5974469,-4
1658828973.63646,148326.5974488,54
1658828973.63646,148326.5974507,28
1658828973.63646,148326.5974526,52
1658828973.63646,148326.5974544,75
1658828973.63646,148326.5974563,56
1658828973.63646,148326.5974582,85
1658828973.63646,148326.5974601,123
1658828973.63646,148326.597462,118
1658828973.63646,148326.5974639,135
1658828973.63646,148326.5974658,161
1658828973.63646,148326.5974677,156
1658828973.63646,148326.5974696,177
1658828973.63646,148326.5974724,246
1658828973.63646,148326.5974747,287
1658828973.63646,148326.597478,270
1658828973.63646,148326.59748,251
1658828973.63646,148326.5974821,244
1658828973.63646,148326.5974842,237
1658828973.63646,148326.5974862,222
1658828973.63646,148326.5974883,199
1658828973.63646,148326.5974904,168
1658828973.63646,148326.5974924,137
1658828973.63646,148326.5974945,109
1658828973.63646,148326.5974966,85
1658828973.63646,148326.5974987,80
1658828973.63646,148326.5975008,78
1658828973.63646,148326.5975029,45
1658828973.63646,148326.597505,11
1658828973.63646,148326.5975071,16
1658828973.63646,148326.5975091,23
1658828973.63646,148326.5975111,30
1658828973.63646,148326.5975132,35
1658828973.63646,148326.5975152,28
1658828973.63646,148327.1824006,33
1658828973.63646,148327.1824154,52
1658828973.63646,148327.1824217,71
1658828973.63646,148327.1824256,83
1658828973.63646,148327.1824294,71
1658828973.63646,148327.1824333,45
1658828973.65169,148327.182437,42
1658828973.65169,148327.1824405,37
1658828973.65169,148327.1824439,2
1658828973.65169,148327.1824476,-14
1658828973.65169,148327.1824515,2
1658828973.65169,148327.1824552,11
1658828973.65169,148327.1824592,0
1658828973.65169,148327.1824629,4
1658828973.65169,148327.1824663,16
1658828973.65169,148327.1824698,2
1658828973.65169,148327.1824733,-26
1658828973.65169,148327.182477,-21
1658828973.65169,148327.1824809,4
1658828973.65169,148327.1824845,11
1658828973.65169,148327.1824879,-7
1658828973.65169,148327.1824914,-49
1658828973.65169,148327.1824954,-71
1658828973.65169,148327.182499,106
1658828973.65169,148327.1825031,493
1658828973.65169,148327.1825087,756
1658828973.65169,148327.1825122,671
1658828973.65169,148327.1825159,187
1658828973.65169,148327.1825194,-282
1658828973.65169,148327.1825228,-151
1658828974.16778,148327.1825319,99
1658828974.16778,148327.1825371,-4
1658828974.16778,148327.1825454,-33
1658828974.16778,148327.1825519,73
1658828974.16778,148327.1825559,52
1658828974.16778,148327.1825593,21
1658828974.16778,148327.1825628,56
1658828974.16778,148327.1825668,68
1658828974.16778,148327.1825726,68
1658828974.16778,148327.18258,94
1658828974.16778,148327.1825934,111
1658828974.16778,148327.1826005,120
1658828974.16778,148327.182604,144
1658828974.16778,148327.182611,166
1658828974.16778,148327.1826193,189
1658828974.16778,148327.1826258,213
1658828974.16778,148327.1826323,230
1658828974.16778,148327.1826369,251
1658828974.16778,148327.1826407,258
1658828974.16778,148327.182645,246
1658828974.16778,148327.18265,232
1658828974.16778,148327.182654,208
1658828974.16778,148327.1826571,175
1658828974.16778,148327.1826599,144
1658828974.16778,148327.1826631,113
1658828974.16778,148327.1826659,78
1658828974.16778,148327.1826697,45
1658828974.16778,148327.1826727,26
1658828974.16778,148327.1826758,18
1658828974.16778,148327.1826787,16
1658828974.16778,148327.1826816,14
1658828974.16778,148327.1826844,16
1658828974.16778,148327.1826874,14
1658828974.16778,148327.1826905,16
1658828974.16778,148327.1826935,28
1658828974.16778,148327.1826965,40
1658828974.16778,148327.1826994,40
1658828974.16778,148327.1827024,45
1658828974.16778,148327.1827054,49
1658828974.16778,148327.1827084,47
1658828974.16778,148327.1827114,47
1658828974.16778,148327.1827144,54
1658828974.16778,148327.1827173,37
1658828974.16778,148327.7196043,18
1658828974.16778,148327.7196222,37
1658828974.16778,148327.7196312,59
1658828974.16778,148327.7196361,45
1658828974.16778,148327.7196406,35
1658828974.16778,148327.7196449,52
1658828974.16778,148327.7196507,52
1658828974.18973,148327.7196546,45
1658828974.18973,148327.7196588,56
1658828974.18973,148327.7196633,61
1658828974.18973,148327.7196691,45
1658828974.18973,148327.7196733,11
1658828974.18973,148327.7196789,-2
1658828974.18973,148327.7196854,16
1658828974.18973,148327.719692,14
1658828974.18973,148327.7196965,-56
1658828974.18973,148327.7197001,-177
1658828974.18973,148327.7197047,-192
1658828974.18973,148327.7197088,75
1658828974.18973,148327.7197127,514
1658828974.18973,148327.7197192,844
1658828974.18973,148327.7197253,728
1658828974.18973,148327.7197294,118
1658828974.18973,148327.7197357,-225
1658828974.18973,148327.7197402,-21
1658828974.18973,148327.7197439,45
1658828974.18973,148327.7197482,-71
1658828974.18973,148327.7197526,-37
1658828974.18973,148327.7197587,-9
1658828974.18973,148327.7197627,-42
1658828974.18973,148327.7197692,-11
1658828974.9172,148327.7197743,33
1658828974.9172,148327.7197777,21
1658828974.9172,148327.7197811,28
1658828974.9172,148327.7197846,64
1658828974.9172,148327.7197881,68
1658828974.9172,148327.7197917,59
1658828974.9172,148327.7197952,92
1658828974.9172,148327.7197999,144
1658828974.9172,148327.7198057,163
1658828974.9172,148327.7198119,144
1658828974.9172,148327.719818,137
1658828974.9172,148327.7198243,173
1658828974.9172,148327.7198303,213
1658828974.9172,148327.7198355,206
1658828974.9172,148327.7198389,175
1658828974.9172,148327.7198423,156
1658828974.9172,148327.7198463,120
1658828974.9172,148327.7198562,92
1658828974.9172,148327.7198611,92
1658828974.9172,148327.7198634,68
1658828974.9172,148327.7198703,23
1658828974.9172,148327.7198814,14
1658828974.9172,148327.7198845,9
1658828974.9172,148327.7198869,-4
1658828974.9172,148327.719889,7
1658828974.9172,148327.719891,28
1658828974.9172,148327.7198931,30
1658828974.9172,148327.7198959,33
1658828974.9172,148327.7199053,30
1658828974.9172,148327.7199151,21
1658828974.9172,148327.7199176,18
1658828974.9172,148327.7199198,30
1658828974.9172,148327.7199219,42
1658828974.9172,148327.7199241,35
1658828974.9172,148327.7199262,28
1658828974.9172,148327.7199321,45
1658828974.9172,148327.7199438,54
1658828974.9172,148327.7199488,40
1658828974.9172,148327.7199509,30
1658828974.9172,148327.719953,37
1658828974.9172,148327.7199551,42
1658828974.9172,148327.7199572,56
1658828974.9172,148328.4497624,66
1658828974.9172,148328.4497756,54
1658828974.9172,148328.4497808,42
1658828974.9172,148328.4497835,40
1658828974.9172,148328.4497859,30
1658828974.9172,148328.4497883,33
1658828974.9172,148328.4497907,61
1658828974.9172,148328.4497931,66
1658828974.94014,148328.4497955,9
1658828974.94014,148328.4497978,-83
1658828974.94014,148328.4498002,-78
1658828974.94014,148328.4498026,158
1658828974.94014,148328.4498049,574
1658828974.94014,148328.4498071,913
1658828974.94014,148328.4498094,813
1658828974.94014,148328.4498116,161
1658828974.94014,148328.4498137,-279
1658828974.94014,148328.449816,-42
1658828974.94014,148328.4498185,102
1658828974.94014,148328.4498209,-54
1658828974.94014,148328.4498233,-42
1658828974.94014,148328.4498255,21
1658828974.94014,148328.4498278,-9
1658828974.94014,148328.4498328,-14
1658828974.94014,148328.449844,4
1658828974.94014,148328.4498558,16
1658828974.94014,148328.4498638,56
1658828974.94014,148328.4498662,78
1658828974.94014,148328.4498684,56
1658828974.94014,148328.4498704,66
1658828974.94014,148328.4498724,116
1658828974.94014,148328.4498933,149
1658828975.2967,148328.4499015,175
1658828975.2967,148328.4499038,213
1658828975.2967,148328.4499058,227
1658828975.2967,148328.4499078,206
1658828975.2967,148328.4499097,194
1658828975.2967,148328.4499116,194
1658828975.2967,148328.4499136,168
1658828975.2967,148328.4499157,156
1658828975.2967,148328.4499211,182
1658828975.2967,148328.4499289,166
1658828975.2967,148328.4499332,113
1658828975.2967,148328.4499368,85
1658828975.2967,148328.4499438,61
1658828975.2967,148328.4499646,47
1658828975.2967,148328.4499714,52
1658828975.2967,148328.4499923,23
1658828975.2967,148328.4500071,-2
1658828975.2967,148328.4500147,35
1658828975.2967,148328.4500201,71
1658828975.2967,148328.450026,45
1658828975.2967,148328.45003,21
1658828975.2967,148328.4500348,54
1658828975.2967,148328.4500402,106
1658828975.2967,148328.4500442,116
1658828975.2967,148328.4500699,99
1658828975.2967,148328.4501204,90
1658828975.2967,148328.4501445,90
1658828975.2967,148328.4501616,94
1658828975.2967,148328.4501692,92
1658828975.2967,148328.4501722,78
1658828975.2967,148328.4501744,78
1658828975.2967,148328.4501765,83
1658828975.2967,148328.4501812,90
1658828975.2967,148328.4501926,102
1658828975.2967,148328.4501978,113
1658828975.2967,148328.4502,123
1658828975.2967,148328.4502021,120
1658828975.2967,148328.4502042,109
1658828975.2967,148328.4502097,106
1658828975.2967,148328.4502207,113
1658828975.2967,148328.450226,116
1658828975.2967,148328.8401596,106
1658828975.2967,148328.8401773,83
1658828975.2967,148328.8401874,7
1658828975.2967,148328.840195,-59
1658828975.2967,148328.8402023,142
1658828975.2967,148328.8402093,609
1658828975.2967,148328.8402178,986
1658828975.2967,148328.8402239,929
1658828975.2967,148328.8402278,355
1658828975.32662,148328.8402402,-135
1658828975.32662,148328.8402534,-37
1658828975.32662,148328.8402631,71
1658828975.32662,148328.8402724,-75
1658828975.32662,148328.8402797,-61
1658828975.32662,148328.8402855,21
1658828975.32662,148328.840297,-23
1658828975.32662,148328.8403037,-37
1658828975.32662,148328.8403133,2
1658828975.32662,148328.840323,-2
1658828975.32662,148328.840332,0
1658828975.32662,148328.8403397,23
1658828975.32662,148328.8403446,37
1658828975.32662,148328.8403491,73
1658828975.32662,148328.8403534,109
1658828975.32662,148328.8403577,94
1658828975.32662,148328.8403646,94
1658828975.32662,148328.8403724,139
1658828975.32662,148328.8403771,163
1658828975.32662,148328.8403818,158
1658828975.32662,148328.8403866,161
1658828975.32662,148328.8403912,166
1658828975.32662,148328.8403992,149
1658828975.32662,148328.8404055,132
1658828976.21428,148328.8404116,130
1658828976.21428,148328.840416,113
1658828976.21428,148328.8404202,85
1658828976.21428,148328.8404244,52
1658828976.21428,148328.8404285,26
1658828976.21428,148328.8404331,23
1658828976.21428,148328.8404377,18
1658828976.21428,148328.8404426,-2
1658828976.21428,148328.8404474,-14
1658828976.21428,148328.8404522,-4
1658828976.21428,148328.8404566,7
1658828976.21428,148328.840461,14
1658828976.21428,148328.8404655,14
1658828976.21428,148328.8404699,23
1658828976.21428,148328.8404741,45
1658828976.21428,148328.8404784,47
1658828976.21428,148328.8404825,40
1658828976.21428,148328.8404868,47
1658828976.21428,148328.840491,45
1658828976.21428,148328.8404972,21
1658828976.21428,148328.8405013,26
1658828976.21428,148328.8405055,52
1658828976.21428,148328.8405107,54
1658828976.21428,148328.8405171,45
1658828976.21428,148328.8405213,45
1658828976.21428,148328.8405276,52
1658828976.21428,148328.8405593,71
1658828976.21428,148328.8405687,75
1658828976.21428,148328.8405731,49
1658828976.21428,148328.8405794,28
1658828976.21428,148328.8405847,52
1658828976.21428,148328.8405908,71
1658828976.21428,148328.8405947,56
1658828976.21428,148328.8406007,59
1658828976.21428,148328.8406052,75
1658828976.21428,148328.8406098,37
1658828976.21428,148328.840616,-71
1658828976.21428,148328.8406205,-83
1658828976.21428,148328.8406243,196
1658828976.21428,148328.8406277,673
1658828976.21428,148329.7668922,1015
1658828976.21428,148329.76691,846
1658828976.21428,148329.7669156,196
1658828976.21428,148329.7669222,-177
1658828976.21428,148329.7669285,-14
1658828976.21428,148329.766935,37
1658828976.21428,148329.7669416,-75
1658828976.21428,148329.7669481,-40
1658828976.21428,148329.7669549,-16
1658828976.21428,148329.7669594,-52
1658828976.23323,148329.7669693,-23
1658828976.23323,148329.7669768,4
1658828976.23323,148329.7669856,-9
1658828976.23323,148329.766993,14
1658828976.23323,148329.7669997,40
1658828976.23323,148329.7670089,7
1658828976.23323,148329.7670208,7
1658828976.23323,148329.7670259,59
1658828976.23323,148329.7670306,87
1658828976.23323,148329.7670362,104
1658828976.23323,148329.7670399,137
1658828976.23323,148329.767045,163
1658828976.23323,148329.7670486,182
1658828976.23323,148329.7670537,196
1658828976.23323,148329.7670582,177
1658828976.23323,148329.767062,151
1658828976.23323,148329.7670655,147
1658828976.23323,148329.7670708,130
1658828976.23323,148329.7670743,94
1658828976.23323,148329.7670808,78
1658828976.23323,148329.7670853,54
1658828976.23323,148329.7670905,11
1658828976.23323,148329.7670952,-14
1658828976.23323,148329.7671013,-33
1658828976.5224,148329.7671145,-59
1658828976.5224,148329.7671229,-54
1658828976.5224,148329.7671302,-26
1658828976.5224,148329.7671376,-26
1658828976.5224,148329.7671564,-35
1658828976.5224,148329.767172,-16
1658828976.5224,148329.7671842,11
1658828976.5224,148329.7671959,23
1658828976.5224,148329.7672068,11
1658828976.5224,148329.7672187,2
1658828976.5224,148329.7672332,11
1658828976.5224,148329.7672468,21
1658828976.5224,148329.7672604,4
1658828976.5224,148329.7672754,-11
1658828976.5224,148329.7672875,7
1658828976.5224,148329.7672948,21
1658828976.5224,148329.7673035,7
1658828976.5224,148329.7673103,7
1658828976.5224,148329.7673186,14
1658828976.5224,148329.7673246,23
1658828976.5224,148329.7673318,45
1658828976.5224,148329.7673361,47
1658828976.5224,148329.7673574,30
1658828976.5224,148329.7673684,16
1658828976.5224,148329.7673752,14
1658828976.5224,148329.7673854,16
1658828976.5224,148329.7673984,26
1658828976.5224,148329.7674134,40
1658828976.5224,148329.767425,11
1658828976.5224,148329.7674385,-99
1658828976.5224,148329.7674527,-182
1658828976.5224,148329.7674655,11
1658828976.5224,148329.767478,502
1658828976.5224,148329.7675067,960
1658828976.5224,148329.7675152,1031
1658828976.5224,148329.7675178,500
1658828976.5224,148329.76752,-156
1658828976.5224,148329.767522,-161
1658828976.5224,148329.7675241,64
1658828976.5224,148330.0597944,-26
1658828976.5224,148330.0598127,-78
1658828976.5224,148330.0598304,-2
1658828976.5224,148330.0598367,-4
1658828976.5224,148330.0598451,-16
1658828976.5224,148330.0598478,11
1658828976.5224,148330.0598502,16
1658828976.5224,148330.0598523,33
1658828976.5224,148330.0598543,66
1658828976.5224,148330.0598563,68
1658828976.5224,148330.0598584,64
1658828976.543,148330.0598604,80
1658828976.543,148330.0598623,116
1658828976.543,148330.0598644,149
1658828976.543,148330.0598665,163
1658828976.543,148330.0598685,187
1658828976.543,148330.0598705,215
1658828976.543,148330.0598725,222
1658828976.543,148330.0598747,204
1658828976.543,148330.0598767,187
1658828976.543,148330.0598788,170
1658828976.543,148330.0598808,144
1658828976.543,148330.0598829,109
1658828976.543,148330.0598849,66
1658828976.543,148330.0598869,23
1658828976.543,148330.059889,-16
1658828976.543,148330.0598911,-47
1658828976.543,148330.059893,-52
1658828976.543,148330.059895,-30
1658828976.543,148330.0598971,-16
1658828976.543,148330.0598991,-30
1658828976.543,148330.0599011,-33
1658828976.543,148330.0599032,-7
1658828976.543,148330.0599052,23
1658828976.543,148330.0599073,30
1658828977.01169,148330.0599093,26
1658828977.01169,148330.0599113,37
1658828977.01169,148330.0599132,40
1658828977.01169,148330.0599151,33
1658828977.01169,148330.059917,37
1658828977.01169,148330.0599188,45
1658828977.01169,148330.0599207,42
1658828977.01169,148330.0599226,42
1658828977.01169,148330.0599245,37
1658828977.01169,148330.0599281,30
1658828977.01169,148330.0599367,47
1658828977.01169,148330.0599441,71
1658828977.01169,148330.0599507,64
1658828977.01169,148330.0599588,49
1658828977.01169,148330.0599632,47
1658828977.01169,148330.0599734,52
1658828977.01169,148330.0599822,49
1658828977.01169,148330.0599882,37
1658828977.01169,148330.0599949,45
1658828977.01169,148330.0599995,66
1658828977.01169,148330.060003,54
1658828977.01169,148330.0600063,21
1658828977.01169,148330.0600097,-23
1658828977.01169,148330.060013,-80
1658828977.01169,148330.0600162,26
1658828977.01169,148330.0600207,438
1658828977.01169,148330.0600242,929
1658828977.01169,148330.0600273,1141
1658828977.01169,148330.0600306,751
1658828977.01169,148330.0600338,-18
1658828977.01169,148330.0600371,-263
1658828977.01169,148330.060041,7
1658828977.01169,148330.0600467,4
1658828977.01169,148330.0600513,-130
1658828977.01169,148330.060055,-52
1658828977.01169,148330.0600588,9
1658828977.01169,148330.0600624,-28
1658828977.01169,148330.0600683,-16
1658828977.01169,148330.5463541,28
1658828977.01169,148330.5463886,26
1658828977.01169,148330.5463968,18
1658828977.01169,148330.546403,47
1658828977.01169,148330.5464089,80
1658828977.01169,148330.546415,94
1658828977.01169,148330.5464211,106
1658828977.01169,148330.5464269,130
1658828977.01169,148330.5464324,158
1658828977.01169,148330.5464361,185
1658828977.01169,148330.5464392,218
1658828977.01169,148330.5464423,239
1658828977.04005,148330.5464455,222
1658828977.04005,148330.5464485,194
1658828977.04005,148330.5464518,201
1658828977.04005,148330.5464551,213
1658828977.04005,148330.5464581,170
1658828977.04005,148330.5464614,99
1658828977.04005,148330.5464646,56
1658828977.04005,148330.5464678,18
1658828977.04005,148330.5464712,-33
1658828977.04005,148330.5464746,-64
1658828977.04005,148330.546478,-64
1658828977.04005,148330.5464813,-64
1658828977.04005,148330.5464845,-61
1658828977.04005,148330.5464878,-54
1658828977.04005,148330.5464911,-66
1658828977.04005,148330.5464946,-90
1658828977.04005,148330.5464979,-75
1658828977.04005,148330.5465014,-33
1658828977.04005,148330.5465049,-28
1658828977.04005,148330.5465082,-54
1658828977.04005,148330.5465123,-45
1658828977.04005,148330.5465188,-28
1658828977.04005,148330.5465243,-26
1658828977.04005,148330.5465276,-11
1658828977.58643,148330.5465309,-2
1658828977.58643,148330.5465342,-16
1658828977.58643,148330.5465374,-18
1658828977.58643,148330.5465418,-9
1658828977.58643,148330.5465467,-11
1658828977.58643,148330.5465531,9
1658828977.58643,148330.5465566,42
1658828977.58643,148330.54656,54
1658828977.58643,148330.5465634,56
1658828977.58643,148330.5465669,52
1658828977.58643,148330.5465704,42
1658828977.58643,148330.5465737,28
1658828977.58643,148330.5465768,26
1658828977.58643,148330.5465801,35
1658828977.58643,148330.5465834,45
1658828977.58643,148330.5465877,47
1658828977.58643,148330.5465955,37
1658828977.58643,148330.5466018,-28
1658828977.58643,148330.5466117,-104
1658828977.58643,148330.5466174,52
1658828977.58643,148330.546623,502
1658828977.58643,148330.5466297,958
1658828977.58643,148330.5466381,1110
1658828977.58643,148330.5466443,666
1658828977.58643,148330.5466529,-92
1658828977.58643,148330.5466588,-227
1658828977.58643,148330.546665,85
1658828977.58643,148330.5466738,52
1658828977.58643,148330.5466798,-56
1658828977.58643,148330.5466888,23
1658828977.58643,148330.5466953,40
1658828977.58643,148330.5467014,2
1658828977.58643,148330.5467077,42
1658828977.58643,148330.5467158,75
1658828977.58643,148330.5467222,73
1658828977.58643,148330.5467303,87
1658828977.58643,148330.5467366,104
1658828977.58643,148331.1314334,111
1658828977.58643,148331.1314609,132
1658828977.58643,148331.1314637,158
1658828977.58643,148331.1314657,180
1658828977.58643,148331.1314678,204
1658828977.58643,148331.1314698,239
1658828977.58643,148331.1314719,272
1658828977.58643,148331.131474,279
1658828977.58643,148331.1314761,268
1658828977.58643,148331.131478,258
1658828977.58643,148331.13148,239
1658828977.58643,148331.131482,192
1658828977.58643,148331.131484,135
1658828977.61137,148331.1314861,92
1658828977.61137,148331.131488,49
1658828977.61137,148331.13149,-4
1658828977.61137,148331.131492,-40
1658828977.61137,148331.131494,-68
1658828977.61137,148331.1314961,-97
1658828977.61137,148331.1314981,-92
1658828977.61137,148331.1315002,-71
1658828977.61137,148331.1315023,-75
1658828977.61137,148331.1315042,-92
1658828977.61137,148331.1315063,-90
1658828977.61137,148331.1315082,-75
1658828977.61137,148331.1315102,-66
1658828977.61137,148331.1315122,-52
1658828977.61137,148331.1315142,-33
1658828977.61137,148331.1315162,-23
1658828977.61137,148331.1315182,-30
1658828977.61137,148331.1315202,-37
1658828977.61137,148331.1315222,-35
1658828977.61137,148331.1315242,-11
1658828977.61137,148331.1315263,21
1658828977.61137,148331.1315282,21
1658828977.61137,148331.1315303,-4
1658828977.61137,148331.1315323,-14
1658828978.28513,148331.1315343,-7
1658828978.28513,148331.1315363,9
1658828978.28513,148331.1315382,26
1658828978.28513,148331.1315401,33
1658828978.28513,148331.1315419,45
1658828978.28513,148331.1315438,52
1658828978.28513,148331.1315457,42
1658828978.28513,148331.1315476,37
1658828978.28513,148331.1315494,42
1658828978.28513,148331.1315515,33
1658828978.28513,148331.1315533,16
1658828978.28513,148331.1315552,11
1658828978.28513,148331.131557,40
1658828978.28513,148331.1315589,68
1658828978.28513,148331.1315607,47
1658828978.28513,148331.1315626,-14
1658828978.28513,148331.1315645,-16
1658828978.28513,148331.1315663,187
1658828978.28513,148331.1315681,621
1658828978.28513,148331.13157,1067
1658828978.28513,148331.1315719,1107
1658828978.28513,148331.1315748,431
1658828978.28513,148331.1315768,-282
1658828978.28513,148331.1315789,-180
1658828978.28513,148331.1315809,87
1658828978.28513,148331.131583,-40
1658828978.28513,148331.131585,-66
1658828978.28513,148331.1315871,40
1658828978.28513,148331.1315891,11
1658828978.28513,148331.1315912,-9
1658828978.28513,148331.1315932,23
1658828978.28513,148331.1315953,14
1658828978.28513,148331.1315972,18
1658828978.28513,148331.1315992,49
1658828978.28513,148331.1316012,59
1658828978.28513,148331.1316031,78
1658828978.28513,148331.8150708,111
1658828978.28513,148331.815093,130
1658828978.28513,148331.8151056,161
1658828978.28513,148331.8151114,213
1658828978.28513,148331.8151192,239
1658828978.28513,148331.8151252,234
1658828978.28513,148331.8151349,246
1658828978.28513,148331.815143,270
1658828978.28513,148331.8151455,258
1658828978.28513,148331.8151476,218
1658828978.28513,148331.8151497,180
1658828978.28513,148331.8151532,130
1658828978.28513,148331.8151656,59
1658828978.28513,148331.8151746,9
1658828978.30403,148331.8151802,2
1658828978.30403,148331.8151824,-16
1658828978.30403,148331.8151848,-61
1658828978.30403,148331.815195,-75
1658828978.30403,148331.8152068,-47
1658828978.30403,148331.8152122,-35
1658828978.30403,148331.8152155,-56
1658828978.30403,148331.8152238,-64
1658828978.30403,148331.8152359,-52
1658828978.30403,148331.8152454,-45
1658828978.30403,148331.8152581,-45
1658828978.30403,148331.8152649,-23
1658828978.30403,148331.8152701,11
1658828978.30403,148331.8153243,9
1658828978.30403,148331.8153314,-14
1658828978.30403,148331.8153337,0
1658828978.30403,148331.815349,26
1658828978.30403,148331.8153508,23
1658828978.30403,148331.8153526,21
1658828978.30403,148331.8153545,37
1658828978.30403,148331.8153716,33
1658828978.30403,148331.8153735,11
1658828978.30403,148331.8153754,14
1658828978.30403,148331.8153774,33
1658828978.65342,148331.8153807,40
1658828978.65342,148331.8153827,35
1658828978.65342,148331.8153846,33
1658828978.65342,148331.8153865,35
1658828978.65342,148331.8153884,40
1658828978.65342,148331.8153903,33
1658828978.65342,148331.8153925,18
1658828978.65342,148331.8153966,33
1658828978.65342,148331.8154012,61
1658828978.65342,148331.8154058,80
1658828978.65342,148331.8154106,80
1658828978.65342,148331.8154175,83
1658828978.65342,148331.8154228,106
1658828978.65342,148331.8154323,111
1658828978.65342,148331.8154397,71
1658828978.65342,148331.8154526,59
1658828978.65342,148331.815461,80
1658828978.65342,148331.8154635,61
1658828978.65342,148331.815467,49
1658828978.65342,148331.815469,97
1658828978.65342,148331.8154711,118
1658828978.65342,148331.8154731,61
1658828978.65342,148331.8154753,16
1658828978.65342,148331.8154773,125
1658828978.65342,148331.8154794,436
1658828978.65342,148331.8154814,868
1658828978.65342,148331.8154842,1181
1658828978.65342,148331.8154862,913
1658828978.65342,148331.8154883,71
1658828978.65342,148331.8154905,-320
1658828978.65342,148331.8154926,-7
1658828978.65342,148331.8154947,87
1658828978.65342,148331.8155101,-83
1658828978.65342,148331.8155121,-42
1658828978.65342,148331.8155141,33
1658828978.65342,148332.2035278,0
1658828978.65342,148332.2035457,-4
1658828978.65342,148332.203554,37
1658828978.65342,148332.2035593,56
1658828978.65342,148332.2035658,64
1658828978.65342,148332.2035704,73
1658828978.65342,148332.2035764,80
1658828978.65342,148332.2035827,97
1658828978.65342,148332.2035866,128
1658828978.65342,148332.2035898,158
1658828978.65342,148332.2035926,192
1658828978.65342,148332.2035957,227
1658828978.65342,148332.2036009,251
1658828978.65342,148332.2036062,275
1658828978.65342,148332.2036105,301
1658828978.67587,148332.203616,301
1658828978.67587,148332.2036222,272
1658828978.67587,148332.2036256,256
1658828978.67587,148332.2036303,239
1658828978.67587,148332.2036359,187
1658828978.67587,148332.2036412,113
1658828978.67587,148332.2036537,56
1658828978.67587,148332.2036612,30
1658828978.67587,148332.2036672,14
1658828978.67587,148332.2036734,-14
1658828978.67587,148332.2036821,-37
1658828978.67587,148332.203691,-33
1658828978.67587,148332.2036985,-26
1658828978.67587,148332.203705,-21
1658828978.67587,148332.2037092,-18
1658828978.67587,148332.2037124,-28
1658828978.67587,148332.2037257,-35
1658828978.67587,148332.2037382,-23
1658828978.67587,148332.2037487,-11
1658828978.67587,148332.2037708,-16
1658828978.67587,148332.2037791,-16
1658828978.67587,148332.2037869,-21
1658828978.67587,148332.2037939,-35
1658828978.67587,148332.2038028,-18
1658828979.23834,148332.2038102,11
1658828979.23834,148332.2038163,16
1658828979.23834,148332.2038221,7
1658828979.23834,148332.2038267,2
1658828979.23834,148332.2038321,7
1658828979.23834,148332.2038476,-2
1658828979.23834,148332.2038587,-30
1658828979.23834,148332.2038659,-18
1658828979.23834,148332.2038721,40
1658828979.23834,148332.203878,52
1658828979.23834,148332.2038843,9
1658828979.23834,148332.203891,-7
1658828979.23834,148332.2038998,-4
1658828979.23834,148332.2039041,-16
1658828979.23834,148332.2039112,-14
1658828979.23834,148332.2039175,2
1658828979.23834,148332.2039217,7
1658828979.23834,148332.2039352,14
1658828979.23834,148332.2039431,42
1658828979.23834,148332.203951,54
1658828979.23834,148332.203958,35
1658828979.23834,148332.2039659,30
1658828979.23834,148332.2039718,28
1658828979.23834,148332.2039864,11
1658828979.23834,148332.2040003,16
1658828979.23834,148332.2040082,33
1658828979.23834,148332.2040164,30
1658828979.23834,148332.2041013,33
1658828979.23834,148332.204107,23
1658828979.23834,148332.204112,-4
1658828979.23834,148332.2041156,99
1658828979.23834,148332.2041199,441
1658828979.23834,148332.204126,880
1658828979.23834,148332.2041308,1126
1658828979.23834,148332.7886247,768
1658828979.23834,148332.788649,-61
1658828979.23834,148332.788663,-341
1658828979.23834,148332.7886728,-4
1658828979.23834,148332.7886816,23
1658828979.23834,148332.7886889,-128
1658828979.23834,148332.7886958,-35
1658828979.23834,148332.7887011,28
1658828979.23834,148332.7887102,-30
1658828979.23834,148332.7887174,-30
1658828979.23834,148332.7887233,14
1658828979.23834,148332.7887323,18
1658828979.23834,148332.7887389,23
1658828979.23834,148332.7887478,47
1658828979.23834,148332.7887544,54
1658828979.23834,148332.7887604,61
1658828979.2523,148332.7887693,97
1658828979.2523,148332.7887738,137
1658828979.2523,148332.7887803,168
1658828979.2523,148332.7887919,208
1658828979.2523,148332.7887953,246
1658828979.2523,148332.7887983,260
1658828979.2523,148332.7888043,260
1658828979.2523,148332.7888147,263
1658828979.2523,148332.7888282,272
1658828979.2523,148332.7888384,268
1658828979.2523,148332.7888435,218
1658828979.2523,148332.7888514,128
1658828979.2523,148332.7888591,56
1658828979.2523,148332.7888686,56
1658828979.2523,148332.788881,59
1658828979.2523,148332.7888898,2
1658828979.2523,148332.7888948,-37
1658828979.2523,148332.7889088,-42
1658828979.2523,148332.7889204,-59
1658828979.2523,148332.7889281,-61
1658828979.2523,148332.7889621,-33
1658828979.2523,148332.7889704,-21
1658828979.2523,148332.7889742,-33
1658828979.2523,148332.7889774,-35
1658828979.78616,148332.7889806,-21
1658828979.78616,148332.7889839,-21
1658828979.78616,148332.7889871,-18
1658828979.78616,148332.7889905,0
1658828979.78616,148332.7889938,7
1658828979.78616,148332.788997,-2
1658828979.78616,148332.7890002,-2
1658828979.78616,148332.7890034,0
1658828979.78616,148332.7890066,2
1658828979.78616,148332.7890099,9
1658828979.78616,148332.7890131,11
1658828979.78616,148332.7890163,9
1658828979.78616,148332.7890193,9
1658828979.78616,148332.7890228,14
1658828979.78616,148332.7890263,18
1658828979.78616,148332.7890301,7
1658828979.78616,148332.7890345,-4
1658828979.78616,148332.7890401,2
1658828979.78616,148332.7890443,21
1658828979.78616,148332.7890573,14
1658828979.78616,148332.7890624,-9
1658828979.78616,148332.7890658,-4
1658828979.78616,148332.7890694,9
1658828979.78616,148332.7890734,2
1658828979.78616,148332.7890769,-4
1658828979.78616,148332.7890806,14
1658828979.78616,148332.7890842,33
1658828979.78616,148332.7890878,35
1658828979.78616,148332.7890915,47
1658828979.78616,148332.7890953,54
1658828979.78616,148332.7890989,47
1658828979.78616,148332.7891025,42
1658828979.78616,148332.7891062,35
1658828979.78616,148333.3254899,33
1658828979.78616,148333.3255053,56
1658828979.78616,148333.3255097,75
1658828979.78616,148333.3255139,54
1658828979.78616,148333.3255204,35
1658828979.78616,148333.3255242,35
1658828979.78616,148333.3255283,26

1658828979.78616,148333.3255346,94
1658828979.78616,148333.3255384,384
1658828979.78616,148333.3255422,823
1658828979.78616,148333.3255486,1141
1658828979.78616,148333.3255544,960
1658828979.78616,148333.3255596,177
1658828979.78616,148333.3255634,-332
1658828979.78616,148333.3255685,-73
1658828979.78616,148333.3255721,106
1658828979.78616,148333.3255759,-52
1658828979.8091,148333.3255811,-71
1658828979.8091,148333.325586,0
1658828979.8091,148333.3255912,7
1658828979.8091,148333.3255962,18
1658828979.8091,148333.3256005,42
1658828979.8091,148333.3256042,49
1658828979.8091,148333.3256092,54
1658828979.8091,148333.3256128,45
1658828979.8091,148333.3256173,37
1658828979.8091,148333.3256223,80
1658828979.8091,148333.3256268,142
1658828979.8091,148333.3256318,187
1658828979.8091,148333.325636,199
1658828979.8091,148333.3256398,192
1658828979.8091,148333.3256435,244
1658828979.8091,148333.3256486,315
1658828979.8091,148333.3256523,287
1658828979.8091,148333.3256573,268
1658828979.8091,148333.3256618,322
1658828979.8091,148333.3256676,313
1658828979.8091,148333.3256722,237
1658828979.8091,148333.3256759,177
1658828979.8091,148333.3256809,113
1658828979.8091,148333.3256859,45
1658828980.40959,148333.3256907,-2
1658828980.40959,148333.3256942,-52
1658828980.40959,148333.3256976,-94
1658828980.40959,148333.325701,-102
1658828980.40959,148333.3257044,-94
1658828980.40959,148333.3257079,-94
1658828980.40959,148333.3257114,-92
1658828980.40959,148333.3257147,-90
1658828980.40959,148333.3257182,-94
1658828980.40959,148333.3257216,-90
1658828980.40959,148333.325725,-66
1658828980.40959,148333.3257285,-54
1658828980.40959,148333.3257318,-54
1658828980.40959,148333.3257353,-45
1658828980.40959,148333.3257386,-33
1658828980.40959,148333.3257422,-28
1658828980.40959,148333.3257457,-14
1658828980.40959,148333.3257507,2
1658828980.40959,148333.3257543,-7
1658828980.40959,148333.3257579,-21
1658828980.40959,148333.3257627,-14
1658828980.40959,148333.3257662,2
1658828980.40959,148333.3257697,4
1658828980.40959,148333.3257745,-4
1658828980.40959,148333.3257782,0
1658828980.40959,148333.325783,21
1658828980.40959,148333.3257865,16
1658828980.40959,148333.3257912,-2
1658828980.40959,148333.3257947,4
1658828980.40959,148333.3257983,16
1658828980.40959,148333.3258018,9
1658828980.40959,148333.3258053,0
1658828980.40959,148333.9588549,11
1658828980.40959,148333.958872,28
1658828980.40959,148333.9588791,40
1658828980.40959,148333.9588936,52
1658828980.40959,148333.9588988,66
1658828980.40959,148333.9589048,75
1658828980.40959,148333.958909,73
1658828980.40959,148333.9589236,54
1658828980.40959,148333.9589301,26
1658828980.40959,148333.9589361,21
1658828980.40959,148333.9589401,37
1658828980.40959,148333.9589546,40
1658828980.40959,148333.9589705,37
1658828980.40959,148333.9589848,45
1658828980.40959,148333.9589996,37
1658828980.40959,148333.9590076,-2
1658828980.40959,148333.9590102,-9
1658828980.40959,148333.9590124,151
1658828980.43056,148333.9590145,514
1658828980.43056,148333.9590176,927
1658828980.43056,148333.9590284,1145
1658828980.43056,148333.9590357,789
1658828980.43056,148333.9590381,-40
1658828980.43056,148333.9590404,-346
1658828980.43056,148333.9590424,-14
1658828980.43056,148333.9590445,40
1658828980.43056,148333.9590475,-97
1658828980.43056,148333.9590582,-14
1658828980.43056,148333.9590809,33
1658828980.43056,148333.9590922,-21
1658828980.43056,148333.9590996,7
1658828980.43056,148333.9591043,52
1658828980.43056,148333.9591105,30
1658828980.43056,148333.9591157,30
1658828980.43056,148333.9591225,85
1658828980.43056,148333.9591283,111
1658828980.43056,148333.9591325,116
1658828980.43056,148333.9591383,156
1658828980.43056,148333.9591441,194
1658828980.43056,148333.9591482,211
1658828980.43056,148333.9591537,237
1658828980.43056,148333.9591581,275
1658828980.94792,148333.9591636,308
1658828980.94792,148333.9591677,327
1658828980.94792,148333.9591719,324
1658828980.94792,148333.9591758,303
1658828980.94792,148333.9591796,272
1658828980.94792,148333.9591836,237
1658828980.94792,148333.9591876,177
1658828980.94792,148333.9591916,94
1658828980.94792,148333.9591956,26
1658828980.94792,148333.9591997,-11
1658828980.94792,148333.9592036,-42
1658828980.94792,148333.9592074,-71
1658828980.94792,148333.9592114,-87
1658828980.94792,148333.9592153,-83
1658828980.94792,148333.9592192,-61
1658828980.94792,148333.9592232,-49
1658828980.94792,148333.9592295,-59
1658828980.94792,148333.9592336,-66
1658828980.94792,148333.9592394,-59
1658828980.94792,148333.9592435,-47
1658828980.94792,148333.9592477,-42
1658828980.94792,148333.9592518,-35
1658828980.94792,148333.9592576,-11
1658828980.94792,148333.9592619,-2
1658828980.94792,148333.959268,-7
1658828980.94792,148333.959272,-2
1658828980.94792,148333.9592763,11
1658828980.94792,148333.9592814,26
1658828980.94792,148333.9592855,35
1658828980.94792,148333.9592911,40
1658828980.94792,148333.9592951,45
1658828980.94792,148334.4956907,42
1658828980.94792,148334.495713,40
1658828980.94792,148334.4957215,42
1658828980.94792,148334.4957286,40
1658828980.94792,148334.495735,37
1658828980.94792,148334.4957399,52
1658828980.94792,148334.495744,54
1658828980.94792,148334.4957565,37
1658828980.94792,148334.4957619,42
1658828980.94792,148334.4957655,59
1658828980.94792,148334.4957718,45
1658828980.94792,148334.4957773,16
1658828980.94792,148334.495781,4
1658828980.94792,148334.4957843,14
1658828980.94792,148334.4957911,40
1658828980.94792,148334.4957965,68
1658828980.94792,148334.495802,71
1658828980.94792,148334.4958073,61
1658828980.94792,148334.4958131,66
1658828980.96388,148334.4958187,66
1658828980.96388,148334.4958219,52
1658828980.96388,148334.4958248,49
1658828980.96388,148334.4958278,47
1658828980.96388,148334.4958307,28
1658828980.96388,148334.4958336,7
1658828980.96388,148334.4958366,14
1658828980.96388,148334.4958396,42
1658828980.96388,148334.4958426,47
1658828980.96388,148334.4958456,-14
1658828980.96388,148334.4958487,-16
1658828980.96388,148334.4958517,239
1658828980.96388,148334.4958562,692
1658828980.96388,148334.4958614,1088
1658828980.96388,148334.4958646,1124
1658828980.96388,148334.4958698,483
1658828980.96388,148334.4958742,-268
1658828980.96388,148334.4958823,-239
1658828980.96388,148334.4958903,35
1658828980.96388,148334.4958961,-71
1658828980.96388,148334.495905,-120
1658828980.96388,148334.4959135,4
1658828980.96388,148334.4959236,7
1658828980.96388,148334.4959365,-42
1658828981.44877,148334.495948,0
1658828981.44877,148334.4959582,33
1658828981.44877,148334.4959687,23
1658828981.44877,148334.4959756,42
1658828981.44877,148334.4959827,66
1658828981.44877,148334.4959898,78
1658828981.44877,148334.4959993,99
1658828981.44877,148334.4960062,118
1658828981.44877,148334.4960133,139
1658828981.44877,148334.4960202,189
1658828981.44877,148334.4960294,241
1658828981.44877,148334.4960341,265
1658828981.44877,148334.4960448,279
1658828981.44877,148334.4960569,298
1658828981.44877,148334.4960649,301
1658828981.44877,148334.4960698,294
1658828981.44877,148334.496077,270
1658828981.44877,148334.4960857,213
1658828981.44877,148334.4960905,154
1658828981.44877,148334.4960956,94
1658828981.44877,148334.4961002,21
1658828981.44877,148334.4961051,-21
1658828981.44877,148334.4961096,-9
1658828981.44877,148334.496114,-23
1658828981.44877,148334.4961222,-64
1658828981.44877,148334.4961279,-64
1658828981.44877,148334.4961348,-52
1658828981.44877,148334.4961422,-49
1658828981.44877,148334.4961496,-45
1658828981.44877,148334.4961574,-49
1658828981.44877,148334.9835026,-56
1658828981.44877,148334.9835301,-45
1658828981.44877,148334.983533,-40
1658828981.44877,148334.9835353,-40
1658828981.44877,148334.9835373,-28
1658828981.44877,148334.9835395,4
1658828981.44877,148334.9835416,52
1658828981.44877,148334.9835436,49
1658828981.44877,148334.9835457,11
1658828981.44877,148334.9835477,11
1658828981.44877,148334.9835498,40
1658828981.44877,148334.9835519,42
1658828981.44877,148334.983554,33
1658828981.44877,148334.983556,28
1658828981.44877,148334.9835581,21
1658828981.44877,148334.9835601,2
1658828981.44877,148334.9835628,-28
1658828981.44877,148334.983569,-30
1658828981.44877,148334.9835809,2
1658828981.44877,148334.9835862,-2
1658828981.4697,148334.9835883,-59
1658828981.4697,148334.9835902,-75
1658828981.4697,148334.9835936,-52
1658828981.4697,148334.9835957,-47
1658828981.4697,148334.9835978,-45
1658828981.4697,148334.9835999,-40
1658828981.4697,148334.9836019,-59
1658828981.4697,148334.983607,-56
1658828981.4697,148334.9836185,-16
1658828981.4697,148334.9836239,-2
1658828981.4697,148334.983626,4
1658828981.4697,148334.9836279,18
1658828981.4697,148334.983631,4
1658828981.4697,148334.983633,-9
1658828981.4697,148334.9836355,7
1658828981.4697,148334.9836436,2
1658828981.4697,148334.9836546,-37
1658828981.4697,148334.9836585,-47
1658828981.4697,148334.9836605,85
1658828981.4697,148334.9836626,424
1658828981.4697,148334.9836661,854
1658828981.4697,148334.9836788,1112
1658828981.4697,148334.9836853,816
1658828981.4697,148334.9836875,-28
1658828982.06916,148334.9836897,-453
1658828982.06916,148334.9836917,-99
1658828982.06916,148334.9836936,90
1658828982.06916,148334.9836965,-92
1658828982.06916,148334.9837073,-80
1658828982.06916,148334.9837174,45
1658828982.06916,148334.9837298,18
1658828982.06916,148334.9837414,-21
1658828982.06916,148334.9837453,26
1658828982.06916,148334.9837474,23
1658828982.06916,148334.9837494,-16
1658828982.06916,148334.9837583,73
1658828982.06916,148334.9837694,185
1658828982.06916,148334.9837729,147
1658828982.06916,148334.9837768,113
1658828982.06916,148334.983779,194
1658828982.06916,148334.9837871,244
1658828982.06916,148334.9837975,206
1658828982.06916,148334.983801,249
1658828982.06916,148334.9838047,370
1658828982.06916,148334.9838069,372
1658828982.06916,148334.9838101,310
1658828982.06916,148334.9838179,355
1658828982.06916,148334.9838283,455
1658828982.06916,148334.9838318,507
1658828982.06916,148334.9838352,419
1658828982.06916,148334.9838373,220
1658828982.06916,148334.9838394,125
1658828982.06916,148334.9838415,109
1658828982.06916,148335.6164862,7
1658828982.06916,148335.6165038,-56
1658828982.06916,148335.6165143,-4
1658828982.06916,148335.6165195,14
1658828982.06916,148335.6165217,-16
1658828982.06916,148335.6165239,-9
1658828982.06916,148335.616526,14
1658828982.06916,148335.6165283,0
1658828982.06916,148335.6165305,-7
1658828982.06916,148335.6165326,7
1658828982.06916,148335.6165347,7
1658828982.06916,148335.6165369,-7
1658828982.06916,148335.6165399,-9
1658828982.06916,148335.6165421,-7
1658828982.06916,148335.6165442,-16
1658828982.06916,148335.6165471,-26
1658828982.06916,148335.6165492,7
1658828982.06916,148335.6165511,42
1658828982.06916,148335.6165532,28
1658828982.06916,148335.6165551,11
1658828982.06916,148335.616557,28
1658828982.07983,148335.6165589,49
1658828982.07983,148335.6165608,42
1658828982.07983,148335.6165627,-2
1658828982.07983,148335.6165646,-47
1658828982.07983,148335.6165687,-42
1658828982.07983,148335.616578,2
1658828982.07983,148335.6165847,2
1658828982.07983,148335.6165919,-52
1658828982.07983,148335.6166001,-42
1658828982.07983,148335.6166089,30
1658828982.07983,148335.6166142,16
1658828982.07983,148335.6166163,-33
1658828982.07983,148335.6166198,0
1658828982.07983,148335.6166225,37
1658828982.07983,148335.6166247,16
1658828982.07983,148335.616633,0
1658828982.07983,148335.6166436,2
1658828982.07983,148335.6166463,0
1658828982.07983,148335.6166485,-9
1658828982.07983,148335.6166506,-4
1658828982.07983,148335.6166526,23
1658828982.07983,148335.6166577,30
1658828982.07983,148335.6166692,4
1658828982.07983,148335.6166727,42
1658828982.61543,148335.6166748,251
1658828982.61543,148335.6166768,633
1658828982.61543,148335.6166787,1022
1658828982.61543,148335.6166809,1093
1658828982.61543,148335.6166908,507
1658828982.61543,148335.6166975,-246
1658828982.61543,148335.6167,-268
1658828982.61543,148335.616703,64
1658828982.61543,148335.6167155,49
1658828982.61543,148335.6167253,-35
1658828982.61543,148335.6167368,9
1658828982.61543,148335.6167453,23
1658828982.61543,148335.6167535,18
1658828982.61543,148335.6167661,45
1658828982.61543,148335.6167723,66
1658828982.61543,148335.6167746,78
1658828982.61543,148335.6167767,102
1658828982.61543,148335.6167793,118
1658828982.61543,148335.6167885,104
1658828982.61543,148335.6168005,92
1658828982.61543,148335.6168058,128
1658828982.61543,148335.616808,194
1658828982.61543,148335.61681,239
1658828982.61543,148335.6168122,258
1658828982.61543,148335.6168143,270
1658828982.61543,148335.6168164,298
1658828982.61543,148335.6168184,329
1658828982.61543,148335.6168205,324
1658828982.61543,148336.1551273,298
1658828982.61543,148336.1551603,272
1658828982.61543,148336.1551658,220
1658828982.61543,148336.1551709,166
1658828982.61543,148336.1551797,123
1658828982.61543,148336.155187,68
1658828982.61543,148336.1551935,23
1658828982.61543,148336.1551986,-4
1658828982.61543,148336.155205,-26
1658828982.61543,148336.1552113,-45
1658828982.61543,148336.1552168,-64
1658828982.61543,148336.1552227,-75
1658828982.61543,148336.1552293,-59
1658828982.61543,148336.155234,-30
1658828982.61543,148336.1552399,-40
1658828982.61543,148336.1552443,-52
1658828982.61543,148336.1552504,-16
1658828982.61543,148336.1552565,-4
1658828982.61543,148336.1552621,-14
1658828982.61543,148336.15527,-11
1658828982.61543,148336.1552748,-18
1658828982.61543,148336.1552809,-28
1658828982.64634,148336.1552865,-35
1658828982.64634,148336.1552911,-26
1658828982.64634,148336.1552959,18
1658828982.64634,148336.1553004,37
1658828982.64634,148336.155305,11
1658828982.64634,148336.1553103,-16
1658828982.64634,148336.1553154,-30
1658828982.64634,148336.1553201,-18
1658828982.64634,148336.1553248,23
1658828982.64634,148336.1553322,35
1658828982.64634,148336.155337,-28
1658828982.64634,148336.1553433,-68
1658828982.64634,148336.1553481,-7
1658828982.64634,148336.1553554,28
1658828982.64634,148336.1553623,-28
1658828982.64634,148336.155369,-28
1658828982.64634,148336.1553754,21
1658828982.64634,148336.15538,4
1658828982.64634,148336.1553856,-14
1658828982.64634,148336.1553925,23
1658828982.64634,148336.1553971,45
1658828982.64634,148336.1554019,45
1658828982.64634,148336.1554068,45
1658828982.64634,148336.1554116,30
1658828983.14299,148336.1554171,21
1658828983.14299,148336.1554217,35
1658828983.14299,148336.1554263,45
1658828983.14299,148336.1554309,40
1658828983.14299,148336.1554367,26
1658828983.14299,148336.1554413,-2
1658828983.14299,148336.155446,16
1658828983.14299,148336.1554505,163
1658828983.14299,148336.155455,500
1658828983.14299,148336.1554596,963
1658828983.14299,148336.1554647,1205
1658828983.14299,148336.1554694,733
