Time,TimeLsl,Value
1658828142.80044,147494.8974124,42
1658828142.80044,147494.8974351,42
1658828142.80044,147494.8974492,45
1658828142.80044,147494.8974594,49
1658828142.80044,147494.8974691,64
1658828142.80044,147494.8974783,68
1658828142.80044,147494.897485,45
1658828142.80044,147494.8974908,26
1658828142.80044,147494.8974969,26
1658828142.80044,147494.8975058,23
1658828142.80044,147494.8975156,21
1658828142.80044,147494.897526,16
1658828142.80044,147494.8975357,7
1658828142.80044,147494.8975442,-2
1658828142.80044,147494.8975509,-66
1658828142.80044,147494.8975556,-102
1658828142.80044,147494.8975636,120
1658828142.80044,147494.8975722,540
1658828142.80044,147494.8975791,844
1658828142.80044,147494.8975856,830
1658828142.80044,147494.897597,329
1658828142.80044,147494.8976066,-220
1658828142.80044,147494.8976118,-135
1658828142.80044,147494.8976189,94
1658828142.80044,147494.8976247,-16
1658828142.80044,147494.8976296,-59
1658828142.80044,147494.8976346,30
1658828142.80044,147494.897643,18
1658828142.80044,147494.897655,4
1658828142.80044,147494.8976658,45
1658828142.80044,147494.8976756,56
1658828142.80044,147494.897684,52
1658828142.80044,147494.8976917,78
1658828142.80044,147494.8976976,104
1658828142.80044,147494.897703,118
1658828142.80044,147494.8977111,144
1658828142.80044,147494.8977169,180
1658828142.80044,147494.8977212,206
1658828142.80044,147494.8977269,230
1658828142.80044,147494.8977314,251
1658828142.80044,147494.8977397,260
1658828142.80044,147494.8977452,258
1658828142.80044,147494.8977527,241
1658828142.80044,147494.8977599,211
1658828142.80044,147494.897767,182
1658828142.80044,147494.897777,156
1658828142.80044,147494.8977867,120
1658828142.80044,147494.8977949,78
1658828142.80044,147494.8978007,45
1658828142.80044,147494.8978096,21
1658828142.91454,147494.8978168,2
1658828142.91454,147494.8978237,-4
1658828142.91454,147494.89783,-7
1658828142.91454,147494.8978382,-2
1658828142.91454,147494.8978437,0
1658828142.91454,147494.8978518,2
1658828142.91454,147494.8978587,4
1658828142.91454,147494.8978671,4
1658828142.91454,147494.8978746,16
1658828142.91454,147494.8978834,33
1658828142.91454,147494.8978911,45
1658828142.91454,147494.897897,49
1658828142.91454,147494.8979062,54
1658828142.91454,147494.8979129,56
1658828142.91454,147494.8979202,56
1658828142.91454,147494.8979271,56
1658828142.91454,147494.8979343,61
1658828142.91454,147494.8979424,61
1658828142.91454,147494.8979479,56
1658828142.91454,147494.8979563,49
1658828142.91454,147494.897963,52
1658828142.91454,147494.8979718,56
1658828142.91454,147494.8979784,52
1658828142.91454,147495.4337391,49
1658828142.91454,147495.4337571,56
1658828142.91454,147495.4337643,64
1658828142.91454,147495.4337715,80
1658828142.91454,147495.4337784,85
1658828142.91454,147495.4337862,66
1658828142.91454,147495.433793,52
1658828142.91454,147495.4337976,54
1658828142.91454,147495.4338014,45
1658828142.91454,147495.4338045,30
1658828142.91454,147495.433808,40
1658828142.91454,147495.4338136,45
1658828142.91454,147495.4338188,-2
1658828142.91454,147495.4338219,-85
1658828142.91454,147495.4338272,-23
1658828142.91454,147495.4338321,306
1658828142.91454,147495.433837,716
1658828142.91454,147495.4338431,951
1658828142.91454,147495.4338504,751
1658828142.91454,147495.4338593,102
1658828142.91454,147495.4340291,-234
1658828142.91454,147495.4340378,-14
1658828142.91454,147495.4340428,52
1658828142.91454,147495.4340493,-66
1658828142.91454,147495.4340541,-21
1658828142.91454,147495.4340607,26
1658828142.91454,147495.4340655,-4
1658828142.95144,147495.4340721,4
1658828142.95144,147495.4340831,33
1658828142.95144,147495.4340917,37
1658828142.95144,147495.4340993,49
1658828142.95144,147495.4341055,71
1658828142.95144,147495.43416,90
1658828142.95144,147495.4341686,109
1658828142.95144,147495.4341761,135
1658828142.95144,147495.4342934,154
1658828142.95144,147495.4343395,168
1658828142.95144,147495.4343453,185
1658828142.95144,147495.4343576,204
1658828142.95144,147495.434372,211
1658828142.95144,147495.4343777,204
1658828142.95144,147495.4343813,189
1658828142.95144,147495.4343865,170
1658828142.95144,147495.4343899,151
1658828142.95144,147495.4343947,120
1658828142.95144,147495.4343982,87
1658828142.95144,147495.4344029,64
1658828142.95144,147495.4344063,40
1658828142.95144,147495.434411,7
1658828142.95144,147495.4344152,-7
1658828142.95144,147495.4344186,-2
1658828142.95144,147495.4344235,-7
1658828142.95144,147495.4344269,-4
1658828142.95144,147495.4344316,2
1658828142.95144,147495.434435,7
1658828142.95144,147495.4344398,16
1658828142.95144,147495.4344431,28
1658828142.95144,147495.4344474,40
1658828142.95144,147495.4344507,49
1658828142.95144,147495.4344539,54
1658828142.95144,147495.4344572,59
1658828142.95144,147495.4344605,61
1658828142.95144,147495.4344638,59
1658828142.95144,147495.434467,59
1658828142.95144,147495.4344703,61
1658828142.95144,147495.4344736,59
1658828142.95144,147495.4344769,52
1658828142.95144,147495.4344802,47
1658828142.95144,147495.4344835,45
1658828142.95144,147495.4344887,45
1658828142.95144,147495.4344922,45
1658828142.95144,147495.4344971,45
1658828142.95144,147495.4345005,45
1658828142.95144,147496.0190331,47
1658828142.95144,147496.0190513,59
1658828143.00529,147496.0190613,68
1658828143.00529,147496.0190657,61
1658828143.00529,147496.0190703,49
1658828143.00529,147496.0190741,42
1658828143.00529,147496.0190796,40
1658828143.00529,147496.0190855,35
1658828143.00529,147496.0190923,37
1658828143.00529,147496.0190978,49
1658828143.00529,147496.0191027,21
1658828143.00529,147496.0191108,-83
1658828143.00529,147496.0191205,-113
1658828143.00529,147496.0191287,166
1658828143.00529,147496.0191362,657
1658828143.00529,147496.0191435,1022
1658828143.00529,147496.0191485,941
1658828143.00529,147496.0191569,279
1658828143.00529,147496.0191651,-268
1658828143.00529,147496.0191734,-123
1658828143.00529,147496.0191813,52
1658828143.00529,147496.0191887,-64
1658828143.00529,147496.0191937,-64
1658828143.00529,147496.019202,9
1658828143.00529,147496.0192102,-18
1658828143.00529,147496.0192186,-30
1658828143.00529,147496.0192258,7
1658828143.00529,147496.0192337,21
1658828143.00529,147496.0192401,18
1658828143.00529,147496.0192459,30
1658828143.00529,147496.0192516,47
1658828143.00529,147496.0192602,66
1658828143.00529,147496.0192681,92
1658828143.00529,147496.0193474,123
1658828143.00529,147496.0193561,149
1658828143.00529,147496.0193648,175
1658828143.00529,147496.0193721,194
1658828143.00529,147496.0193817,199
1658828143.00529,147496.0193895,194
1658828143.00529,147496.0193953,182
1658828143.00529,147496.0194012,166
1658828143.00529,147496.0194059,156
1658828143.00529,147496.0194121,137
1658828143.00529,147496.0194205,102
1658828143.00529,147496.019433,66
1658828143.00529,147496.0194465,42
1658828143.00529,147496.0194566,23
1658828143.00529,147496.0194632,14
1658828143.00529,147496.019468,11
1658828143.00529,147496.0194736,4
1658828143.00529,147496.0194804,2
1658828143.00529,147496.0194885,11
1658828143.01626,147496.0194969,21
1658828143.01626,147496.0195027,28
1658828143.01626,147496.0195108,33
1658828143.01626,147496.0195193,42
1658828143.01626,147496.0195283,47
1658828143.01626,147496.0195373,52
1658828143.01626,147496.0195456,56
1658828143.01626,147496.0195561,61
1658828143.01626,147496.0196081,64
1658828143.01626,147496.0196215,66
1658828143.01626,147496.0196281,66
1658828143.01626,147496.019632,66
1658828143.01626,147496.0196357,64
1658828143.01626,147496.0196395,61
1658828143.01626,147496.0196444,54
1658828143.01626,147496.0196476,49
1658828143.01626,147496.0196509,45
1658828143.01626,147496.019655,40
1658828143.01626,147496.01966,33
1658828143.01626,147496.0196634,33
1658828143.01626,147496.0196682,47
1658828143.01626,147496.5563729,64
1658828143.01626,147496.5563939,64
1658828143.01626,147496.5564033,49
1658828143.54392,147496.5564115,40
1658828143.54392,147496.5564164,45
1658828143.54392,147496.5564214,52
1658828143.54392,147496.5564266,49
1658828143.54392,147496.5564327,52
1658828143.54392,147496.5564373,40
1658828143.54392,147496.5564414,-28
1658828143.54392,147496.556445,-109
1658828143.54392,147496.5564486,0
1658828143.54392,147496.5564527,391
1658828143.54392,147496.5564583,835
1658828143.54392,147496.5564624,1022
1658828143.54392,147496.556468,640
1658828143.54392,147496.5564742,-75
1658828143.54392,147496.5564788,-237
1658828143.54392,147496.5564854,37
1658828143.54392,147496.5564925,21
1658828143.54392,147496.5564994,-78
1658828143.54392,147496.5565066,-14
1658828143.54392,147496.5565107,2
1658828143.54392,147496.5565138,-28
1658828143.54392,147496.556517,-2
1658828143.54392,147496.5565223,26
1658828143.54392,147496.5565276,30
1658828143.54392,147496.5565317,47
1658828143.54392,147496.5565377,68
1658828143.54392,147496.5565431,80
1658828143.54392,147496.5565489,94
1658828143.54392,147496.5565588,120
1658828143.54392,147496.5565636,147
1658828143.54392,147496.5565743,166
1658828143.54392,147496.5565815,187
1658828143.54392,147496.5565877,201
1658828143.54392,147496.556594,204
1658828143.54392,147496.5566,199
1658828143.54392,147496.5566063,189
1658828143.54392,147496.5566104,170
1658828143.54392,147496.5566172,154
1658828143.54392,147496.5566214,135
1658828143.54392,147496.5566274,102
1658828143.54392,147496.5566315,68
1658828143.54392,147496.5566377,49
1658828143.54392,147496.5566421,37
1658828143.54392,147496.5566488,21
1658828143.54392,147496.5566596,9
1658828143.54392,147496.5566713,7
1658828143.54392,147496.5566788,14
1658828143.54392,147496.5566873,18
1658828143.54392,147496.5566941,26
1658828143.54392,147496.5566997,30
1658828143.55588,147496.5567032,33
1658828143.55588,147496.5567085,35
1658828143.55588,147496.556712,42
1658828143.55588,147496.5567171,49
1658828143.55588,147496.5567204,52
1658828143.55588,147496.5567257,54
1658828143.55588,147496.5567317,54
1658828143.55588,147496.556736,54
1658828143.55588,147496.5567418,59
1658828143.55588,147496.5567458,52
1658828143.55588,147496.5567512,35
1658828143.55588,147496.5567549,23
1658828143.55588,147496.5567605,26
1658828143.55588,147496.5567643,23
1658828143.55588,147496.5567694,14
1658828143.55588,147496.5567732,9
1658828143.55588,147496.5567787,16
1658828143.55588,147496.5567823,33
1658828143.55588,147496.5567876,49
1658828143.55588,147496.5567914,52
1658828143.55588,147497.0913015,45
1658828143.55588,147497.0913165,40
1658828143.55588,147497.091321,42
1658828143.55588,147497.0913246,45
1658828144.12742,147497.0913281,49
1658828144.12742,147497.0913315,40
1658828144.12742,147497.0913351,21
1658828144.12742,147497.0913387,-21
1658828144.12742,147497.0913421,-85
1658828144.12742,147497.0913456,7
1658828144.12742,147497.091349,377
1658828144.12742,147497.0913524,773
1658828144.12742,147497.091356,894
1658828144.12742,147497.0913593,514
1658828144.12742,147497.0913628,-149
1658828144.12742,147497.0913662,-272
1658828144.12742,147497.0913696,33
1658828144.12742,147497.0913731,21
1658828144.12742,147497.0913766,-90
1658828144.12742,147497.09138,-9
1658828144.12742,147497.0913836,18
1658828144.12742,147497.0913872,-26
1658828144.12742,147497.0913907,-2
1658828144.12742,147497.0913941,28
1658828144.12742,147497.0913976,18
1658828144.12742,147497.0914011,26
1658828144.12742,147497.0914047,59
1658828144.12742,147497.0914087,83
1658828144.12742,147497.0914122,99
1658828144.12742,147497.0914157,128
1658828144.12742,147497.0914192,154
1658828144.12742,147497.0914226,177
1658828144.12742,147497.091426,204
1658828144.12742,147497.0914297,220
1658828144.12742,147497.0914334,218
1658828144.12742,147497.0914367,211
1658828144.12742,147497.0914402,204
1658828144.12742,147497.0914436,185
1658828144.12742,147497.0914471,156
1658828144.12742,147497.0914505,135
1658828144.12742,147497.0914539,109
1658828144.12742,147497.0914578,73
1658828144.12742,147497.0914611,47
1658828144.12742,147497.0914646,30
1658828144.12742,147497.091468,16
1658828144.12742,147497.0914714,4
1658828144.12742,147497.0914748,7
1658828144.12742,147497.0914781,9
1658828144.12742,147497.0914816,11
1658828144.12742,147497.091485,16
1658828144.12742,147497.0914885,23
1658828144.12742,147497.091492,26
1658828144.12742,147497.0914955,30
1658828144.12742,147497.091499,33
1658828144.15059,147497.0915026,35
1658828144.15059,147497.0915066,45
1658828144.15059,147497.09151,49
1658828144.15059,147497.0915135,47
1658828144.15059,147497.091517,49
1658828144.15059,147497.0915204,54
1658828144.15059,147497.0915238,47
1658828144.15059,147497.0915271,35
1658828144.15059,147497.0915305,33
1658828144.15059,147497.0915339,35
1658828144.15059,147497.0915373,28
1658828144.15059,147497.0915409,16
1658828144.15059,147497.0915453,18
1658828144.15059,147497.0915523,37
1658828144.15059,147497.0915558,54
1658828144.15059,147497.091561,56
1658828144.15059,147497.0915646,56
1658828144.15059,147497.091568,54
1658828144.15059,147497.0915716,49
1658828144.15059,147497.6761085,54
1658828144.15059,147497.6761242,61
1658828144.15059,147497.676129,66
1658828144.15059,147497.6761359,68
1658828144.15059,147497.6761398,35
1658828144.71859,147497.6761446,-47
1658828144.71859,147497.6761484,-23
1658828144.71859,147497.676152,270
1658828144.71859,147497.6761745,659
1658828144.71859,147497.6761818,863
1658828144.71859,147497.6761858,638
1658828144.71859,147497.6761887,9
1658828144.71859,147497.6761917,-263
1658828144.71859,147497.6761945,11
1658828144.71859,147497.6761989,73
1658828144.71859,147497.6762042,-68
1658828144.71859,147497.6762086,-23
1658828144.71859,147497.6762129,33
1658828144.71859,147497.6762166,-2
1658828144.71859,147497.6762198,4
1658828144.71859,147497.6762227,40
1658828144.71859,147497.6762257,42
1658828144.71859,147497.6762309,45
1658828144.71859,147497.676234,73
1658828144.71859,147497.6762369,99
1658828144.71859,147497.6762398,113
1658828144.71859,147497.6762427,135
1658828144.71859,147497.6762459,163
1658828144.71859,147497.676249,189
1658828144.71859,147497.6762519,211
1658828144.71859,147497.6762561,222
1658828144.71859,147497.6762623,225
1658828144.71859,147497.6762673,222
1658828144.71859,147497.6762735,208
1658828144.71859,147497.6762771,192
1658828144.71859,147497.676283,173
1658828144.71859,147497.6762869,154
1658828144.71859,147497.6762902,125
1658828144.71859,147497.6762934,99
1658828144.71859,147497.6762966,78
1658828144.71859,147497.6762997,56
1658828144.71859,147497.6763029,42
1658828144.71859,147497.676306,42
1658828144.71859,147497.6763092,42
1658828144.71859,147497.6763124,37
1658828144.71859,147497.6763155,35
1658828144.71859,147497.6763188,40
1658828144.71859,147497.6763219,45
1658828144.71859,147497.676325,54
1658828144.71859,147497.6763283,61
1658828144.71859,147497.6763316,66
1658828144.71859,147497.6763349,75
1658828144.71859,147497.676338,78
1658828144.71859,147497.6763411,75
1658828144.71859,147497.6763443,83
1658828144.73155,147497.6763475,90
1658828144.73155,147497.6763508,85
1658828144.73155,147497.676354,78
1658828144.73155,147497.6763571,75
1658828144.73155,147497.6763603,68
1658828144.73155,147497.6763636,64
1658828144.73155,147497.6763668,61
1658828144.73155,147497.6763699,59
1658828144.73155,147497.6763731,54
1658828144.73155,147497.6763762,64
1658828144.73155,147497.6763795,83
1658828144.73155,147497.676383,85
1658828144.73155,147497.6763861,73
1658828144.73155,147497.6763895,66
1658828144.73155,147497.6763927,66
1658828144.73155,147497.6763958,68
1658828144.73155,147497.6763989,75
1658828144.73155,147497.6764021,78
1658828144.73155,147498.2633872,68
1658828144.73155,147498.2634066,23
1658828144.73155,147498.2634153,-71
1658828144.73155,147498.2634218,-64
1658828144.73155,147498.2634308,251
1658828144.73155,147498.2634394,714
1658828145.36054,147498.2634463,993
1658828145.36054,147498.263451,797
1658828145.36054,147498.2634567,137
1658828145.36054,147498.2634624,-213
1658828145.36054,147498.2634685,9
1658828145.36054,147498.263474,85
1658828145.36054,147498.2634804,-49
1658828145.36054,147498.2634861,-16
1658828145.36054,147498.2634913,42
1658828145.36054,147498.2634957,9
1658828145.36054,147498.2635009,14
1658828145.36054,147498.2635068,42
1658828145.36054,147498.2635129,33
1658828145.36054,147498.263519,30
1658828145.36054,147498.2635244,59
1658828145.36054,147498.2635303,80
1658828145.36054,147498.2635363,92
1658828145.36054,147498.2635421,118
1658828145.36054,147498.263546,142
1658828145.36054,147498.2635504,161
1658828145.36054,147498.2635565,185
1658828145.36054,147498.2635597,201
1658828145.36054,147498.2635651,206
1658828145.36054,147498.2635702,201
1658828145.36054,147498.2635761,192
1658828145.36054,147498.2635823,177
1658828145.36054,147498.2635874,163
1658828145.36054,147498.2635933,144
1658828145.36054,147498.2635986,116
1658828145.36054,147498.2636046,83
1658828145.36054,147498.2636104,54
1658828145.36054,147498.2636164,35
1658828145.36054,147498.263622,28
1658828145.36054,147498.2636278,23
1658828145.36054,147498.2636339,21
1658828145.36054,147498.2636404,21
1658828145.36054,147498.263645,26
1658828145.36054,147498.2636521,28
1658828145.36054,147498.2636575,35
1658828145.36054,147498.2636619,47
1658828145.36054,147498.2636687,54
1658828145.36054,147498.263675,61
1658828145.36054,147498.2636791,66
1658828145.36054,147498.2636851,66
1658828145.36054,147498.2636936,66
1658828145.36054,147498.2636983,68
1658828145.36054,147498.2637032,66
1658828145.36054,147498.2637064,66
1658828145.36054,147498.2637119,66
1658828145.36054,147498.2637169,61
1658828145.38348,147498.263725,52
1658828145.38348,147498.2637305,47
1658828145.38348,147498.2637348,49
1658828145.38348,147498.2637384,49
1658828145.38348,147498.263742,49
1658828145.38348,147498.2637479,56
1658828145.38348,147498.2637553,71
1658828145.38348,147498.2637622,78
1658828145.38348,147498.2637695,71
1658828145.38348,147498.2637777,47
1658828145.38348,147498.2637844,28
1658828145.38348,147498.2637994,23
1658828145.38348,147498.2638038,26
1658828145.38348,147498.2638114,28
1658828145.38348,147498.26382,33
1658828145.38348,147498.2638284,7
1658828145.38348,147498.2638358,-80
1658828145.38348,147498.8957819,-102
1658828145.38348,147498.895797,161
1658828145.38348,147498.8958008,626
1658828145.38348,147498.8958039,963
1658828145.38348,147498.8958073,858
1658828145.38348,147498.8958107,225
1658828145.38348,147498.8958353,-239
1658828145.85374,147498.8958386,-56
1658828145.85374,147498.8958418,90
1658828145.85374,147498.8958468,-35
1658828145.85374,147498.8958505,-26
1658828145.85374,147498.8958543,35
1658828145.85374,147498.8958576,7
1658828145.85374,147498.895861,4
1658828145.85374,147498.8958643,37
1658828145.85374,147498.8958676,37
1658828145.85374,147498.8958709,40
1658828145.85374,147498.895874,66
1658828145.85374,147498.8958774,92
1658828145.85374,147498.8958807,106
1658828145.85374,147498.895884,120
1658828145.85374,147498.8958872,128
1658828145.85374,147498.8958908,139
1658828145.85374,147498.895894,161
1658828145.85374,147498.8958974,185
1658828145.85374,147498.8959015,196
1658828145.85374,147498.895908,185
1658828145.85374,147498.8959187,149
1658828145.85374,147498.8959273,125
1658828145.85374,147498.8959298,120
1658828145.85374,147498.895932,106
1658828145.85374,147498.8959378,78
1658828145.85374,147498.8959493,49
1658828145.85374,147498.8959528,26
1658828145.85374,147498.8959567,2
1658828145.85374,147498.8959586,-11
1658828145.85374,147498.8959607,-18
1658828145.85374,147498.8959649,-21
1658828145.85374,147498.8959784,-16
1658828145.85374,147498.8959843,-9
1658828145.85374,147498.8959876,-9
1658828145.85374,147498.8959897,-4
1658828145.85374,147498.8959918,9
1658828145.85374,147498.8959939,16
1658828145.85374,147498.8959959,21
1658828145.85374,147498.8959979,37
1658828145.85374,147498.896,47
1658828145.85374,147498.896002,40
1658828145.85374,147498.8960041,40
1658828145.85374,147498.8960062,45
1658828145.85374,147498.8960082,37
1658828145.85374,147498.8960103,28
1658828145.85374,147498.8960123,28
1658828145.85374,147498.8960143,28
1658828145.85374,147498.8960164,30
1658828145.85374,147498.8960183,37
1658828145.85374,147498.8960204,37
1658828145.87568,147498.8960224,30
1658828145.87568,147498.8960245,33
1658828145.87568,147498.8960265,45
1658828145.87568,147498.8960324,54
1658828145.87568,147498.8960434,37
1658828145.87568,147498.8960486,18
1658828145.87568,147498.8960507,18
1658828145.87568,147498.8960528,28
1658828145.87568,147498.8960548,33
1658828145.87568,147498.8960568,40
1658828145.87568,147498.8960594,35
1658828145.87568,147498.8960695,-18
1658828145.87568,147498.896078,-87
1658828145.87568,147498.8960804,21
1658828145.87568,147498.8960824,384
1658828145.87568,147498.8960845,754
1658828145.87568,147499.3838532,851
1658828145.87568,147499.3838797,434
1658828145.87568,147499.3838824,-189
1658828145.87568,147499.3838846,-204
1658828145.87568,147499.3838866,109
1658828145.87568,147499.3838896,54
1658828145.87568,147499.3838917,-37
1658828145.87568,147499.3838937,52
1658828146.31779,147499.3838956,66
1658828146.31779,147499.3838976,33
1658828146.31779,147499.3838996,61
1658828146.31779,147499.3839016,78
1658828146.31779,147499.3839049,71
1658828146.31779,147499.3839133,90
1658828146.31779,147499.3839242,113
1658828146.31779,147499.3839321,130
1658828146.31779,147499.3839364,156
1658828146.31779,147499.3839401,177
1658828146.31779,147499.3839477,192
1658828146.31779,147499.3839542,218
1658828146.31779,147499.3839634,239
1658828146.31779,147499.383972,237
1658828146.31779,147499.3839753,234
1658828146.31779,147499.3839774,232
1658828146.31779,147499.3839795,199
1658828146.31779,147499.3839815,158
1658828146.31779,147499.3839835,144
1658828146.31779,147499.3839856,123
1658828146.31779,147499.3839876,83
1658828146.31779,147499.3839895,52
1658828146.31779,147499.3839915,18
1658828146.31779,147499.3839936,-16
1658828146.31779,147499.3839957,-26
1658828146.31779,147499.3839982,-21
1658828146.31779,147499.384005,-21
1658828146.31779,147499.3840393,-23
1658828146.31779,147499.3840646,-23
1658828146.31779,147499.3840682,-21
1658828146.31779,147499.3840761,-11
1658828146.31779,147499.3840829,0
1658828146.31779,147499.3840871,14
1658828146.31779,147499.384094,21
1658828146.31779,147499.3841002,23
1658828146.31779,147499.3841054,30
1658828146.31779,147499.3841089,37
1658828146.31779,147499.3841137,40
1658828146.31779,147499.3841172,35
1658828146.31779,147499.3841218,26
1658828146.31779,147499.3841251,23
1658828146.31779,147499.3841303,18
1658828146.31779,147499.3841337,11
1658828146.31779,147499.384137,9
1658828146.31779,147499.3841402,14
1658828146.31779,147499.3841435,26
1658828146.31779,147499.3841467,40
1658828146.31779,147499.3841499,49
1658828146.31779,147499.3841534,52
1658828146.31779,147499.3841584,42
1658828146.33862,147499.3841619,28
1658828146.33862,147499.3841728,26
1658828146.33862,147499.3841793,33
1658828146.33862,147499.3841836,30
1658828146.33862,147499.3841911,26
1658828146.33862,147499.3841961,16
1658828146.33862,147499.3841997,-54
1658828146.33862,147499.3842047,-130
1658828146.33862,147499.3842082,16
1658828146.33862,147499.3842139,424
1658828146.33862,147499.3842188,825
1658828146.33862,147499.3842224,906
1658828146.33862,147499.3842259,412
1658828146.33862,147499.3842294,-180
1658828146.33862,147499.3842353,-128
1658828146.33862,147499.8706468,116
1658828146.33862,147499.8706675,23
1658828146.33862,147499.8706832,-28
1658828146.33862,147499.8706955,49
1658828146.33862,147499.8707044,47
1658828146.33862,147499.8707083,28
1658828146.33862,147499.8707127,54
1658828146.33862,147499.8707182,64
1658828146.33862,147499.8707258,68
1658828146.90212,147499.870737,87
1658828146.90212,147499.870743,104
1658828146.90212,147499.8707525,123
1658828146.90212,147499.8707586,144
1658828146.90212,147499.8707628,163
1658828146.90212,147499.8707665,180
1658828146.90212,147499.8707703,192
1658828146.90212,147499.8707751,206
1658828146.90212,147499.8707807,218
1658828146.90212,147499.8707886,213
1658828146.90212,147499.8707984,201
1658828146.90212,147499.8708058,185
1658828146.90212,147499.870814,154
1658828146.90212,147499.8708225,125
1658828146.90212,147499.8708308,102
1658828146.90212,147499.8708378,68
1658828146.90212,147499.8708458,35
1658828146.90212,147499.8708522,18
1658828146.90212,147499.8708607,7
1658828146.90212,147499.8708679,-4
1658828146.90212,147499.8708763,-4
1658828146.90212,147499.8708826,-7
1658828146.90212,147499.8708909,-9
1658828146.90212,147499.8708972,-2
1658828146.90212,147499.8709063,2
1658828146.90212,147499.8709124,4
1658828146.90212,147499.8709206,14
1658828146.90212,147499.8709274,23
1658828146.90212,147499.8709356,33
1658828146.90212,147499.8709426,37
1658828146.90212,147499.8709491,42
1658828146.90212,147499.8709552,47
1658828146.90212,147499.8709611,42
1658828146.90212,147499.8709674,30
1658828146.90212,147499.8709737,14
1658828146.90212,147499.8709779,9
1658828146.90212,147499.8709837,14
1658828146.90212,147499.8709881,14
1658828146.90212,147499.8709937,9
1658828146.90212,147499.8710032,26
1658828146.90212,147499.8710086,47
1658828146.90212,147499.8710144,49
1658828146.90212,147499.8710213,42
1658828146.90212,147499.8710279,47
1658828146.90212,147499.8710331,42
1658828146.90212,147499.8710383,28
1658828146.90212,147499.8710422,33
1658828146.90212,147499.8710477,45
1658828146.90212,147499.8710525,47
1658828146.90212,147499.8710595,18
1658828146.91971,147499.8710662,-75
1658828146.91971,147499.871072,-125
1658828146.91971,147499.8710799,94
1658828146.91971,147499.8710858,557
1658828146.91971,147499.8710949,948
1658828146.91971,147499.871101,868
1658828146.91971,147499.8711091,201
1658828146.91971,147499.8711153,-277
1658828146.91971,147499.8711224,-59
1658828146.91971,147499.8711317,109
1658828146.91971,147499.8711386,-26
1658828146.91971,147499.8711442,-7
1658828146.91971,147499.8711595,68
1658828146.91971,147499.8711698,18
1658828146.91971,147500.4560649,0
1658828146.91971,147500.4560801,42
1658828146.91971,147500.4560858,54
1658828146.91971,147500.4560907,52
1658828146.91971,147500.4560957,71
1658828146.91971,147500.4561019,73
1658828146.91971,147500.456108,75
1658828146.91971,147500.4561133,104
1658828146.91971,147500.4561193,130
1658828146.91971,147500.4561234,151
1658828147.45227,147500.4561286,175
1658828147.45227,147500.4561332,177
1658828147.45227,147500.4561372,168
1658828147.45227,147500.4561411,166
1658828147.45227,147500.4561449,161
1658828147.45227,147500.4561488,147
1658828147.45227,147500.4561527,135
1658828147.45227,147500.4561568,113
1658828147.45227,147500.4561608,73
1658828147.45227,147500.4561646,42
1658828147.45227,147500.4561684,23
1658828147.45227,147500.4561723,7
1658828147.45227,147500.4561763,-14
1658828147.45227,147500.4561801,-23
1658828147.45227,147500.4561836,-21
1658828147.45227,147500.4561871,-18
1658828147.45227,147500.4561907,-16
1658828147.45227,147500.4561948,-7
1658828147.45227,147500.4561997,2
1658828147.45227,147500.4562047,7
1658828147.45227,147500.4562096,16
1658828147.45227,147500.4562151,26
1658828147.45227,147500.4562222,26
1658828147.45227,147500.4562272,28
1658828147.45227,147500.4562308,35
1658828147.45227,147500.4562345,37
1658828147.45227,147500.4562382,33
1658828147.45227,147500.4562419,18
1658828147.45227,147500.4562457,14
1658828147.45227,147500.4562495,21
1658828147.45227,147500.4562531,28
1658828147.45227,147500.456257,33
1658828147.45227,147500.4562607,37
1658828147.45227,147500.4562645,37
1658828147.45227,147500.4562706,47
1658828147.45227,147500.4562741,64
1658828147.45227,147500.4562795,66
1658828147.45227,147500.4562908,56
1658828147.45227,147500.4563038,49
1658828147.45227,147500.4563124,49
1658828147.45227,147500.4563191,54
1658828147.45227,147500.4563257,66
1658828147.45227,147500.4563328,73
1658828147.45227,147500.4563404,42
1658828147.45227,147500.4563483,-56
1658828147.45227,147500.4563552,-111
1658828147.45227,147500.4563619,113
1658828147.45227,147500.4563678,581
1658828147.45227,147500.4563819,937
1658828147.45227,147500.4563914,808
1658828147.47521,147500.4564045,161
1658828147.47521,147500.4564129,-241
1658828147.47521,147500.4564158,-21
1658828147.47521,147500.4564179,97
1658828147.47521,147500.45642,-42
1658828147.47521,147500.4564257,-16
1658828147.47521,147500.4564385,49
1658828147.47521,147500.4564464,14
1658828147.47521,147500.456449,9
1658828147.47521,147500.4564512,42
1658828147.47521,147500.4564533,47
1658828147.47521,147500.4564553,54
1658828147.47521,147500.4564574,83
1658828147.47521,147500.9931944,102
1658828147.47521,147500.9932209,113
1658828147.47521,147500.9932237,137
1658828147.47521,147500.9932259,166
1658828147.47521,147500.9932295,187
1658828147.47521,147500.9932315,208
1658828147.47521,147500.9932336,230
1658828147.47521,147500.9932357,234
1658828147.47521,147500.9932377,218
1658828147.47521,147500.9932398,194
1658828147.47521,147500.9932418,180
1658828148.07515,147500.9932438,173
1658828148.07515,147500.9932459,156
1658828148.07515,147500.9932477,125
1658828148.07515,147500.9932496,83
1658828148.07515,147500.9932514,40
1658828148.07515,147500.9932534,14
1658828148.07515,147500.9932553,4
1658828148.07515,147500.9932573,-2
1658828148.07515,147500.9932593,-4
1658828148.07515,147500.9932611,-2
1658828148.07515,147500.993263,-4
1658828148.07515,147500.9932649,-4
1658828148.07515,147500.9932669,2
1658828148.07515,147500.9932688,14
1658828148.07515,147500.9932707,26
1658828148.07515,147500.9932726,33
1658828148.07515,147500.9932744,37
1658828148.07515,147500.9932763,37
1658828148.07515,147500.9932782,33
1658828148.07515,147500.9932801,33
1658828148.07515,147500.993282,37
1658828148.07515,147500.9932839,37
1658828148.07515,147500.9932861,42
1658828148.07515,147500.9932915,45
1658828148.07515,147500.9933016,42
1658828148.07515,147500.9933063,49
1658828148.07515,147500.9933084,61
1658828148.07515,147500.9933103,73
1658828148.07515,147500.9933122,83
1658828148.07515,147500.9933141,80
1658828148.07515,147500.9933161,71
1658828148.07515,147500.9933215,61
1658828148.07515,147500.9933313,61
1658828148.07515,147500.9933488,71
1658828148.07515,147500.993351,73
1658828148.07515,147500.9933707,68
1658828148.07515,147500.9933729,54
1658828148.07515,147500.9933749,-9
1658828148.07515,147500.993377,-66
1658828148.07515,147500.993379,99
1658828148.07515,147500.9933811,500
1658828148.07515,147500.9933831,837
1658828148.07515,147500.9933852,782
1658828148.07515,147500.9933873,232
1658828148.07515,147500.9933893,-237
1658828148.07515,147500.9933914,-78
1658828148.07515,147500.9933935,106
1658828148.07515,147500.9933955,-26
1658828148.07515,147500.9933976,-35
1658828148.07515,147500.9933997,52
1658828148.09709,147500.9934018,18
1658828148.09709,147500.9934038,0
1658828148.09709,147500.9934059,40
1658828148.09709,147500.9934079,49
1658828148.09709,147500.9934101,45
1658828148.09709,147500.9934122,68
1658828148.09709,147500.9934142,92
1658828148.09709,147500.9934163,104
1658828148.09709,147500.9934183,130
1658828148.09709,147500.9934204,158
1658828148.09709,147500.9934377,180
1658828148.09709,147500.9934401,201
1658828148.09709,147501.6264075,220
1658828148.09709,147501.6264267,234
1658828148.09709,147501.6264323,234
1658828148.09709,147501.6264396,220
1658828148.09709,147501.6264476,204
1658828148.09709,147501.6264542,189
1658828148.09709,147501.62646,168
1658828148.09709,147501.6264644,137
1658828148.09709,147501.6264689,106
1658828148.09709,147501.6264751,75
1658828148.09709,147501.6264811,52
1658828148.09709,147501.6264873,26
1658828148.61231,147501.6264938,7
1658828148.61231,147501.6265003,4
1658828148.61231,147501.6265098,4
1658828148.61231,147501.6265158,-2
1658828148.61231,147501.6265207,4
1658828148.61231,147501.6265304,7
1658828148.61231,147501.6265367,-4
1658828148.61231,147501.6265413,4
1658828148.61231,147501.6265466,28
1658828148.61231,147501.6265502,28
1658828148.61231,147501.6265559,18
1658828148.61231,147501.626562,21
1658828148.61231,147501.6265684,28
1658828148.61231,147501.6265742,30
1658828148.61231,147501.6265799,26
1658828148.61231,147501.6265851,26
1658828148.61231,147501.6265912,33
1658828148.61231,147501.6266001,40
1658828148.61231,147501.6266119,42
1658828148.61231,147501.6266258,45
1658828148.61231,147501.6266362,56
1658828148.61231,147501.6266429,73
1658828148.61231,147501.6266503,80
1658828148.61231,147501.6266576,80
1658828148.61231,147501.6266654,73
1658828148.61231,147501.6266727,68
1658828148.61231,147501.62668,64
1658828148.61231,147501.6266888,59
1658828148.61231,147501.6266933,68
1658828148.61231,147501.6266953,78
1658828148.61231,147501.626698,35
1658828148.61231,147501.6267058,-78
1658828148.61231,147501.6267184,-90
1658828148.61231,147501.6267299,194
1658828148.61231,147501.6267394,638
1658828148.61231,147501.6267469,937
1658828148.61231,147501.6267539,766
1658828148.61231,147501.6267597,120
1658828148.61231,147501.626769,-208
1658828148.61231,147501.6267736,28
1658828148.61231,147501.6267822,90
1658828148.61231,147501.6267924,-37
1658828148.61231,147501.6268068,9
1658828148.61231,147501.6268195,52
1658828148.61231,147501.6268328,11
1658828148.61231,147501.6268457,23
1658828148.61231,147501.6268587,56
1658828148.61231,147501.6268717,56
1658828148.61231,147501.626886,68
1658828148.61231,147501.6270042,92
1658828148.63525,147501.6270096,102
1658828148.63525,147501.6270132,116
1658828148.63525,147501.6270167,144
1658828148.63525,147501.6270206,175
1658828148.63525,147501.6270241,199
1658828148.63525,147501.6270276,222
1658828148.63525,147501.6270309,237
1658828148.63525,147501.6270344,237
1658828148.63525,147501.6270387,232
1658828148.63525,147501.627042,222
1658828148.63525,147501.6270456,206
1658828148.63525,147502.1613398,189
1658828148.63525,147502.1613575,166
1658828148.63525,147502.1613644,130
1658828148.63525,147502.161373,94
1658828148.63525,147502.1613781,66
1658828148.63525,147502.1613834,45
1658828148.63525,147502.1613882,30
1658828148.63525,147502.1613956,18
1658828148.63525,147502.1614037,4
1658828148.63525,147502.1614161,-7
1658828148.63525,147502.1614277,-4
1658828148.63525,147502.1614308,4
1658828148.63525,147502.1614329,16
1658828149.1451,147502.161435,28
1658828149.1451,147502.161437,33
1658828149.1451,147502.1614426,28
1658828149.1451,147502.1614528,37
1658828149.1451,147502.161462,52
1658828149.1451,147502.1614671,49
1658828149.1451,147502.1614708,47
1658828149.1451,147502.1614761,42
1658828149.1451,147502.1614807,23
1658828149.1451,147502.1614897,14
1658828149.1451,147502.1615021,28
1658828149.1451,147502.1615149,37
1658828149.1451,147502.1615231,37
1658828149.1451,147502.1615305,40
1658828149.1451,147502.161533,52
1658828149.1451,147502.1615351,66
1658828149.1451,147502.1615381,73
1658828149.1451,147502.1615482,68
1658828149.1451,147502.1615559,59
1658828149.1451,147502.1615585,56
1658828149.1451,147502.1615605,59
1658828149.1451,147502.1615625,64
1658828149.1451,147502.1615645,68
1658828149.1451,147502.161572,54
1658828149.1451,147502.1615833,-37
1658828149.1451,147502.1615882,-149
1658828149.1451,147502.1615902,-35
1658828149.1451,147502.1615923,379
1658828149.1451,147502.1615943,830
1658828149.1451,147502.1615967,993
1658828149.1451,147502.1616044,574
1658828149.1451,147502.161615,-97
1658828149.1451,147502.1616183,-158
1658828149.1451,147502.1616212,99
1658828149.1451,147502.1616249,30
1658828149.1451,147502.1616379,-47
1658828149.1451,147502.1616495,28
1658828149.1451,147502.1616641,28

1658828149.1451,147502.1616756,2
1658828149.1451,147502.1616894,30
1658828149.1451,147502.1617007,45
1658828149.1451,147502.1617123,45
1658828149.1451,147502.161718,68
1658828149.1451,147502.1617222,87
1658828149.1451,147502.1617262,97
1658828149.1451,147502.1617303,118
1658828149.1451,147502.1617349,144
1658828149.1451,147502.1617389,170
1658828149.1451,147502.1617428,199
1658828149.1451,147502.1617478,220
1658828149.15906,147502.1617531,230
1658828149.15906,147502.1617572,234
1658828149.15906,147502.1617626,227
1658828149.15906,147502.1617695,206
1658828149.15906,147502.1617751,187
1658828149.15906,147502.1617794,163
1658828149.15906,147502.161785,128
1658828149.15906,147502.1617893,85
1658828149.15906,147502.1617933,52
1658828149.15906,147502.1617977,23
1658828149.15906,147502.6976957,2
1658828149.15906,147502.6977204,-7
1658828149.15906,147502.6977228,-4
1658828149.15906,147502.6977249,0
1658828149.15906,147502.6977418,-2
1658828149.15906,147502.6977438,0
1658828149.15906,147502.6977457,7
1658828149.15906,147502.6977476,14
1658828149.15906,147502.6977496,9
1658828149.15906,147502.6977516,7
1658828149.15906,147502.6977536,18
1658828149.15906,147502.6977556,18
1658828149.15906,147502.6977576,9
1658828149.15906,147502.6977596,14
1658828149.73089,147502.6977618,21
1658828149.73089,147502.6977637,18
1658828149.73089,147502.6977655,16
1658828149.73089,147502.6977674,7
1658828149.73089,147502.69777,-7
1658828149.73089,147502.6977758,-2
1658828149.73089,147502.6977836,7
1658828149.73089,147502.6977909,11
1658828149.73089,147502.6977982,28
1658828149.73089,147502.6978038,49
1658828149.73089,147502.6978094,49
1658828149.73089,147502.6978185,37
1658828149.73089,147502.6978279,35
1658828149.73089,147502.6978342,35
1658828149.73089,147502.6978394,33
1658828149.73089,147502.6978427,37
1658828149.73089,147502.6978459,42
1658828149.73089,147502.6978493,30
1658828149.73089,147502.697854,-52
1658828149.73089,147502.6978592,-151
1658828149.73089,147502.6978637,-23
1658828149.73089,147502.6978671,393
1658828149.73089,147502.6978706,818
1658828149.73089,147502.6978741,946
1658828149.73089,147502.6978784,512
1658828149.73089,147502.697882,-135
1658828149.73089,147502.6978856,-166
1658828149.73089,147502.6978895,104
1658828149.73089,147502.6978929,30
1658828149.73089,147502.6978963,-49
1658828149.73089,147502.6979001,30
1658828149.73089,147502.6979037,33
1658828149.73089,147502.6979072,-2
1658828149.73089,147502.697911,23
1658828149.73089,147502.6979147,42
1658828149.73089,147502.6979184,40
1658828149.73089,147502.697922,56
1658828149.73089,147502.6979258,78
1658828149.73089,147502.6979295,90
1658828149.73089,147502.6979331,118
1658828149.73089,147502.6979368,149
1658828149.73089,147502.6979405,168
1658828149.73089,147502.697944,187
1658828149.73089,147502.6979476,213
1658828149.73089,147502.6979511,232
1658828149.73089,147502.6979545,237
1658828149.73089,147502.6979588,218
1658828149.73089,147502.6979626,192
1658828149.73089,147502.6979687,175
1658828149.73089,147502.6979737,154
1658828149.74368,147502.6979792,118
1658828149.74368,147502.697983,75
1658828149.74368,147502.6979866,42
1658828149.74368,147502.697992,16
1658828149.74368,147502.6979959,2
1658828149.74368,147502.6980014,-4
1658828149.74368,147502.6980053,-7
1658828149.74368,147502.6980132,-4
1658828149.74368,147502.6980182,-2
1658828149.74368,147503.2827252,-4
1658828149.74368,147503.2827426,-9
1658828149.74368,147503.2827466,-4
1658828149.74368,147503.28275,11
1658828149.74368,147503.2827551,21
1658828149.74368,147503.2827596,28
1658828149.74368,147503.282765,35
1658828149.74368,147503.2827695,40
1658828149.74368,147503.2827747,30
1658828149.74368,147503.2827783,23
1658828149.74368,147503.2827818,33
1658828149.74368,147503.2827857,40
1658828149.74368,147503.2827894,30
1658828149.74368,147503.2827949,23
1658828149.74368,147503.2827989,16
1658828150.26555,147503.2828037,4
1658828150.26555,147503.282807,7
1658828150.26555,147503.2828104,23
1658828150.26555,147503.2828146,26
1658828150.26555,147503.2828183,30
1658828150.26555,147503.2828218,45
1658828150.26555,147503.2828261,54
1658828150.26555,147503.2828303,47
1658828150.26555,147503.282834,40
1658828150.26555,147503.2828376,40
1658828150.26555,147503.282841,52
1658828150.26555,147503.2828448,56
1658828150.26555,147503.2828485,61
1658828150.26555,147503.2828524,45
1658828150.26555,147503.2828558,-42
1658828150.26555,147503.2828713,-130
1658828150.26555,147503.2828869,16
1658828150.26555,147503.2828923,443
1658828150.26555,147503.2828963,894
1658828150.26555,147503.2828999,1062
1658828150.26555,147503.2829032,621
1658828150.26555,147503.2829071,-92
1658828150.26555,147503.2829099,-182
1658828150.26555,147503.2829142,92
1658828150.26555,147503.2829177,33
1658828150.26555,147503.2829207,-54
1658828150.26555,147503.2829236,26
1658828150.26555,147503.2829265,30
1658828150.26555,147503.2829301,-4
1658828150.26555,147503.2829329,26
1658828150.26555,147503.2829358,49
1658828150.26555,147503.282939,47
1658828150.26555,147503.2829428,64
1658828150.26555,147503.2829462,85
1658828150.26555,147503.2829493,102
1658828150.26555,147503.2829526,128
1658828150.26555,147503.2829556,154
1658828150.26555,147503.2829587,173
1658828150.26555,147503.2829617,196
1658828150.26555,147503.2829652,225
1658828150.26555,147503.2829686,241
1658828150.26555,147503.2829716,244
1658828150.26555,147503.2829747,237
1658828150.26555,147503.282978,222
1658828150.26555,147503.2829813,201
1658828150.26555,147503.2829841,173
1658828150.26555,147503.2829871,139
1658828150.26555,147503.2829899,106
1658828150.26555,147503.2829928,71
1658828150.26555,147503.2829957,42
1658828150.27552,147503.2829986,23
1658828150.27552,147503.2830018,2
1658828150.27552,147503.2830048,-9
1658828150.27552,147503.2830079,0
1658828150.27552,147503.2830114,7
1658828150.27552,147503.2830143,11
1658828150.27552,147503.2830173,18
1658828150.27552,147503.2830216,23
1658828150.27552,147503.8191849,30
1658828150.27552,147503.8192045,47
1658828150.27552,147503.8192184,61
1658828150.27552,147503.8192316,68
1658828150.27552,147503.8192465,73
1658828150.27552,147503.8192598,73
1658828150.27552,147503.81927,80
1658828150.27552,147503.8192736,90
1658828150.27552,147503.8192841,87
1658828150.27552,147503.819292,85
1658828150.27552,147503.8192958,80
1658828150.27552,147503.8193094,52
1658828150.27552,147503.8193187,33
1658828150.27552,147503.8193221,45
1658828150.27552,147503.8193251,54
1658828150.27552,147503.819328,54
1658828150.90578,147503.8193309,59
1658828150.90578,147503.8193339,64
1658828150.90578,147503.8193373,64
1658828150.90578,147503.819346,73
1658828150.90578,147503.8193541,78
1658828150.90578,147503.8193599,68
1658828150.90578,147503.8193719,64
1658828150.90578,147503.8193815,66
1658828150.90578,147503.819388,68
1658828150.90578,147503.8193966,71
1658828150.90578,147503.8194035,68
1658828150.90578,147503.8194116,30
1658828150.90578,147503.8194185,-64
1658828150.90578,147503.8194269,-52
1658828150.90578,147503.8194332,258
1658828150.90578,147503.8194416,735
1658828150.90578,147503.819448,1076
1658828150.90578,147503.8194564,946
1658828150.90578,147503.8194628,244
1658828150.90578,147503.8194713,-220
1658828150.90578,147503.8194796,-11
1658828150.90578,147503.8194859,97
1658828150.90578,147503.8194944,-45
1658828150.90578,147503.8194984,-16
1658828150.90578,147503.8195023,47
1658828150.90578,147503.8195105,9
1658828150.90578,147503.8195186,7
1658828150.90578,147503.8195302,40
1658828150.90578,147503.8195434,45
1658828150.90578,147503.819556,52
1658828150.90578,147503.8195702,73
1658828150.90578,147503.819583,87
1658828150.90578,147503.819596,106
1658828150.90578,147503.8196092,130
1658828150.90578,147503.8196222,158
1658828150.90578,147503.8196353,189
1658828150.90578,147503.8196483,218
1658828150.90578,147503.819661,239
1658828150.90578,147503.8196739,249
1658828150.90578,147503.8196868,249
1658828150.90578,147503.8197004,237
1658828150.90578,147503.8197144,220
1658828150.90578,147503.8197276,196
1658828150.90578,147503.8197372,161
1658828150.90578,147503.8197447,113
1658828150.90578,147503.8197513,71
1658828150.90578,147503.8197594,40
1658828150.90578,147503.8197658,23
1658828150.90578,147503.8197721,11
1658828150.90578,147503.8197771,0
1658828150.92031,147503.8197829,2
1658828150.92031,147503.8197883,7
1658828150.92031,147503.8197934,9
1658828150.92031,147503.8197983,14
1658828150.92031,147503.8198017,21
1658828150.92031,147503.8198071,28
1658828150.92031,147503.8198107,42
1658828150.92031,147504.4527379,52
1658828150.92031,147504.4527576,54
1658828150.92031,147504.4527639,56
1658828150.92031,147504.452779,61
1658828150.92031,147504.4527931,66
1658828150.92031,147504.4528053,73
1658828150.92031,147504.4528135,80
1658828150.92031,147504.4528188,78
1658828150.92031,147504.4528255,61
1658828150.92031,147504.4528298,52
1658828150.92031,147504.4528338,52
1658828150.92031,147504.4528379,47
1658828150.92031,147504.4528425,42
1658828150.92031,147504.4528467,45
1658828150.92031,147504.4528512,35
1658828150.92031,147504.4528573,18
1658828150.92031,147504.4528619,26
1658828151.39285,147504.4528677,47
1658828151.39285,147504.4528712,66
1658828151.39285,147504.4528749,80
1658828151.39285,147504.4528785,73
1658828151.39285,147504.4528818,56
1658828151.39285,147504.4528923,49
1658828151.39285,147504.4529003,52
1658828151.39285,147504.4529075,59
1658828151.39285,147504.4529133,64
1658828151.39285,147504.4529202,66
1658828151.39285,147504.4529275,45
1658828151.39285,147504.4529317,-28
1658828151.39285,147504.4529338,-54
1658828151.39285,147504.4529359,168
1658828151.39285,147504.4529379,614
1658828151.39285,147504.45294,1022
1658828151.39285,147504.4529421,1050
1658828151.39285,147504.4529441,436
1658828151.39285,147504.4529461,-227
1658828151.39285,147504.4529481,-154
1658828151.39285,147504.4529501,75
1658828151.39285,147504.4529521,-40
1658828151.39285,147504.4529541,-73
1658828151.39285,147504.4529561,14
1658828151.39285,147504.4529582,-2
1658828151.39285,147504.4529602,-21
1658828151.39285,147504.4529622,18
1658828151.39285,147504.4529642,35
1658828151.39285,147504.4529662,33
1658828151.39285,147504.4529682,49
1658828151.39285,147504.4529832,68
1658828151.39285,147504.452986,87
1658828151.39285,147504.452988,116
1658828151.39285,147504.45299,147
1658828151.39285,147504.452992,173
1658828151.39285,147504.4530072,194
1658828151.39285,147504.4530092,211
1658828151.39285,147504.4530112,225
1658828151.39285,147504.4530133,232
1658828151.39285,147504.4530152,227
1658828151.39285,147504.4530172,215
1658828151.39285,147504.4530192,192
1658828151.39285,147504.4530212,161
1658828151.39285,147504.4530232,125
1658828151.39285,147504.4530252,87
1658828151.39285,147504.4530273,54
1658828151.39285,147504.4530294,26
1658828151.39285,147504.4530314,4
1658828151.39285,147504.4530334,-9
1658828151.39285,147504.4530355,-18
1658828151.40581,147504.4530375,-16
1658828151.40581,147504.4530527,-11
1658828151.40581,147504.4530546,-7
1658828151.40581,147504.4530566,-4
1658828151.40581,147504.4530592,2
1658828151.40581,147504.453075,11
1658828151.40581,147504.9400942,21
1658828151.40581,147504.9401073,23
1658828151.40581,147504.9401098,33
1658828151.40581,147504.9401121,45
1658828151.40581,147504.9401143,42
1658828151.40581,147504.9401163,28
1658828151.40581,147504.9401184,26
1658828151.40581,147504.9401205,35
1658828151.40581,147504.9401226,35
1658828151.40581,147504.9401246,33
1658828151.40581,147504.9401266,35
1658828151.40581,147504.9401286,28
1658828151.40581,147504.9401307,23
1658828151.40581,147504.9401327,23
1658828151.40581,147504.9401348,26
1658828151.40581,147504.9401368,23
1658828151.40581,147504.9401388,21
1658828151.40581,147504.9401409,11
1658828151.97953,147504.940143,9
1658828151.97953,147504.940145,28
1658828151.97953,147504.9401469,45
1658828151.97953,147504.9401488,37
1658828151.97953,147504.9401507,33
1658828151.97953,147504.940153,35
1658828151.97953,147504.9401549,30
1658828151.97953,147504.940157,21
1658828151.97953,147504.940159,23
1658828151.97953,147504.940161,30
1658828151.97953,147504.9401631,-4
1658828151.97953,147504.9401651,-83
1658828151.97953,147504.940167,-59
1658828151.97953,147504.9401689,239
1658828151.97953,147504.9401722,706
1658828151.97953,147504.9401817,1046
1658828151.97953,147504.9401914,915
1658828151.97953,147504.9402019,199
1658828151.97953,147504.9402142,-301
1658828151.97953,147504.9402192,-85
1658828151.97953,147504.9402213,59
1658828151.97953,147504.9402255,-85
1658828151.97953,147504.9402276,-54
1658828151.97953,147504.9402296,28
1658828151.97953,147504.9402315,-9
1658828151.97953,147504.9402335,-16
1658828151.97953,147504.9402355,18
1658828151.97953,147504.9402375,14
1658828151.97953,147504.9402396,16
1658828151.97953,147504.9402416,47
1658828151.97953,147504.9402436,66
1658828151.97953,147504.9402456,80
1658828151.97953,147504.9402476,113
1658828151.97953,147504.9402496,144
1658828151.97953,147504.9402516,170
1658828151.97953,147504.9402536,206
1658828151.97953,147504.9402556,237
1658828151.97953,147504.9402575,249
1658828151.97953,147504.9402596,249
1658828151.97953,147504.9402616,237
1658828151.97953,147504.9402643,220
1658828151.97953,147504.9402664,201
1658828151.97953,147504.9402683,173
1658828151.97953,147504.9402703,130
1658828151.97953,147504.9402724,80
1658828151.97953,147504.9402966,40
1658828151.97953,147504.9403013,14
1658828151.97953,147504.9403034,-4
1658828151.97953,147504.9403063,-11
1658828151.97953,147504.9403083,-11
1658828151.99149,147504.9403105,-18
1658828151.99149,147504.9403124,-16
1658828151.99149,147504.9403145,-4
1658828151.99149,147504.9403165,7
1658828151.99149,147504.9403186,11
1658828151.99149,147505.5257176,21
1658828151.99149,147505.5257366,26
1658828151.99149,147505.5257423,30
1658828151.99149,147505.5257475,40
1658828151.99149,147505.5257519,47
1658828151.99149,147505.525757,52
1658828151.99149,147505.5257638,59
1658828151.99149,147505.525768,59
1658828151.99149,147505.5257719,40
1658828151.99149,147505.5257776,26
1658828151.99149,147505.5257898,28
1658828151.99149,147505.5257957,35
1658828151.99149,147505.525802,30
1658828151.99149,147505.5258119,18
1658828151.99149,147505.525823,2
1658828151.99149,147505.5258339,-11
1658828151.99149,147505.5258411,-9
1658828151.99149,147505.5258482,-4
1658828151.99149,147505.5258543,-7
1658828152.5085,147505.5258591,2
1658828152.5085,147505.525865,14
1658828152.5085,147505.5258705,18
1658828152.5085,147505.525876,18
1658828152.5085,147505.5258832,16
1658828152.5085,147505.525888,11
1658828152.5085,147505.525896,11
1658828152.5085,147505.5259006,18
1658828152.5085,147505.5259068,23
1658828152.5085,147505.5259142,21
1658828152.5085,147505.5259188,0
1658828152.5085,147505.5259252,-64
1658828152.5085,147505.5259318,-30
1658828152.5085,147505.5259361,272
1658828152.5085,147505.5259396,721
1658828152.5085,147505.525943,1031
1658828152.5085,147505.5259465,891
1658828152.5085,147505.525951,185
1658828152.5085,147505.525956,-301
1658828152.5085,147505.5259607,-85
1658828152.5085,147505.5259669,56
1658828152.5085,147505.5259721,-85
1658828152.5085,147505.5259781,-54
1658828152.5085,147505.5259854,21
1658828152.5085,147505.5259901,-11
1658828152.5085,147505.5259955,-11
1658828152.5085,147505.5260003,28
1658828152.5085,147505.5260076,35
1658828152.5085,147505.5260153,37
1658828152.5085,147505.5260221,59
1658828152.5085,147505.5260307,78
1658828152.5085,147505.5260361,97
1658828152.5085,147505.5260417,120
1658828152.5085,147505.5260467,151
1658828152.5085,147505.5260537,187
1658828152.5085,147505.5260593,218
1658828152.5085,147505.5260664,246
1658828152.5085,147505.5260715,260
1658828152.5085,147505.5260787,265
1658828152.5085,147505.526083,258
1658828152.5085,147505.5260888,237
1658828152.5085,147505.5260955,215
1658828152.5085,147505.5261055,185
1658828152.5085,147505.5261119,139
1658828152.5085,147505.5261201,92
1658828152.5085,147505.5261273,59
1658828152.5085,147505.5261348,30
1658828152.5085,147505.5261419,9
1658828152.5085,147505.5261484,0
1658828152.5085,147505.5261548,2
1658828152.52645,147505.5261633,4
1658828152.52645,147505.5261704,9
1658828152.52645,147505.5261777,11
1658828152.52645,147505.5261847,16
1658828152.52645,147506.0629366,23
1658828152.52645,147506.0629538,30
1658828152.52645,147506.062964,37
1658828152.52645,147506.062969,45
1658828152.52645,147506.0629732,47
1658828152.52645,147506.0629809,49
1658828152.52645,147506.0629875,52
1658828152.52645,147506.0629982,52
1658828152.52645,147506.0630073,52
1658828152.52645,147506.0630188,56
1658828152.52645,147506.0630259,56
1658828152.52645,147506.0630284,40
1658828152.52645,147506.0630305,28
1658828152.52645,147506.0630326,33
1658828152.52645,147506.0630346,28
1658828152.52645,147506.0630415,16
1658828152.52645,147506.0630524,11
1658828152.52645,147506.0630574,-7
1658828152.52645,147506.0630596,-28
1658828152.52645,147506.0630618,-26
1658828153.14194,147506.0630639,-11
1658828153.14194,147506.0630672,-11
1658828153.14194,147506.0630781,-9
1658828153.14194,147506.0630863,9
1658828153.14194,147506.0630936,28
1658828153.14194,147506.063098,28
1658828153.14194,147506.0631016,23
1658828153.14194,147506.0631062,23
1658828153.14194,147506.0631112,28
1658828153.14194,147506.0631161,35
1658828153.14194,147506.0631225,35
1658828153.14194,147506.0631334,28
1658828153.14194,147506.0631387,18
1658828153.14194,147506.0631423,-18
1658828153.14194,147506.0631444,-16
1658828153.14194,147506.0631469,206
1658828153.14194,147506.0631563,633
1658828153.14194,147506.0631659,1024
1658828153.14194,147506.0631685,1095
1658828153.14194,147506.0631706,529
1658828153.14194,147506.0631731,-204
1658828153.14194,147506.0631808,-211
1658828153.14194,147506.0631914,61
1658828153.14194,147506.0631947,-26
1658828153.14194,147506.0631986,-85
1658828153.14194,147506.0632006,11
1658828153.14194,147506.0632068,9
1658828153.14194,147506.0632182,-16
1658828153.14194,147506.0632378,26
1658828153.14194,147506.063258,42
1658828153.14194,147506.0632673,37
1658828153.14194,147506.0632728,64
1658828153.14194,147506.0632775,87
1658828153.14194,147506.0632823,99
1658828153.14194,147506.0632871,125
1658828153.14194,147506.0632918,154
1658828153.14194,147506.0632967,182
1658828153.14194,147506.0633015,215
1658828153.14194,147506.0633065,249
1658828153.14194,147506.0633113,270
1658828153.14194,147506.0633163,279
1658828153.14194,147506.0633214,275
1658828153.14194,147506.0633261,260
1658828153.14194,147506.0633305,241
1658828153.14194,147506.0633351,215
1658828153.14194,147506.0633404,177
1658828153.14194,147506.063345,132
1658828153.14194,147506.0633496,85
1658828153.14194,147506.0633542,47
1658828153.14194,147506.0633682,23
1658828153.15298,147506.0633729,11
1658828153.15298,147506.0633776,-4
1658828153.15298,147506.0633822,-21
1658828153.15298,147506.695705,-16
1658828153.15298,147506.6957269,-9
1658828153.15298,147506.6957415,-4
1658828153.15298,147506.6957548,2
1658828153.15298,147506.6957679,9
1658828153.15298,147506.6957807,16
1658828153.15298,147506.6957886,23
1658828153.15298,147506.6957929,23
1658828153.15298,147506.6957986,16
1658828153.15298,147506.6958033,16
1658828153.15298,147506.6958091,26
1658828153.15298,147506.6958141,26
1658828153.15298,147506.6958202,16
1658828153.15298,147506.6958261,16
1658828153.15298,147506.6958299,9
1658828153.15298,147506.6958355,-2
1658828153.15298,147506.6958408,-2
1658828153.15298,147506.6958447,2
1658828153.15298,147506.6958498,-2
1658828153.15298,147506.6958545,-2
1658828153.15298,147506.6958598,-9
1658828153.7266,147506.6958634,-26
1658828153.7266,147506.6958675,-37
1658828153.7266,147506.6958712,-42
1658828153.7266,147506.695875,-42
1658828153.7266,147506.6958788,-33
1658828153.7266,147506.6958828,-23
1658828153.7266,147506.6958863,-11
1658828153.7266,147506.6958899,7
1658828153.7266,147506.6958935,18
1658828153.7266,147506.6958971,16
1658828153.7266,147506.6959007,7
1658828153.7266,147506.6959043,4
1658828153.7266,147506.6959079,9
1658828153.7266,147506.6959115,16
1658828153.7266,147506.6959188,23
1658828153.7266,147506.6959246,28
1658828153.7266,147506.6959282,9
1658828153.7266,147506.6959338,-21
1658828153.7266,147506.6959399,59
1658828153.7266,147506.6959438,381
1658828153.7266,147506.6959492,830
1658828153.7266,147506.695953,1136
1658828153.7266,147506.6959569,934
1658828153.7266,147506.6959607,168
1658828153.7266,147506.6959644,-296
1658828153.7266,147506.69597,-59
1658828153.7266,147506.6959737,64
1658828153.7266,147506.6959791,-73
1658828153.7266,147506.6959831,-35
1658828153.7266,147506.695987,30
1658828153.7266,147506.6959909,-2
1658828153.7266,147506.6959964,2
1658828153.7266,147506.6960006,35
1658828153.7266,147506.6960061,37
1658828153.7266,147506.6960097,49
1658828153.7266,147506.6960136,80
1658828153.7266,147506.6960173,97
1658828153.7266,147506.6960227,113
1658828153.7266,147506.6960281,142
1658828153.7266,147506.6960338,173
1658828153.7266,147506.6960392,201
1658828153.7266,147506.6960429,227
1658828153.7266,147506.6960467,253
1658828153.7266,147506.6960522,270
1658828153.7266,147506.6960562,272
1658828153.7266,147506.6960615,256
1658828153.7266,147506.6960678,237
1658828153.7266,147506.6960729,215
1658828153.7266,147506.6960777,187
1658828153.7266,147506.696083,142
1658828153.73856,147506.6960867,92
1658828153.73856,147506.6960903,47
1658828153.73856,147507.2804399,18
1658828153.73856,147507.2804589,0
1658828153.73856,147507.2804678,-9
1658828153.73856,147507.2804755,-14
1658828153.73856,147507.2804832,-23
1658828153.73856,147507.28049,-30
1658828153.73856,147507.280495,-30
1658828153.73856,147507.2805,-26
1658828153.73856,147507.2805058,-18
1658828153.73856,147507.2805113,-11
1658828153.73856,147507.2805171,-11
1658828153.73856,147507.280521,-16
1658828153.73856,147507.280525,-14
1658828153.73856,147507.2805291,-2
1658828153.73856,147507.2805356,4
1658828153.73856,147507.28054,2
1658828153.73856,147507.2805457,-2
1658828153.73856,147507.2805502,-11
1658828153.73856,147507.2805567,-18
1658828153.73856,147507.2805608,-11
1658828153.73856,147507.2805663,-4
1658828153.73856,147507.2805715,-11
1658828154.17984,147507.280576,-14
1658828154.17984,147507.2805797,-18
1658828154.17984,147507.280583,-37
1658828154.17984,147507.2805881,-40
1658828154.17984,147507.2805936,-33
1658828154.17984,147507.2805988,-35
1658828154.17984,147507.2806039,-35
1658828154.17984,147507.2806077,-26
1658828154.17984,147507.2806123,-14
1658828154.17984,147507.2806172,-14
1658828154.17984,147507.2806238,-7
1658828154.17984,147507.2806364,21
1658828154.17984,147507.2806523,45
1658828154.17984,147507.2806659,45
1658828154.17984,147507.2806797,33
1658828154.17984,147507.2806893,30
1658828154.17984,147507.2806963,40
1658828154.17984,147507.2807021,47
1658828154.17984,147507.2807065,49
1658828154.17984,147507.2807116,56
1658828154.17984,147507.2807153,47
1658828154.17984,147507.2807209,4
1658828154.17984,147507.2807243,30
1658828154.17984,147507.2807292,294
1658828154.17984,147507.2807336,733
1658828154.17984,147507.2807384,1098
1658828154.17984,147507.2807562,1072
1658828154.17984,147507.280761,415
1658828154.17984,147507.2807801,-232
1658828154.17984,147507.2807851,-128
1658828154.17984,147507.2807908,97
1658828154.17984,147507.2807971,-26
1658828154.17984,147507.2808025,-52
1658828154.17984,147507.2808089,37
1658828154.17984,147507.280812,18
1658828154.17984,147507.280815,0
1658828154.17984,147507.280818,40
1658828154.17984,147507.2808209,56
1658828154.17984,147507.2808238,56
1658828154.17984,147507.2808267,80
1658828154.17984,147507.2808295,104
1658828154.17984,147507.2808323,113
1658828154.17984,147507.2808352,130
1658828154.17984,147507.2808381,161
1658828154.17984,147507.280841,189
1658828154.17984,147507.2808439,218
1658828154.17984,147507.2808468,246
1658828154.17984,147507.2808496,265
1658828154.17984,147507.2808654,270
1658828154.17984,147507.2808681,263
1658828154.20177,147507.280871,249
1658828154.20177,147507.7190358,230
1658828154.20177,147507.7190481,194
1658828154.20177,147507.7190519,147
1658828154.20177,147507.7190542,97
1658828154.20177,147507.7190563,49
1658828154.20177,147507.7190584,16
1658828154.20177,147507.7190606,0
1658828154.20177,147507.7190628,-14
1658828154.20177,147507.7190648,-33
1658828154.20177,147507.7190669,-47
1658828154.20177,147507.7190689,-45
1658828154.20177,147507.7190709,-40
1658828154.20177,147507.7190729,-37
1658828154.20177,147507.7190749,-35
1658828154.20177,147507.7190768,-33
1658828154.20177,147507.7190788,-28
1658828154.20177,147507.7190808,-18
1658828154.20177,147507.7190828,-7
1658828154.20177,147507.7190849,4
1658828154.20177,147507.7190869,11
1658828154.20177,147507.7190889,7
1658828154.20177,147507.7190918,2
1658828154.20177,147507.7190938,4
1658828154.86841,147507.7190959,14
1658828154.86841,147507.7190978,21
1658828154.86841,147507.7190997,23
1658828154.86841,147507.7191016,16
1658828154.86841,147507.7191035,0
1658828154.86841,147507.7191057,-7
1658828154.86841,147507.7191092,2
1658828154.86841,147507.7191139,7
1658828154.86841,147507.7191185,2
1658828154.86841,147507.7191251,-4
1658828154.86841,147507.7191317,-9
1658828154.86841,147507.7191348,-4
1658828154.86841,147507.7191383,7
1658828154.86841,147507.7191495,14
1658828154.86841,147507.7191612,18
1658828154.86841,147507.7191671,40
1658828154.86841,147507.7191694,64
1658828154.86841,147507.7191715,64
1658828154.86841,147507.7191749,56
1658828154.86841,147507.7191873,59
1658828154.86841,147507.7191979,59
1658828154.86841,147507.7192012,56
1658828154.86841,147507.7192041,56
1658828154.86841,147507.719207,59
1658828154.86841,147507.71921,64
1658828154.86841,147507.7192128,40
1658828154.86841,147507.7192158,9
1658828154.86841,147507.7192186,128
1658828154.86841,147507.7192215,498
1658828154.86841,147507.7192244,937
1658828154.86841,147507.7192273,1160
1658828154.86841,147507.7192302,830
1658828154.86841,147507.7192331,45
1658828154.86841,147507.7192361,-258
1658828154.86841,147507.71924,33
1658828154.86841,147507.7192421,73
1658828154.86841,147507.7192441,-56
1658828154.86841,147507.7192463,14
1658828154.86841,147507.7192483,56
1658828154.86841,147507.7192504,11
1658828154.86841,147507.7192525,28
1658828154.86841,147507.7192546,61
1658828154.86841,147507.7192566,56
1658828154.86841,147507.7192587,64
1658828154.86841,147507.7192608,90
1658828154.86841,147507.7192628,109
1658828154.86841,147507.7192649,128
1658828154.86841,147507.719267,154
1658828154.86841,147507.719269,177
1658828154.86841,147507.7192711,199
1658828154.88935,147508.4019643,222
1658828154.88935,147508.4019809,237
1658828154.88935,147508.4019864,232
1658828154.88935,147508.4019922,222
1658828154.88935,147508.4019965,201
1658828154.88935,147508.4020008,168
1658828154.88935,147508.4020049,139
1658828154.88935,147508.4020098,113
1658828154.88935,147508.402016,75
1658828154.88935,147508.4020202,30
1658828154.88935,147508.4020261,-11
1658828154.88935,147508.4020305,-52
1658828154.88935,147508.4020363,-78
1658828154.88935,147508.4020405,-78
1658828154.88935,147508.4020465,-78
1658828154.88935,147508.4020507,-80
1658828154.88935,147508.4020565,-75
1658828154.88935,147508.402061,-71
1658828154.88935,147508.4020667,-64
1658828154.88935,147508.4020713,-49
1658828154.88935,147508.4020754,-37
1658828154.88935,147508.4020805,-33
1658828154.88935,147508.4020846,-16
1658828154.88935,147508.4020901,-4
1658828155.39595,147508.4020959,-2
1658828155.39595,147508.4021,4
1658828155.39595,147508.4021039,11
1658828155.39595,147508.4021078,16
1658828155.39595,147508.4021117,21
1658828155.39595,147508.4021157,26
1658828155.39595,147508.4021197,26
1658828155.39595,147508.4021238,30
1658828155.39595,147508.4021278,37
1658828155.39595,147508.4021318,37
1658828155.39595,147508.4021357,33
1658828155.39595,147508.4021396,28
1658828155.39595,147508.4021445,14
1658828155.39595,147508.4021484,11
1658828155.39595,147508.4021539,21
1658828155.39595,147508.4021578,26
1658828155.39595,147508.4021635,28
1658828155.39595,147508.4021691,40
1658828155.39595,147508.4021749,54
1658828155.39595,147508.4021828,73
1658828155.39595,147508.4021877,85
1658828155.39595,147508.4021917,80
1658828155.39595,147508.402197,78
1658828155.39595,147508.4022007,80
1658828155.39595,147508.4022052,83
1658828155.39595,147508.40221,85
1658828155.39595,147508.4022142,90
1658828155.39595,147508.4022173,92
1658828155.39595,147508.4022203,71
1658828155.39595,147508.4022233,26
1658828155.39595,147508.4022263,87
1658828155.39595,147508.4022294,403
1658828155.39595,147508.4022324,839
1658828155.39595,147508.4022354,1110
1658828155.39595,147508.4022383,896
1658828155.39595,147508.4022413,166
1658828155.39595,147508.4022443,-256
1658828155.39595,147508.4022473,0
1658828155.39595,147508.4022501,111
1658828155.39595,147508.402253,-33
1658828155.39595,147508.4022559,9
1658828155.39595,147508.4022589,75
1658828155.39595,147508.4022619,33
1658828155.39595,147508.4022659,26
1658828155.39595,147508.4022784,49
1658828155.39595,147508.4022873,54
1658828155.39595,147508.4022986,68
1658828155.39595,147508.4023112,92
1658828155.39595,147508.4023251,99
1658828155.39595,147508.9394922,113
1658828155.40891,147508.9395201,139
1658828155.40891,147508.9395253,158
1658828155.40891,147508.9395303,182
1658828155.40891,147508.9395335,213
1658828155.40891,147508.9395372,239
1658828155.40891,147508.9395425,251
1658828155.40891,147508.939547,251
1658828155.40891,147508.9395518,237
1658828155.40891,147508.9395567,220
1658828155.40891,147508.9395598,206
1658828155.40891,147508.939563,177
1658828155.40891,147508.9395678,142
1658828155.40891,147508.9395726,92
1658828155.40891,147508.9395756,35
1658828155.40891,147508.9395788,-2
1658828155.40891,147508.9395839,-18
1658828155.40891,147508.9395871,-28
1658828155.40891,147508.9395919,-28
1658828155.40891,147508.9395951,-35
1658828155.40891,147508.9395983,-54
1658828155.40891,147508.9396031,-64
1658828155.40891,147508.9396063,-47
1658828155.40891,147508.9396095,-30
1658828155.40891,147508.9396142,-23
1658828155.92691,147508.9396174,-11
1658828155.92691,147508.9396209,-2
1658828155.92691,147508.939624,-2
1658828155.92691,147508.9396269,7
1658828155.92691,147508.9396299,23
1658828155.92691,147508.9396329,26
1658828155.92691,147508.9396361,26
1658828155.92691,147508.9396394,30
1658828155.92691,147508.9396427,33
1658828155.92691,147508.939646,33
1658828155.92691,147508.9396491,33
1658828155.92691,147508.9396525,30
1658828155.92691,147508.9396559,30
1658828155.92691,147508.9396593,30
1658828155.92691,147508.939663,23
1658828155.92691,147508.9396663,28
1658828155.92691,147508.9396716,37
1658828155.92691,147508.9396777,37
1658828155.92691,147508.9396811,40
1658828155.92691,147508.9396869,56
1658828155.92691,147508.9396905,75
1658828155.92691,147508.939695,83
1658828155.92691,147508.9397004,83
1658828155.92691,147508.9397259,85
1658828155.92691,147508.9397349,85
1658828155.92691,147508.93974,78
1658828155.92691,147508.9397454,83
1658828155.92691,147508.9397487,92
1658828155.92691,147508.9397536,94
1658828155.92691,147508.9397567,73
1658828155.92691,147508.9397601,16
1658828155.92691,147508.9397651,42
1658828155.92691,147508.93977,327
1658828155.92691,147508.9397754,761
1658828155.92691,147508.9397789,1058
1658828155.92691,147508.9397824,920
1658828155.92691,147508.9397874,230
1658828155.92691,147508.9397914,-265
1658828155.92691,147508.9397949,-54
1658828155.92691,147508.9398001,106
1658828155.92691,147508.9398035,-33
1658828155.92691,147508.9398068,-11
1658828155.92691,147508.9398117,64
1658828155.92691,147508.9398147,26
1658828155.92691,147508.9398181,21
1658828155.92691,147508.9398229,66
1658828155.92691,147508.9398272,71
1658828155.92691,147508.9398309,68
1658828155.92691,147509.4746769,87
1658828155.92691,147509.4746969,99
1658828155.94187,147509.4747059,111
1658828155.94187,147509.4747093,135
1658828155.94187,147509.4747124,156
1658828155.94187,147509.4747155,180
1658828155.94187,147509.4747185,208
1658828155.94187,147509.4747214,227
1658828155.94187,147509.4747243,237
1658828155.94187,147509.4747282,241
1658828155.94187,147509.4747321,227
1658828155.94187,147509.4747353,192
1658828155.94187,147509.4747384,158
1658828155.94187,147509.4747415,137
1658828155.94187,147509.4747445,106
1658828155.94187,147509.4747476,66
1658828155.94187,147509.4747506,33
1658828155.94187,147509.4747536,2
1658828155.94187,147509.4747569,-21
1658828155.94187,147509.47476,-28
1658828155.94187,147509.474763,-26
1658828155.94187,147509.4747686,-28
1658828155.94187,147509.4747777,-28
1658828155.94187,147509.4747865,-30
1658828155.94187,147509.4747905,-35
1658828155.94187,147509.474796,-26
1658828156.46503,147509.4747996,-9
1658828156.46503,147509.4748032,2
1658828156.46503,147509.4748069,11
1658828156.46503,147509.4748103,18
1658828156.46503,147509.4748139,14
1658828156.46503,147509.4748177,14
1658828156.46503,147509.4748224,23
1658828156.46503,147509.4748277,33
1658828156.46503,147509.4748314,35
1658828156.46503,147509.4748379,37
1658828156.46503,147509.4748462,40
1658828156.46503,147509.4748559,35
1658828156.46503,147509.4748627,35
1658828156.46503,147509.4748708,35
1658828156.46503,147509.4748762,35
1658828156.46503,147509.4748807,35
1658828156.46503,147509.4748878,37
1658828156.46503,147509.4748936,40
1658828156.46503,147509.4749029,42
1658828156.46503,147509.4749099,49
1658828156.46503,147509.4749154,68
1658828156.46503,147509.4749212,90
1658828156.46503,147509.4749253,94
1658828156.46503,147509.474929,87
1658828156.46503,147509.474932,75
1658828156.46503,147509.4749352,71
1658828156.46503,147509.4749382,75
1658828156.46503,147509.4749414,78
1658828156.46503,147509.4749482,73
1658828156.46503,147509.4749542,66
1658828156.46503,147509.4749614,35
1658828156.46503,147509.4749684,-16
1658828156.46503,147509.4749765,78
1658828156.46503,147509.4749818,443
1658828156.46503,147509.4749909,896
1658828156.46503,147509.4749989,1145
1658828156.46503,147509.4750052,882
1658828156.46503,147509.4750091,130
1658828156.46503,147509.4750127,-244
1658828156.46503,147509.4750165,4
1658828156.46503,147509.4750201,83
1658828156.46503,147509.4750247,-45
1658828156.46503,147509.4750305,0
1658828156.46503,147509.4750341,47
1658828156.46503,147509.4750377,14
1658828156.46503,147509.4750425,28
1658828156.46503,147509.4750501,61
1658828156.46503,147510.0104221,59
1658828156.46503,147510.0104404,59
1658828156.46503,147510.0104508,78
1658828156.478,147510.0104595,92
1658828156.478,147510.0104688,106
1658828156.478,147510.0104788,128
1658828156.478,147510.0104852,154
1658828156.478,147510.0104894,182
1658828156.478,147510.0104928,201
1658828156.478,147510.0105057,213
1658828156.478,147510.0105176,222
1658828156.478,147510.0105251,222
1658828156.478,147510.0105299,208
1658828156.478,147510.0105366,185
1658828156.478,147510.0105457,151
1658828156.478,147510.010553,116
1658828156.478,147510.0105602,85
1658828156.478,147510.0105684,52
1658828156.478,147510.0105761,16
1658828156.478,147510.0105829,-7
1658828156.478,147510.0105885,-30
1658828156.478,147510.0105976,-54
1658828156.478,147510.0106027,-54
1658828156.478,147510.0106155,-49
1658828156.478,147510.0106257,-49
1658828156.478,147510.0106374,-42
1658828156.478,147510.0106495,-30
1658828157.05467,147510.0106552,-21
1658828157.05467,147510.0106579,-11

1658828157.05467,147510.0106598,2
1658828157.05467,147510.0106621,11
1658828157.05467,147510.0106684,23
1658828157.05467,147510.0106766,30
1658828157.05467,147510.0106868,33
1658828157.05467,147510.0106975,35
1658828157.05467,147510.0107051,42
1658828157.05467,147510.0107194,45
1658828157.05467,147510.0107307,45
1658828157.05467,147510.0107359,52
1658828157.05467,147510.0107458,52
1658828157.05467,147510.0107599,42
1658828157.05467,147510.0107769,28
1658828157.05467,147510.0107959,21
1658828157.05467,147510.0108058,26
1658828157.05467,147510.0108096,33
1658828157.05467,147510.0108138,33
1658828157.05467,147510.0108179,26
1658828157.05467,147510.0108231,30
1658828157.05467,147510.0108286,49
1658828157.05467,147510.0108347,68
1658828157.05467,147510.0108382,78
1658828157.05467,147510.0108414,78
1658828157.05467,147510.0108447,71
1658828157.05467,147510.0108478,64
1658828157.05467,147510.010851,68
1658828157.05467,147510.0108542,78
1658828157.05467,147510.0108574,83
1658828157.05467,147510.0108605,83
1658828157.05467,147510.0108637,42
1658828157.05467,147510.0108669,-16
1658828157.05467,147510.0108701,106
1658828157.05467,147510.0108733,505
1658828157.05467,147510.0108764,953
1658828157.05467,147510.0108796,1150
1658828157.05467,147510.0108825,778
1658828157.05467,147510.0108855,16
1658828157.05467,147510.0108887,-213
1658828157.05467,147510.0108918,61
1658828157.05467,147510.0108952,61
1658828157.05467,147510.0108985,-45
1658828157.05467,147510.0109124,28
1658828157.05467,147510.0109172,52
1658828157.05467,147510.0109214,7
1658828157.05467,147510.5962125,23
1658828157.05467,147510.5962297,54
1658828157.05467,147510.5962343,52
1658828157.05467,147510.5962396,64
1658828157.07262,147510.5962432,83
1658828157.07262,147510.5962466,87
1658828157.07262,147510.596252,104
1658828157.07262,147510.5962564,128
1658828157.07262,147510.5962614,149
1658828157.07262,147510.5962648,173
1658828157.07262,147510.5962684,192
1658828157.07262,147510.596275,192
1658828157.07262,147510.5963178,182
1658828157.07262,147510.596325,182
1658828157.07262,147510.5963314,173
1658828157.07262,147510.596337,154
1658828157.07262,147510.5963407,132
1658828157.07262,147510.5963468,92
1658828157.07262,147510.5963511,45
1658828157.07262,147510.5963572,18
1658828157.07262,147510.596361,2
1658828157.07262,147510.5963664,-18
1658828157.07262,147510.5963701,-30
1658828157.07262,147510.5963755,-40
1658828157.07262,147510.5963793,-47
1658828157.07262,147510.5963845,-47
1658828157.07262,147510.5963884,-37
1658828157.07262,147510.5963944,-28
1658828157.54127,147510.5964022,-18
1658828157.54127,147510.5964083,-7
1658828157.54127,147510.5964579,0
1658828157.54127,147510.5964719,7
1658828157.54127,147510.5964787,14
1658828157.54127,147510.5964843,21
1658828157.54127,147510.59649,28
1658828157.54127,147510.5964947,30
1658828157.54127,147510.5964989,33
1658828157.54127,147510.5965025,35
1658828157.54127,147510.5965059,30
1658828157.54127,147510.5965096,26
1658828157.54127,147510.5965131,26
1658828157.54127,147510.5965167,23
1658828157.54127,147510.5965206,16
1658828157.54127,147510.5965241,11
1658828157.54127,147510.596528,16
1658828157.54127,147510.5965321,23
1658828157.54127,147510.596536,26
1658828157.54127,147510.5965399,28
1658828157.54127,147510.5965438,35
1658828157.54127,147510.5965479,49
1658828157.54127,147510.5965516,68
1658828157.54127,147510.5965556,80
1658828157.54127,147510.5965594,75
1658828157.54127,147510.5965631,66
1658828157.54127,147510.5965668,61
1658828157.54127,147510.5965705,66
1658828157.54127,147510.596574,75
1658828157.54127,147510.5965799,83
1658828157.54127,147510.5965832,83
1658828157.54127,147510.596591,47
1658828157.54127,147510.5965949,-21
1658828157.54127,147510.5965987,37
1658828157.54127,147510.5966044,377
1658828157.54127,147510.5966076,830
1658828157.54127,147510.5966112,1098
1658828157.54127,147510.5966164,868
1658828157.54127,147510.5966201,147
1658828157.54127,147510.5966237,-234
1658828157.54127,147510.5966274,7
1658828157.54127,147510.5966311,92
1658828157.54127,147510.5966346,-35
1658828157.54127,147510.5966384,2
1658828157.54127,147510.596642,52
1658828157.54127,147511.0845724,16
1658828157.54127,147511.0845906,23
1658828157.54127,147511.0845982,54
1658828157.54127,147511.0846034,52
1658828157.54127,147511.0846071,54
1658828157.55458,147511.0846121,80
1658828157.55458,147511.0846154,99
1658828157.55458,147511.0846188,111
1658828157.55458,147511.0846237,120
1658828157.55458,147511.0846287,137
1658828157.55458,147511.0846318,161
1658828157.55458,147511.0846354,182
1658828157.55458,147511.0846403,192
1658828157.55458,147511.084644,192
1658828157.55458,147511.0846483,177
1658828157.55458,147511.0846543,151
1658828157.55458,147511.0846581,137
1658828157.55458,147511.0846613,125
1658828157.55458,147511.0846647,99
1658828157.55458,147511.0846702,71
1658828157.55458,147511.0846737,40
1658828157.55458,147511.0846777,9
1658828157.55458,147511.0846833,-14
1658828157.55458,147511.0846877,-35
1658828157.55458,147511.0846912,-49
1658828157.55458,147511.0846967,-54
1658828157.55458,147511.0847012,-54
1658828157.55458,147511.0847064,-54
1658828157.55458,147511.08471,-54
1658828158.21427,147511.0847135,-40
1658828158.21427,147511.0847166,-30
1658828158.21427,147511.0847196,-30
1658828158.21427,147511.0847226,-26
1658828158.21427,147511.0847259,-16
1658828158.21427,147511.0847291,-9
1658828158.21427,147511.0847324,-7
1658828158.21427,147511.0847354,0
1658828158.21427,147511.0847385,4
1658828158.21427,147511.0847416,14
1658828158.21427,147511.0847447,18
1658828158.21427,147511.0847477,9
1658828158.21427,147511.0847507,0
1658828158.21427,147511.0847546,4
1658828158.21427,147511.0847577,18
1658828158.21427,147511.0847609,21
1658828158.21427,147511.0847642,11
1658828158.21427,147511.0847674,4
1658828158.21427,147511.0847706,14
1658828158.21427,147511.0847764,30
1658828158.21427,147511.0847816,47
1658828158.21427,147511.0847849,66
1658828158.21427,147511.0847882,73
1658828158.21427,147511.0847914,66
1658828158.21427,147511.0847946,64
1658828158.21427,147511.084798,61
1658828158.21427,147511.0848036,56
1658828158.21427,147511.0848079,56
1658828158.21427,147511.0848134,56
1658828158.21427,147511.0848173,47
1658828158.21427,147511.0848212,2
1658828158.21427,147511.0848246,-42
1658828158.21427,147511.0848277,99
1658828158.21427,147511.0848328,491
1658828158.21427,147511.0848375,870
1658828158.21427,147511.0848409,960
1658828158.21427,147511.0848444,529
1658828158.21427,147511.0848476,-137
1658828158.21427,147511.0848509,-201
1658828158.21427,147511.0848543,102
1658828158.21427,147511.0848597,61
1658828158.21427,147511.0848633,-33
1658828158.21427,147511.0848664,47
1658828158.21427,147511.0848694,66
1658828158.21427,147511.7660915,40
1658828158.21427,147511.7661093,64
1658828158.21427,147511.7661195,78
1658828158.21427,147511.7661233,78
1658828158.21427,147511.7661287,87
1658828158.21427,147511.7661321,97
1658828158.23621,147511.7661358,113
1658828158.23621,147511.7661407,137
1658828158.23621,147511.7661457,156
1658828158.23621,147511.7661492,177
1658828158.23621,147511.7661529,196
1658828158.23621,147511.7661565,204
1658828158.23621,147511.766162,211
1658828158.23621,147511.7661656,220
1658828158.23621,147511.7661704,208
1658828158.23621,147511.766176,175
1658828158.23621,147511.7661812,154
1658828158.23621,147511.7661844,135
1658828158.23621,147511.7661878,99
1658828158.23621,147511.7661913,64
1658828158.23621,147511.7661946,23
1658828158.23621,147511.7661982,-11
1658828158.23621,147511.7662017,-35
1658828158.23621,147511.7662053,-52
1658828158.23621,147511.7662089,-64
1658828158.23621,147511.7662125,-73
1658828158.23621,147511.7662177,-78
1658828158.23621,147511.7662337,-71
1658828158.23621,147511.7662365,-52
1658828158.23621,147511.7662394,-35
1658828158.70296,147511.7662578,-30
1658828158.70296,147511.7662614,-26
1658828158.70296,147511.7662644,-11
1658828158.70296,147511.7662693,-4
1658828158.70296,147511.7662724,-4
1658828158.70296,147511.7662756,2
1658828158.70296,147511.766279,9
1658828158.70296,147511.766282,11
1658828158.70296,147511.7662851,16
1658828158.70296,147511.7662881,16
1658828158.70296,147511.7662914,14
1658828158.70296,147511.7662943,11
1658828158.70296,147511.7662979,14
1658828158.70296,147511.7663023,21
1658828158.70296,147511.7663056,16
1658828158.70296,147511.7663087,4
1658828158.70296,147511.766312,0
1658828158.70296,147511.7663155,11
1658828158.70296,147511.7663188,35
1658828158.70296,147511.7663229,54
1658828158.70296,147511.7663267,56
1658828158.70296,147511.76633,45
1658828158.70296,147511.7663331,37
1658828158.70296,147511.7663362,33
1658828158.70296,147511.7663409,30
1658828158.70296,147511.7663467,42
1658828158.70296,147511.7663517,54
1658828158.70296,147511.7663551,0
1658828158.70296,147511.7663584,-49
1658828158.70296,147511.7663618,113
1658828158.70296,147511.7663654,481
1658828158.70296,147511.7663687,792
1658828158.70296,147511.7663728,837
1658828158.70296,147511.7663762,403
1658828158.70296,147511.7663814,-187
1658828158.70296,147511.7663848,-156
1658828158.70296,147511.7663883,135
1658828158.70296,147511.7663931,52
1658828158.70296,147511.7664102,-35
1658828158.70296,147511.7664148,54
1658828158.70296,147511.7664181,66
1658828158.70296,147511.7664379,30
1658828158.70296,147511.7664429,54
1658828158.70296,147512.2532128,83
1658828158.70296,147512.2532271,83
1658828158.70296,147512.2532311,87
1658828158.70296,147512.2532348,113
1658828158.70296,147512.2532383,137
1658828158.70296,147512.2532417,151
1658828158.70296,147512.2532452,170
1658828158.7249,147512.2532487,208
1658828158.7249,147512.2532522,241
1658828158.7249,147512.2532557,249
1658828158.7249,147512.2532594,246
1658828158.7249,147512.2532676,251
1658828158.7249,147512.2532712,244
1658828158.7249,147512.2532816,211
1658828158.7249,147512.253288,170
1658828158.7249,147512.2532961,147
1658828158.7249,147512.2533023,109
1658828158.7249,147512.2533104,37
1658828158.7249,147512.2533172,0
1658828158.7249,147512.2533255,0
1658828158.7249,147512.2533294,-35
1658828158.7249,147512.2533339,-87
1658828158.7249,147512.2533368,-99
1658828158.7249,147512.2533396,-94
1658828158.7249,147512.2533424,-92
1658828158.7249,147512.2533452,-80
1658828158.7249,147512.2533479,-75
1658828158.7249,147512.2533507,-80
1658828158.7249,147512.2533558,-68
1658828158.7249,147512.2533656,-49
1658828158.7249,147512.253368,-35
1658828159.24441,147512.2533701,-33
1658828159.24441,147512.2533721,-35
1658828159.24441,147512.253374,-18
1658828159.24441,147512.2533763,11
1658828159.24441,147512.2534574,11
1658828159.24441,147512.253471,-11
1658828159.24441,147512.2534813,-21
1658828159.24441,147512.2534875,-23
1658828159.24441,147512.2534914,-30
1658828159.24441,147512.2534967,-26
1658828159.24441,147512.2535023,0
1658828159.24441,147512.2535079,14
1658828159.24441,147512.2535115,11
1658828159.24441,147512.2535201,21
1658828159.24441,147512.2535287,42
1658828159.24441,147512.2535337,45
1658828159.24441,147512.2535369,28
1658828159.24441,147512.2535403,26
1658828159.24441,147512.2535446,37
1658828159.24441,147512.2535478,42
1658828159.24441,147512.2535827,45
1658828159.24441,147512.2536043,59
1658828159.24441,147512.2536225,37
1658828159.24441,147512.2536275,-49
1658828159.24441,147512.2536321,-66
1658828159.24441,147512.2536352,173
1658828159.24441,147512.2536385,583
1658828159.24441,147512.2536435,899
1658828159.24441,147512.2536485,839
1658828159.24441,147512.2536531,246
1658828159.24441,147512.2536582,-225
1658828159.24441,147512.2536618,-35
1658828159.24441,147512.2536677,139
1658828159.24441,147512.253671,0
1658828159.24441,147512.2536746,0
1658828159.24441,147512.2536792,90
1658828159.24441,147512.2536843,64
1658828159.24441,147512.2536872,45
1658828159.24441,147512.2537035,75
1658828159.24441,147512.2537061,75
1658828159.24441,147512.2537086,73
1658828159.24441,147512.2537429,104
1658828159.24441,147512.7891859,123
1658828159.24441,147512.7892043,120
1658828159.24441,147512.7892112,142
1658828159.24441,147512.7892179,182
1658828159.24441,147512.7892217,211
1658828159.24441,147512.7892252,225
1658828159.24441,147512.7892296,239
1658828159.24441,147512.7892344,249
1658828159.26558,147512.7892397,241
1658828159.26558,147512.7892434,222
1658828159.26558,147512.789247,185
1658828159.26558,147512.7892503,149
1658828159.26558,147512.7892536,130
1658828159.26558,147512.7892569,97
1658828159.26558,147512.7892602,40
1658828159.26558,147512.7892635,16
1658828159.26558,147512.7892668,14
1658828159.26558,147512.7892709,-11
1658828159.26558,147512.7892752,-49
1658828159.26558,147512.7892783,-61
1658828159.26558,147512.7892812,-49
1658828159.26558,147512.7892841,-28
1658828159.26558,147512.7892875,-7
1658828159.26558,147512.789293,-9
1658828159.26558,147512.7892984,-28
1658828159.26558,147512.7893053,-23
1658828159.26558,147512.789312,-2
1658828159.26558,147512.7893188,14
1658828159.26558,147512.7893225,23
1658828159.26558,147512.7893265,11
1658828159.26558,147512.7893294,2
1658828159.26558,147512.7893364,9
1658828159.87684,147512.7893405,4
1658828159.87684,147512.7893459,-4
1658828159.87684,147512.789352,0
1658828159.87684,147512.7893583,11
1658828159.87684,147512.7893636,7
1658828159.87684,147512.7893668,-2
1658828159.87684,147512.7893699,16
1658828159.87684,147512.789373,42
1658828159.87684,147512.7893763,45
1658828159.87684,147512.7893797,45
1658828159.87684,147512.789384,49
1658828159.87684,147512.7893892,40
1658828159.87684,147512.7893922,33
1658828159.87684,147512.7893952,52
1658828159.87684,147512.7893979,68
1658828159.87684,147512.7894005,59
1658828159.87684,147512.789403,49
1658828159.87684,147512.7894058,2
1658828159.87684,147512.7894089,-102
1658828159.87684,147512.7894115,-54
1658828159.87684,147512.7894141,320
1658828159.87684,147512.7894167,799
1658828159.87684,147512.7894194,1046
1658828159.87684,147512.7894221,749
1658828159.87684,147512.7894247,37
1658828159.87684,147512.7894273,-218
1658828159.87684,147512.7894299,52
1658828159.87684,147512.7894324,83
1658828159.87684,147512.7894352,-45
1658828159.87684,147512.7894378,0
1658828159.87684,147512.7894406,42
1658828159.87684,147512.7894437,23
1658828159.87684,147512.7894463,37
1658828159.87684,147512.7894488,59
1658828159.87684,147512.7894515,68
1658828159.87684,147512.7894542,87
1658828159.87684,147512.7894569,99
1658828159.87684,147512.7894596,97
1658828159.87684,147512.7894622,123
1658828159.87684,147512.7894649,158
1658828159.87684,147512.7894677,173
1658828159.87684,147513.425111,196
1658828159.87684,147513.4251232,230
1658828159.87684,147513.4251257,220
1658828159.87684,147513.4251279,192
1658828159.87684,147513.4251299,196
1658828159.87684,147513.425132,211
1658828159.87684,147513.4251341,199
1658828159.87684,147513.4251361,154
1658828159.87684,147513.4251382,109
1658828159.89978,147513.4251402,97
1658828159.89978,147513.4251422,75
1658828159.89978,147513.4251442,30
1658828159.89978,147513.4251463,18
1658828159.89978,147513.4251483,23
1658828159.89978,147513.4251504,-2
1658828159.89978,147513.4251525,-16
1658828159.89978,147513.4251545,-4
1658828159.89978,147513.4251579,-11
1658828159.89978,147513.4251713,-26
1658828159.89978,147513.4251786,-23
1658828159.89978,147513.4251811,-4
1658828159.89978,147513.4251833,26
1658828159.89978,147513.4251854,30
1658828159.89978,147513.4251874,14
1658828159.89978,147513.4251904,16
1658828159.89978,147513.4252009,35
1658828159.89978,147513.4252088,23
1658828159.89978,147513.4252118,-2
1658828159.89978,147513.425214,9
1658828159.89978,147513.4252167,26
1658828159.89978,147513.4252191,7
1658828159.89978,147513.4252509,-4
1658828159.89978,147513.4252653,7
1658828160.40667,147513.4252723,11
1658828160.40667,147513.4253307,9
1658828160.40667,147513.425345,11
1658828160.40667,147513.4253509,21
1658828160.40667,147513.4253531,35
1658828160.40667,147513.4253551,47
1658828160.40667,147513.4253586,47
1658828160.40667,147513.4253703,42
1658828160.40667,147513.425385,40
1658828160.40667,147513.4253945,42
1658828160.40667,147513.4254069,54
1658828160.40667,147513.4254204,49
1658828160.40667,147513.4254313,-14
1658828160.40667,147513.4254435,-109
1658828160.40667,147513.4254536,-45
1658828160.40667,147513.4254608,317
1658828160.40667,147513.4254687,797
1658828160.40667,147513.425481,1076
1658828160.40667,147513.4254914,806
1658828160.40667,147513.4254985,73
1658828160.40667,147513.4255097,-227
1658828160.40667,147513.4255205,30
1658828160.40667,147513.4255281,71
1658828160.40667,147513.4255341,-49
1658828160.40667,147513.4255414,11
1658828160.40667,147513.4255482,56
1658828160.40667,147513.4255606,16
1658828160.40667,147513.4255744,23
1658828160.40667,147513.4256303,59
1658828160.40667,147513.4256434,59
1658828160.40667,147513.4256474,54
1658828160.40667,147513.4256525,73
1658828160.40667,147513.4256561,97
1658828160.40667,147513.4256593,123
1658828160.40667,147513.4256625,144
1658828160.40667,147513.425666,163
1658828160.40667,147513.4256848,180
1658828160.40667,147513.4256905,192
1658828160.40667,147513.425695,206
1658828160.40667,147513.4257004,215
1658828160.40667,147513.9594594,201
1658828160.40667,147513.9594773,182
1658828160.40667,147513.9594834,175
1658828160.40667,147513.9594873,163
1658828160.40667,147513.9594912,135
1658828160.40667,147513.9594969,104
1658828160.40667,147513.9595008,90
1658828160.40667,147513.9595046,75
1658828160.40667,147513.959512,52
1658828160.40667,147513.9595164,33
1658828160.42562,147513.9595281,26
1658828160.42562,147513.959536,23
1658828160.42562,147513.9595403,28
1658828160.42562,147513.9595434,30
1658828160.42562,147513.95955,30
1658828160.42562,147513.9595534,49
1658828160.42562,147513.9595664,66
1658828160.42562,147513.9595785,56
1658828160.42562,147513.9595919,45
1658828160.42562,147513.9596049,61
1658828160.42562,147513.959618,80
1658828160.42562,147513.959626,83
1658828160.42562,147513.959632,83
1658828160.42562,147513.9596426,64
1658828160.42562,147513.9596531,35
1658828160.42562,147513.9596621,28
1658828160.42562,147513.9596691,35
1658828160.42562,147513.9596799,33
1658828160.42562,147513.9596904,28
1658828160.42562,147513.9596992,11
1658828160.42562,147513.9597055,-11
1658828160.42562,147513.9597178,2
1658828160.42562,147513.959728,33
1658828160.42562,147513.9597351,30
1658828160.93667,147513.9597473,14
1658828160.93667,147513.9597548,18
1658828160.93667,147513.9597643,23
1658828160.93667,147513.9597703,18
1658828160.93667,147513.9597775,18
1658828160.93667,147513.9597823,21
1658828160.93667,147513.959789,21
1658828160.93667,147513.9597935,-9
1658828160.93667,147513.9598004,-104
1658828160.93667,147513.9598065,-94
1658828160.93667,147513.9598109,253
1658828160.93667,147513.9598191,770
1658828160.93667,147513.9598262,1067
1658828160.93667,147513.9598401,804
1658828160.93667,147513.9598465,83
1658828160.93667,147513.9598533,-239
1658828160.93667,147513.9598567,-2
1658828160.93667,147513.9598625,52
1658828160.93667,147513.9598748,-56
1658828160.93667,147513.9598831,-11
1658828160.93667,147513.9598959,28
1658828160.93667,147513.9599081,9
1658828160.93667,147513.9599171,21
1658828160.93667,147513.9599219,47
1658828160.93667,147513.9599303,52
1658828160.93667,147513.9599405,59
1658828160.93667,147513.9599524,68
1658828160.93667,147513.9599579,78
1658828160.93667,147513.9599611,104
1658828160.93667,147513.9599631,130
1658828160.93667,147513.9599692,142
1658828160.93667,147513.9599805,166
1658828160.93667,147513.9599858,204
1658828160.93667,147513.9599879,211
1658828160.93667,147513.9599901,196
1658828160.93667,147513.9599921,208
1658828160.93667,147513.9599942,222
1658828160.93667,147513.9600081,201
1658828160.93667,147513.9600166,177
1658828160.93667,147514.4488626,166
1658828160.93667,147514.4488744,139
1658828160.93667,147514.4488768,104
1658828160.93667,147514.4488791,73
1658828160.93667,147514.4488811,61
1658828160.93667,147514.4488831,64
1658828160.93667,147514.4488852,47
1658828160.93667,147514.4488873,30
1658828160.93667,147514.4488893,28
1658828160.93667,147514.4488912,23
1658828160.93667,147514.4488934,21
1658828160.95363,147514.4488954,40
1658828160.95363,147514.4488985,54
1658828160.95363,147514.4489101,59
1658828160.95363,147514.448916,59
1658828160.95363,147514.4489252,52
1658828160.95363,147514.448932,52
1658828160.95363,147514.4489363,59
1658828160.95363,147514.4489384,61
1658828160.95363,147514.4489404,54
1658828160.95363,147514.4489425,42
1658828160.95363,147514.4489444,35
1658828160.95363,147514.4489464,35
1658828160.95363,147514.4489485,28
1658828160.95363,147514.4489505,21
1658828160.95363,147514.4489525,33
1658828160.95363,147514.4489545,33
1658828160.95363,147514.4489565,14
1658828160.95363,147514.4489584,26
1658828160.95363,147514.4489604,66
1658828160.95363,147514.4489624,75
1658828160.95363,147514.4489644,47
1658828160.95363,147514.4489664,18
1658828160.95363,147514.4489684,21
1658828160.95363,147514.4489706,28
1658828161.54456,147514.4489727,21
1658828161.54456,147514.4489747,21
1658828161.54456,147514.4489765,21
1658828161.54456,147514.4489785,-37
1658828161.54456,147514.4489804,-135
1658828161.54456,147514.4489824,-35
1658828161.54456,147514.4489852,381
1658828161.54456,147514.4489895,839
1658828161.54456,147514.448994,993
1658828161.54456,147514.4489986,588
1658828161.54456,147514.4490055,-99
1658828161.54456,147514.449009,-239
1658828161.54456,147514.4490125,26
1658828161.54456,147514.4490145,0
1658828161.54456,147514.449017,-87
1658828161.54456,147514.4490217,-9
1658828161.54456,147514.4490331,2
1658828161.54456,147514.4490388,-42
1658828161.54456,147514.449041,-21
1658828161.54456,147514.4490431,4
1658828161.54456,147514.4490452,2
1658828161.54456,147514.4490472,18
1658828161.54456,147514.4490492,47
1658828161.54456,147514.4490513,64
1658828161.54456,147514.4490533,73
1658828161.54456,147514.4490553,97
1658828161.54456,147514.4490573,144
1658828161.54456,147514.4490593,180
1658828161.54456,147514.4490614,177
1658828161.54456,147514.4490635,175
1658828161.54456,147514.4490656,182
1658828161.54456,147514.4490676,175
1658828161.54456,147514.4490696,182
1658828161.54456,147514.4490716,199
1658828161.54456,147514.4490736,170
1658828161.54456,147514.4490757,120
1658828161.54456,147514.4490777,102
1658828161.54456,147514.4490798,73
1658828161.54456,147515.0821125,30
1658828161.54456,147515.0821312,9
1658828161.54456,147515.0821483,-7
1658828161.54456,147515.082162,-21
1658828161.54456,147515.0821758,-14
1658828161.54456,147515.0821889,-16
1658828161.54456,147515.0821968,-33
1658828161.54456,147515.0822034,-23
1658828161.54456,147515.0822127,7
1658828161.54456,147515.0822208,11
1658828161.54456,147515.082234,-7
1658828161.54456,147515.0822476,-14
1658828161.5685,147515.0822614,0
1658828161.5685,147515.0822751,14
1658828161.5685,147515.08229,11
1658828161.5685,147515.0823035,9
1658828161.5685,147515.0823173,11
1658828161.5685,147515.082329,4
1658828161.5685,147515.0823336,-9
1658828161.5685,147515.0823462,-16
1658828161.5685,147515.0823718,-9
1658828161.5685,147515.0823806,-7
1658828161.5685,147515.0823858,-16
1658828161.5685,147515.0823918,-14
1658828161.5685,147515.082396,-4
1658828161.5685,147515.0824012,4
1658828161.5685,147515.0824069,21
1658828161.5685,147515.0824103,21
1658828161.5685,147515.0824134,0
1658828161.5685,147515.0824181,-7
1658828161.5685,147515.0824238,7
1658828161.5685,147515.0824291,16
1658828161.5685,147515.0824346,7
1658828161.5685,147515.0824384,-7
1658828161.5685,147515.0824418,-35
1658828161.5685,147515.0824459,-85
1658828162.09014,147515.0824508,-42
1658828162.09014,147515.0824561,220
1658828162.09014,147515.0824595,576
1658828162.09014,147515.0824638,780
1658828162.09014,147515.0824681,564
1658828162.09014,147515.0824715,-80
1658828162.09014,147515.0824764,-336
1658828162.09014,147515.08248,4
1658828162.09014,147515.0824833,80
1658828162.09014,147515.082487,-78
1658828162.09014,147515.0824906,-21
1658828162.09014,147515.0824942,28
1658828162.09014,147515.0824977,-21
1658828162.09014,147515.0825017,-7
1658828162.09014,147515.0825053,28
1658828162.09014,147515.082509,28
1658828162.09014,147515.0825125,42
1658828162.09014,147515.0825159,78
1658828162.09014,147515.0825194,106
1658828162.09014,147515.0825243,116
1658828162.09014,147515.0825291,130
1658828162.09014,147515.0825324,156
1658828162.09014,147515.0825358,187
1658828162.09014,147515.0825394,220
1658828162.09014,147515.0825432,227
1658828162.09014,147515.0825468,237
1658828162.09014,147515.0825505,260
1658828162.09014,147515.082554,258
1658828162.09014,147515.0825582,220
1658828162.09014,147515.0825616,182
1658828162.09014,147515.0825649,144
1658828162.09014,147515.0825682,94
1658828162.09014,147515.0825716,49
1658828162.09014,147515.0825754,33
1658828162.09014,147515.0825789,14
1658828162.09014,147515.0825837,-18
1658828162.09014,147515.0825874,-33
1658828162.09014,147515.6195955,-18
1658828162.09014,147515.6196207,-33
1658828162.09014,147515.6196287,-49
1658828162.09014,147515.6196336,-30
1658828162.09014,147515.6196439,-14
1658828162.09014,147515.6196531,-4
1658828162.09014,147515.6196589,7
1658828162.09014,147515.619663,11
1658828162.09014,147515.6196668,18
1658828162.09014,147515.6196708,33
1658828162.09014,147515.6196749,35
1658828162.09014,147515.6196807,30
1658828162.09014,147515.6196851,30
1658828162.11507,147515.6196916,21
1658828162.11507,147515.6196976,7
1658828162.11507,147515.6197037,2
1658828162.11507,147515.6197097,7
1658828162.11507,147515.6197157,0
1658828162.11507,147515.6197216,-14
1658828162.11507,147515.6197274,-2
1658828162.11507,147515.6197315,14
1658828162.11507,147515.6197372,9
1658828162.11507,147515.6197438,4
1658828162.11507,147515.6197533,9
1658828162.11507,147515.6197614,9
1658828162.11507,147515.6197664,2
1658828162.11507,147515.6197725,2
1658828162.11507,147515.6197767,4
1658828162.11507,147515.6197863,4
1658828162.11507,147515.6197906,-23
1658828162.11507,147515.6197963,-85
1658828162.11507,147515.6198004,-40
1658828162.11507,147515.6198059,208
1658828162.11507,147515.6198131,510
1658828162.11507,147515.6198189,680
1658828162.11507,147515.6198231,464
1658828162.11507,147515.6198277,-111
1658828162.60291,147515.6198335,-253
1658828162.60291,147515.6198377,59
1658828162.60291,147515.619842,49
1658828162.60291,147515.6198459,-94
1658828162.60291,147515.6198499,-11
1658828162.60291,147515.6198536,30
1658828162.60291,147515.6198575,-7
1658828162.60291,147515.6198614,16
1658828162.60291,147515.6198653,42
1658828162.60291,147515.6198693,33
1658828162.60291,147515.6198741,42
1658828162.60291,147515.6198776,61
1658828162.60291,147515.6198813,73
1658828162.60291,147515.619885,99
1658828162.60291,147515.6198888,132
1658828162.60291,147515.6198926,158
1658828162.60291,147515.6198965,189
1658828162.60291,147515.6199002,218
1658828162.60291,147515.6199062,227
1658828162.60291,147515.6199101,225
1658828162.60291,147515.6199156,222
1658828162.60291,147515.6199239,208
1658828162.60291,147515.6199298,185
1658828162.60291,147515.6199338,156
1658828162.60291,147515.6199392,120
1658828162.60291,147515.619943,80
1658828162.60291,147515.6199484,49
1658828162.60291,147515.6199526,21
1658828162.60291,147515.6199582,-4
1658828162.60291,147515.6199621,-11
1658828162.60291,147515.6199677,-11
1658828162.60291,147515.6199717,-11
1658828162.60291,147515.6199772,-9
1658828162.60291,147515.6199811,-4
1658828162.60291,147515.619987,-2
1658828162.60291,147515.619991,9
1658828162.60291,147516.1531217,23
1658828162.60291,147516.1531341,35
1658828162.60291,147516.1531367,47
1658828162.60291,147516.1531389,54
1658828162.60291,147516.1531411,56
1658828162.60291,147516.1531431,56
1658828162.60291,147516.1531452,59
1658828162.60291,147516.1531471,54
1658828162.60291,147516.1531491,49
1658828162.60291,147516.1531511,59
1658828162.60291,147516.1531531,59
1658828162.60291,147516.1531551,47
1658828162.60291,147516.1531571,45
1658828162.60291,147516.1531591,59
1658828162.62086,147516.1531611,71
1658828162.62086,147516.153163,83
1658828162.62086,147516.1531651,87
1658828162.62086,147516.1531671,75
1658828162.62086,147516.1531702,64
1658828162.62086,147516.1531833,59
1658828162.62086,147516.1531913,61
1658828162.62086,147516.1531938,68
1658828162.62086,147516.1531959,68
1658828162.62086,147516.153198,37
1658828162.62086,147516.1532006,-66
1658828162.62086,147516.1532077,-139
1658828162.62086,147516.1532184,49
1658828162.62086,147516.1532219,491
1658828162.62086,147516.1532259,899
1658828162.62086,147516.1532322,958
1658828162.62086,147516.1532418,415
1658828162.62086,147516.1532473,-213
1658828162.62086,147516.1532494,-161
1658828162.62086,147516.1532515,78
1658828162.62086,147516.1532536,-11
1658828162.62086,147516.1532736,-52
1658828162.62086,147516.1532992,30
1658828162.62086,147516.1533038,18
1658828163.19771,147516.1533071,-2
1658828163.19771,147516.1533136,33
1658828163.19771,147516.1533209,45
1658828163.19771,147516.1533248,42
1658828163.19771,147516.1533283,68
1658828163.19771,147516.1533327,83
1658828163.19771,147516.1533386,94
1658828163.19771,147516.1533431,125
1658828163.19771,147516.1533466,158
1658828163.19771,147516.1533498,180
1658828163.19771,147516.153353,206
1658828163.19771,147516.1533562,227
1658828163.19771,147516.1533596,232
1658828163.19771,147516.1533632,222
1658828163.19771,147516.1533688,222
1658828163.19771,147516.1533731,220
1658828163.19771,147516.1533768,194
1658828163.19771,147516.1533802,161
1658828163.19771,147516.1533853,135
1658828163.19771,147516.1533884,111
1658828163.19771,147516.1533919,94
1658828163.19771,147516.1533971,73
1658828163.19771,147516.1534022,45
1658828163.19771,147516.1534069,28
1658828163.19771,147516.1534099,40
1658828163.19771,147516.153413,52
1658828163.19771,147516.1534163,54
1658828163.19771,147516.1534194,56
1658828163.19771,147516.1534242,71
1658828163.19771,147516.153428,85
1658828163.19771,147516.1534313,92
1658828163.19771,147516.1534364,102
1658828163.19771,147516.1534405,113
1658828163.19771,147516.1534452,113
1658828163.19771,147516.1534484,118
1658828163.19771,147516.7392686,130
1658828163.19771,147516.7392855,130
1658828163.19771,147516.7392938,123
1658828163.19771,147516.7392981,135
1658828163.19771,147516.7393038,154
1658828163.19771,147516.739308,151
1658828163.19771,147516.7393134,137
1658828163.19771,147516.739317,132
1658828163.19771,147516.7393221,142
1658828163.19771,147516.7393274,158
1658828163.19771,147516.739331,161
1658828163.19771,147516.7393363,156
1658828163.19771,147516.7393408,158
1658828163.19771,147516.739346,154
1658828163.19771,147516.7393503,135
1658828163.22065,147516.7393556,123
1658828163.22065,147516.7393601,130
1658828163.22065,147516.7393644,132
1658828163.22065,147516.7393704,71
1658828163.22065,147516.7393744,-33
1658828163.22065,147516.7393785,40
1658828163.22065,147516.7393838,436
1658828163.22065,147516.7393877,906
1658828163.22065,147516.7393917,1065
1658828163.22065,147516.7393972,649
1658828163.22065,147516.7394013,-21
1658828163.22065,147516.7394066,-163
1658828163.22065,147516.7394105,66
1658828163.22065,147516.7394144,30
1658828163.22065,147516.73942,-52
1658828163.22065,147516.7394241,9
1658828163.22065,147516.739429,11
1658828163.22065,147516.7394319,-18
1658828163.22065,147516.7394355,-2
1658828163.22065,147516.7394383,9
1658828163.22065,147516.7394411,9
1658828163.22065,147516.7394439,23
1658828163.22065,147516.7394466,40
1658828163.22065,147516.7394494,49
1658828163.78973,147516.7394522,73
1658828163.78973,147516.7394549,106
1658828163.78973,147516.7394598,125
1658828163.78973,147516.7394625,142
1658828163.78973,147516.7394651,170
1658828163.78973,147516.7394677,194
1658828163.78973,147516.7394703,187
1658828163.78973,147516.739473,168
1658828163.78973,147516.7394764,158
1658828163.78973,147516.739479,154
1658828163.78973,147516.7394816,149
1658828163.78973,147516.7394842,135
1658828163.78973,147516.7394869,99
1658828163.78973,147516.7394896,59
1658828163.78973,147516.7394923,37
1658828163.78973,147516.7394949,21
1658828163.78973,147516.7394975,9
1658828163.78973,147516.7395002,0
1658828163.78973,147516.7395029,-4
1658828163.78973,147516.7395055,-7
1658828163.78973,147516.7395081,-2
1658828163.78973,147516.7395113,2
1658828163.78973,147516.7395162,14
1658828163.78973,147516.7395195,23
1658828163.78973,147516.7395226,30
1658828163.78973,147516.7395259,37
1658828163.78973,147516.7395293,42
1658828163.78973,147516.7395337,37
1658828163.78973,147516.739537,37
1658828163.78973,147516.739541,52
1658828163.78973,147516.7395446,47
1658828163.78973,147516.7395481,28
1658828163.78973,147516.7395521,26
1658828163.78973,147516.7395557,40
1658828163.78973,147517.3237229,37
1658828163.78973,147517.3237428,28
1658828163.78973,147517.3237536,37
1658828163.78973,147517.3237624,49
1658828163.78973,147517.323769,54
1658828163.78973,147517.3237808,61
1658828163.78973,147517.323792,59
1658828163.78973,147517.3237989,42
1658828163.78973,147517.3238115,40
1658828163.78973,147517.3238228,49
1658828163.78973,147517.3238307,40
1658828163.78973,147517.3238387,23
1658828163.78973,147517.3238448,18
1658828163.78973,147517.3238472,-28
1658828163.78973,147517.3238493,-80
1658828163.78973,147517.3238514,75
1658828163.82165,147517.3238535,472
1658828163.82165,147517.3238555,818
1658828163.82165,147517.3238577,870
1658828163.82165,147517.3238597,431
1658828163.82165,147517.3238617,-206
1658828163.82165,147517.3238644,-253
1658828163.82165,147517.323874,16
1658828163.82165,147517.3238835,-61
1658828163.82165,147517.3238875,-139
1658828163.82165,147517.3238895,-35
1658828163.82165,147517.3238915,-33
1658828163.82165,147517.3238944,-71
1658828163.82165,147517.3238965,-30
1658828163.82165,147517.3238985,-18
1658828163.82165,147517.323902,-28
1658828163.82165,147517.323915,7
1658828163.82165,147517.3239207,45
1658828163.82165,147517.3239229,54
1658828163.82165,147517.3239251,64
1658828163.82165,147517.3239271,97
1658828163.82165,147517.3239291,137
1658828163.82165,147517.323936,161
1658828163.82165,147517.3239471,182
1658828163.82165,147517.3239503,194
1658828164.36672,147517.3239525,196
1658828164.36672,147517.3239545,208
1658828164.36672,147517.3239563,199
1658828164.36672,147517.3239583,163
1658828164.36672,147517.3239602,144
1658828164.36672,147517.3239621,123
1658828164.36672,147517.3239641,75
1658828164.36672,147517.3239663,37
1658828164.36672,147517.3239703,14
1658828164.36672,147517.3239826,-9
1658828164.36672,147517.323989,-23
1658828164.36672,147517.3239949,-21
1658828164.36672,147517.3240013,-21
1658828164.36672,147517.3240149,-26
1658828164.36672,147517.3240238,-26
1658828164.36672,147517.3240263,-14
1658828164.36672,147517.3240285,-9
1658828164.36672,147517.3240305,-9
1658828164.36672,147517.3240325,-2
1658828164.36672,147517.3240346,11
1658828164.36672,147517.3240378,23
1658828164.36672,147517.3240508,40
1658828164.36672,147517.3240569,54
1658828164.36672,147517.3240592,54
1658828164.36672,147517.3240613,37
1658828164.36672,147517.3240633,40
1658828164.36672,147517.3240653,66
1658828164.36672,147517.3240688,68
1658828164.36672,147517.3240817,45
1658828164.36672,147517.3240876,54
1658828164.36672,147517.3240899,75
1658828164.36672,147517.3240919,85
1658828164.36672,147517.324094,92
1658828164.36672,147517.9084289,85
1658828164.36672,147517.9084412,71
1658828164.36672,147517.9084458,71
1658828164.36672,147517.9084484,83
1658828164.36672,147517.9084505,83
1658828164.36672,147517.9084527,90
1658828164.36672,147517.9084549,97

1658828164.36672,147517.9084571,33
1658828164.36672,147517.9084597,-68
1658828164.36672,147517.9084619,9
1658828164.36672,147517.9084641,332
1658828164.36672,147517.9084663,652
1658828164.36672,147517.9084685,789
1658828164.36672,147517.9084729,566
1658828164.36672,147517.908479,4
1658828164.36672,147517.9084928,-211
1658828164.36672,147517.9085016,35
1658828164.39066,147517.9085049,83
1658828164.39066,147517.9085072,-26
1658828164.39066,147517.9085092,9
1658828164.39066,147517.9085113,26
1658828164.39066,147517.9085272,-7
1658828164.39066,147517.9085511,16
1658828164.39066,147517.9085609,52
1658828164.39066,147517.9085634,56
1658828164.39066,147517.9085655,68
1658828164.39066,147517.9085676,87
1658828164.39066,147517.9085696,94
1658828164.39066,147517.9085716,120
1658828164.39066,147517.9085736,168
1658828164.39066,147517.9085763,194
1658828164.39066,147517.9085783,204
1658828164.39066,147517.9085803,237
1658828164.39066,147517.9085824,265
1658828164.39066,147517.9085844,253
1658828164.39066,147517.9085995,237
1658828164.39066,147517.9086016,239
1658828164.39066,147517.9086035,227
1658828164.39066,147517.9086054,196
1658828164.39066,147517.9086073,151
1658828164.39066,147517.9086227,102
1658828165.06193,147517.9086247,61
1658828165.06193,147517.9086267,35
1658828165.06193,147517.9086286,18
1658828165.06193,147517.9086306,7
1658828165.06193,147517.9086325,-11
1658828165.06193,147517.9086345,-18
1658828165.06193,147517.9086364,-11
1658828165.06193,147517.9086383,-2
1658828165.06193,147517.9086402,7
1658828165.06193,147517.9086421,23
1658828165.06193,147517.9086439,30
1658828165.06193,147517.9086458,30
1658828165.06193,147517.9086477,52
1658828165.06193,147517.9086496,71
1658828165.06193,147517.9086527,68
1658828165.06193,147517.9086639,68
1658828165.06193,147517.9086742,64
1658828165.06193,147517.9086804,49
1658828165.06193,147517.9086844,61
1658828165.06193,147517.9086864,83
1658828165.06193,147517.9086884,75
1658828165.06193,147517.9086905,75
1658828165.06193,147517.9086925,92
1658828165.06193,147517.9086946,99
1658828165.06193,147517.9086967,109
1658828165.06193,147517.9086987,106
1658828165.06193,147517.9087008,87
1658828165.06193,147517.908703,92
1658828165.06193,147517.9087051,106
1658828165.06193,147517.9087072,104
1658828165.06193,147517.9087093,99
1658828165.06193,147517.9087305,104
1658828165.06193,147518.5920235,71
1658828165.06193,147518.5920423,-47
1658828165.06193,147518.5920465,-123
1658828165.06193,147518.59205,87
1658828165.06193,147518.5920534,531
1658828165.06193,147518.5920569,908
1658828165.06193,147518.5920604,908
1658828165.06193,147518.5920639,339
1658828165.06193,147518.5920675,-185
1658828165.06193,147518.5920818,-56
1658828165.06193,147518.5920948,118
1658828165.06193,147518.5921055,-14
1658828165.06193,147518.5921177,-33
1658828165.06193,147518.5921255,47
1658828165.06193,147518.5921341,26
1658828165.06193,147518.5921426,-9
1658828165.06193,147518.5921535,4
1658828165.06193,147518.592162,7
1658828165.08287,147518.5921719,9
1658828165.08287,147518.5921771,42
1658828165.08287,147518.5921812,64
1658828165.08287,147518.5921832,64
1658828165.08287,147518.5921854,87
1658828165.08287,147518.5921875,118
1658828165.08287,147518.5921896,139
1658828165.08287,147518.5921916,158
1658828165.08287,147518.5921937,175
1658828165.08287,147518.5921957,187
1658828165.08287,147518.5921982,199
1658828165.08287,147518.5922061,185
1658828165.08287,147518.5922169,154
1658828165.08287,147518.5922204,139
1658828165.08287,147518.592224,125
1658828165.08287,147518.5922261,97
1658828165.08287,147518.5922282,71
1658828165.08287,147518.5922302,40
1658828165.08287,147518.5922323,0
1658828165.08287,147518.5922344,-23
1658828165.08287,147518.5922366,-18
1658828165.08287,147518.5922386,-11
1658828165.08287,147518.5922407,-7
1658828165.08287,147518.5922427,0
1658828165.47806,147518.5922447,7
1658828165.47806,147518.5922467,16
1658828165.47806,147518.5922487,21
1658828165.47806,147518.5922506,28
1658828165.47806,147518.5922525,33
1658828165.47806,147518.5922545,37
1658828165.47806,147518.5922565,47
1658828165.47806,147518.5922584,59
1658828165.47806,147518.5922603,54
1658828165.47806,147518.5922638,37
1658828165.47806,147518.5922721,45
1658828165.47806,147518.5922798,68
1658828165.47806,147518.5922843,59
1658828165.47806,147518.5922919,35
1658828165.47806,147518.5922969,42
1658828165.47806,147518.5923081,66
1658828165.47806,147518.5923138,71
1658828165.47806,147518.5923161,73
1658828165.47806,147518.5923198,80
1658828165.47806,147518.5923308,68
1658828165.47806,147518.5923354,49
1658828165.47806,147518.5923391,52
1658828165.47806,147518.5923447,64
1658828165.47806,147518.5923495,71
1658828165.47806,147518.5923548,78
1658828165.47806,147518.5923587,42
1658828165.47806,147518.5923625,-83
1658828165.47806,147518.5923663,-123
1658828165.47806,147518.59237,139
1658828165.47806,147518.5923751,564
1658828165.47806,147518.5923825,882
1658828165.47806,147519.0302144,854
1658828165.47806,147519.0302337,272
1658828165.47806,147519.0303064,-251
1658828165.47806,147519.0303183,-94
1658828165.47806,147519.0303253,104
1658828165.47806,147519.0303313,-4
1658828165.47806,147519.0303377,-7
1658828165.47806,147519.0303436,56
1658828165.47806,147519.0303498,28
1658828165.47806,147519.0303579,23
1658828165.47806,147519.0303659,59
1658828165.47806,147519.0303732,66
1658828165.47806,147519.030381,61
1658828165.47806,147519.030388,71
1658828165.47806,147519.030394,80
1658828165.47806,147519.0304023,97
1658828165.47806,147519.0304081,123
1658828165.47806,147519.0304119,149
1658828165.47806,147519.0304185,173
1658828165.501,147519.0304273,196
1658828165.501,147519.0304338,208
1658828165.501,147519.0304386,208
1658828165.501,147519.0304507,208
1658828165.501,147519.0304597,199
1658828165.501,147519.0304683,175
1658828165.501,147519.0304754,161
1658828165.501,147519.0304833,144
1658828165.501,147519.0304923,102
1658828165.501,147519.0304986,54
1658828165.501,147519.0305051,30
1658828165.501,147519.0305139,16
1658828165.501,147519.0305184,2
1658828165.501,147519.0305241,-9
1658828165.501,147519.0305287,-18
1658828165.501,147519.0305363,-21
1658828165.501,147519.0305437,-11
1658828165.501,147519.030549,0
1658828165.501,147519.0305593,0
1658828165.501,147519.0305705,4
1658828165.501,147519.0305834,16
1658828165.501,147519.0305958,21
1658828165.501,147519.0306105,21
1658828165.501,147519.0306206,21
1658828165.9675,147519.0306295,26
1658828165.9675,147519.0306369,40
1658828165.9675,147519.0306425,40
1658828165.9675,147519.0306486,16
1658828165.9675,147519.0306538,7
1658828165.9675,147519.0306582,16
1658828165.9675,147519.0306628,26
1658828165.9675,147519.0306669,28
1658828165.9675,147519.0306723,30
1658828165.9675,147519.0306801,45
1658828165.9675,147519.0306862,73
1658828165.9675,147519.0306944,92
1658828165.9675,147519.0307021,71
1658828165.9675,147519.0307067,47
1658828165.9675,147519.0307154,56
1658828165.9675,147519.0307228,61
1658828165.9675,147519.0307273,40
1658828165.9675,147519.0307333,33
1658828165.9675,147519.0307379,45
1658828165.9675,147519.0307449,21
1658828165.9675,147519.0307551,-75
1658828165.9675,147519.0307699,-113
1658828165.9675,147519.0307828,130
1658828165.9675,147519.0308143,585
1658828165.9675,147519.0308264,937
1658828165.9675,147519.0308332,875
1658828165.9675,147519.0308364,249
1658828165.9675,147519.0308423,-256
1658828165.9675,147519.0308453,-66
1658828165.9675,147519.0308483,118
1658828165.9675,147519.5183885,-18
1658828165.9675,147519.518405,-28
1658828165.9675,147519.5184104,45
1658828165.9675,147519.5184162,26
1658828165.9675,147519.518421,23
1658828165.9675,147519.5184266,54
1658828165.9675,147519.5184317,52
1658828165.9675,147519.518437,49
1658828165.9675,147519.518443,75
1658828165.9675,147519.5184546,85
1658828165.9675,147519.5184654,80
1658828165.9675,147519.5184704,90
1658828165.9675,147519.5184736,113
1658828165.9675,147519.5184849,137
1658828165.9675,147519.5184915,163
1658828165.9675,147519.5184975,187
1658828165.9675,147519.5185084,192
1658828165.9675,147519.5185137,175
1658828165.9675,147519.5185193,158
1658828165.9675,147519.5185296,149
1658828165.99443,147519.5185374,130
1658828165.99443,147519.518547,99
1658828165.99443,147519.5185525,66
1658828165.99443,147519.5185633,21
1658828165.99443,147519.5185699,-18
1658828165.99443,147519.5185778,-23
1658828165.99443,147519.518589,-28
1658828165.99443,147519.5185916,-54
1658828165.99443,147519.5185975,-56
1658828165.99443,147519.5186081,-37
1658828165.99443,147519.5186192,-35
1658828165.99443,147519.5186279,-42
1658828165.99443,147519.5186312,-28
1658828165.99443,147519.518644,-7
1658828165.99443,147519.5186499,9
1658828165.99443,147519.5186553,16
1658828165.99443,147519.5186659,21
1658828165.99443,147519.5186771,28
1658828165.99443,147519.5186911,42
1658828165.99443,147519.5187049,49
1658828165.99443,147519.5187147,42
1658828165.99443,147519.518723,40
1658828165.99443,147519.5187303,47
1658828165.99443,147519.5187426,35
1658828166.56691,147519.5187521,18
1658828166.56691,147519.5187561,37
1658828166.56691,147519.5187665,66
1658828166.56691,147519.5187746,71
1658828166.56691,147519.5187829,73
1658828166.56691,147519.5187921,75
1658828166.56691,147519.5187981,68
1658828166.56691,147519.5188085,54
1658828166.56691,147519.5188194,18
1658828166.56691,147519.5188331,9
1658828166.56691,147519.5188443,40
1658828166.56691,147519.5188515,49
1658828166.56691,147519.5188558,40
1658828166.56691,147519.5188613,18
1658828166.56691,147519.5188661,-73
1658828166.56691,147519.5188719,-128
1658828166.56691,147519.5188758,116
1658828166.56691,147519.5188796,612
1658828166.56691,147519.5188855,1022
1658828166.56691,147519.5188894,970
1658828166.56691,147519.5188944,298
1658828166.56691,147519.5188978,-244
1658828166.56691,147519.5189019,-75
1658828166.56691,147519.5189071,92
1658828166.56691,147519.5189106,-37
1658828166.56691,147519.5189142,-30
1658828166.56691,147519.5189179,40
1658828166.56691,147519.5189228,16
1658828166.56691,147519.5189267,14
1658828166.56691,147520.1022491,49
1658828166.56691,147520.1022632,45
1658828166.56691,147520.1022669,42
1658828166.56691,147520.1022713,68
1658828166.56691,147520.1022742,80
1658828166.56691,147520.1022768,85
1658828166.56691,147520.1022795,106
1658828166.56691,147520.1022822,118
1658828166.56691,147520.1022849,123
1658828166.56691,147520.1022876,139
1658828166.56691,147520.1022897,158
1658828166.56691,147520.1022924,168
1658828166.56691,147520.1022952,161
1658828166.56691,147520.1022979,137
1658828166.56691,147520.1023004,109
1658828166.56691,147520.1023031,94
1658828166.56691,147520.1023058,87
1658828166.56691,147520.1023085,68
1658828166.56691,147520.1023111,30
1658828166.56691,147520.1023138,-11
1658828166.56691,147520.1023166,-42
1658828166.58885,147520.1023193,-42
1658828166.58885,147520.1023221,-40
1658828166.58885,147520.1023247,-42
1658828166.58885,147520.1023275,-28
1658828166.58885,147520.1023301,-23
1658828166.58885,147520.1023326,-35
1658828166.58885,147520.1023352,-28
1658828166.58885,147520.1023379,0
1658828166.58885,147520.1023404,11
1658828166.58885,147520.1023428,4
1658828166.58885,147520.1023451,7
1658828166.58885,147520.1023475,30
1658828166.58885,147520.1023498,56
1658828166.58885,147520.1023522,73
1658828166.58885,147520.1023545,68
1658828166.58885,147520.1023568,52
1658828166.58885,147520.1023591,47
1658828166.58885,147520.1023615,49
1658828166.58885,147520.1023638,52
1658828166.58885,147520.1023662,59
1658828166.58885,147520.1023685,61
1658828166.58885,147520.1023709,52
1658828166.58885,147520.1023732,64
1658828166.58885,147520.1023755,97
1658828167.08436,147520.1023778,102
1658828167.08436,147520.1023799,80
1658828167.08436,147520.102382,61
1658828167.08436,147520.1023842,54
1658828167.08436,147520.1023864,54
1658828167.08436,147520.1023885,56
1658828167.08436,147520.1023907,61
1658828167.08436,147520.1023939,71
1658828167.08436,147520.102396,54
1658828167.08436,147520.1024005,-33
1658828167.08436,147520.1024035,-90
1658828167.08436,147520.1024082,118
1658828167.08436,147520.1024129,593
1658828167.08436,147520.1024176,1029
1658828167.08436,147520.1024238,1055
1658828167.08436,147520.1024528,462
1658828167.08436,147520.10246,-168
1658828167.08436,147520.1024637,-116
1658828167.08436,147520.1024669,99
1658828167.08436,147520.1024701,0
1658828167.08436,147520.1024734,-42
1658828167.08436,147520.1024765,33
1658828167.08436,147520.1024797,33
1658828167.08436,147520.1024827,16
1658828167.08436,147520.1024858,37
1658828167.08436,147520.1024889,47
1658828167.08436,147520.1024921,42
1658828167.08436,147520.1024962,47
1658828167.08436,147520.6386986,52
1658828167.08436,147520.6387269,64
1658828167.08436,147520.6387484,90
1658828167.08436,147520.638758,102
1658828167.08436,147520.6387644,116
1658828167.08436,147520.6387733,154
1658828167.08436,147520.6387815,185
1658828167.08436,147520.6387867,180
1658828167.08436,147520.6387942,168
1658828167.08436,147520.6387986,156
1658828167.08436,147520.6388066,132
1658828167.08436,147520.6388258,104
1658828167.08436,147520.6388334,94
1658828167.08436,147520.6388396,83
1658828167.08436,147520.6388484,49
1658828167.08436,147520.6388551,14
1658828167.08436,147520.6388615,-2
1658828167.08436,147520.6388663,-28
1658828167.08436,147520.6388724,-64
1658828167.08436,147520.6388808,-73
1658828167.08436,147520.6388884,-52
1658828167.08436,147520.6388962,-28
1658828167.11098,147520.638904,-30
1658828167.11098,147520.6389089,-35
1658828167.11098,147520.6389178,-21
1658828167.11098,147520.6389286,-7
1658828167.11098,147520.6389379,11
1658828167.11098,147520.6389498,45
1658828167.11098,147520.6389616,52
1658828167.11098,147520.6389667,37
1658828167.11098,147520.6389688,37
1658828167.11098,147520.6389723,45
1658828167.11098,147520.6389835,40
1658828167.11098,147520.6389954,35
1658828167.11098,147520.639001,26
1658828167.11098,147520.6390041,21
1658828167.11098,147520.6390127,30
1658828167.11098,147520.6390231,37
1658828167.11098,147520.6390325,37
1658828167.11098,147520.6390378,45
1658828167.11098,147520.6390399,49
1658828167.11098,147520.639042,54
1658828167.11098,147520.6390442,66
1658828167.11098,147520.6390463,78
1658828167.11098,147520.6390484,73
1658828167.11098,147520.6390504,52
1658828167.72449,147520.6390525,37
1658828167.72449,147520.6390544,54
1658828167.72449,147520.6390564,66
1658828167.72449,147520.6390593,59
1658828167.72449,147520.6390681,49
1658828167.72449,147520.6390737,-18
1658828167.72449,147520.6390799,-109
1658828167.72449,147520.6391073,37
1658828167.72449,147520.6391254,495
