Time,TimeLsl,Value
1660037163.71767,1356526.1247514,71
1660037163.71767,1356526.1247636,67
1660037163.71767,1356526.1247663,60
1660037163.71767,1356526.1247685,48
1660037163.71767,1356526.1247706,39
1660037163.71767,1356526.1247726,34
1660037163.71767,1356526.1247748,25
1660037163.71767,1356526.1247769,23
1660037163.71767,1356526.124779,34
1660037163.71767,1356526.1247811,39
1660037163.71767,1356526.1247832,34
1660037163.71767,1356526.124786,23
1660037163.71767,1356526.1247931,0
1660037163.71767,1356526.1248015,-9
1660037163.71767,1356526.1248052,0
1660037163.71767,1356526.1248108,9
1660037163.71767,1356526.1248211,18
1660037163.71767,1356526.1248287,30
1660037163.71767,1356526.12484,18
1660037163.71767,1356526.1248476,-2
1660037163.71767,1356526.1248512,0
1660037163.71767,1356526.1248543,13
1660037163.71767,1356526.1248565,18
1660037163.71767,1356526.1248617,16
1660037163.71767,1356526.124873,18
1660037163.71767,1356526.1248765,27
1660037163.71767,1356526.1248807,37
1660037163.71767,1356526.124883,34
1660037163.71767,1356526.1248943,27
1660037163.71767,1356526.1249016,97
1660037163.71767,1356526.1249041,269
1660037163.71767,1356526.1249061,454
1660037163.71767,1356526.1249093,391
1660037163.71767,1356526.1249241,-129
1660037163.71767,1356526.1249333,-519
1660037163.71767,1356526.1249414,-227
1660037163.71767,1356526.1249481,83
1660037163.71767,1356526.1249557,16
1660037163.71767,1356526.1249599,6
1660037163.71767,1356526.1249658,99
1660037163.71767,1356526.1249698,90
1660037163.71767,1356526.1249736,71
1660037163.71767,1356526.1249775,106
1660037163.71767,1356526.1249825,113
1660037163.71767,1356526.1249866,104
1660037163.71767,1356526.1249904,122
1660037163.71767,1356526.1249942,146
1660037163.71767,1356526.1249976,155
1660037163.71767,1356526.1250011,160
1660037163.71767,1356526.125009,166
1660037163.83575,1356526.1250131,178
1660037163.83575,1356526.1250194,192
1660037163.83575,1356526.1250232,206
1660037163.83575,1356526.1250289,218
1660037163.83575,1356526.125033,220
1660037163.83575,1356526.1250368,213
1660037163.83575,1356526.1250405,211
1660037163.83575,1356526.1250441,211
1660037163.83575,1356526.1250499,201
1660037163.83575,1356526.1250537,190
1660037163.83575,1356526.1250594,178
1660037163.83575,1356526.1250633,171
1660037163.83575,1356526.125069,166
1660037163.83575,1356526.1250728,153
1660037163.83575,1356526.1250788,139
1660037163.83575,1356526.1250825,139
1660037163.83575,1356526.125088,136
1660037163.83575,1356526.1250915,120
1660037163.83575,1356526.1251026,106
1660037163.83575,1356526.1251065,111
1660037163.83575,1356526.1251103,122
1660037163.83575,1356526.1251138,125
1660037163.83575,1356526.1251175,134
1660037163.83575,1356526.66069,146
1660037163.83575,1356526.6607097,153
1660037163.83575,1356526.660718,153
1660037163.83575,1356526.660723,153
1660037163.83575,1356526.6607272,153
1660037163.83575,1356526.6607316,153
1660037163.83575,1356526.6607357,148
1660037163.83575,1356526.6607396,143
1660037163.83575,1356526.6607435,127
1660037163.83575,1356526.6607474,106
1660037163.83575,1356526.6607513,104
1660037163.83575,1356526.6607553,106
1660037163.83575,1356526.6607592,104
1660037163.83575,1356526.660763,104
1660037163.83575,1356526.6607668,85
1660037163.83575,1356526.6607705,51
1660037163.83575,1356526.6607746,37
1660037163.83575,1356526.6607802,41
1660037163.83575,1356526.660784,39
1660037163.83575,1356526.66079,27
1660037163.83575,1356526.6607938,30
1660037163.83575,1356526.6607976,18
1660037163.83575,1356526.6608042,-2
1660037163.83575,1356526.6608082,-2
1660037163.83575,1356526.660814,4
1660037163.83575,1356526.6608188,2
1660037163.83575,1356526.6608228,0
1660037163.87364,1356526.6608283,-9
1660037163.87364,1356526.6608324,-16
1660037163.87364,1356526.6608365,-13
1660037163.87364,1356526.6608422,-13
1660037163.87364,1356526.6608461,-13
1660037163.87364,1356526.6608504,0
1660037163.87364,1356526.660856,13
1660037163.87364,1356526.6608602,18
1660037163.87364,1356526.6608641,25
1660037163.87364,1356526.66087,30
1660037163.87364,1356526.6608741,27
1660037163.87364,1356526.6608793,34
1660037163.87364,1356526.6608831,48
1660037163.87364,1356526.660887,41
1660037163.87364,1356526.6608924,32
1660037163.87364,1356526.6608961,46
1660037163.87364,1356526.6609002,62
1660037163.87364,1356526.6609058,62
1660037163.87364,1356526.6609095,76
1660037163.87364,1356526.6609132,153
1660037163.87364,1356526.6609187,313
1660037163.87364,1356526.6609226,498
1660037163.87364,1356526.6609279,431
1660037163.87364,1356526.6609318,-78
1660037163.87364,1356526.6609377,-442
1660037163.87364,1356526.6609441,-150
1660037163.87364,1356526.6609497,146
1660037163.87364,1356526.6609546,81
1660037163.87364,1356526.6609604,76
1660037163.87364,1356526.6609658,160
1660037163.87364,1356526.6609695,146
1660037163.87364,1356526.6609733,125
1660037163.87364,1356526.660977,146
1660037163.87364,1356526.6609807,146
1660037163.87364,1356526.6609861,143
1660037163.87364,1356526.6609902,162
1660037163.87364,1356526.6609938,173
1660037163.87364,1356526.6609978,178
1660037163.87364,1356526.661003,183
1660037163.87364,1356526.6610067,192
1660037163.87364,1356526.6610123,206
1660037163.87364,1356526.6610161,218
1660037163.87364,1356526.6610207,220
1660037163.87364,1356526.6610242,227
1660037163.87364,1356526.6610296,231
1660037163.87364,1356526.6610342,229
1660037163.87364,1356527.2458256,222
1660037163.87364,1356527.2458466,215
1660037163.87364,1356527.2458524,206
1660037163.87364,1356527.2458558,192
1660037163.89558,1356527.2458589,176
1660037163.89558,1356527.245862,153
1660037163.89558,1356527.2458651,122
1660037163.89558,1356527.2458683,115
1660037163.89558,1356527.2458728,122
1660037163.89558,1356527.2458786,118
1660037163.89558,1356527.2458843,104
1660037163.89558,1356527.2458893,88
1660037163.89558,1356527.2458942,74
1660037163.89558,1356527.2458997,64
1660037163.89558,1356527.2459038,62
1660037163.89558,1356527.245908,69
1660037163.89558,1356527.245915,83
1660037163.89558,1356527.2459226,88
1660037163.89558,1356527.2459294,85
1660037163.89558,1356527.2459361,92
1660037163.89558,1356527.2459398,99
1660037163.89558,1356527.2459439,95
1660037163.89558,1356527.245949,92
1660037163.89558,1356527.2459545,102
1660037163.89558,1356527.245959,102
1660037163.89558,1356527.2459635,92
1660037163.89558,1356527.2459686,95
1660037163.89558,1356527.2459739,97
1660037163.89558,1356527.2459777,90
1660037163.89558,1356527.2459816,90
1660037163.89558,1356527.2459844,92
1660037163.89558,1356527.2459873,88
1660037163.89558,1356527.2459903,81
1660037163.89558,1356527.2459932,74
1660037163.89558,1356527.245996,64
1660037163.89558,1356527.245999,53
1660037163.89558,1356527.2460018,48
1660037163.89558,1356527.2460046,46
1660037163.89558,1356527.2460075,46
1660037163.89558,1356527.2460104,46
1660037163.89558,1356527.2460132,46
1660037163.89558,1356527.246016,48
1660037163.89558,1356527.2460189,48
1660037163.89558,1356527.2460219,46
1660037163.89558,1356527.2460247,46
1660037163.89558,1356527.2460275,46
1660037163.89558,1356527.2460304,48
1660037163.89558,1356527.2460332,53
1660037163.89558,1356527.2460361,55
1660037163.89558,1356527.2460391,46
1660037163.89558,1356527.2460419,32
1660037163.89558,1356527.2460448,32
1660037163.89558,1356527.2460477,41
1660037163.89558,1356527.2460512,53
1660037163.90655,1356527.246065,67
1660037163.90655,1356527.2460779,76
1660037163.90655,1356527.2460909,78
1660037163.90655,1356527.2461042,76
1660037163.90655,1356527.2461184,71
1660037163.90655,1356527.2461314,74
1660037163.90655,1356527.2461447,78
1660037163.90655,1356527.2461576,81
1660037163.90655,1356527.2461716,81
1660037163.90655,1356527.2461847,88
1660037163.90655,1356527.2461979,95
1660037163.90655,1356527.2462109,92
1660037163.90655,1356527.2462238,106
1660037163.90655,1356527.2462369,187
1660037163.90655,1356527.24625,350
1660037163.90655,1356527.246263,526
1660037163.90655,1356527.2462759,454
1660037163.90655,1356527.2462899,-48
1660037163.90655,1356527.2463038,-408
1660037163.90655,1356527.782559,-129
1660037163.90655,1356527.782572,160
1660037163.90655,1356527.7825771,88
1660037164.24439,1356527.7825832,69
1660037164.24439,1356527.7825862,153
1660037164.24439,1356527.782589,146
1660037164.24439,1356527.7825917,111
1660037164.24439,1356527.7825944,113
1660037164.24439,1356527.7825971,113
1660037164.24439,1356527.7826005,109
1660037164.24439,1356527.7826112,113
1660037164.24439,1356527.7826221,125
1660037164.24439,1356527.7826306,139
1660037164.24439,1356527.7826357,148
1660037164.24439,1356527.7826435,139
1660037164.24439,1356527.7826493,113
1660037164.24439,1356527.7826632,115
1660037164.24439,1356527.7826748,139
1660037164.24439,1356527.7826795,146
1660037164.24439,1356527.7826817,143
1660037164.24439,1356527.7826839,141
1660037164.24439,1356527.7826861,115
1660037164.24439,1356527.7826929,88
1660037164.24439,1356527.7827038,92
1660037164.24439,1356527.7827085,97
1660037164.24439,1356527.7827107,88
1660037164.24439,1356527.7827129,76
1660037164.24439,1356527.7827186,64
1660037164.24439,1356527.7827298,55
1660037164.24439,1356527.7827352,57
1660037164.24439,1356527.7827373,60
1660037164.24439,1356527.7827394,55
1660037164.24439,1356527.7827417,53
1660037164.24439,1356527.7827516,46
1660037164.24439,1356527.7827647,41
1660037164.24439,1356527.7827787,55
1660037164.24439,1356527.7827949,71
1660037164.24439,1356527.7828067,76
1660037164.24439,1356527.7828149,88
1660037164.24439,1356527.7828193,99
1660037164.24439,1356527.7828255,95
1660037164.24439,1356527.78283,74
1660037164.24439,1356527.7828358,69
1660037164.24439,1356527.7828399,83
1660037164.24439,1356527.7828464,85
1660037164.24439,1356527.7828534,71
1660037164.24439,1356527.7828576,57
1660037164.24439,1356527.7828619,57
1660037164.24439,1356527.782866,64
1660037164.24439,1356527.7828701,62
1660037164.24439,1356527.7828771,55
1660037164.24439,1356527.7828809,46
1660037164.24439,1356527.7828851,44
1660037164.26334,1356527.7828893,39
1660037164.26334,1356527.7828956,30
1660037164.26334,1356527.7829002,30
1660037164.26334,1356527.7829061,23
1660037164.26334,1356527.7829103,11
1660037164.26334,1356527.7829142,11
1660037164.26334,1356527.7829197,13
1660037164.26334,1356527.782971,4
1660037164.26334,1356527.7829835,0
1660037164.26334,1356527.7829941,4
1660037164.26334,1356527.7830026,2
1660037164.26334,1356527.78301,4
1660037164.26334,1356527.7830171,2
1660037164.26334,1356527.7830224,-4
1660037164.26334,1356527.7830295,-6
1660037164.26334,1356527.7830453,-6
1660037164.26334,1356527.7830584,-6
1660037164.26334,1356527.7830717,0
1660037164.26334,1356527.7830848,20
1660037164.26334,1356527.7830978,32
1660037164.26334,1356528.3188455,16
1660037164.26334,1356528.3188607,-2
1660037164.26334,1356528.3188659,-2
1660037164.26334,1356528.3188705,4
1660037164.80662,1356528.3188751,2
1660037164.80662,1356528.3188796,0
1660037164.80662,1356528.318884,11
1660037164.80662,1356528.3188884,20
1660037164.80662,1356528.3188932,18
1660037164.80662,1356528.3188975,18
1660037164.80662,1356528.3189017,60
1660037164.80662,1356528.318906,185
1660037164.80662,1356528.3189105,373
1660037164.80662,1356528.3189148,487
1660037164.80662,1356528.318919,162
1660037164.80662,1356528.3189238,-468
1660037164.80662,1356528.3189281,-524
1660037164.80662,1356528.3189324,-88
1660037164.80662,1356528.3189369,18
1660037164.80662,1356528.3189411,-67
1660037164.80662,1356528.3189454,9
1660037164.80662,1356528.3189497,55
1660037164.80662,1356528.3189535,27
1660037164.80662,1356528.3189575,46
1660037164.80662,1356528.3189627,69
1660037164.80662,1356528.3189675,57
1660037164.80662,1356528.318972,67
1660037164.80662,1356528.3189763,92
1660037164.80662,1356528.3189817,97
1660037164.80662,1356528.318985,102
1660037164.80662,1356528.3189887,118
1660037164.80662,1356528.318992,125
1660037164.80662,1356528.3189957,127
1660037164.80662,1356528.319,139
1660037164.80662,1356528.3190034,155
1660037164.80662,1356528.3190067,164
1660037164.80662,1356528.3190115,166
1660037164.80662,1356528.3190151,162
1660037164.80662,1356528.3190184,155
1660037164.80662,1356528.3190218,153
1660037164.80662,1356528.3190261,146
1660037164.80662,1356528.3190315,136
1660037164.80662,1356528.3190366,127
1660037164.80662,1356528.3190427,118
1660037164.80662,1356528.3190513,106
1660037164.80662,1356528.3190584,97
1660037164.80662,1356528.3190623,92
1660037164.80662,1356528.3190664,85
1660037164.80662,1356528.3190713,78
1660037164.80662,1356528.3190765,71
1660037164.80662,1356528.3190814,69
1660037164.80662,1356528.3190878,76
1660037164.80662,1356528.3190933,90
1660037164.80662,1356528.3190967,104
1660037164.81859,1356528.3191024,120
1660037164.81859,1356528.3191055,127
1660037164.81859,1356528.3191088,125
1660037164.81859,1356528.3191214,132
1660037164.81859,1356528.3191249,141
1660037164.81859,1356528.3191307,143
1660037164.81859,1356528.3191362,146
1660037164.81859,1356528.3191396,141
1660037164.81859,1356528.3191431,132
1660037164.81859,1356528.3191467,122
1660037164.81859,1356528.3191501,115
1660037164.81859,1356528.3191536,97
1660037164.81859,1356528.3191569,85
1660037164.81859,1356528.3191664,90
1660037164.81859,1356528.3191706,88
1660037164.81859,1356528.3191758,78
1660037164.81859,1356528.3191797,74
1660037164.81859,1356528.3191851,74
1660037164.81859,1356528.3191886,67
1660037164.81859,1356528.9037042,51
1660037164.81859,1356528.9037258,41
1660037164.81859,1356528.9037395,39
1660037164.81859,1356528.9037495,30
1660037164.81859,1356528.9037567,27
1660037165.43351,1356528.9037657,37
1660037165.43351,1356528.9037712,51
1660037165.43351,1356528.9037806,62
1660037165.43351,1356528.9037885,46
1660037165.43351,1356528.9037945,11
1660037165.43351,1356528.9038044,11
1660037165.43351,1356528.9038136,32
1660037165.43351,1356528.9038218,32
1660037165.43351,1356528.90383,25
1660037165.43351,1356528.9038349,16
1660037165.43351,1356528.903841,0
1660037165.43351,1356528.9038465,9
1660037165.43351,1356528.9038518,25
1660037165.43351,1356528.9038565,37
1660037165.43351,1356528.9038599,113
1660037165.43351,1356528.9038632,296
1660037165.43351,1356528.9038661,487
1660037165.43351,1356528.9038691,385
1660037165.43351,1356528.9038721,-157
1660037165.43351,1356528.9038769,-491
1660037165.43351,1356528.903897,-169
1660037165.43351,1356528.9039097,104
1660037165.43351,1356528.9039175,25
1660037165.43351,1356528.9039241,32
1660037165.43351,1356528.9039367,115
1660037165.43351,1356528.9039451,99
1660037165.43351,1356528.9039511,88
1660037165.43351,1356528.9039588,120
1660037165.43351,1356528.9039681,127
1660037165.43351,1356528.9039743,120
1660037165.43351,1356528.9039823,134
1660037165.43351,1356528.9039856,146
1660037165.43351,1356528.9039886,153
1660037165.43351,1356528.9039917,166
1660037165.43351,1356528.9039946,180
1660037165.43351,1356528.9039974,185
1660037165.43351,1356528.9040002,199
1660037165.43351,1356528.904003,215
1660037165.43351,1356528.9040059,227
1660037165.43351,1356528.9040088,236
1660037165.43351,1356528.9040116,236
1660037165.43351,1356528.9040144,227
1660037165.43351,1356528.9040172,218
1660037165.43351,1356528.90402,208
1660037165.43351,1356528.9040229,197
1660037165.43351,1356528.9040257,194
1660037165.43351,1356528.9040286,187
1660037165.43351,1356528.9040315,171
1660037165.43351,1356528.9040344,160
1660037165.43351,1356528.9040405,148
1660037165.44947,1356528.9040437,129
1660037165.44947,1356528.9040465,120
1660037165.44947,1356528.9040493,118
1660037165.44947,1356528.9040526,106
1660037165.44947,1356528.9040581,92
1660037165.44947,1356528.9040618,97
1660037165.44947,1356528.9040647,113
1660037165.44947,1356528.9040676,127
1660037165.44947,1356528.9040707,141
1660037165.44947,1356528.9040736,153
1660037165.44947,1356528.9040766,160
1660037165.44947,1356528.9040795,155
1660037165.44947,1356528.9040824,143
1660037165.44947,1356528.9040852,146
1660037165.44947,1356528.9040882,153
1660037165.44947,1356528.904091,155
1660037165.44947,1356528.9040939,157
1660037165.44947,1356528.9040968,150
1660037165.44947,1356529.5375191,141
1660037165.44947,1356529.537539,141
1660037165.44947,1356529.5375447,143
1660037165.44947,1356529.537549,143
1660037165.44947,1356529.5375544,134
1660037165.44947,1356529.5375593,115
1660037165.88118,1356529.5375641,109
1660037165.88118,1356529.5375695,109
1660037165.88118,1356529.5375758,97
1660037165.88118,1356529.5375799,88
1660037165.88118,1356529.5375853,95
1660037165.88118,1356529.5375912,74
1660037165.88118,1356529.5375977,39
1660037165.88118,1356529.5376049,34
1660037165.88118,1356529.5376122,34
1660037165.88118,1356529.5376182,18
1660037165.88118,1356529.5376232,18
1660037165.88118,1356529.5376268,25
1660037165.88118,1356529.5376302,16
1660037165.88118,1356529.5376364,20
1660037165.88118,1356529.5376397,34
1660037165.88118,1356529.5376454,27
1660037165.88118,1356529.5376485,16
1660037165.88118,1356529.5376538,23
1660037165.88118,1356529.5376593,25
1660037165.88118,1356529.5376625,18
1660037165.88118,1356529.5376754,32
1660037165.88118,1356529.5376836,46
1660037165.88118,1356529.5376915,44
1660037165.88118,1356529.5376973,41
1660037165.88118,1356529.5377031,44
1660037165.88118,1356529.5377088,90
1660037165.88118,1356529.5377139,236
1660037165.88118,1356529.5377196,442
1660037165.88118,1356529.5377339,489
1660037165.88118,1356529.5377374,83
1660037165.88118,1356529.5377407,-415
1660037165.88118,1356529.537744,-299
1660037165.88118,1356529.5377477,69
1660037165.88118,1356529.537751,97
1660037165.88118,1356529.5377545,55
1660037165.88118,1356529.5377588,122
1660037165.88118,1356529.5377661,132
1660037165.88118,1356529.5377702,109
1660037165.88118,1356529.5377733,132
1660037165.88118,1356529.5377763,148
1660037165.88118,1356529.5377793,143
1660037165.88118,1356529.5377822,146
1660037165.88118,1356529.5377852,160
1660037165.88118,1356529.5377881,166
1660037165.88118,1356529.5377911,164
1660037165.88118,1356529.537794,162
1660037165.88118,1356529.5377992,169
1660037165.88118,1356529.5378099,192
1660037165.88118,1356529.5378177,204
1660037165.88118,1356529.5378217,204
1660037165.90113,1356529.5378262,211
1660037165.90113,1356529.5378309,218
1660037165.90113,1356529.5378343,218
1660037165.90113,1356529.5378373,211
1660037165.90113,1356529.5378405,204
1660037165.90113,1356529.5378433,199
1660037165.90113,1356529.5378462,183
1660037165.90113,1356529.5378492,164
1660037165.90113,1356529.5378521,166
1660037165.90113,1356529.5378549,164
1660037165.90113,1356529.5378577,150
1660037165.90113,1356529.5378606,132
1660037165.90113,1356529.5378635,120
1660037165.90113,1356529.5378664,118
1660037165.90113,1356529.5378693,125
1660037165.90113,1356529.5378721,125
1660037165.90113,1356529.537875,122
1660037165.90113,1356529.9766104,139
1660037165.90113,1356529.9766285,160
1660037165.90113,1356529.9766342,162
1660037165.90113,1356529.9766402,162
1660037165.90113,1356529.9766449,173
1660037165.90113,1356529.9766492,162
1660037165.90113,1356529.9766531,143
1660037166.50559,1356529.9766589,143
1660037166.50559,1356529.9766645,134
1660037166.50559,1356529.9766722,111
1660037166.50559,1356529.9766766,111
1660037166.50559,1356529.9766807,118
1660037166.50559,1356529.9766862,111
1660037166.50559,1356529.9766939,104
1660037166.50559,1356529.9767012,95
1660037166.50559,1356529.9767083,71
1660037166.50559,1356529.976715,60
1660037166.50559,1356529.9767203,57
1660037166.50559,1356529.9767241,53
1660037166.50559,1356529.976727,48
1660037166.50559,1356529.9767299,44
1660037166.50559,1356529.9767342,34
1660037166.50559,1356529.9767409,32
1660037166.50559,1356529.9767475,32
1660037166.50559,1356529.9767505,30
1660037166.50559,1356529.9767549,32
1660037166.50559,1356529.9767616,32
1660037166.50559,1356529.976769,30
1660037166.50559,1356529.9767759,23
1660037166.50559,1356529.9767809,16
1660037166.50559,1356529.9767867,11
1660037166.50559,1356529.9767918,18
1660037166.50559,1356529.9767989,32
1660037166.50559,1356529.9768044,34
1660037166.50559,1356529.9768109,37
1660037166.50559,1356529.9768145,41
1660037166.50559,1356529.9768199,34
1660037166.50559,1356529.9768239,20
1660037166.50559,1356529.9768278,16
1660037166.50559,1356529.976834,16
1660037166.50559,1356529.976837,13
1660037166.50559,1356529.9768399,9
1660037166.50559,1356529.9768428,6
1660037166.50559,1356529.9768458,-2
1660037166.50559,1356529.9768488,-13
1660037166.50559,1356529.9768516,-4
1660037166.50559,1356529.9768545,67
1660037166.50559,1356529.9768574,222
1660037166.50559,1356529.9768603,419
1660037166.50559,1356529.9768632,398
1660037166.50559,1356529.9768662,-92
1660037166.50559,1356529.9768701,-538
1660037166.50559,1356529.9768754,-310
1660037166.50559,1356529.9768802,32
1660037166.50559,1356529.9768833,6
1660037166.50559,1356529.9768862,-13
1660037166.50559,1356529.9768892,64
1660037166.51656,1356529.976892,64
1660037166.51656,1356529.9768951,41
1660037166.51656,1356529.9768982,55
1660037166.51656,1356529.9769039,67
1660037166.51656,1356529.9769093,74
1660037166.51656,1356529.9769135,83
1660037166.51656,1356529.9769177,85
1660037166.51656,1356529.9769219,95
1660037166.51656,1356529.9769281,106
1660037166.51656,1356529.9769351,113
1660037166.51656,1356529.9769427,122
1660037166.51656,1356529.9769477,136
1660037166.51656,1356529.9769516,139
1660037166.51656,1356529.9769553,136
1660037166.51656,1356529.9769586,141
1660037166.51656,1356529.9769635,143
1660037166.51656,1356530.6102617,139
1660037166.51656,1356530.6102795,129
1660037166.51656,1356530.6102879,120
1660037166.51656,1356530.6102962,106
1660037166.51656,1356530.6103042,85
1660037166.51656,1356530.6103122,57
1660037166.51656,1356530.6103187,39
1660037166.51656,1356530.6103231,39
1660037167.04656,1356530.6103283,34
1660037167.04656,1356530.6103329,23
1660037167.04656,1356530.6103371,9
1660037167.04656,1356530.6103412,-18
1660037167.04656,1356530.6103445,-44
1660037167.04656,1356530.6103485,-37
1660037167.04656,1356530.6103524,-20
1660037167.04656,1356530.610357,-13
1660037167.04656,1356530.6103606,-6
1660037167.04656,1356530.610365,4
1660037167.04656,1356530.6103907,4
1660037167.04656,1356530.6104011,9
1660037167.04656,1356530.6104085,20
1660037167.04656,1356530.6104132,20
1660037167.04656,1356530.6104193,13
1660037167.04656,1356530.6104231,13
1660037167.04656,1356530.6104289,11
1660037167.04656,1356530.6104328,6
1660037167.04656,1356530.6104392,11
1660037167.04656,1356530.6104438,11
1660037167.04656,1356530.6104508,0
1660037167.04656,1356530.6104567,-9
1660037167.04656,1356530.6104635,-11
1660037167.04656,1356530.6104686,-16
1660037167.04656,1356530.6104749,-18
1660037167.04656,1356530.6104801,-16
1660037167.04656,1356530.6104854,-23
1660037167.04656,1356530.6104912,-37
1660037167.04656,1356530.6104974,-57
1660037167.04656,1356530.610502,-71
1660037167.04656,1356530.6105062,-60
1660037167.04656,1356530.6105124,-57
1660037167.04656,1356530.6105169,-62
1660037167.04656,1356530.6105206,-41
1660037167.04656,1356530.6105268,-18
1660037167.04656,1356530.6105327,-23
1660037167.04656,1356530.6105367,-37
1660037167.04656,1356530.6105427,-30
1660037167.04656,1356530.6105473,-25
1660037167.04656,1356530.6105539,-30
1660037167.04656,1356530.6105584,-23
1660037167.04656,1356530.6105644,-13
1660037167.04656,1356530.6105701,-9
1660037167.04656,1356530.6105763,-4
1660037167.04656,1356530.6105824,0
1660037167.04656,1356530.6105864,48
1660037167.04656,1356530.61059,199
1660037167.04656,1356530.6105955,410
1660037167.04656,1356530.6106007,482
1660037167.04656,1356530.6106056,60
1660037167.06152,1356530.6106115,-535
1660037167.06152,1356530.6106166,-440
1660037167.06152,1356530.6106257,2
1660037167.06152,1356530.6106378,44
1660037167.06152,1356530.6106507,-25
1660037167.06152,1356530.6106597,62
1660037167.06152,1356530.6106657,92
1660037167.06152,1356530.6106734,64
1660037167.06152,1356530.6106793,81
1660037167.06152,1356530.6106866,104
1660037167.06152,1356530.6106933,106
1660037167.06152,1356530.610701,113
1660037167.06152,1356530.610707,122
1660037167.06152,1356530.6107145,132
1660037167.06152,1356530.610723,146
1660037167.06152,1356531.1465896,162
1660037167.06152,1356531.1466076,176
1660037167.06152,1356531.1466127,187
1660037167.06152,1356531.1466175,201
1660037167.06152,1356531.1466223,211
1660037167.06152,1356531.1466265,222
1660037167.06152,1356531.1466305,229
1660037167.06152,1356531.1466367,224
1660037167.06152,1356531.146642,199
1660037167.65198,1356531.1466483,166
1660037167.65198,1356531.1466539,155
1660037167.65198,1356531.1466583,157
1660037167.65198,1356531.1466637,153
1660037167.65198,1356531.1466683,139
1660037167.65198,1356531.1466726,111
1660037167.65198,1356531.1466796,88
1660037167.65198,1356531.1466865,83
1660037167.65198,1356531.1466934,83
1660037167.65198,1356531.1466974,74
1660037167.65198,1356531.1467014,57
1660037167.65198,1356531.1467047,48
1660037167.65198,1356531.1467077,32
1660037167.65198,1356531.1467108,30
1660037167.65198,1356531.1467136,53
1660037167.65198,1356531.1467164,76
1660037167.65198,1356531.1467192,85
1660037167.65198,1356531.1467247,97
1660037167.65198,1356531.1467279,95
1660037167.65198,1356531.14678,81
1660037167.65198,1356531.1467948,74
1660037167.65198,1356531.1468022,78
1660037167.65198,1356531.1468087,88
1660037167.65198,1356531.1468153,88
1660037167.65198,1356531.1468211,78
1660037167.65198,1356531.1468265,74
1660037167.65198,1356531.1468331,85
1660037167.65198,1356531.1468389,95
1660037167.65198,1356531.1468462,88
1660037167.65198,1356531.1468543,83
1660037167.65198,1356531.1468602,81
1660037167.65198,1356531.1468663,74
1660037167.65198,1356531.146874,64
1660037167.65198,1356531.1468783,67
1660037167.65198,1356531.1468847,64
1660037167.65198,1356531.1468901,55
1660037167.65198,1356531.1468933,46
1660037167.65198,1356531.1468963,37
1660037167.65198,1356531.1468994,37
1660037167.65198,1356531.1469022,46
1660037167.65198,1356531.1469052,64
1660037167.65198,1356531.1469084,74
1660037167.65198,1356531.1469115,64
1660037167.65198,1356531.1469148,48
1660037167.65198,1356531.1469178,44
1660037167.65198,1356531.1469212,51
1660037167.65198,1356531.1469247,53
1660037167.65198,1356531.1469281,55
1660037167.65198,1356531.1469314,62
1660037167.65198,1356531.1469364,60
1660037167.67492,1356531.1469412,57
1660037167.67492,1356531.1469447,67
1660037167.67492,1356531.1469477,92
1660037167.67492,1356531.1469508,176
1660037167.67492,1356531.1469537,350
1660037167.67492,1356531.146958,542
1660037167.67492,1356531.1469615,433
1660037167.67492,1356531.1469649,-118
1660037167.67492,1356531.1469683,-436
1660037167.67492,1356531.1469717,-109
1660037167.67492,1356531.146976,155
1660037167.67492,1356531.1469856,78
1660037167.67492,1356531.1469907,83
1660037167.67492,1356531.1469953,160
1660037167.67492,1356531.7315451,146
1660037167.67492,1356531.7315675,136
1660037167.67492,1356531.7315746,162
1660037167.67492,1356531.731581,169
1660037167.67492,1356531.7315873,173
1660037167.67492,1356531.7315936,183
1660037167.67492,1356531.7315997,190
1660037167.67492,1356531.7316052,199
1660037167.67492,1356531.7316097,211
1660037167.67492,1356531.7316149,215
1660037168.21547,1356531.7316191,220
1660037168.21547,1356531.7316234,211
1660037168.21547,1356531.7316277,201
1660037168.21547,1356531.7316327,213
1660037168.21547,1356531.7316392,220
1660037168.21547,1356531.7316455,213
1660037168.21547,1356531.7316491,213
1660037168.21547,1356531.7316526,208
1660037168.21547,1356531.7316584,178
1660037168.21547,1356531.7316648,155
1660037168.21547,1356531.7316709,148
1660037168.21547,1356531.7316774,129
1660037168.21547,1356531.7316841,104
1660037168.21547,1356531.7316928,95
1660037168.21547,1356531.7316993,85
1660037168.21547,1356531.7317066,76
1660037168.21547,1356531.7317131,76
1660037168.21547,1356531.7317185,74
1660037168.21547,1356531.7317255,76
1660037168.21547,1356531.7317324,88
1660037168.21547,1356531.7317384,95
1660037168.21547,1356531.7317428,97
1660037168.21547,1356531.7317465,109
1660037168.21547,1356531.7317499,129
1660037168.21547,1356531.7317536,141
1660037168.21547,1356531.7317572,148
1660037168.21547,1356531.7317607,153
1660037168.21547,1356531.7317644,141
1660037168.21547,1356531.7317677,139
1660037168.21547,1356531.7317709,153
1660037168.21547,1356531.7317744,150
1660037168.21547,1356531.7317776,139
1660037168.21547,1356531.731781,136
1660037168.21547,1356531.7317842,134
1660037168.21547,1356531.7317877,127
1660037168.21547,1356531.7317909,127
1660037168.21547,1356531.7317944,129
1660037168.21547,1356531.7317978,125
1660037168.21547,1356531.7318014,120
1660037168.21547,1356531.7318052,111
1660037168.21547,1356531.7318086,97
1660037168.21547,1356531.7318118,90
1660037168.21547,1356531.7318151,90
1660037168.21547,1356531.7318183,88
1660037168.21547,1356531.7318216,83
1660037168.21547,1356531.7318251,69
1660037168.21547,1356531.7318288,64
1660037168.21547,1356531.7318324,76
1660037168.21547,1356531.7318357,92
1660037168.21547,1356531.7318389,99
1660037168.22644,1356531.7318423,106
1660037168.22644,1356531.7318455,102
1660037168.22644,1356531.7318488,85
1660037168.22644,1356531.7318522,90
1660037168.22644,1356531.7318558,97
1660037168.22644,1356531.7318593,95
1660037168.22644,1356531.7318627,95
1660037168.22644,1356531.731866,97
1660037168.22644,1356531.7318693,97
1660037168.22644,1356531.7318728,99
1660037168.22644,1356531.7318763,104
1660037168.22644,1356531.7318799,160
1660037168.22644,1356531.7318839,315
1660037168.22644,1356532.3163339,517
1660037168.22644,1356532.3163551,507
1660037168.22644,1356532.316369,30
1660037168.22644,1356532.3163789,-419
1660037168.22644,1356532.3164224,-211
1660037168.22644,1356532.3164371,129
1660037168.22644,1356532.3164469,104
1660037168.22644,1356532.3164593,67
1660037168.22644,1356532.3164681,122
1660037168.22644,1356532.3164771,106
1660037168.22644,1356532.316484,90
1660037168.70285,1356532.3164925,122
1660037168.70285,1356532.3164989,129
1660037168.70285,1356532.316503,120
1660037168.70285,1356532.3165397,120
1660037168.70285,1356532.3165493,122
1660037168.70285,1356532.3165559,127
1660037168.70285,1356532.3165616,139
1660037168.70285,1356532.3165703,153
1660037168.70285,1356532.3165771,160
1660037168.70285,1356532.3165837,157
1660037168.70285,1356532.3165923,150
1660037168.70285,1356532.316599,150
1660037168.70285,1356532.316608,162
1660037168.70285,1356532.3166146,166
1660037168.70285,1356532.3166224,155
1660037168.70285,1356532.3166293,143
1660037168.70285,1356532.3166396,127
1660037168.70285,1356532.3166692,113
1660037168.70285,1356532.3166829,109
1660037168.70285,1356532.3166882,95
1660037168.70285,1356532.3166923,78
1660037168.70285,1356532.3166961,67
1660037168.70285,1356532.3167002,51
1660037168.70285,1356532.316704,30
1660037168.70285,1356532.3167076,18
1660037168.70285,1356532.3167114,11
1660037168.70285,1356532.3167152,6
1660037168.70285,1356532.3167221,16
1660037168.70285,1356532.3167287,23
1660037168.70285,1356532.3167319,23
1660037168.70285,1356532.3167352,30
1660037168.70285,1356532.3167476,44
1660037168.70285,1356532.3167562,48
1660037168.70285,1356532.3167631,51
1660037168.70285,1356532.3167667,48
1660037168.70285,1356532.3167716,41
1660037168.70285,1356532.3167776,34
1660037168.70285,1356532.3167814,34
1660037168.70285,1356532.3167874,39
1660037168.70285,1356532.3167905,39
1660037168.70285,1356532.3167935,32
1660037168.70285,1356532.3167963,23
1660037168.70285,1356532.3167993,25
1660037168.70285,1356532.3168023,27
1660037168.70285,1356532.3168053,13
1660037168.70285,1356532.3168082,6
1660037168.70285,1356532.3168111,11
1660037168.70285,1356532.316814,4
1660037168.70285,1356532.3168169,-11
1660037168.70285,1356532.3168199,-23
1660037168.71382,1356532.3168227,-25
1660037168.71382,1356532.3168255,-27
1660037168.71382,1356532.3168283,-32
1660037168.71382,1356532.3168312,-41
1660037168.71382,1356532.3168342,-46
1660037168.71382,1356532.3168372,-41
1660037168.71382,1356532.3168401,-32
1660037168.71382,1356532.3168429,-18
1660037168.71382,1356532.3168458,-16
1660037168.71382,1356532.3168486,-30
1660037168.71382,1356532.3168515,-32
1660037168.71382,1356532.3168544,-18
1660037168.71382,1356532.8042852,-20
1660037168.71382,1356532.8043029,-25
1660037168.71382,1356532.8043085,-13
1660037168.71382,1356532.8043148,-6
1660037168.71382,1356532.8043193,-9
1660037168.71382,1356532.8043255,-13
1660037168.71382,1356532.8043303,2
1660037168.71382,1356532.8043344,95
1660037168.71382,1356532.8043399,285
1660037168.71382,1356532.804344,466
1660037168.71382,1356532.8043502,280
1660037168.71382,1356532.8043545,-368
1660037169.23646,1356532.80436,-649
1660037169.23646,1356532.8043639,-236
1660037169.23646,1356532.804368,20
1660037169.23646,1356532.8043719,-60
1660037169.23646,1356532.8043758,-25
1660037169.23646,1356532.8043796,30
1660037169.23646,1356532.8043834,-23
1660037169.23646,1356532.8043872,-20
1660037169.23646,1356532.8043906,23
1660037169.23646,1356532.8043946,25
1660037169.23646,1356532.8043985,32
1660037169.23646,1356532.8044025,55
1660037169.23646,1356532.8044063,55
1660037169.23646,1356532.8044105,53
1660037169.23646,1356532.8044144,76
1660037169.23646,1356532.8044188,97
1660037169.23646,1356532.8044243,104
1660037169.23646,1356532.8044284,118
1660037169.23646,1356532.804434,127
1660037169.23646,1356532.804439,129
1660037169.23646,1356532.8044446,141
1660037169.23646,1356532.8044495,150
1660037169.23646,1356532.8044548,148
1660037169.23646,1356532.8044585,134
1660037169.23646,1356532.8044641,118
1660037169.23646,1356532.8044679,109
1660037169.23646,1356532.8044734,104
1660037169.23646,1356532.8044771,92
1660037169.23646,1356532.8044829,78
1660037169.23646,1356532.804487,67
1660037169.23646,1356532.8044927,57
1660037169.23646,1356532.8044966,37
1660037169.23646,1356532.8045024,27
1660037169.23646,1356532.8045081,32
1660037169.23646,1356532.8045121,37
1660037169.23646,1356532.8045162,39
1660037169.23646,1356532.804522,39
1660037169.23646,1356532.8045261,44
1660037169.23646,1356532.8045318,62
1660037169.23646,1356532.8045359,85
1660037169.23646,1356532.80454,95
1660037169.23646,1356532.804544,97
1660037169.23646,1356532.8045483,95
1660037169.23646,1356532.8045538,92
1660037169.23646,1356532.8045588,92
1660037169.23646,1356532.8045643,90
1660037169.23646,1356532.8045691,90
1660037169.23646,1356532.8045743,95
1660037169.23646,1356532.8045781,95
1660037169.23646,1356532.8045836,97
1660037169.24843,1356532.8045877,99
1660037169.24843,1356532.8045932,97
1660037169.24843,1356532.8045971,102
1660037169.24843,1356532.804601,106
1660037169.24843,1356532.8046065,97
1660037169.24843,1356532.8046108,88
1660037169.24843,1356532.8046147,78
1660037169.24843,1356532.8046187,67
1660037169.24843,1356532.8046238,69
1660037169.24843,1356532.8046279,81
1660037169.24843,1356532.8046333,83
1660037169.24843,1356533.3396899,78
1660037169.24843,1356533.3397065,67
1660037169.24843,1356533.3397108,62
1660037169.24843,1356533.3397144,67
1660037169.24843,1356533.3397179,67
1660037169.24843,1356533.3397214,69
1660037169.24843,1356533.339725,71
1660037169.24843,1356533.3397285,64
1660037169.24843,1356533.339732,53
1660037169.24843,1356533.3397357,46
1660037169.24843,1356533.3397409,46
1660037169.24843,1356533.3397448,85
1660037169.24843,1356533.3397482,201
1660037169.82505,1356533.3397523,394
1660037169.82505,1356533.3397558,521
1660037169.82505,1356533.3397593,234
1660037169.82505,1356533.3397628,-368
1660037169.82505,1356533.3397663,-466
1660037169.82505,1356533.3397698,-46
1660037169.82505,1356533.3397732,92
1660037169.82505,1356533.3397767,-4
1660037169.82505,1356533.3397802,48
1660037169.82505,1356533.3397837,102
1660037169.82505,1356533.339787,67
1660037169.82505,1356533.3397904,81
1660037169.82505,1356533.339794,122
1660037169.82505,1356533.3397974,120
1660037169.82505,1356533.3398009,115
1660037169.82505,1356533.3398043,134
1660037169.82505,1356533.3398084,146
1660037169.82505,1356533.3398139,157
1660037169.82505,1356533.3398176,176
1660037169.82505,1356533.3398226,187
1660037169.82505,1356533.3398261,199
1660037169.82505,1356533.3398298,215
1660037169.82505,1356533.3398346,227
1660037169.82505,1356533.3398392,238
1660037169.82505,1356533.3398441,243
1660037169.82505,1356533.3398476,245
1660037169.82505,1356533.3398511,243
1660037169.82505,1356533.3398561,231
1660037169.82505,1356533.3398594,218
1660037169.82505,1356533.339863,213
1660037169.82505,1356533.3398678,206
1660037169.82505,1356533.3398713,197
1660037169.82505,1356533.3398748,187
1660037169.82505,1356533.3398797,166
1660037169.82505,1356533.3398832,153
1660037169.82505,1356533.3398867,141
1660037169.82505,1356533.3398917,129
1660037169.82505,1356533.3398952,125

1660037169.82505,1356533.3398987,129
1660037169.82505,1356533.3399037,139
1660037169.82505,1356533.3399086,141
1660037169.82505,1356533.3399121,148
1660037169.82505,1356533.339917,166
1660037169.82505,1356533.3399205,183
1660037169.82505,1356533.3399241,187
1660037169.82505,1356533.339929,183
1660037169.82505,1356533.3399324,178
1660037169.82505,1356533.3399362,183
1660037169.82505,1356533.3399411,183
1660037169.82505,1356533.3399445,180
1660037169.844,1356533.339948,185
1660037169.844,1356533.3399516,185
1660037169.844,1356533.3399552,162
1660037169.844,1356533.3399606,143
1660037169.844,1356533.3399641,148
1660037169.844,1356533.3399751,153
1660037169.844,1356533.3399786,143
1660037169.844,1356533.3399822,139
1660037169.844,1356533.339986,132
1660037169.844,1356533.3399911,115
1660037169.844,1356533.9247989,106
1660037169.844,1356533.9248166,97
1660037169.844,1356533.9248251,92
1660037169.844,1356533.9248296,92
1660037169.844,1356533.9248353,78
1660037169.844,1356533.9248404,55
1660037169.844,1356533.9248464,60
1660037169.844,1356533.9248502,64
1660037169.844,1356533.9248545,46
1660037169.844,1356533.9248605,39
1660037169.844,1356533.924867,41
1660037169.844,1356533.9248728,16
1660037169.844,1356533.9248775,0
1660037169.844,1356533.9248833,13
1660037170.41348,1356533.9248885,20
1660037170.41348,1356533.9248927,16
1660037170.41348,1356533.9248964,23
1660037170.41348,1356533.9249001,41
1660037170.41348,1356533.9249041,92
1660037170.41348,1356533.9249078,238
1660037170.41348,1356533.9249125,449
1660037170.41348,1356533.9249186,461
1660037170.41348,1356533.9249246,9
1660037170.41348,1356533.9249288,-449
1660037170.41348,1356533.924935,-259
1660037170.41348,1356533.9249392,88
1660037170.41348,1356533.9249432,74
1660037170.41348,1356533.9249474,41
1660037170.41348,1356533.9249537,120
1660037170.41348,1356533.9249598,120
1660037170.41348,1356533.9249641,104
1660037170.41348,1356533.9249699,136
1660037170.41348,1356533.9249742,146
1660037170.41348,1356533.9249802,146
1660037170.41348,1356533.9249843,160
1660037170.41348,1356533.92499,169
1660037170.41348,1356533.924995,171
1660037170.41348,1356533.9250007,178
1660037170.41348,1356533.9250053,199
1660037170.41348,1356533.9250111,204
1660037170.41348,1356533.9250154,199
1660037170.41348,1356533.9250212,218
1660037170.41348,1356533.9250267,236
1660037170.41348,1356533.9250331,234
1660037170.41348,1356533.9250372,238
1660037170.41348,1356533.925043,243
1660037170.41348,1356533.9250469,231
1660037170.41348,1356533.9250524,218
1660037170.41348,1356533.9250564,215
1660037170.41348,1356533.9250617,206
1660037170.41348,1356533.925066,192
1660037170.41348,1356533.9250718,183
1660037170.41348,1356533.9250772,173
1660037170.41348,1356533.925083,162
1660037170.41348,1356533.9250874,155
1660037170.41348,1356533.9250934,141
1660037170.41348,1356533.9250994,129
1660037170.41348,1356533.9251036,120
1660037170.41348,1356533.9251089,111
1660037170.41348,1356533.9251132,115
1660037170.41348,1356533.9251188,129
1660037170.41348,1356533.9251231,136
1660037170.41348,1356533.9251285,141
1660037170.41348,1356533.9251325,146
1660037170.42645,1356533.9251376,150
1660037170.42645,1356533.9251412,153
1660037170.42645,1356533.9251448,148
1660037170.42645,1356533.9251499,139
1660037170.42645,1356533.925154,134
1660037170.42645,1356533.9251597,129
1660037170.42645,1356533.9251638,122
1660037170.42645,1356533.9251699,106
1660037170.42645,1356533.9251758,97
1660037170.42645,1356534.509832,97
1660037170.42645,1356534.5098472,92
1660037170.42645,1356534.5098507,78
1660037170.42645,1356534.509853,67
1660037170.42645,1356534.5098551,62
1660037170.42645,1356534.5098572,55
1660037170.42645,1356534.5098593,44
1660037170.42645,1356534.5098614,23
1660037170.42645,1356534.5098635,-18
1660037170.42645,1356534.5098657,-39
1660037170.42645,1356534.5098678,-34
1660037170.42645,1356534.5098698,-27
1660037170.42645,1356534.5098719,-30
1660037170.42645,1356534.5098739,-34
1660037170.42645,1356534.5098761,-41
1660037170.94229,1356534.5098824,-53
1660037170.94229,1356534.5098925,-62
1660037170.94229,1356534.5098974,-64
1660037170.94229,1356534.5098997,-62
1660037170.94229,1356534.5099018,-62
1660037170.94229,1356534.5099037,-62
1660037170.94229,1356534.5099057,-67
1660037170.94229,1356534.5099076,-64
1660037170.94229,1356534.5099095,-57
1660037170.94229,1356534.5099114,-51
1660037170.94229,1356534.5099134,-37
1660037170.94229,1356534.5099209,27
1660037170.94229,1356534.5099301,180
1660037170.94229,1356534.5099353,371
1660037170.94229,1356534.5099375,345
1660037170.94229,1356534.5099397,-162
1660037170.94229,1356534.5099418,-605
1660037170.94229,1356534.5099439,-345
1660037170.94229,1356534.5099461,-2
1660037170.94229,1356534.5099481,-48
1660037170.94229,1356534.5099502,-64
1660037170.94229,1356534.5099523,27
1660037170.94229,1356534.5099543,23
1660037170.94229,1356534.5099564,4
1660037170.94229,1356534.5099585,34
1660037170.94229,1356534.5099606,41
1660037170.94229,1356534.5099626,39
1660037170.94229,1356534.5099647,60
1660037170.94229,1356534.5099667,71
1660037170.94229,1356534.5099689,76
1660037170.94229,1356534.5099709,90
1660037170.94229,1356534.5099731,102
1660037170.94229,1356534.5099751,111
1660037170.94229,1356534.5099772,120
1660037170.94229,1356534.5099794,132
1660037170.94229,1356534.5099815,136
1660037170.94229,1356534.5099836,122
1660037170.94229,1356534.5099857,109
1660037170.94229,1356534.5099878,111
1660037170.94229,1356534.5099899,113
1660037170.94229,1356534.5099919,104
1660037170.94229,1356534.509994,88
1660037170.94229,1356534.5099961,78
1660037170.94229,1356534.5099981,74
1660037170.94229,1356534.5100002,60
1660037170.94229,1356534.5100023,44
1660037170.94229,1356534.5100044,30
1660037170.94229,1356534.5100065,16
1660037170.94229,1356534.5100086,0
1660037170.94229,1356534.5100107,-13
1660037170.95326,1356534.5100128,-11
1660037170.95326,1356534.5100148,-2
1660037170.95326,1356534.5100169,6
1660037170.95326,1356534.5100189,11
1660037170.95326,1356534.510021,16
1660037170.95326,1356534.510023,23
1660037170.95326,1356534.5100251,32
1660037170.95326,1356534.5100272,39
1660037170.95326,1356535.0473794,41
1660037170.95326,1356535.0473983,39
1660037170.95326,1356535.0474092,37
1660037170.95326,1356535.0474168,37
1660037170.95326,1356535.0474233,39
1660037170.95326,1356535.0474299,39
1660037170.95326,1356535.0474369,32
1660037170.95326,1356535.0474416,30
1660037170.95326,1356535.0474461,30
1660037170.95326,1356535.0474527,34
1660037170.95326,1356535.0474561,27
1660037170.95326,1356535.0474601,-4
1660037170.95326,1356535.0474646,-25
1660037170.95326,1356535.0474681,-20
1660037170.95326,1356535.0474716,-18
1660037170.95326,1356535.047475,-25
1660037171.62483,1356535.0474793,-25
1660037171.62483,1356535.0474825,-27
1660037171.62483,1356535.0474878,-41
1660037171.62483,1356535.0474922,-51
1660037171.62483,1356535.0474953,-48
1660037171.62483,1356535.0474987,-48
1660037171.62483,1356535.0475022,-51
1660037171.62483,1356535.0475057,-51
1660037171.62483,1356535.0475091,-48
1660037171.62483,1356535.0475123,-44
1660037171.62483,1356535.0475161,-30
1660037171.62483,1356535.0475195,-20
1660037171.62483,1356535.0475229,-2
1660037171.62483,1356535.0475264,99
1660037171.62483,1356535.0475299,289
1660037171.62483,1356535.0475333,433
1660037171.62483,1356535.0475369,187
1660037171.62483,1356535.0475405,-410
1660037171.62483,1356535.0475443,-540
1660037171.62483,1356535.0475478,-95
1660037171.62483,1356535.0475513,88
1660037171.62483,1356535.0475548,-6
1660037171.62483,1356535.0475583,44
1660037171.62483,1356535.0475616,106
1660037171.62483,1356535.0475653,78
1660037171.62483,1356535.0475687,92
1660037171.62483,1356535.047572,132
1660037171.62483,1356535.0475754,120
1660037171.62483,1356535.0475791,104
1660037171.62483,1356535.0475826,125
1660037171.62483,1356535.047586,146
1660037171.62483,1356535.0475895,150
1660037171.62483,1356535.0475932,162
1660037171.62483,1356535.0475969,180
1660037171.62483,1356535.0476007,192
1660037171.62483,1356535.0476041,204
1660037171.62483,1356535.0476075,222
1660037171.62483,1356535.0476148,229
1660037171.62483,1356535.0476185,227
1660037171.62483,1356535.0476218,224
1660037171.62483,1356535.0476256,215
1660037171.62483,1356535.0476291,208
1660037171.62483,1356535.047633,211
1660037171.62483,1356535.0476368,206
1660037171.62483,1356535.0476406,194
1660037171.62483,1356535.047644,183
1660037171.62483,1356535.047648,166
1660037171.62483,1356535.0476515,155
1660037171.62483,1356535.0476551,148
1660037171.62483,1356535.0476587,141
1660037171.6358,1356535.0476621,134
1660037171.6358,1356535.0476656,132
1660037171.6358,1356535.0476692,129
1660037171.6358,1356535.0476727,132
1660037171.6358,1356535.0476762,150
1660037171.6358,1356535.0476799,162
1660037171.6358,1356535.0476847,171
1660037171.6358,1356535.7295142,185
1660037171.6358,1356535.7295339,190
1660037171.6358,1356535.7295415,192
1660037171.6358,1356535.7295452,194
1660037171.6358,1356535.7295486,194
1660037171.6358,1356535.7295551,192
1660037171.6358,1356535.7295616,197
1660037171.6358,1356535.729584,187
1660037171.6358,1356535.729594,162
1660037171.6358,1356535.7295999,155
1660037171.6358,1356535.7296064,166
1660037171.6358,1356535.7296123,169
1660037171.6358,1356535.7296194,160
1660037171.6358,1356535.7296245,139
1660037171.6358,1356535.7296279,109
1660037171.6358,1356535.7296331,85
1660037171.6358,1356535.7296363,90
1660037172.06649,1356535.7296417,97
1660037172.06649,1356535.7296456,95
1660037172.06649,1356535.7296488,97
1660037172.06649,1356535.7296521,92
1660037172.06649,1356535.7296551,69
1660037172.06649,1356535.7296583,67
1660037172.06649,1356535.7296614,78
1660037172.06649,1356535.7296645,76
1660037172.06649,1356535.7296676,74
1660037172.06649,1356535.7296707,76
1660037172.06649,1356535.7296756,74
1660037172.06649,1356535.7296795,76
1660037172.06649,1356535.7296824,85
1660037172.06649,1356535.7296858,104
1660037172.06649,1356535.7296892,190
1660037172.06649,1356535.7296948,366
1660037172.06649,1356535.7297008,514
1660037172.06649,1356535.729707,315
1660037172.06649,1356535.7297188,-231
1660037172.06649,1356535.7297236,-398
1660037172.06649,1356535.7297303,-34
1660037172.06649,1356535.729735,132
1660037172.06649,1356535.7297438,48
1660037172.06649,1356535.7297506,85
1660037172.06649,1356535.7297538,134
1660037172.06649,1356535.7297573,106
1660037172.06649,1356535.7297607,115
1660037172.06649,1356535.7297642,139
1660037172.06649,1356535.7297678,129
1660037172.06649,1356535.7297731,134
1660037172.06649,1356535.7297765,155
1660037172.06649,1356535.7297799,160
1660037172.06649,1356535.7297833,162
1660037172.06649,1356535.7297867,183
1660037172.06649,1356535.7297918,199
1660037172.06649,1356535.7297948,204
1660037172.06649,1356535.7297976,211
1660037172.06649,1356535.7298007,224
1660037172.06649,1356535.7298036,234
1660037172.06649,1356535.7298094,236
1660037172.06649,1356535.7298145,234
1660037172.06649,1356535.7298177,231
1660037172.06649,1356535.7298207,227
1660037172.06649,1356535.7298238,220
1660037172.06649,1356535.7298269,211
1660037172.06649,1356535.72983,199
1660037172.06649,1356535.7298329,194
1660037172.06649,1356535.729836,192
1660037172.06649,1356535.7298391,178
1660037172.06649,1356535.7298422,160
1660037172.07746,1356535.7298453,148
1660037172.07746,1356535.7298485,148
1660037172.07746,1356535.7298517,155
1660037172.07746,1356535.7298586,155
1660037172.07746,1356535.7298645,155
1660037172.07746,1356535.7298678,162
1660037172.07746,1356536.1682264,171
1660037172.07746,1356536.1682448,176
1660037172.07746,1356536.168253,183
1660037172.07746,1356536.1682594,187
1660037172.07746,1356536.1682652,180
1660037172.07746,1356536.1682701,169
1660037172.07746,1356536.1682758,166
1660037172.07746,1356536.1682822,166
1660037172.07746,1356536.1682894,162
1660037172.07746,1356536.1683025,162
1660037172.07746,1356536.1683124,153
1660037172.07746,1356536.1683211,118
1660037172.07746,1356536.1683287,95
1660037172.07746,1356536.168342,106
1660037172.07746,1356536.168355,109
1660037172.07746,1356536.1683679,99
1660037172.07746,1356536.1683785,102
1660037172.07746,1356536.1683892,95
1660037172.64752,1356536.1683945,83
1660037172.64752,1356536.1684051,92
1660037172.64752,1356536.1684136,92
1660037172.64752,1356536.1684208,74
1660037172.64752,1356536.1684271,67
1660037172.64752,1356536.1684336,55
1660037172.64752,1356536.1684363,27
1660037172.64752,1356536.1684386,20
1660037172.64752,1356536.1684449,34
1660037172.64752,1356536.1684516,37
1660037172.65849,1356536.168456,32
1660037172.65849,1356536.1684596,27
1660037172.65849,1356536.1684655,30
1660037172.65849,1356536.1684699,104
1660037172.65849,1356536.1684761,271
1660037172.65849,1356536.1684894,415
1660037172.65849,1356536.1685026,220
1660037172.65849,1356536.1685124,-310
1660037172.65849,1356536.1685189,-473
1660037172.65849,1356536.1685257,-106
1660037172.65849,1356536.1685288,69
1660037172.65849,1356536.1685329,-11
1660037172.65849,1356536.1685401,25
1660037172.65849,1356536.1685467,81
1660037172.65849,1356536.1685562,48
1660037172.65849,1356536.1685633,39
1660037172.65849,1356536.1685703,71
1660037172.65849,1356536.1685764,83
1660037172.65849,1356536.1685852,76
1660037172.65849,1356536.1685927,83
1660037172.65849,1356536.1686013,92
1660037172.65849,1356536.1686074,99
1660037172.65849,1356536.1686116,106
1660037172.65849,1356536.1686149,118
1660037172.65849,1356536.1686208,127
1660037172.65849,1356536.1686239,129
1660037172.65849,1356536.1686268,134
1660037172.65849,1356536.1686297,143
1660037172.65849,1356536.1686325,146
1660037172.65849,1356536.1686353,141
1660037172.65849,1356536.1686382,132
1660037172.65849,1356536.1686411,125
1660037172.65849,1356536.1686441,115
1660037172.65849,1356536.1686489,92
1660037172.65849,1356536.1686521,83
1660037172.65849,1356536.168655,85
1660037172.65849,1356536.1686579,69
1660037172.65849,1356536.1686609,44
1660037172.65849,1356536.1686637,30
1660037172.65849,1356536.1686665,18
1660037172.65849,1356536.1686694,-6
1660037172.65849,1356536.1686722,-16
1660037172.65849,1356536.1686752,-2
1660037172.65849,1356536.168678,4
1660037172.65849,1356536.1686809,2
1660037172.65849,1356536.752961,11
1660037172.65849,1356536.7529813,20
1660037172.65849,1356536.7529962,27
1660037172.65849,1356536.7530099,32
1660037172.65849,1356536.75302,27
1660037172.66946,1356536.7530295,18
1660037172.66946,1356536.7530379,13
1660037172.66946,1356536.7530474,4
1660037172.66946,1356536.7530583,-18
1660037172.66946,1356536.753066,-25
1660037172.66946,1356536.7530773,-16
1660037172.66946,1356536.7530877,-20
1660037172.66946,1356536.7530974,-30
1660037172.66946,1356536.7531082,-30
1660037172.66946,1356536.7531182,-51
1660037172.66946,1356536.7531253,-74
1660037172.66946,1356536.753135,-69
1660037172.66946,1356536.7531407,-62
1660037172.66946,1356536.7531477,-60
1660037173.3369,1356536.7531536,-57
1660037173.3369,1356536.7531584,-69
1660037173.3369,1356536.7531629,-85
1660037173.3369,1356536.7531682,-95
1660037173.3369,1356536.7531731,-97
1660037173.3369,1356536.7531776,-95
1660037173.3369,1356536.7531822,-88
1660037173.3369,1356536.7531865,-90
1660037173.3369,1356536.7531912,-97
1660037173.3369,1356536.7531963,-92
1660037173.3369,1356536.7532013,-53
1660037173.3369,1356536.7532064,60
1660037173.3369,1356536.7532111,236
1660037173.3369,1356536.7532163,331
1660037173.3369,1356536.7532221,0
1660037173.3369,1356536.7532331,-568
1660037173.3369,1356536.7532402,-535
1660037173.3369,1356536.7532445,-85
1660037173.3369,1356536.7532536,11
1660037173.3369,1356536.7532658,-64
1660037173.3369,1356536.7532717,-4
1660037173.3369,1356536.7532772,23
1660037173.3369,1356536.7532899,-6
1660037173.3369,1356536.7532982,16
1660037173.3369,1356536.7533008,51
1660037173.3369,1356536.7533031,44
1660037173.3369,1356536.7533062,46
1660037173.3369,1356536.7533153,64
1660037173.3369,1356536.7533288,76
1660037173.3369,1356536.7533396,78
1660037173.3369,1356536.7533499,95
1660037173.3369,1356536.7533578,118
1660037173.3369,1356536.7533633,125
1660037173.3369,1356536.7533698,122
1660037173.3369,1356536.753379,134
1660037173.3369,1356536.7533843,148
1660037173.3369,1356536.7533897,148
1660037173.3369,1356536.7533982,146
1660037173.3369,1356536.7534027,146
1660037173.3369,1356536.753408,129
1660037173.3369,1356536.7534152,109
1660037173.3369,1356536.75342,102
1660037173.3369,1356536.7534263,99
1660037173.3369,1356536.753433,92
1660037173.3369,1356536.753437,76
1660037173.3369,1356536.7534403,55
1660037173.3369,1356536.7534527,41
1660037173.3369,1356536.7534626,34
1660037173.3369,1356536.7534716,30
1660037173.3369,1356536.753482,34
1660037173.34887,1356536.7534921,41
1660037173.34887,1356536.7534973,48
1660037173.34887,1356536.7535106,53
1660037173.34887,1356536.7535206,62
1660037173.34887,1356537.4349991,69
1660037173.34887,1356537.4350168,83
1660037173.34887,1356537.4350276,97
1660037173.34887,1356537.4350338,97
1660037173.34887,1356537.435041,76
1660037173.34887,1356537.4350477,55
1660037173.34887,1356537.4350568,62
1660037173.34887,1356537.4350661,76
1660037173.34887,1356537.435078,67
1660037173.34887,1356537.4350885,60
1660037173.34887,1356537.4350973,57
1660037173.34887,1356537.4351047,39
1660037173.34887,1356537.4351132,30
1660037173.34887,1356537.4351211,44
1660037173.34887,1356537.4351307,60
1660037173.34887,1356537.4351383,60
1660037173.34887,1356537.4351453,39
1660037173.34887,1356537.4351535,20
1660037173.34887,1356537.4351628,16
1660037173.34887,1356537.4351704,11
1660037173.77829,1356537.4351745,18
1660037173.77829,1356537.4351794,37
1660037173.77829,1356537.435185,37
1660037173.77829,1356537.4351907,23
1660037173.77829,1356537.4351953,23
1660037173.77829,1356537.4351993,34
1660037173.77829,1356537.4352041,64
1660037173.77829,1356537.4352088,166
1660037173.77829,1356537.4352145,343
1660037173.77829,1356537.4352191,419
1660037173.77829,1356537.4352258,62
1660037173.77829,1356537.4352299,-438
1660037173.77829,1356537.4352344,-315
1660037173.77829,1356537.4352401,88
1660037173.77829,1356537.435244,106
1660037173.77829,1356537.4352476,44
1660037173.77829,1356537.435251,125
1660037173.77829,1356537.4352557,136
1660037173.77829,1356537.4352606,104
1660037173.77829,1356537.4352672,132
1660037173.77829,1356537.4352709,153
1660037173.77829,1356537.4352741,148
1660037173.77829,1356537.4352774,155
1660037173.77829,1356537.435281,166
1660037173.77829,1356537.4352843,178
1660037173.77829,1356537.4352873,192
1660037173.77829,1356537.4352907,199
1660037173.77829,1356537.4352961,211
1660037173.77829,1356537.4352995,231
1660037173.77829,1356537.4353052,241
1660037173.77829,1356537.435312,234
1660037173.77829,1356537.4353151,231
1660037173.77829,1356537.4353181,243
1660037173.77829,1356537.4353212,241
1660037173.77829,1356537.4353242,227
1660037173.77829,1356537.4353271,218
1660037173.77829,1356537.435331,211
1660037173.77829,1356537.4353362,208
1660037173.77829,1356537.4353425,201
1660037173.77829,1356537.4353505,192
1660037173.77829,1356537.4353594,183
1660037173.77829,1356537.4353666,169
1660037173.77829,1356537.4353706,162
1660037173.77829,1356537.4353736,157
1660037173.77829,1356537.4353765,146
1660037173.77829,1356537.4353794,148
1660037173.77829,1356537.4353824,162
1660037173.77829,1356537.4353859,166
1660037173.77829,1356537.4354304,166
1660037173.77829,1356537.4354518,173
1660037173.78826,1356537.4354612,187
1660037173.78826,1356537.4354689,190
1660037173.78826,1356537.4354773,194
1660037173.78826,1356537.8744792,199
1660037173.78826,1356537.8745162,194
1660037173.78826,1356537.8745231,185
1660037173.78826,1356537.8745292,183
1660037173.78826,1356537.8745349,183
1660037173.78826,1356537.8745389,180
1660037173.78826,1356537.8745421,178
1660037173.78826,1356537.8745453,173
1660037173.78826,1356537.8745483,164
1660037173.78826,1356537.8745527,146
1660037173.78826,1356537.874558,143
1660037173.78826,1356537.8745632,160
1660037173.78826,1356537.8745666,164
1660037173.78826,1356537.8745708,139
1660037173.78826,1356537.8745739,122
1660037173.78826,1356537.8745769,115
1660037173.78826,1356537.8745799,109
1660037173.78826,1356537.8745829,109
1660037173.78826,1356537.8745859,115
1660037173.78826,1356537.8745887,109
1660037173.78826,1356537.8745916,81
1660037174.30908,1356537.8745949,53
1660037174.30908,1356537.8746015,57
1660037174.30908,1356537.8746082,125
1660037174.30908,1356537.8746151,259
1660037174.30908,1356537.8746206,412
1660037174.30908,1356537.8746249,327
1660037174.30908,1356537.8746284,-162
1660037174.30908,1356537.8746328,-436
1660037174.30908,1356537.8746365,-102
1660037174.30908,1356537.8746402,150
1660037174.30908,1356537.8746448,71
1660037174.30908,1356537.8746495,69
1660037174.30908,1356537.8746536,120
1660037174.30908,1356537.8746582,99
1660037174.30908,1356537.8746651,95
1660037174.30908,1356537.874669,122
1660037174.30908,1356537.874675,127
1660037174.30908,1356537.8746795,122
1660037174.30908,1356537.8746857,132
1660037174.30908,1356537.8746906,136
1660037174.30908,1356537.8746959,141
1660037174.30908,1356537.8747022,150
1660037174.30908,1356537.8747078,166
1660037174.30908,1356537.8747142,178
1660037174.30908,1356537.8747181,180
1660037174.30908,1356537.8747224,187
1660037174.30908,1356537.8747269,199
1660037174.30908,1356537.8747327,204
1660037174.30908,1356537.874737,204
1660037174.30908,1356537.8747431,197
1660037174.30908,1356537.8747475,185
1660037174.30908,1356537.8747533,178
1660037174.30908,1356537.8747584,178
1660037174.30908,1356537.8747644,169
1660037174.30908,1356537.8747702,162
1660037174.30908,1356537.8747762,160
1660037174.30908,1356537.8747806,148
1660037174.30908,1356537.8747858,132
1660037174.30908,1356537.8747903,120
1660037174.30908,1356537.8747956,115
1660037174.30908,1356537.8748002,118
1660037174.30908,1356537.8748052,120
1660037174.30908,1356537.8748125,125
1660037174.30908,1356537.8748208,136
1660037174.30908,1356537.8748259,146
1660037174.30908,1356537.8748337,155
1660037174.30908,1356537.8748372,162
1660037174.30908,1356537.8748422,166
1660037174.30908,1356537.8748472,169
1660037174.30908,1356537.8748504,164
1660037174.32005,1356537.8748537,153
1660037174.32005,1356537.8748572,146
1660037174.32005,1356538.4098825,134
1660037174.32005,1356538.4099028,115
1660037174.32005,1356538.4099179,92
1660037174.32005,1356538.4099313,85
1660037174.32005,1356538.409941,83
1660037174.32005,1356538.4099483,76
1660037174.32005,1356538.409956,71
1660037174.32005,1356538.4099642,69
1660037174.32005,1356538.4099766,64
1660037174.32005,1356538.4099858,60
1660037174.32005,1356538.4099922,53
1660037174.32005,1356538.4100045,27
1660037174.32005,1356538.4100131,2
1660037174.32005,1356538.4100206,-4
1660037174.32005,1356538.4100329,-6
1660037174.32005,1356538.4100418,-11
1660037174.32005,1356538.4100479,-16
1660037174.32005,1356538.4100601,-37
1660037174.32005,1356538.4100688,-55
1660037174.32005,1356538.4100762,-48
1660037174.32005,1356538.4100887,-51
1660037174.32005,1356538.4100975,-41
1660037174.89096,1356538.4101023,48
1660037174.89096,1356538.4101089,206
1660037174.89096,1356538.4101141,324
1660037174.89096,1356538.4101246,111
1660037174.89096,1356538.4101326,-417
1660037174.89096,1356538.4101373,-533
1660037174.89096,1356538.4101412,-134
1660037174.89096,1356538.410145,32
1660037174.89096,1356538.4101487,-57
1660037174.89096,1356538.4101525,-27
1660037174.89096,1356538.4101563,13
1660037174.89096,1356538.4101601,-23
1660037174.89096,1356538.4101637,-18
1660037174.89096,1356538.4101685,18
1660037174.89096,1356538.4101727,18
1660037174.89096,1356538.4101794,11
1660037174.89096,1356538.4101849,30
1660037174.89096,1356538.4101892,44
1660037174.89096,1356538.4101953,53
1660037174.89096,1356538.4101993,71
1660037174.89096,1356538.4102039,81
1660037174.89096,1356538.4102081,78
1660037174.89096,1356538.4102123,90
1660037174.89096,1356538.4102164,106
1660037174.89096,1356538.4102221,113
1660037174.89096,1356538.410226,115
1660037174.89096,1356538.4102298,113
1660037174.89096,1356538.4102357,102
1660037174.89096,1356538.4102419,83
1660037174.89096,1356538.4102461,78
1660037174.89096,1356538.4102617,85
1660037174.89096,1356538.4102737,78
1660037174.89096,1356538.4102779,67
1660037174.89096,1356538.4102827,55
1660037174.89096,1356538.4102862,32
1660037174.89096,1356538.4102893,18
1660037174.89096,1356538.4102925,23
1660037174.89096,1356538.4102956,20
1660037174.89096,1356538.4103014,9
1660037174.89096,1356538.4103073,11
1660037174.89096,1356538.4103131,18
1660037174.89096,1356538.4103214,18
1660037174.89096,1356538.4103271,18
1660037174.89096,1356538.4103319,27
1660037174.89096,1356538.4103365,37
1660037174.89096,1356538.4103401,34
1660037174.89096,1356538.4103473,23
1660037174.89096,1356538.4103531,16
1660037174.89096,1356538.4103597,13
1660037174.89096,1356538.4103682,16
1660037174.90193,1356538.4103742,23
1660037174.90193,1356538.9956102,18
1660037174.90193,1356538.995628,9
1660037174.90193,1356538.9956357,11
1660037174.90193,1356538.9956395,16
1660037174.90193,1356538.9956431,18
1660037174.90193,1356538.9956496,11
1660037174.90193,1356538.9956565,4
1660037174.90193,1356538.9956633,-9
1660037174.90193,1356538.9956681,-37
1660037174.90193,1356538.9956728,-39
1660037174.90193,1356538.9956793,-13
1660037174.90193,1356538.9956845,-13
1660037174.90193,1356538.9956907,-34
1660037174.90193,1356538.9956973,-48
1660037174.90193,1356538.9957031,-64
1660037174.90193,1356538.9957075,-74
1660037174.90193,1356538.9957122,-57
1660037174.90193,1356538.9957168,-48
1660037174.90193,1356538.9957261,-51
1660037174.90193,1356538.9957307,-51
1660037174.90193,1356538.9957369,-46
1660037174.90193,1356538.9957423,-2
1660037174.90193,1356538.9957485,120
1660037175.43131,1356538.9957528,301
1660037175.43131,1356538.9957575,366
1660037175.43131,1356538.9957617,-25
1660037175.43131,1356538.9957661,-596
1660037175.43131,1356538.9957706,-498
1660037175.43131,1356538.9957792,-39
1660037175.43131,1356538.9957853,13
1660037175.43131,1356538.9957898,-60
1660037175.43131,1356538.9957947,27
1660037175.43131,1356538.9957982,51
1660037175.43131,1356538.9958018,6
1660037175.43131,1356538.9958056,34
1660037175.43131,1356538.9958107,71
1660037175.43131,1356538.9958157,67
1660037175.43131,1356538.9958197,74
1660037175.43131,1356538.9958245,95
1660037175.43131,1356538.9958289,99
1660037175.43131,1356538.9958363,104
1660037175.43131,1356538.9958426,125
1660037175.43131,1356538.9958536,136
1660037175.43131,1356538.9958613,141
1660037175.43131,1356538.9958637,157
1660037175.43131,1356538.9958659,176
1660037175.43131,1356538.995868,173
1660037175.43131,1356538.99587,169
1660037175.43131,1356538.9958735,169
1660037175.43131,1356538.9958865,162
1660037175.43131,1356538.995892,155
1660037175.43131,1356538.9958943,153
1660037175.43131,1356538.9958964,146
1660037175.43131,1356538.9958985,129
1660037175.43131,1356538.9959006,120
1660037175.43131,1356538.9959079,106
1660037175.43131,1356538.9959188,88
1660037175.43131,1356538.9959235,78
1660037175.43131,1356538.9959275,81
1660037175.43131,1356538.9959305,74
1660037175.43131,1356538.9959434,57
1660037175.43131,1356538.9959496,46
1660037175.43131,1356538.9959519,57
1660037175.43131,1356538.995954,81
1660037175.43131,1356538.9959561,90
1660037175.43131,1356538.9959582,95
1660037175.43131,1356538.9959603,111
1660037175.43131,1356538.9959624,122
1660037175.43131,1356538.9959645,125
1660037175.43131,1356538.9959665,127
1660037175.43131,1356538.9959686,129
1660037175.43131,1356538.9959706,129
1660037175.43131,1356538.9959726,129
1660037175.44827,1356539.5317617,132
1660037175.44827,1356539.5317838,134
1660037175.44827,1356539.5318158,134
1660037175.44827,1356539.5318281,134
1660037175.44827,1356539.5318407,134
1660037175.44827,1356539.5318459,129
1660037175.44827,1356539.5318481,127
1660037175.44827,1356539.5318501,132
1660037175.44827,1356539.5318522,141
1660037175.44827,1356539.5318542,143
1660037175.44827,1356539.5318562,115
1660037175.44827,1356539.5318583,81
1660037175.44827,1356539.5318603,78
1660037175.44827,1356539.5318624,81
1660037175.44827,1356539.5318644,69
1660037175.44827,1356539.5318665,67
1660037175.44827,1356539.5318685,67
1660037175.44827,1356539.5318705,44
1660037175.44827,1356539.5318741,25
1660037175.44827,1356539.5318845,55
1660037175.44827,1356539.5318922,146
1660037175.44827,1356539.5318958,303
1660037175.44827,1356539.5319001,456
1660037175.44827,1356539.5319082,271
1660037175.97262,1356539.5319129,-285
1660037175.97262,1356539.5319197,-438
1660037175.97262,1356539.5319271,-27
1660037175.97262,1356539.531932,148
1660037175.97262,1356539.5319349,48
1660037175.97262,1356539.5319406,83
1660037175.97262,1356539.5319487,141
1660037175.97262,1356539.5319546,106
1660037175.97262,1356539.5319596,113
1660037175.97262,1356539.531965,148
1660037175.97262,1356539.5319686,148
1660037175.97262,1356539.5319718,148
1660037175.97262,1356539.5319749,164
1660037175.97262,1356539.531978,173
1660037175.97262,1356539.531981,185
1660037175.97262,1356539.5319839,197
1660037175.97262,1356539.5319868,206
1660037175.97262,1356539.5319896,224
1660037175.97262,1356539.5319943,236
1660037175.97262,1356539.5319992,236
1660037175.97262,1356539.5320052,238
1660037175.97262,1356539.532014,248
1660037175.97262,1356539.5320229,245
1660037175.97262,1356539.5320316,222
1660037175.97262,1356539.5320372,204
1660037175.97262,1356539.532051,204
1660037175.97262,1356539.5320589,206
1660037175.97262,1356539.532072,199
1660037175.97262,1356539.5320847,190
1660037175.97262,1356539.532094,166
1660037175.97262,1356539.5321015,136
1660037175.97262,1356539.5321098,125
1660037175.97262,1356539.5321198,120
1660037175.97262,1356539.5321304,120
1660037175.97262,1356539.5321387,125
1660037175.97262,1356539.5321495,129
1660037175.97262,1356539.5321598,136
1660037175.97262,1356539.5321685,146
1660037175.97262,1356539.5321789,148
1660037175.97262,1356539.5321891,157
1660037175.97262,1356539.5321973,173
1660037175.97262,1356539.5322071,180
1660037175.97262,1356539.5322177,180
1660037175.97262,1356539.5322251,180
1660037175.97262,1356539.5322366,171
1660037175.97262,1356539.5322465,164
1660037175.97262,1356539.5322553,171
1660037175.97262,1356539.5322653,169
1660037175.97262,1356539.5322756,160
1660037175.97262,1356540.0681975,155
1660037175.98459,1356540.0682157,150
1660037175.98459,1356540.0682238,148
1660037175.98459,1356540.068228,146
1660037175.98459,1356540.0682355,141
1660037175.98459,1356540.0682394,127
1660037175.98459,1356540.0682465,111
1660037175.98459,1356540.0682503,109
1660037175.98459,1356540.0682554,88
1660037175.98459,1356540.0682591,62
1660037175.98459,1356540.0682631,64
1660037175.98459,1356540.0682687,69
1660037175.98459,1356540.0682722,60
1660037175.98459,1356540.0682758,48
1660037175.98459,1356540.0682828,32
1660037175.98459,1356540.0682883,23
1660037175.98459,1356540.0682921,30
1660037175.98459,1356540.0682956,32
1660037175.98459,1356540.0682992,55
1660037175.98459,1356540.0683026,143
1660037175.98459,1356540.0683062,306
1660037175.98459,1356540.0683097,429
1660037175.98459,1356540.0683152,194
1660037175.98459,1356540.0683191,-336
1660037175.98459,1356540.0683229,-408
1660037176.5514,1356540.0683263,-11
1660037176.5514,1356540.0683296,113
1660037176.5514,1356540.068333,27
1660037176.5514,1356540.0683363,78
1660037176.5514,1356540.0683393,120
1660037176.5514,1356540.0683426,90
1660037176.5514,1356540.0683464,111
1660037176.5514,1356540.06835,136
1660037176.5514,1356540.0683536,125
1660037176.5514,1356540.0683571,129
1660037176.5514,1356540.0683607,148
1660037176.5514,1356540.0683638,150
1660037176.5514,1356540.068367,153
1660037176.5514,1356540.0683705,162
1660037176.5514,1356540.0683739,169
1660037176.5514,1356540.0683773,178
1660037176.5514,1356540.0683806,190
1660037176.5514,1356540.0683842,199
1660037176.5514,1356540.0683877,206
1660037176.5514,1356540.0683913,208
1660037176.5514,1356540.068395,199
1660037176.5514,1356540.0683983,180
1660037176.5514,1356540.0684017,160
1660037176.5514,1356540.068405,155
1660037176.5514,1356540.0684086,157
1660037176.5514,1356540.0684123,148
1660037176.5514,1356540.0684161,139
1660037176.5514,1356540.0684196,129
1660037176.5514,1356540.0684233,113
1660037176.5514,1356540.0684269,102
1660037176.5514,1356540.0684305,97
1660037176.5514,1356540.0684341,95
1660037176.5514,1356540.0684378,90
1660037176.5514,1356540.0684442,92
1660037176.5514,1356540.0684477,99
1660037176.5514,1356540.0684559,109
1660037176.5514,1356540.0684594,120
1660037176.5514,1356540.0684629,120
1660037176.5514,1356540.0684664,125
1660037176.5514,1356540.0684698,136
1660037176.5514,1356540.068473,134
1660037176.5514,1356540.0684764,118
1660037176.5514,1356540.0684798,115
1660037176.5514,1356540.0684834,111
1660037176.5514,1356540.068488,88
1660037176.5514,1356540.0684915,76
1660037176.5514,1356540.0684969,76
1660037176.5514,1356540.0685012,67
1660037176.5514,1356540.6527969,60
1660037176.5514,1356540.6528175,60
1660037176.56237,1356540.6528282,60
1660037176.56237,1356540.6528335,46
1660037176.56237,1356540.6528397,13
1660037176.56237,1356540.6528444,-16
1660037176.56237,1356540.6528504,-13
1660037176.56237,1356540.6528569,0
1660037176.56237,1356540.6528632,-4
1660037176.56237,1356540.6528686,-20
1660037176.56237,1356540.6528758,-44
1660037176.56237,1356540.6528811,-60
1660037176.56237,1356540.6528878,-60
1660037176.56237,1356540.6528929,-60
1660037176.56237,1356540.652899,-60
1660037176.56237,1356540.6529038,-51
1660037176.56237,1356540.6529087,-51
1660037176.56237,1356540.6529151,-60
1660037176.56237,1356540.6529197,-51
1660037176.56237,1356540.652925,2
1660037176.56237,1356540.6529283,132
1660037176.56237,1356540.6529315,315
1660037176.56237,1356540.6529347,364
1660037176.56237,1356540.6529379,-34
1660037176.56237,1356540.6529409,-545
1660037176.56237,1356540.652944,-417
1660037177.18782,1356540.6529471,-16
1660037177.18782,1356540.6529503,6
1660037177.18782,1356540.6529532,-53
1660037177.18782,1356540.6529561,16
1660037177.18782,1356540.6529591,25
1660037177.18782,1356540.6529621,2
1660037177.18782,1356540.6529652,30
1660037177.18782,1356540.6529682,46
1660037177.18782,1356540.6529711,37
1660037177.18782,1356540.652974,44
1660037177.18782,1356540.6529771,62
1660037177.18782,1356540.65298,71
1660037177.18782,1356540.6529829,67
1660037177.18782,1356540.6529857,62
1660037177.18782,1356540.6529883,76
1660037177.18782,1356540.6530099,97
1660037177.18782,1356540.6530184,104
1660037177.18782,1356540.6530209,99
1660037177.18782,1356540.653023,104
1660037177.18782,1356540.6530251,118
1660037177.18782,1356540.6530278,111
1660037177.18782,1356540.6530375,95
1660037177.18782,1356540.6530456,92
1660037177.18782,1356540.6530482,83
1660037177.18782,1356540.6530503,71
1660037177.18782,1356540.6530524,76
1660037177.18782,1356540.6530596,64
1660037177.18782,1356540.6530705,44
1660037177.18782,1356540.653075,27
1660037177.18782,1356540.6530771,16
1660037177.18782,1356540.6530793,6
1660037177.18782,1356540.6530824,2
1660037177.18782,1356540.6530946,4
1660037177.18782,1356540.6531007,6
1660037177.18782,1356540.653103,2
1660037177.18782,1356540.6531051,6
1660037177.18782,1356540.6531071,23
1660037177.18782,1356540.653113,34
1660037177.18782,1356540.6531239,37
1660037177.18782,1356540.6531289,41
1660037177.18782,1356540.6531311,39
1660037177.18782,1356540.6531346,32
1660037177.18782,1356540.6531467,32
1660037177.18782,1356540.6531575,39
1660037177.18782,1356540.6531686,34
1660037177.18782,1356540.6531789,23
1660037177.18782,1356540.6531824,27
1660037177.18782,1356541.2868771,34
1660037177.18782,1356541.2868956,34
1660037177.18782,1356541.2869013,23
1660037177.19979,1356541.2869062,9
1660037177.19979,1356541.286911,18
1660037177.19979,1356541.2869151,34
1660037177.19979,1356541.2869189,25
1660037177.19979,1356541.2869234,-2
1660037177.19979,1356541.286928,-16
1660037177.19979,1356541.2869323,-18
1660037177.19979,1356541.2869365,-20
1660037177.19979,1356541.2869409,-16
1660037177.19979,1356541.2869454,-13
1660037177.19979,1356541.28695,-25
1660037177.19979,1356541.2869564,-44
1660037177.19979,1356541.2869607,-48
1660037177.19979,1356541.2869659,-39
1660037177.19979,1356541.2869694,-34
1660037177.19979,1356541.2869731,-25
1660037177.19979,1356541.2869766,34
1660037177.19979,1356541.2869799,171
1660037177.19979,1356541.2869834,347
1660037177.19979,1356541.286987,357
1660037177.19979,1356541.2869933,-113
1660037177.19979,1356541.2869967,-603
1660037177.19979,1356541.2870002,-371
1660037177.19979,1356541.2870037,32
1660037177.67794,1356541.2870071,11
1660037177.67794,1356541.2870105,-23

1660037177.67794,1356541.2870141,69
1660037177.67794,1356541.2870578,71
1660037177.67794,1356541.2870657,37
1660037177.67794,1356541.2870707,55
1660037177.67794,1356541.2870737,67
1660037177.67794,1356541.2870768,67
1660037177.67794,1356541.2870799,81
1660037177.67794,1356541.2870832,97
1660037177.67794,1356541.2870867,109
1660037177.67794,1356541.28709,125
1660037177.67794,1356541.2870931,136
1660037177.67794,1356541.2870966,136
1660037177.67794,1356541.2871,148
1660037177.67794,1356541.2871033,176
1660037177.67794,1356541.2871068,187
1660037177.67794,1356541.2871104,185
1660037177.67794,1356541.2871139,180
1660037177.67794,1356541.2871171,176
1660037177.67794,1356541.2871206,176
1660037177.67794,1356541.2871243,166
1660037177.67794,1356541.2871278,155
1660037177.67794,1356541.2871313,153
1660037177.67794,1356541.2871347,141
1660037177.67794,1356541.2871382,122
1660037177.67794,1356541.2871416,106
1660037177.67794,1356541.2871451,99
1660037177.67794,1356541.2871483,95
1660037177.67794,1356541.2871517,83
1660037177.67794,1356541.2871552,74
1660037177.67794,1356541.2871587,71
1660037177.67794,1356541.2871622,81
1660037177.67794,1356541.2871658,97
1660037177.67794,1356541.2871695,102
1660037177.67794,1356541.2871731,106
1660037177.67794,1356541.2871767,115
1660037177.67794,1356541.2871802,125
1660037177.67794,1356541.2871838,125
1660037177.67794,1356541.2871871,122
1660037177.67794,1356541.2871904,132
1660037177.67794,1356541.2871938,136
1660037177.67794,1356541.2871971,129
1660037177.67794,1356541.2872107,122
1660037177.67794,1356541.2872144,122
1660037177.67794,1356541.2872179,122
1660037177.67794,1356541.7737067,122
1660037177.67794,1356541.7737249,120
1660037177.67794,1356541.773739,115
1660037177.67794,1356541.7737457,115
1660037177.68891,1356541.7737479,115
1660037177.68891,1356541.773751,109
1660037177.68891,1356541.7737534,115
1660037177.68891,1356541.7737615,129
1660037177.68891,1356541.7737739,115
1660037177.68891,1356541.7737781,90
1660037177.68891,1356541.7737821,88
1660037177.68891,1356541.7737842,92
1660037177.68891,1356541.7737864,92
1660037177.68891,1356541.7737886,90
1660037177.68891,1356541.7737908,90
1660037177.68891,1356541.773793,95
1660037177.68891,1356541.7737983,88
1660037177.68891,1356541.773809,69
1660037177.68891,1356541.7738169,104
1660037177.68891,1356541.7738269,238
1660037177.68891,1356541.7738403,424
1660037177.68891,1356541.7738507,452
1660037177.68891,1356541.7738622,39
1660037177.68891,1356541.7738676,-436
1660037177.68891,1356541.7738774,-287
1660037177.68891,1356541.7738845,67
1660037177.68891,1356541.7738872,57
1660037177.68891,1356541.7738948,6
1660037178.25583,1356541.7739033,85
1660037178.25583,1356541.7739075,97
1660037178.25583,1356541.7739112,69
1660037178.25583,1356541.7739149,92
1660037178.25583,1356541.7739214,111
1660037178.25583,1356541.7739309,111
1660037178.25583,1356541.7739357,132
1660037178.25583,1356541.7739395,148
1660037178.25583,1356541.7739459,150
1660037178.25583,1356541.7739497,155
1660037178.25583,1356541.7739553,173
1660037178.25583,1356541.7739641,190
1660037178.25583,1356541.7739736,199
1660037178.25583,1356541.7739819,211
1660037178.25583,1356541.7739875,222
1660037178.25583,1356541.7739946,220
1660037178.25583,1356541.7740055,213
1660037178.25583,1356541.7740172,218
1660037178.25583,1356541.7740288,215
1660037178.25583,1356541.7740419,201
1660037178.25583,1356541.774056,194
1660037178.25583,1356541.7740694,194
1660037178.25583,1356541.7740826,185
1660037178.25583,1356541.7740958,171
1660037178.25583,1356541.7741105,162
1660037178.25583,1356541.7741224,157
1660037178.25583,1356541.7741277,148
1660037178.25583,1356541.7741357,136
1660037178.25583,1356541.7741397,129
1660037178.25583,1356541.774143,129
1660037178.25583,1356541.7741463,141
1660037178.25583,1356541.7741496,153
1660037178.25583,1356541.774153,157
1660037178.25583,1356541.7741564,157
1660037178.25583,1356541.7741596,160
1660037178.25583,1356541.7741626,169
1660037178.25583,1356541.7741658,180
1660037178.25583,1356541.7741703,178
1660037178.25583,1356541.774176,169
1660037178.25583,1356541.7741797,162
1660037178.25583,1356541.7741834,155
1660037178.25583,1356541.7741868,153
1660037178.25583,1356541.77419,160
1660037178.25583,1356541.7741947,153
1660037178.25583,1356541.7742019,143
1660037178.25583,1356542.3607644,146
1660037178.25583,1356542.3607836,141
1660037178.25583,1356542.3607948,127
1660037178.25583,1356542.3608,120
1660037178.25583,1356542.360806,122
1660037178.27877,1356542.3608103,113
1660037178.27877,1356542.3608159,92
1660037178.27877,1356542.3608207,69
1660037178.27877,1356542.3608247,46
1660037178.27877,1356542.3608287,46
1660037178.27877,1356542.3608327,67
1660037178.27877,1356542.3608383,78
1660037178.27877,1356542.3608454,74
1660037178.27877,1356542.3608544,51
1660037178.27877,1356542.3608629,23
1660037178.27877,1356542.3608708,18
1660037178.27877,1356542.3608795,25
1660037178.27877,1356542.3608856,13
1660037178.27877,1356542.3608898,4
1660037178.27877,1356542.3608937,9
1660037178.27877,1356542.3608978,9
1660037178.27877,1356542.360903,6
1660037178.27877,1356542.3609071,37
1660037178.27877,1356542.3609126,148
1660037178.27877,1356542.3609179,338
1660037178.27877,1356542.3609218,473
1660037178.27877,1356542.3609254,218
1660037178.27877,1356542.3609329,-329
1660037178.27877,1356542.3609416,-408
1660037178.79709,1356542.3609488,-20
1660037178.79709,1356542.360956,102
1660037178.79709,1356542.360963,18
1660037178.79709,1356542.3609676,76
1660037178.79709,1356542.3609715,122
1660037178.79709,1356542.3609755,81
1660037178.79709,1356542.3609816,83
1660037178.79709,1356542.3609857,120
1660037178.79709,1356542.3609892,122
1660037178.79709,1356542.3609929,120
1660037178.79709,1356542.3609969,134
1660037178.79709,1356542.361001,146
1660037178.79709,1356542.3610066,153
1660037178.79709,1356542.3610122,164
1660037178.79709,1356542.3610169,178
1660037178.79709,1356542.3610221,190
1660037178.79709,1356542.3610261,197
1660037178.79709,1356542.3610309,204
1660037178.79709,1356542.3610352,211
1660037178.79709,1356542.3610386,213
1660037178.79709,1356542.3610421,208
1660037178.79709,1356542.3610454,199
1660037178.79709,1356542.3610506,190
1660037178.79709,1356542.361058,183
1660037178.79709,1356542.3610651,173
1660037178.79709,1356542.3610773,169
1660037178.79709,1356542.3610873,157
1660037178.79709,1356542.3610946,146
1660037178.79709,1356542.3611009,136
1660037178.79709,1356542.3611078,118
1660037178.79709,1356542.3611146,102
1660037178.79709,1356542.3611245,99
1660037178.79709,1356542.3611357,102
1660037178.79709,1356542.3611486,97
1660037178.79709,1356542.361159,102
1660037178.79709,1356542.3611626,115
1660037178.79709,1356542.3611664,118
1660037178.79709,1356542.3611685,115
1660037178.79709,1356542.3611708,118
1660037178.79709,1356542.361173,113
1660037178.79709,1356542.3611759,109
1660037178.79709,1356542.3611826,106
1660037178.79709,1356542.3611915,95
1660037178.79709,1356542.3611981,88
1660037178.79709,1356542.895523,81
1660037178.79709,1356542.8955419,74
1660037178.79709,1356542.8955481,71
1660037178.79709,1356542.8955537,64
1660037178.79709,1356542.8955585,57
1660037178.79709,1356542.8955636,48
1660037178.80806,1356542.8955689,41
1660037178.80806,1356542.8955738,39
1660037178.80806,1356542.8955809,32
1660037178.80806,1356542.8955859,11
1660037178.80806,1356542.8955907,-20
1660037178.80806,1356542.8955947,-62
1660037178.80806,1356542.8955999,-83
1660037178.80806,1356542.8956056,-78
1660037178.80806,1356542.8956095,-81
1660037178.80806,1356542.8956134,-83
1660037178.80806,1356542.8956212,-78
1660037178.80806,1356542.8956274,-69
1660037178.80806,1356542.8956343,-67
1660037178.80806,1356542.89564,-67
1660037178.80806,1356542.8956434,-64
1660037178.80806,1356542.8956465,-64
1660037178.80806,1356542.8956498,-74
1660037178.80806,1356542.8956549,-85
1660037178.80806,1356542.8956606,-95
1660037178.80806,1356542.8956642,-97
1660037178.80806,1356542.8956678,-97
1660037178.80806,1356542.895671,-99
1660037178.80806,1356542.8956742,-76
1660037178.80806,1356542.8956771,11
1660037179.32628,1356542.8956802,178
1660037179.32628,1356542.8956833,361
1660037179.32628,1356542.8956862,282
1660037179.32628,1356542.8956891,-257
1660037179.32628,1356542.8956921,-623
1660037179.32628,1356542.8956951,-303
1660037179.32628,1356542.895698,9
1660037179.32628,1356542.8957009,-46
1660037179.32628,1356542.895704,-44
1660037179.32628,1356542.8957068,32
1660037179.32628,1356542.89571,13
1660037179.32628,1356542.895713,6
1660037179.32628,1356542.8957163,39
1660037179.32628,1356542.8957192,46
1660037179.32628,1356542.8957232,53
1660037179.32628,1356542.8957264,64
1660037179.32628,1356542.8957305,74
1660037179.32628,1356542.8957342,83
1660037179.32628,1356542.895738,97
1660037179.32628,1356542.895742,109
1660037179.32628,1356542.8957482,118
1660037179.32628,1356542.8957535,127
1660037179.32628,1356542.8957593,141
1660037179.32628,1356542.8957628,155
1660037179.32628,1356542.8957678,150
1660037179.32628,1356542.8957709,136
1660037179.32628,1356542.8957749,127
1660037179.32628,1356542.8957782,118
1660037179.32628,1356542.895783,106
1660037179.32628,1356542.8957861,99
1660037179.32628,1356542.8957895,90
1660037179.32628,1356542.8957944,76
1660037179.32628,1356542.8957986,67
1660037179.32628,1356542.895802,60
1660037179.32628,1356542.8958054,39
1660037179.32628,1356542.8958092,25
1660037179.32628,1356542.8958143,23
1660037179.32628,1356542.8958186,16
1660037179.32628,1356542.8958229,11
1660037179.32628,1356542.8958322,18
1660037179.32628,1356542.8958377,25
1660037179.32628,1356542.895842,27
1660037179.32628,1356542.8958441,39
1660037179.32628,1356543.4315266,46
1660037179.32628,1356543.4315449,44
1660037179.32628,1356543.431553,39
1660037179.32628,1356543.4315611,30
1660037179.32628,1356543.4315694,11
1660037179.32628,1356543.4315726,11
1660037179.32628,1356543.4315748,18
1660037179.34496,1356543.431577,0
1660037179.34496,1356543.4315792,-32
1660037179.34496,1356543.4315813,-25
1660037179.34496,1356543.4315833,-6
1660037179.34496,1356543.4315886,-13
1660037179.34496,1356543.4316,-18
1660037179.34496,1356543.4316117,-20
1660037179.34496,1356543.4316191,-39
1660037179.34496,1356543.4316295,-55
1660037179.34496,1356543.4316411,-51
1660037179.34496,1356543.4316517,-46
1660037179.34496,1356543.4316647,-44
1660037179.34496,1356543.4316743,-48
1660037179.34496,1356543.4316822,-57
1660037179.34496,1356543.4316899,-60
1660037179.34496,1356543.4317015,-53
1660037179.34496,1356543.4317126,-44
1660037179.34496,1356543.4317216,-30
1660037179.34496,1356543.4317293,-16
1660037179.34496,1356543.4317364,-16
1660037179.34496,1356543.4317396,-18
1660037179.34496,1356543.4317418,-11
1660037179.34496,1356543.4317439,20
1660037179.34496,1356543.4317467,127
1660037179.91498,1356543.4317556,322
1660037179.91498,1356543.4317654,436
1660037179.91498,1356543.4317716,88
1660037179.91498,1356543.431774,-480
1660037179.91498,1356543.4317797,-422
1660037179.91498,1356543.4317886,18
1660037179.91498,1356543.4318004,78
1660037179.91498,1356543.4318111,6
1660037179.91498,1356543.4318201,90
1660037179.91498,1356543.4318302,125
1660037179.91498,1356543.4318407,97
1660037179.91498,1356543.4318498,111
1660037179.91498,1356543.43186,127
1660037179.91498,1356543.4318708,129
1660037179.91498,1356543.4318799,136
1660037179.91498,1356543.431894,141
1660037179.91498,1356543.4319029,146
1660037179.91498,1356543.4319111,160
1660037179.91498,1356543.4319236,180
1660037179.91498,1356543.4319326,192
1660037179.91498,1356543.4319388,197
1660037179.91498,1356543.4319511,204
1660037179.91498,1356543.4319615,206
1660037179.91498,1356543.4319686,215
1660037179.91498,1356543.4319811,229
1660037179.91498,1356543.4319913,231
1660037179.91498,1356543.4319985,220
1660037179.91498,1356543.4320109,211
1660037179.91498,1356543.4320211,201
1660037179.91498,1356543.4320286,192
1660037179.91498,1356543.4320415,180
1660037179.91498,1356543.4320515,169
1660037179.91498,1356543.4320583,160
1660037179.91498,1356543.4320705,139
1660037179.91498,1356543.4320809,115
1660037179.91498,1356543.4320883,113
1660037179.91498,1356543.4321009,111
1660037179.91498,1356543.4321111,97
1660037179.91498,1356543.4321181,95
1660037179.91498,1356543.4321305,109
1660037179.91498,1356543.4321401,109
1660037179.91498,1356543.4321464,106
1660037179.91498,1356544.0165537,125
1660037179.91498,1356544.0165693,143
1660037179.91498,1356544.0165739,148
1660037179.91498,1356544.0165781,148
1660037179.91498,1356544.0165852,141
1660037179.91498,1356544.0165888,120
1660037179.91498,1356544.0165944,118
1660037179.91498,1356544.0165979,122
1660037179.92496,1356544.0166017,109
1660037179.92496,1356544.0166074,104
1660037179.92496,1356544.016611,97
1660037179.92496,1356544.016645,69
1660037179.92496,1356544.0166529,64
1660037179.92496,1356544.0166583,88
1660037179.92496,1356544.0166636,90
1660037179.92496,1356544.0166674,74
1660037179.92496,1356544.0166727,69
1660037179.92496,1356544.0166772,85
1660037179.92496,1356544.0166825,95
1660037179.92496,1356544.0166861,71
1660037179.92496,1356544.0166901,64
1660037179.92496,1356544.016694,74
1660037179.92496,1356544.0166993,71
1660037179.92496,1356544.0167028,71
1660037179.92496,1356544.016708,74
1660037179.92496,1356544.0167116,67
1660037179.92496,1356544.0167152,62
1660037179.92496,1356544.0167188,74
1660037179.92496,1356544.0167226,88
1660037179.92496,1356544.0167278,143
1660037179.92496,1356544.016732,292
1660037179.92496,1356544.0167376,468
1660037180.50447,1356544.0167428,338
1660037180.50447,1356544.0167466,-187
1660037180.50447,1356544.0167506,-410
1660037180.50447,1356544.0167543,-51
1660037180.50447,1356544.0167577,155
1660037180.50447,1356544.0167613,69
1660037180.50447,1356544.0167648,95
1660037180.50447,1356544.0167685,155
1660037180.50447,1356544.0167724,129
1660037180.50447,1356544.0167759,125
1660037180.50447,1356544.0167793,146
1660037180.50447,1356544.0167827,143
1660037180.50447,1356544.0167862,150
1660037180.50447,1356544.0167897,166
1660037180.50447,1356544.0167952,173
1660037180.50447,1356544.0167988,180
1660037180.50447,1356544.0168024,194
1660037180.50447,1356544.0168059,206
1660037180.50447,1356544.0168095,220
1660037180.50447,1356544.0168129,236
1660037180.50447,1356544.0168164,245
1660037180.50447,1356544.0168198,238
1660037180.50447,1356544.016824,231
1660037180.50447,1356544.0168283,234
1660037180.50447,1356544.0168319,234
1660037180.50447,1356544.0168376,224
1660037180.50447,1356544.0168411,213
1660037180.50447,1356544.0168448,215
1660037180.50447,1356544.0168485,215
1660037180.50447,1356544.0168537,185
1660037180.50447,1356544.016858,150
1660037180.50447,1356544.0168616,141
1660037180.50447,1356544.0168653,141
1660037180.50447,1356544.0168689,129
1660037180.50447,1356544.0168725,120
1660037180.50447,1356544.0168761,120
1660037180.50447,1356544.0168797,125
1660037180.50447,1356544.0168832,139
1660037180.50447,1356544.0168868,141
1660037180.50447,1356544.0168903,127
1660037180.50447,1356544.0168939,134
1660037180.50447,1356544.6012631,153
1660037180.50447,1356544.6012819,155
1660037180.50447,1356544.6012873,166
1660037180.50447,1356544.6012912,178
1660037180.50447,1356544.601297,160
1660037180.50447,1356544.6013096,139
1660037180.50447,1356544.6013176,146
1660037180.50447,1356544.6013242,139
1660037180.50447,1356544.6013328,106
1660037180.51544,1356544.6013409,99
1660037180.51544,1356544.6013468,118
1660037180.51544,1356544.6013517,122
1660037180.51544,1356544.6013604,111
1660037180.51544,1356544.6013736,99
1660037180.51544,1356544.6013878,81
1660037180.51544,1356544.6014003,64
1660037180.51544,1356544.6014083,64
1660037180.51544,1356544.6014169,67
1660037180.51544,1356544.6014243,53
1660037180.51544,1356544.6014335,44
1660037180.51544,1356544.601438,53
1660037180.51544,1356544.6014444,62
1660037180.51544,1356544.6014541,64
1660037180.51544,1356544.601462,67
1660037180.51544,1356544.6014686,69
1660037180.51544,1356544.6014743,69
1660037180.51544,1356544.6014835,69
1660037180.51544,1356544.6014917,74
1660037180.51544,1356544.6015019,69
1660037180.51544,1356544.6015118,69
1660037180.51544,1356544.6015169,76
1660037180.51544,1356544.6015234,69
1660037180.51544,1356544.6015269,62
1660037181.0495,1356544.6015349,102
1660037181.0495,1356544.60154,215
1660037181.0495,1356544.6015455,387
1660037181.0495,1356544.6015489,459
1660037181.0495,1356544.60156,115
1660037181.0495,1356544.6015695,-382
1660037181.0495,1356544.6015792,-308
1660037181.0495,1356544.6015869,74
1660037181.0495,1356544.6015948,127
1660037181.0495,1356544.6016002,78
1660037181.0495,1356544.6016127,153
1660037181.0495,1356544.6016256,166
1660037181.0495,1356544.601642,127
1660037181.0495,1356544.6017035,146
1660037181.0495,1356544.6017095,171
1660037181.0495,1356544.601713,169
1660037181.0495,1356544.6017269,178
1660037181.0495,1356544.601734,190
1660037181.0495,1356544.6017381,187
1660037181.0495,1356544.6017428,187
1660037181.0495,1356544.6017492,204
1660037181.0495,1356544.6017543,211
1660037181.0495,1356544.6017599,194
1660037181.0495,1356544.601767,197
1660037181.0495,1356544.6017755,218
1660037181.0495,1356544.6017789,220
1660037181.0495,1356544.601782,213
1660037181.0495,1356544.6017851,211
1660037181.0495,1356544.601788,204
1660037181.0495,1356544.6017911,185
1660037181.0495,1356544.6017957,171
1660037181.0495,1356544.601799,162
1660037181.0495,1356544.601802,150
1660037181.0495,1356544.6018051,143
1660037181.0495,1356544.601808,127
1660037181.0495,1356544.6018109,97
1660037181.0495,1356544.6018139,76
1660037181.0495,1356544.6018168,74
1660037181.0495,1356544.6018197,60
1660037181.0495,1356544.6018226,46
1660037181.0495,1356545.1383088,55
1660037181.0495,1356545.1383298,69
1660037181.0495,1356545.1383359,60
1660037181.0495,1356545.1383427,41
1660037181.0495,1356545.1383501,46
1660037181.0495,1356545.1383556,62
1660037181.0495,1356545.1383592,62
1660037181.0495,1356545.1383636,51
1660037181.0495,1356545.1383699,46
1660037181.0495,1356545.1383767,37
1660037181.06646,1356545.1383832,18
1660037181.06646,1356545.1383933,0
1660037181.06646,1356545.1384022,-13
1660037181.06646,1356545.1384085,-27
1660037181.06646,1356545.1384237,-23
1660037181.06646,1356545.1384331,-16
1660037181.06646,1356545.1384372,-27
1660037181.06646,1356545.1384428,-46
1660037181.06646,1356545.1384462,-53
1660037181.06646,1356545.1384524,-55
1660037181.06646,1356545.1386297,-57
1660037181.06646,1356545.1386473,-64
1660037181.06646,1356545.1386629,-76
1660037181.06646,1356545.1386765,-99
1660037181.06646,1356545.1386901,-109
1660037181.06646,1356545.1387036,-92
1660037181.06646,1356545.1387171,-76
1660037181.06646,1356545.1387318,-64
1660037181.06646,1356545.1387449,-51
1660037181.06646,1356545.138757,-74
1660037181.06646,1356545.1387637,-102
1660037181.06646,1356545.138767,-69
1660037181.06646,1356545.1387692,-23
1660037181.06646,1356545.1387713,-27
1660037181.62098,1356545.1387734,-37
1660037181.62098,1356545.1387789,-30
1660037181.62098,1356545.1387878,-27
1660037181.62098,1356545.1387936,-18
1660037181.62098,1356545.1388008,-2
1660037181.62098,1356545.1388079,69
1660037181.62098,1356545.1388162,241
1660037181.62098,1356545.1388217,424
1660037181.62098,1356545.1388249,308
1660037181.62098,1356545.1388299,-259
1660037181.62098,1356545.1388429,-612
1660037181.62098,1356545.1388553,-269
1660037181.62098,1356545.1388988,41
1660037181.62098,1356545.1389129,-27
1660037181.62098,1356545.1389199,-34
1660037181.62098,1356545.1389264,41
1660037181.62098,1356545.1389336,34
1660037181.62098,1356545.1389402,27
1660037181.62098,1356545.138947,60
1660037181.62098,1356545.1389535,60
1660037181.62098,1356545.13896,46
1660037181.62098,1356545.1389664,55
1660037181.62098,1356545.1389727,71
1660037181.62098,1356545.1389791,81
1660037181.62098,1356545.1389865,99
1660037181.62098,1356545.1389951,113
1660037181.62098,1356545.1390014,113
1660037181.62098,1356545.1390095,125
1660037181.62098,1356545.1390158,139
1660037181.62098,1356545.1390214,141
1660037181.62098,1356545.1390249,146
1660037181.62098,1356545.1390278,148
1660037181.62098,1356545.139031,143
1660037181.62098,1356545.1390345,127
1660037181.62098,1356545.1390381,111
1660037181.62098,1356545.1390441,111
1660037181.62098,1356545.1390511,113
1660037181.62098,1356545.1390671,95
1660037181.62098,1356545.1390758,85
1660037181.62098,1356545.7229754,83
1660037181.62098,1356545.7229887,60
1660037181.62098,1356545.722993,32
1660037181.62098,1356545.7229953,34
1660037181.62098,1356545.7229975,48
1660037181.62098,1356545.7229996,41
1660037181.62098,1356545.7230017,23
1660037181.62098,1356545.7230038,11
1660037181.62098,1356545.723006,20
1660037181.62098,1356545.7230081,44
1660037181.62098,1356545.7230102,55
1660037181.63095,1356545.7230123,60
1660037181.63095,1356545.7230144,60
1660037181.63095,1356545.7230165,32
1660037181.63095,1356545.7230186,2
1660037181.63095,1356545.7230206,9
1660037181.63095,1356545.7230227,25
1660037181.63095,1356545.7230247,30
1660037181.63095,1356545.7230269,34
1660037181.63095,1356545.723029,34
1660037181.63095,1356545.7230311,27
1660037181.63095,1356545.7230333,27
1660037181.63095,1356545.7230353,27
1660037181.63095,1356545.7230373,27
1660037181.63095,1356545.7230394,32
1660037181.63095,1356545.7230415,30
1660037181.63095,1356545.7230436,20
1660037181.63095,1356545.7230457,16
1660037181.63095,1356545.7230479,25
1660037181.63095,1356545.72305,39
1660037181.63095,1356545.723052,37
1660037181.63095,1356545.723054,18
1660037181.63095,1356545.7230561,11
1660037181.63095,1356545.7230582,25
1660037181.63095,1356545.7230608,37
1660037182.16511,1356545.723063,41
1660037182.16511,1356545.723065,37
1660037182.16511,1356545.723067,32
1660037182.16511,1356545.723069,39
1660037182.16511,1356545.723071,39
1660037182.16511,1356545.7230729,71
1660037182.16511,1356545.7230749,199
1660037182.16511,1356545.7230768,391
1660037182.16511,1356545.7230787,440
1660037182.16511,1356545.7230819,23
1660037182.16511,1356545.7230905,-496
1660037182.16511,1356545.723096,-338
1660037182.16511,1356545.723102,71
1660037182.16511,1356545.7231087,64
1660037182.16511,1356545.7231149,-2
1660037182.16511,1356545.7231236,83
1660037182.16511,1356545.7231331,104
1660037182.16511,1356545.7231363,78
1660037182.16511,1356545.7231416,104
1660037182.16511,1356545.7231525,125
1660037182.16511,1356545.7231591,115
1660037182.16511,1356545.723183,122
1660037182.16511,1356545.7231929,141
1660037182.16511,1356545.7231999,150
1660037182.16511,1356545.7232047,160
1660037182.16511,1356545.7232085,164
1660037182.16511,1356545.7232126,171
1660037182.16511,1356545.7232192,197
1660037182.16511,1356545.7232233,213
1660037182.16511,1356545.7232287,215
1660037182.16511,1356545.7232325,220
1660037182.16511,1356545.7232376,222
1660037182.16511,1356545.7232428,213
1660037182.16511,1356545.7232466,208
1660037182.16511,1356545.723252,204
1660037182.16511,1356545.7232569,192
1660037182.16511,1356545.7232614,183
1660037182.16511,1356545.7232666,183
1660037182.16511,1356546.2603381,173
1660037182.16511,1356546.260357,157
1660037182.16511,1356546.2603667,153
1660037182.16511,1356546.2603755,141
1660037182.16511,1356546.2603811,122
1660037182.16511,1356546.2603935,115
1660037182.16511,1356546.2604043,115
1660037182.16511,1356546.2604109,115
1660037182.16511,1356546.2604219,129
1660037182.16511,1356546.2604311,139
1660037182.16511,1356546.260441,122
1660037182.16511,1356546.2604506,120
1660037182.17608,1356546.2604632,143
1660037182.17608,1356546.2604719,150
1660037182.17608,1356546.2604812,141
1660037182.17608,1356546.2604917,143
1660037182.17608,1356546.2604996,132
1660037182.17608,1356546.2605102,99
1660037182.17608,1356546.2605209,92
1660037182.17608,1356546.2605287,113
1660037182.17608,1356546.2605393,120
1660037182.17608,1356546.2605499,111
1660037182.17608,1356546.2605575,95
1660037182.17608,1356546.2605686,85
1660037182.17608,1356546.2605794,99
1660037182.17608,1356546.2605869,115
1660037182.17608,1356546.260598,99
1660037182.17608,1356546.2606087,76
1660037182.17608,1356546.2606175,83
1660037182.17608,1356546.2606277,83
1660037182.17608,1356546.2606379,60
1660037182.17608,1356546.2606467,51
1660037182.17608,1356546.260657,44
1660037182.17608,1356546.2606673,44
1660037182.17608,1356546.2606765,64
1660037182.17608,1356546.2606866,60
1660037182.79716,1356546.2606968,32
1660037182.79716,1356546.2607032,32
1660037182.79716,1356546.2607132,55
1660037182.79716,1356546.2607197,64
1660037182.79716,1356546.2607296,57
1660037182.79716,1356546.2607379,62
1660037182.79716,1356546.2607455,69
1660037182.79716,1356546.2607559,69
1660037182.79716,1356546.2607649,85
1660037182.79716,1356546.2607745,129
1660037182.79716,1356546.2607858,255
1660037182.79716,1356546.2607943,461
1660037182.79716,1356546.260802,505
1660037182.79716,1356546.2608143,90
1660037182.79716,1356546.2608231,-380
1660037182.79716,1356546.2608327,-234
1660037182.79716,1356546.2608433,132
1660037182.79716,1356546.260852,153
1660037182.79716,1356546.2608604,102
1660037182.79716,1356546.2608713,160
1660037182.79716,1356546.2608793,173
1660037182.79716,1356546.2608896,160
1660037182.79716,1356546.2609054,183
1660037182.79716,1356546.2609185,194
1660037182.79716,1356546.2609317,192
1660037182.79716,1356546.2609449,211
1660037182.79716,1356546.260958,224
1660037182.79716,1356546.2609712,227
1660037182.79716,1356546.2609855,241
1660037182.79716,1356546.2609955,252
1660037182.79716,1356546.2610006,262
1660037182.79716,1356546.261007,271
1660037182.79716,1356546.2610111,266
1660037182.79716,1356546.2610151,271
1660037182.79716,1356546.2610207,292
1660037182.79716,1356546.2610247,292
1660037182.79716,1356546.2610313,276
1660037182.79716,1356546.8934376,266
1660037182.79716,1356546.8934576,259
1660037182.79716,1356546.8934727,250
1660037182.79716,1356546.8934875,252
1660037182.79716,1356546.8935007,245
1660037182.79716,1356546.8935143,224
1660037182.79716,1356546.8935275,206
1660037182.79716,1356546.8935362,190
1660037182.79716,1356546.8935389,162
1660037182.79716,1356546.8935411,148
1660037182.79716,1356546.8935432,160
1660037182.79716,1356546.8935453,164
1660037182.79716,1356546.8935475,160
1660037182.80813,1356546.8935495,157
1660037182.80813,1356546.8935515,146
1660037182.80813,1356546.8935536,150
1660037182.80813,1356546.8935557,169
1660037182.80813,1356546.8935579,173
1660037182.80813,1356546.8935599,178
1660037182.80813,1356546.893562,180
1660037182.80813,1356546.893564,157
1660037182.80813,1356546.893566,146
1660037182.80813,1356546.8935681,162
1660037182.80813,1356546.8935702,176
1660037182.80813,1356546.8935722,169
1660037182.80813,1356546.8935743,150
1660037182.80813,1356546.8935764,146
1660037182.80813,1356546.8935784,153
1660037182.80813,1356546.8935804,153
1660037182.80813,1356546.8935825,150
1660037182.80813,1356546.8935846,155
1660037182.80813,1356546.8935866,155
1660037182.80813,1356546.8935886,146
1660037182.80813,1356546.8935908,139
1660037182.80813,1356546.8935928,141
1660037182.80813,1356546.8935949,132
1660037182.80813,1356546.893597,129
1660037183.33301,1356546.893599,153
1660037183.33301,1356546.8936011,155
1660037183.33301,1356546.893603,132
1660037183.33301,1356546.893605,122
1660037183.33301,1356546.8936073,125
1660037183.33301,1356546.8936092,125
1660037183.33301,1356546.8936113,120
1660037183.33301,1356546.8936133,115
1660037183.33301,1356546.8936152,109
1660037183.33301,1356546.8936171,102
1660037183.33301,1356546.893619,90
1660037183.33301,1356546.8936209,102
1660037183.33301,1356546.893623,176
1660037183.33301,1356546.8936251,317
1660037183.33301,1356546.893627,442
1660037183.33301,1356546.8936326,282
1660037183.33301,1356546.893644,-231
1660037183.33301,1356546.8936496,-445
1660037183.33301,1356546.8936598,-106
1660037183.33301,1356546.8936741,109
1660037183.33301,1356546.8936817,48
1660037183.33301,1356546.8936842,57
1660037183.33301,1356546.8936864,90
1660037183.33301,1356546.8936885,62
1660037183.33301,1356546.8936906,60
1660037183.33301,1356546.8936927,88
1660037183.33301,1356546.8936947,81
1660037183.33301,1356546.8936968,64
1660037183.33301,1356546.893699,74
1660037183.33301,1356546.8937012,83
1660037183.33301,1356546.8937033,88
1660037183.33301,1356546.8937053,99
1660037183.33301,1356546.8937074,104
1660037183.33301,1356546.8937095,109
1660037183.33301,1356546.8937115,118
1660037183.33301,1356546.8937136,125
1660037183.33301,1356547.4313382,129
1660037183.33301,1356547.4313592,129
1660037183.33301,1356547.4313741,134
1660037183.33301,1356547.431383,129
1660037183.33301,1356547.4313858,106
1660037183.33301,1356547.4313879,95
1660037183.33301,1356547.4313901,102
1660037183.33301,1356547.4313921,90
1660037183.33301,1356547.4313945,78
1660037183.33301,1356547.4313966,67
1660037183.33301,1356547.4313993,27
1660037183.33301,1356547.4314081,-11
1660037183.33301,1356547.4314189,-4
1660037183.33301,1356547.4314226,2
1660037183.34398,1356547.4314256,-13
1660037183.34398,1356547.4314294,-23
1660037183.34398,1356547.4314425,-16
1660037183.34398,1356547.4314483,-20
1660037183.34398,1356547.431451,-23
1660037183.34398,1356547.4314531,-16
1660037183.34398,1356547.4314558,-9
1660037183.34398,1356547.4314661,9
1660037183.34398,1356547.4314743,11
1660037183.34398,1356547.431477,-18
1660037183.34398,1356547.4314792,-39
1660037183.34398,1356547.4314813,-27
1660037183.34398,1356547.4314868,-13
1660037183.34398,1356547.4314981,-2
1660037183.34398,1356547.4315017,6
1660037183.34398,1356547.4315059,0
1660037183.34398,1356547.4315156,-9
1660037183.34398,1356547.4315257,-11
1660037183.34398,1356547.4315307,-9
1660037183.34398,1356547.4315409,-2
1660037183.34398,1356547.4315477,0
1660037183.34398,1356547.4315527,-20
1660037183.34398,1356547.4315577,-30
1660037183.34398,1356547.4315642,-9
1660037183.97138,1356547.4315702,-2
1660037183.97138,1356547.4315743,-9
1660037183.97138,1356547.4315784,-6
1660037183.97138,1356547.4315825,-16
1660037183.97138,1356547.4315864,-27
1660037183.97138,1356547.4315906,-16
1660037183.97138,1356547.4315967,-4
1660037183.97138,1356547.4316008,-6
1660037183.97138,1356547.4316066,-18
1660037183.97138,1356547.4316104,-27
1660037183.97138,1356547.4316161,-2
1660037183.97138,1356547.4316203,78
1660037183.97138,1356547.431626,211
1660037183.97138,1356547.4316298,331
1660037183.97138,1356547.4316357,155
1660037183.97138,1356547.4316411,-391
1660037183.97138,1356547.4316449,-616
1660037183.97138,1356547.4316487,-241
1660037183.97138,1356547.431654,16
1660037183.97138,1356547.431659,-30
1660037183.97138,1356547.4316648,-4
1660037183.97138,1356547.4316701,48
1660037183.97138,1356547.431674,20
1660037183.97138,1356547.4316792,23
1660037183.97138,1356547.4316834,46
1660037183.97138,1356547.4316887,41
1660037183.97138,1356547.4316924,57
1660037183.97138,1356547.4316962,81
1660037183.97138,1356547.4316998,69
1660037183.97138,1356547.431705,74
1660037183.97138,1356547.4317087,111
1660037183.97138,1356547.4317125,127
1660037183.97138,1356547.4317178,115
1660037183.97138,1356547.4317223,132
1660037183.97138,1356547.431726,162
1660037183.97138,1356548.064774,166
1660037183.97138,1356548.0647936,155
1660037183.97138,1356548.0648011,150
1660037183.97138,1356548.0648065,153
1660037183.97138,1356548.0648112,146
1660037183.97138,1356548.064817,134
1660037183.97138,1356548.0648227,134
1660037183.97138,1356548.0648285,129
1660037183.97138,1356548.0648333,99
1660037183.97138,1356548.0648373,64
1660037183.97138,1356548.064841,55
1660037183.97138,1356548.064845,48
1660037183.97138,1356548.0648488,30
1660037183.97138,1356548.0648526,23
1660037183.97138,1356548.0648572,20
1660037183.99033,1356548.0648637,18
1660037183.99033,1356548.0648674,27
1660037183.99033,1356548.0648726,34
1660037183.99033,1356548.0648794,53
1660037183.99033,1356548.0648879,67
1660037183.99033,1356548.0648919,46
1660037183.99033,1356548.0648972,44
1660037183.99033,1356548.0649012,62
1660037183.99033,1356548.0649061,57
1660037183.99033,1356548.0649102,55
1660037183.99033,1356548.0649168,67
1660037183.99033,1356548.064921,55
1660037183.99033,1356548.0649276,25
1660037183.99033,1356548.0649347,27
1660037183.99033,1356548.0649405,48
1660037183.99033,1356548.0649459,46
1660037183.99033,1356548.0649532,44
1660037183.99033,1356548.0649654,46
1660037183.99033,1356548.064976,37
1660037183.99033,1356548.0649797,48
1660037183.99033,1356548.0649872,74
1660037183.99033,1356548.0649981,76
1660037183.99033,1356548.0650045,64
1660037183.99033,1356548.0650089,60
1660037184.44744,1356548.0650126,51
1660037184.44744,1356548.0650163,46
1660037184.44744,1356548.0650201,48
1660037184.44744,1356548.0650243,46
1660037184.44744,1356548.065028,41
1660037184.44744,1356548.0650317,41
1660037184.44744,1356548.0650351,41
1660037184.44744,1356548.0650385,76
1660037184.44744,1356548.0650417,192
1660037184.44744,1356548.0650452,345
1660037184.44744,1356548.065049,361
1660037184.44744,1356548.0650528,-20
1660037184.44744,1356548.0650575,-461
1660037184.44744,1356548.0650635,-303
1660037184.44744,1356548.0650694,69
1660037184.44744,1356548.0650729,109
1660037184.44744,1356548.0650767,78
1660037184.44744,1356548.0650823,141
1660037184.44744,1356548.0650869,139
1660037184.44744,1356548.0650904,118
1660037184.44744,1356548.0650959,148
1660037184.44744,1356548.0650996,155
1660037184.44744,1356548.065105,136
1660037184.44744,1356548.0651087,162
1660037184.44744,1356548.0651137,192
1660037184.44744,1356548.065117,185
1660037184.44744,1356548.0651205,178
1660037184.44744,1356548.0651241,192
1660037184.44744,1356548.0651275,206
1660037184.44744,1356548.0651413,220
1660037184.44744,1356548.0651546,234
1660037184.44744,1356548.0651675,236
1660037184.44744,1356548.0651805,241
1660037184.44744,1356548.0651937,252
1660037184.44744,1356548.5510155,248
1660037184.44744,1356548.5510298,236
1660037184.44744,1356548.5510348,201
1660037184.44744,1356548.5510464,146
1660037184.44744,1356548.5510567,146
1660037184.44744,1356548.5510661,171
1660037184.44744,1356548.5510737,141
1660037184.44744,1356548.5510803,104
1660037184.44744,1356548.5510913,113
1660037184.44744,1356548.5511032,125
1660037184.44744,1356548.5511123,115
1660037184.44744,1356548.5511195,104
1660037184.44744,1356548.5511276,109
1660037184.44744,1356548.5511307,120
1660037184.44744,1356548.551133,127
1660037184.44744,1356548.5511352,125
1660037184.46639,1356548.5511372,132
1660037184.46639,1356548.5511393,134
1660037184.46639,1356548.5511415,141
1660037184.46639,1356548.5511436,169
1660037184.46639,1356548.5511456,171
1660037184.46639,1356548.5511477,141
1660037184.46639,1356548.5511498,129
1660037184.46639,1356548.5511519,141
1660037184.46639,1356548.5511545,148
1660037184.46639,1356548.5511567,150
1660037184.46639,1356548.5511587,150
1660037184.46639,1356548.5511608,143
1660037184.46639,1356548.551163,132
1660037184.46639,1356548.5511651,122
1660037184.46639,1356548.5511672,106
1660037184.46639,1356548.5511692,104
1660037184.46639,1356548.5511714,113
1660037184.46639,1356548.5511735,97
1660037184.46639,1356548.5511757,85
1660037184.46639,1356548.5511777,92
1660037184.46639,1356548.5511799,60
1660037184.46639,1356548.551182,44
1660037184.46639,1356548.5511841,67
1660037184.46639,1356548.5511862,69
1660037184.9864,1356548.5511883,60
1660037184.9864,1356548.5511903,62
1660037184.9864,1356548.5511924,60
1660037184.9864,1356548.5511944,83
1660037184.9864,1356548.5511964,178
1660037184.9864,1356548.5511984,333
1660037184.9864,1356548.5512014,389
1660037184.9864,1356548.5512094,81
1660037184.9864,1356548.5512168,-373
1660037184.9864,1356548.5512249,-322
1660037184.9864,1356548.5512287,39
1660037184.9864,1356548.5512322,120
1660037184.9864,1356548.5512376,71
1660037184.9864,1356548.5512426,122
1660037184.9864,1356548.5512494,134
1660037184.9864,1356548.5512552,102
1660037184.9864,1356548.5512642,115
1660037184.9864,1356548.5512771,129
1660037184.9864,1356548.5512841,129
1660037184.9864,1356548.5512883,146
1660037184.9864,1356548.5512936,155
1660037184.9864,1356548.5513015,160
1660037184.9864,1356548.5513088,162
1660037184.9864,1356548.551312,153
1660037184.9864,1356548.5513244,150
1660037184.9864,1356548.5513317,173
1660037184.9864,1356548.5513342,192
1660037184.9864,1356548.5513364,176
1660037184.9864,1356548.5513385,153
1660037184.9864,1356548.5513429,160
1660037184.9864,1356548.551355,178
1660037184.9864,1356548.5513607,171
1660037184.9864,1356548.5513629,148
1660037184.9864,1356549.0871846,141
1660037184.9864,1356549.087206,148
1660037184.9864,1356549.0872136,134
1660037184.9864,1356549.0872208,115
1660037184.9864,1356549.0872274,113
1660037184.9864,1356549.0872341,115
1660037184.9864,1356549.0872394,109

1660037184.9864,1356549.0872427,74
1660037184.9864,1356549.0872471,51
1660037184.9864,1356549.0872513,67
1660037184.9864,1356549.0872582,76
1660037184.9864,1356549.0872681,83
1660037184.9864,1356549.0872825,92
1660037184.9864,1356549.0872893,83
1660037184.9864,1356549.0872941,74
1660037184.9864,1356549.0872992,90
1660037184.9864,1356549.0873101,95
1660037184.99638,1356549.0873213,83
1660037184.99638,1356549.0873322,81
1660037184.99638,1356549.0873357,74
1660037184.99638,1356549.0873387,64
1660037184.99638,1356549.0873418,76
1660037184.99638,1356549.0873524,83
1660037184.99638,1356549.0873645,51
1660037184.99638,1356549.0873714,16
1660037184.99638,1356549.0873737,20
1660037184.99638,1356549.0873759,23
1660037184.99638,1356549.0873779,16
1660037184.99638,1356549.08738,23
1660037184.99638,1356549.0873821,34
1660037184.99638,1356549.0873921,25
1660037184.99638,1356549.087402,13
1660037184.99638,1356549.0874083,2
1660037184.99638,1356549.0874187,-9
1660037184.99638,1356549.0874267,-11
1660037184.99638,1356549.0874306,-9
1660037184.99638,1356549.0874353,-2
1660037184.99638,1356549.0874482,-6
1660037184.99638,1356549.0874572,-20
1660037184.99638,1356549.0874653,-30
1660037184.99638,1356549.0874755,-27
1660037185.53473,1356549.0874843,-11
1660037185.53473,1356549.0874902,27
1660037185.53473,1356549.0875017,129
1660037185.53473,1356549.0875119,285
1660037185.53473,1356549.0875195,331
1660037185.53473,1356549.0875306,-25
1660037185.53473,1356549.0875378,-503
1660037185.53473,1356549.0875404,-417
1660037185.53473,1356549.0875487,-51
1660037185.53473,1356549.0875755,-9
1660037185.53473,1356549.0875854,-64
1660037185.53473,1356549.087592,0
1660037185.53473,1356549.0875954,13
1660037185.53473,1356549.0876002,-16
1660037185.53473,1356549.0876072,-6
1660037185.53473,1356549.0876131,4
1660037185.53473,1356549.0876194,2
1660037185.53473,1356549.0876243,0
1660037185.53473,1356549.087629,2
1660037185.53473,1356549.0876322,13
1660037185.53473,1356549.0876351,30
1660037185.53473,1356549.0876381,44
1660037185.53473,1356549.0876411,62
1660037185.53473,1356549.0876441,69
1660037185.53473,1356549.087647,71
1660037185.53473,1356549.0876499,88
1660037185.53473,1356549.0876529,106
1660037185.53473,1356549.0876558,104
1660037185.53473,1356549.0876587,88
1660037185.53473,1356549.0876616,83
1660037185.53473,1356549.0876645,90
1660037185.53473,1356549.087686,81
1660037185.53473,1356549.6227304,64
1660037185.53473,1356549.6227524,64
1660037185.53473,1356549.622761,60
1660037185.53473,1356549.6227638,44
1660037185.53473,1356549.622766,37
1660037185.53473,1356549.6227681,30
1660037185.53473,1356549.6227704,4
1660037185.53473,1356549.6227726,-2
1660037185.53473,1356549.6227748,9
1660037185.53473,1356549.6227769,11
1660037185.53473,1356549.622779,-13
1660037185.53473,1356549.6227857,-27
1660037185.53473,1356549.6227975,6
1660037185.53473,1356549.6228013,25
1660037185.53473,1356549.6228035,9
1660037185.53473,1356549.6228057,18
1660037185.53473,1356549.6228078,23
1660037185.53473,1356549.62281,-16
1660037185.55229,1356549.6228122,-32
1660037185.55229,1356549.6228199,-11
1660037185.55229,1356549.6228306,-13
1660037185.55229,1356549.6228341,-18
1660037185.55229,1356549.6228371,-4
1660037185.55229,1356549.62284,2
1660037185.55229,1356549.6228429,-9
1660037185.55229,1356549.6228495,-13
1660037185.55229,1356549.6228607,0
1660037185.55229,1356549.6228657,6
1660037185.55229,1356549.6228688,6
1660037185.55229,1356549.622871,4
1660037185.55229,1356549.6228739,6
1660037185.55229,1356549.6228849,2
1660037185.55229,1356549.6228918,-11
1660037185.55229,1356549.6228942,4
1660037185.55229,1356549.6228964,20
1660037185.55229,1356549.6228984,2
1660037185.55229,1356549.6229035,9
1660037185.55229,1356549.6229148,27
1660037185.55229,1356549.6229183,11
1660037185.55229,1356549.6229224,18
1660037185.55229,1356549.6229255,34
1660037185.55229,1356549.6229364,46
1660037186.15761,1356549.6229432,134
1660037186.15761,1356549.6229456,324
1660037186.15761,1356549.6229507,454
1660037186.15761,1356549.6229606,160
1660037186.15761,1356549.6229695,-405
1660037186.15761,1356549.6229793,-438
1660037186.15761,1356549.6229852,-32
1660037186.15761,1356549.6229906,69
1660037186.15761,1356549.6229954,11
1660037186.15761,1356549.6230063,78
1660037186.15761,1356549.6230177,97
1660037186.15761,1356549.6230223,53
1660037186.15761,1356549.6230246,64
1660037186.15761,1356549.6230267,95
1660037186.15761,1356549.6230287,92
1660037186.15761,1356549.6230306,102
1660037186.15761,1356549.6230327,134
1660037186.15761,1356549.6230395,148
1660037186.15761,1356549.6230488,136
1660037186.15761,1356549.6230521,141
1660037186.15761,1356549.6230542,185
1660037186.15761,1356549.6230561,211
1660037186.15761,1356549.6230581,215
1660037186.15761,1356549.6230607,231
1660037186.15761,1356549.6230709,245
1660037186.15761,1356549.6230805,238
1660037186.15761,1356549.6230871,241
1660037186.15761,1356549.6230931,250
1660037186.15761,1356549.6230987,250
1660037186.15761,1356549.6231046,243
1660037186.15761,1356549.6231109,227
1660037186.15761,1356550.2590971,215
1660037186.15761,1356550.2591165,222
1660037186.15761,1356550.2591338,215
1660037186.15761,1356550.2591464,190
1660037186.15761,1356550.2591521,164
1660037186.15761,1356550.2591595,155
1660037186.15761,1356550.2591662,132
1660037186.15761,1356550.2591774,95
1660037186.15761,1356550.2591833,92
1660037186.15761,1356550.2591891,118
1660037186.15761,1356550.2591963,132
1660037186.15761,1356550.2592081,132
1660037186.15761,1356550.259221,129
1660037186.15761,1356550.2592285,115
1660037186.15761,1356550.2592405,99
1660037186.15761,1356550.2592532,120
1660037186.15761,1356550.2592626,127
1660037186.15761,1356550.2592695,104
1660037186.15761,1356550.2592736,111
1660037186.17357,1356550.2592787,120
1660037186.17357,1356550.2592823,109
1660037186.17357,1356550.2592864,122
1660037186.17357,1356550.2592936,139
1660037186.17357,1356550.259298,125
1660037186.17357,1356550.2593066,109
1660037186.17357,1356550.2593182,122
1660037186.17357,1356550.2593208,122
1660037186.17357,1356550.259323,106
1660037186.17357,1356550.2593252,111
1660037186.17357,1356550.2593273,109
1660037186.17357,1356550.2593294,85
1660037186.17357,1356550.2593314,71
1660037186.17357,1356550.2593371,71
1660037186.17357,1356550.2593489,76
1660037186.17357,1356550.2593541,88
1660037186.17357,1356550.2593563,88
1660037186.17357,1356550.2593584,74
1660037186.17357,1356550.2593635,60
1660037186.17357,1356550.2593748,60
1660037186.17357,1356550.2593785,74
1660037186.17357,1356550.2593824,71
1660037186.17357,1356550.2593845,51
1660037186.17357,1356550.2593865,46
1660037186.69564,1356550.2593886,55
1660037186.69564,1356550.2593907,44
1660037186.69564,1356550.2593927,23
1660037186.69564,1356550.2593946,67
1660037186.69564,1356550.2593965,211
1660037186.69564,1356550.2593984,405
1660037186.69564,1356550.2594004,482
1660037186.69564,1356550.2594023,125
1660037186.69564,1356550.2594044,-412
1660037186.69564,1356550.2594063,-371
1660037186.69564,1356550.2594082,11
1660037186.69564,1356550.2594102,62
1660037186.69564,1356550.2594122,-4
1660037186.69564,1356550.2594148,69
1660037186.69564,1356550.2594236,99
1660037186.69564,1356550.2594331,78
1660037186.69564,1356550.2594383,115
1660037186.69564,1356550.259442,139
1660037186.69564,1356550.2594507,99
1660037186.69564,1356550.259463,83
1660037186.69564,1356550.2594728,104
1660037186.69564,1356550.259484,109
1660037186.69564,1356550.2594872,120
1660037186.69564,1356550.2594895,146
1660037186.69564,1356550.2594916,166
1660037186.69564,1356550.2594939,180
1660037186.69564,1356550.2595017,171
1660037186.69564,1356550.2595121,173
1660037186.69564,1356550.2595155,190
1660037186.69564,1356550.2595191,192
1660037186.69564,1356550.7940795,194
1660037186.69564,1356550.7940966,206
1660037186.69564,1356550.7941036,201
1660037186.69564,1356550.7941121,180
1660037186.69564,1356550.7941168,171
1660037186.69564,1356550.7941214,162
1660037186.69564,1356550.7941432,164
1660037186.69564,1356550.7941486,173
1660037186.69564,1356550.7941622,146
1660037186.69564,1356550.7941695,113
1660037186.69564,1356550.7941762,97
1660037186.69564,1356550.7941903,85
1660037186.69564,1356550.7941987,109
1660037186.69564,1356550.7942087,141
1660037186.69564,1356550.7942146,150
1660037186.69564,1356550.7942204,141
1660037186.69564,1356550.7942243,134
1660037186.69564,1356550.7942282,157
1660037186.69564,1356550.7942325,192
1660037186.69564,1356550.7942366,206
1660037186.70761,1356550.7942408,199
1660037186.70761,1356550.7942451,199
1660037186.70761,1356550.7942495,194
1660037186.70761,1356550.7942531,176
1660037186.70761,1356550.7942569,187
1660037186.70761,1356550.7942605,206
1660037186.70761,1356550.7942665,180
1660037186.70761,1356550.7942713,171
1660037186.70761,1356550.794275,176
1660037186.70761,1356550.7942799,129
1660037186.70761,1356550.7942856,104
1660037186.70761,1356550.7942905,139
1660037186.70761,1356550.7942961,148
1660037186.70761,1356550.7943003,115
1660037186.70761,1356550.7943043,99
1660037186.70761,1356550.7943088,85
1660037186.70761,1356550.7943122,60
1660037186.70761,1356550.7943156,48
1660037186.70761,1356550.7943193,53
1660037186.70761,1356550.7943245,44
1660037186.70761,1356550.7943278,30
1660037186.70761,1356550.7943312,27
1660037186.70761,1356550.7943345,13
1660037186.70761,1356550.7943375,13
1660037187.32284,1356550.7943406,44
1660037187.32284,1356550.7943434,37
1660037187.32284,1356550.7943461,0
1660037187.32284,1356550.7943488,16
1660037187.32284,1356550.7943515,51
1660037187.32284,1356550.7943541,41
1660037187.32284,1356550.7943567,37
1660037187.32284,1356550.7943592,44
1660037187.32284,1356550.794362,37
1660037187.32284,1356550.7943645,44
1660037187.32284,1356550.794367,60
1660037187.32284,1356550.794371,55
1660037187.32284,1356550.7943738,99
1660037187.32284,1356550.7943763,234
1660037187.32284,1356550.7943789,408
1660037187.32284,1356550.7943814,456
1660037187.32284,1356550.794384,85
1660037187.32284,1356550.7943877,-424
1660037187.32284,1356550.7943905,-359
1660037187.32284,1356550.7943932,30
1660037187.32284,1356550.7943958,109
1660037187.32284,1356550.7943987,71
1660037187.32284,1356550.7944015,143
1660037187.32284,1356550.7944043,155
1660037187.32284,1356550.7944071,120
1660037187.32284,1356550.7944098,143
1660037187.32284,1356550.7944165,176
1660037187.32284,1356550.7944281,173
1660037187.32284,1356550.7944385,171
1660037187.32284,1356551.4268823,173
1660037187.32284,1356551.4269005,180
1660037187.32284,1356551.4269055,194
1660037187.32284,1356551.4269117,206
1660037187.32284,1356551.4269161,211
1660037187.32284,1356551.4269221,220
1660037187.32284,1356551.4269265,227
1660037187.32284,1356551.4269325,206
1660037187.32284,1356551.4269369,194
1660037187.32284,1356551.4269441,211
1660037187.32284,1356551.4269532,206
1660037187.32284,1356551.426957,192
1660037187.32284,1356551.4269604,197
