Time,TimeLsl,Value
1660039613.75617,1358976.1808062,32
1660039613.75617,1358976.1808253,95
1660039613.75617,1358976.1808727,122
1660039613.75617,1358976.1808897,106
1660039613.75617,1358976.1808945,129
1660039613.75617,1358976.1808979,143
1660039613.75617,1358976.1809014,136
1660039613.75617,1358976.1809048,134
1660039613.75617,1358976.1809079,134
1660039613.75617,1358976.1809208,125
1660039613.75617,1358976.1809298,120
1660039613.75617,1358976.1809362,129
1660039613.75617,1358976.1809401,143
1660039613.75617,1358976.1809455,162
1660039613.75617,1358976.1809495,173
1660039613.75617,1358976.1809553,162
1660039613.75617,1358976.1809592,148
1660039613.75617,1358976.1809648,153
1660039613.75617,1358976.1809687,153
1660039613.75617,1358976.1809763,139
1660039613.75617,1358976.1809845,127
1660039613.75617,1358976.1809921,118
1660039613.75617,1358976.1810011,97
1660039613.75617,1358976.1810086,71
1660039613.75617,1358976.1810177,57
1660039613.75617,1358976.1810257,51
1660039613.75617,1358976.1810342,37
1660039613.75617,1358976.1810439,23
1660039613.75617,1358976.181052,13
1660039613.75617,1358976.1810602,9
1660039613.75617,1358976.1810681,13
1660039613.75617,1358976.1810748,18
1660039613.75617,1358976.1810808,25
1660039613.75617,1358976.1810869,44
1660039613.75617,1358976.1810928,51
1660039613.75617,1358976.1810993,34
1660039613.75617,1358976.1811053,37
1660039613.75617,1358976.1811114,67
1660039613.75617,1358976.1811151,74
1660039613.75617,1358976.181119,62
1660039613.75617,1358976.1811247,74
1660039613.75617,1358976.1811284,90
1660039613.75617,1358976.1811322,71
1660039613.75617,1358976.1811362,51
1660039613.75617,1358976.1811405,41
1660039613.75617,1358976.1811443,18
1660039613.75617,1358976.1811479,4
1660039613.75617,1358976.1812024,23
1660039613.75617,1358976.1812182,25
1660039613.75617,1358976.181228,11
1660039613.87707,1358976.1812352,32
1660039613.87707,1358976.1812414,55
1660039613.87707,1358976.1812496,48
1660039613.87707,1358976.1812572,37
1660039613.87707,1358976.1812647,48
1660039613.87707,1358976.1812719,67
1660039613.87707,1358976.1812778,64
1660039613.87707,1358976.1812826,51
1660039613.87707,1358976.1812904,44
1660039613.87707,1358976.1813018,53
1660039613.87707,1358976.1813095,55
1660039613.87707,1358976.181313,60
1660039613.87707,1358976.1813191,150
1660039613.87707,1358976.1813224,343
1660039613.87707,1358976.1813282,556
1660039613.87707,1358976.1813316,538
1660039613.87707,1358976.1813378,-34
1660039613.87707,1358976.1813431,-535
1660039613.87707,1358976.1813489,-213
1660039613.87707,1358976.1813527,150
1660039613.87707,1358976.1813588,34
1660039613.87707,1358976.1813638,13
1660039613.87707,1358976.1813699,139
1660039613.87707,1358976.7639574,122
1660039613.87707,1358976.7639706,76
1660039613.87707,1358976.7639743,113
1660039613.87707,1358976.7639764,129
1660039613.87707,1358976.7639786,90
1660039613.87707,1358976.7639805,78
1660039613.87707,1358976.7639825,90
1660039613.87707,1358976.7639845,106
1660039613.87707,1358976.7639877,115
1660039613.87707,1358976.7639938,104
1660039613.87707,1358976.7639982,106
1660039613.87707,1358976.7640055,136
1660039613.87707,1358976.7640125,171
1660039613.87707,1358976.7640169,157
1660039613.87707,1358976.7640229,122
1660039613.87707,1358976.7640288,136
1660039613.87707,1358976.764033,157
1660039613.87707,1358976.7640369,125
1660039613.87707,1358976.7640407,81
1660039613.87707,1358976.7640455,102
1660039613.87707,1358976.7640521,136
1660039613.87707,1358976.7640581,62
1660039613.87707,1358976.7640625,-32
1660039613.87707,1358976.7640677,-20
1660039613.87707,1358976.7640719,18
1660039613.87707,1358976.7640764,16
1660039613.87707,1358976.764081,-16
1660039613.92394,1358976.7640855,-34
1660039613.92394,1358976.7640902,-11
1660039613.92394,1358976.7640971,-6
1660039613.92394,1358976.7641083,-9
1660039613.92394,1358976.764116,20
1660039613.92394,1358976.7641286,30
1660039613.92394,1358976.7641418,-2
1660039613.92394,1358976.7641476,-18
1660039613.92394,1358976.7641503,11
1660039613.92394,1358976.764158,34
1660039613.92394,1358976.7641724,27
1660039613.92394,1358976.7641817,23
1660039613.92394,1358976.7641869,13
1660039613.92394,1358976.7641944,11
1660039613.92394,1358976.7642042,11
1660039613.92394,1358976.7642133,-6
1660039613.92394,1358976.7642212,-9
1660039613.92394,1358976.7642288,13
1660039613.92394,1358976.7642358,25
1660039613.92394,1358976.7642441,48
1660039613.92394,1358976.764251,51
1660039613.92394,1358976.7642582,2
1660039613.92394,1358976.7642655,-6
1660039613.92394,1358976.7642721,27
1660039613.92394,1358976.7642797,41
1660039613.92394,1358976.7642861,34
1660039613.92394,1358976.7642941,20
1660039613.92394,1358976.7643,18
1660039613.92394,1358976.764308,6
1660039613.92394,1358976.7643152,-20
1660039613.92394,1358976.7643218,2
1660039613.92394,1358976.7643305,48
1660039613.92394,1358976.7643374,39
1660039613.92394,1358976.7643435,9
1660039613.92394,1358976.7643517,16
1660039613.92394,1358976.7643562,53
1660039613.92394,1358976.7643667,41
1660039613.92394,1358976.76437,-18
1660039613.92394,1358976.7643722,4
1660039613.92394,1358976.7643771,53
1660039613.92394,1358976.7643905,30
1660039613.92394,1358976.7644331,23
1660039613.92394,1358976.764444,129
1660039613.92394,1358976.7644561,320
1660039613.92394,1358976.7644692,507
1660039613.92394,1358976.7644774,507
1660039613.92394,1358977.3005789,27
1660039613.92394,1358977.3005972,-477
1660039613.92394,1358977.3006045,-273
1660039613.92394,1358977.3006093,78
1660039613.94389,1358977.3006123,34
1660039613.94389,1358977.3006152,11
1660039613.94389,1358977.3006197,90
1660039613.94389,1358977.3006227,113
1660039613.94389,1358977.3006257,109
1660039613.94389,1358977.3006289,78
1660039613.94389,1358977.3006322,64
1660039613.94389,1358977.3006357,64
1660039613.94389,1358977.3006393,85
1660039613.94389,1358977.3006431,122
1660039613.94389,1358977.3006476,125
1660039613.94389,1358977.3006512,115
1660039613.94389,1358977.3006546,120
1660039613.94389,1358977.3006581,120
1660039613.94389,1358977.3006617,111
1660039613.94389,1358977.3006652,139
1660039613.94389,1358977.3006687,192
1660039613.94389,1358977.3006718,194
1660039613.94389,1358977.3006773,169
1660039613.94389,1358977.3006806,166
1660039613.94389,1358977.3006839,164
1660039613.94389,1358977.3006872,125
1660039613.94389,1358977.3006907,97
1660039613.94389,1358977.3006941,136
1660039613.94389,1358977.3006983,153
1660039613.94389,1358977.3007017,85
1660039613.94389,1358977.3007061,20
1660039613.94389,1358977.3007099,32
1660039613.94389,1358977.3007143,51
1660039613.94389,1358977.3007179,11
1660039613.94389,1358977.3007223,-9
1660039613.94389,1358977.300726,9
1660039613.94389,1358977.3007304,27
1660039613.94389,1358977.3007343,30
1660039613.94389,1358977.3007385,16
1660039613.94389,1358977.3007426,27
1660039613.94389,1358977.300747,53
1660039613.94389,1358977.3007513,60
1660039613.94389,1358977.3007569,64
1660039613.94389,1358977.3007613,69
1660039613.94389,1358977.3007658,67
1660039613.94389,1358977.3007693,76
1660039613.94389,1358977.3007735,71
1660039613.94389,1358977.3007779,51
1660039613.94389,1358977.3007815,55
1660039613.94389,1358977.3007859,78
1660039613.94389,1358977.3007894,95
1660039613.94389,1358977.3007938,85
1660039613.94389,1358977.3007975,67
1660039613.94389,1358977.3008018,78
1660039613.95586,1358977.3008059,97
1660039613.95586,1358977.3008096,97
1660039613.95586,1358977.3008139,88
1660039613.95586,1358977.3008176,81
1660039613.95586,1358977.300822,81
1660039613.95586,1358977.3008256,85
1660039613.95586,1358977.30083,83
1660039613.95586,1358977.3008335,69
1660039613.95586,1358977.3008379,55
1660039613.95586,1358977.3008423,48
1660039613.95586,1358977.3008458,71
1660039613.95586,1358977.3008542,90
1660039613.95586,1358977.3008586,64
1660039613.95586,1358977.300862,53
1660039613.95586,1358977.3008653,85
1660039613.95586,1358977.3008687,92
1660039613.95586,1358977.3008719,64
1660039613.95586,1358977.3008754,53
1660039613.95586,1358977.3008788,81
1660039613.95586,1358977.93729,92
1660039613.95586,1358977.9373077,76
1660039613.95586,1358977.9373115,78
1660039614.37622,1358977.9373151,85
1660039614.37622,1358977.9373187,74
1660039614.37622,1358977.9373221,67
1660039614.37622,1358977.9373273,60
1660039614.37622,1358977.9373309,51
1660039614.37622,1358977.9373345,48
1660039614.37622,1358977.9373381,57
1660039614.37622,1358977.9373418,76
1660039614.37622,1358977.9373453,74
1660039614.37622,1358977.937349,34
1660039614.37622,1358977.9373526,18
1660039614.37622,1358977.9373561,51
1660039614.37622,1358977.93736,74
1660039614.37622,1358977.9373636,46
1660039614.37622,1358977.9373672,13
1660039614.37622,1358977.937371,27
1660039614.37622,1358977.9373746,44
1660039614.37622,1358977.9373782,39
1660039614.37622,1358977.9373818,41
1660039614.37622,1358977.9373855,41
1660039614.37622,1358977.937389,25
1660039614.37622,1358977.9373926,16
1660039614.37622,1358977.9373962,18
1660039614.37622,1358977.9373999,32
1660039614.37622,1358977.9374038,51
1660039614.37622,1358977.9374089,53
1660039614.37622,1358977.9374127,46
1660039614.37622,1358977.9374184,41
1660039614.37622,1358977.937423,53
1660039614.37622,1358977.9374285,76
1660039614.37622,1358977.9374323,64
1660039614.37622,1358977.9374374,44
1660039614.37622,1358977.9374411,62
1660039614.37622,1358977.9374463,88
1660039614.37622,1358977.9374504,90
1660039614.37622,1358977.9374556,76
1660039614.37622,1358977.9374593,57
1660039614.37622,1358977.9374644,67
1660039614.37622,1358977.937468,106
1660039614.37622,1358977.9374789,118
1660039614.37622,1358977.9374825,99
1660039614.37622,1358977.9374862,99
1660039614.37622,1358977.9374912,122
1660039614.37622,1358977.9374947,127
1660039614.37622,1358977.9374998,106
1660039614.37622,1358977.9375037,85
1660039614.37622,1358977.9375088,85
1660039614.37622,1358977.9375125,90
1660039614.37622,1358977.9375177,85
1660039614.37622,1358977.9375213,85
1660039614.39916,1358977.9375249,92
1660039614.39916,1358977.9375284,99
1660039614.39916,1358977.9375319,134
1660039614.39916,1358977.937537,222
1660039614.39916,1358977.9375406,354
1660039614.39916,1358977.9375441,521
1660039614.39916,1358977.9375477,565
1660039614.39916,1358977.9375534,197
1660039614.39916,1358977.9375571,-264
1660039614.39916,1358977.9375622,-164
1660039614.39916,1358977.9375662,122
1660039614.39916,1358977.9375697,85
1660039614.39916,1358977.9375735,44
1660039614.39916,1358977.9375789,134
1660039614.39916,1358977.9375826,143
1660039614.39916,1358977.9375862,115
1660039614.39916,1358977.9375898,146
1660039614.39916,1358977.9375951,155
1660039614.39916,1358977.9375987,136
1660039614.39916,1358977.9376039,134
1660039614.39916,1358978.4703781,139
1660039614.39916,1358978.4703984,160
1660039614.39916,1358978.4704082,171
1660039614.39916,1358978.4704152,171
1660039615.00349,1358978.4704218,185
1660039615.00349,1358978.4704261,197
1660039615.00349,1358978.4704303,185
1660039615.00349,1358978.4704343,192
1660039615.00349,1358978.4704391,213
1660039615.00349,1358978.4704431,201
1660039615.00349,1358978.4704471,173
1660039615.00349,1358978.4704508,164
1660039615.00349,1358978.4704547,164
1660039615.00349,1358978.4704581,162
1660039615.00349,1358978.4704617,136
1660039615.00349,1358978.470465,109
1660039615.00349,1358978.4704684,92
1660039615.00349,1358978.4704721,78
1660039615.00349,1358978.4704758,78
1660039615.00349,1358978.4704793,78
1660039615.00349,1358978.4704829,64
1660039615.00349,1358978.4704872,48
1660039615.00349,1358978.470491,32
1660039615.00349,1358978.4704945,30
1660039615.00349,1358978.4704978,51
1660039615.00349,1358978.4705009,53
1660039615.00349,1358978.4705041,39
1660039615.00349,1358978.4705073,39
1660039615.00349,1358978.4705111,34
1660039615.00349,1358978.4705158,41
1660039615.00349,1358978.4705204,60
1660039615.00349,1358978.4705249,64
1660039615.00349,1358978.4705292,57
1660039615.00349,1358978.4705468,46
1660039615.00349,1358978.470559,37
1660039615.00349,1358978.4705658,51
1660039615.00349,1358978.4705697,67
1660039615.00349,1358978.4705746,69
1660039615.00349,1358978.4705778,57
1660039615.00349,1358978.470581,41
1660039615.00349,1358978.4705842,34
1660039615.00349,1358978.4705892,41
1660039615.00349,1358978.4705926,53
1660039615.00349,1358978.4705962,62
1660039615.00349,1358978.4706021,60
1660039615.00349,1358978.4706055,48
1660039615.00349,1358978.470609,41
1660039615.00349,1358978.4706127,41
1660039615.00349,1358978.470618,46
1660039615.00349,1358978.4706214,48
1660039615.00349,1358978.4706259,39
1660039615.00349,1358978.4706289,27
1660039615.00349,1358978.4706321,46
1660039615.00349,1358978.4706353,55
1660039615.01545,1358978.4706386,27
1660039615.01545,1358978.4706433,23
1660039615.01545,1358978.4706466,55
1660039615.01545,1358978.4706501,60
1660039615.01545,1358978.4706556,48
1660039615.01545,1358978.4706599,44
1660039615.01545,1358978.4706651,32
1660039615.01545,1358978.4706694,32
1660039615.01545,1358978.470673,46
1660039615.01545,1358978.4706768,51
1660039615.01545,1358978.4706825,57
1660039615.01545,1358978.4706875,64
1660039615.01545,1358978.4706994,46
1660039615.01545,1358978.4707027,44
1660039615.01545,1358978.4707059,67
1660039615.01545,1358978.4707108,76
1660039615.01545,1358978.470714,55
1660039615.01545,1358978.4707175,41
1660039615.01545,1358978.4707208,55
1660039615.01545,1358979.1050586,76
1660039615.01545,1358979.1050832,78
1660039615.01545,1358979.1050911,76
1660039615.01545,1358979.1050984,71
1660039615.01545,1358979.1051054,76
1660039615.48862,1358979.1051122,81
1660039615.48862,1358979.1051186,69
1660039615.48862,1358979.105125,53
1660039615.48862,1358979.1051319,48
1660039615.48862,1358979.1051378,44
1660039615.48862,1358979.1051412,46
1660039615.48862,1358979.1051446,37
1660039615.48862,1358979.1051489,6
1660039615.48862,1358979.1051551,4
1660039615.48862,1358979.1051603,27
1660039615.48862,1358979.1051645,85
1660039615.48862,1358979.1051703,227
1660039615.48862,1358979.1051763,408
1660039615.48862,1358979.1051809,382
1660039615.48862,1358979.1051848,-76
1660039615.48862,1358979.1051878,-477
1660039615.48862,1358979.1051907,-262
1660039615.48862,1358979.1051965,53
1660039615.48862,1358979.105203,25
1660039615.48862,1358979.1052066,-6
1660039615.48862,1358979.1052127,51
1660039615.48862,1358979.1052186,51
1660039615.48862,1358979.105225,46
1660039615.48862,1358979.1052314,78
1660039615.48862,1358979.1052376,90
1660039615.48862,1358979.1052446,74
1660039615.48862,1358979.1052516,71
1660039615.48862,1358979.1052588,102
1660039615.48862,1358979.1052643,109
1660039615.48862,1358979.1052707,90
1660039615.48862,1358979.1052774,109
1660039615.48862,1358979.105284,148
1660039615.48862,1358979.1052926,153
1660039615.48862,1358979.1052962,143
1660039615.48862,1358979.1053014,155
1660039615.48862,1358979.1053059,183
1660039615.48862,1358979.105312,201
1660039615.48862,1358979.1053176,199
1660039615.48862,1358979.1053248,187
1660039615.48862,1358979.1053354,176
1660039615.48862,1358979.1053428,173
1660039615.48862,1358979.1053505,162
1660039615.48862,1358979.1053576,136
1660039615.48862,1358979.105368,118
1660039615.48862,1358979.1053748,113
1660039615.48862,1358979.1053825,90
1660039615.48862,1358979.10539,57
1660039615.48862,1358979.1053973,46
1660039615.48862,1358979.1054555,44
1660039615.48862,1358979.1054668,39
1660039615.49959,1358979.1054944,34
1660039615.49959,1358979.1055026,37
1660039615.49959,1358979.1055064,44
1660039615.49959,1358979.1055119,48
1660039615.49959,1358979.1055155,44
1660039615.49959,1358979.1055192,46
1660039615.49959,1358979.1055245,53
1660039615.49959,1358979.1055309,57
1660039615.49959,1358979.1055391,71
1660039615.49959,1358979.1055451,69
1660039615.49959,1358979.1055513,48
1660039615.49959,1358979.1055546,48
1660039615.49959,1358979.1055581,62
1660039615.49959,1358979.1055632,67
1660039615.49959,1358979.1055663,67
1660039615.49959,1358979.1055714,71
1660039615.49959,1358979.1055762,71
1660039615.49959,1358979.10558,81
1660039615.49959,1358979.5919302,90
1660039615.49959,1358979.5919507,67
1660039615.49959,1358979.5919573,39
1660039615.49959,1358979.591963,53
1660039615.49959,1358979.5919677,62
1660039615.49959,1358979.5919715,51
1660039616.02819,1358979.5919768,39
1660039616.02819,1358979.5919819,39
1660039616.02819,1358979.5919857,32
1660039616.02819,1358979.5919893,13
1660039616.02819,1358979.5919927,9
1660039616.02819,1358979.5919962,13
1660039616.02819,1358979.5920011,4
1660039616.02819,1358979.5920053,0
1660039616.02819,1358979.5920086,13
1660039616.02819,1358979.5920123,16
1660039616.02819,1358979.5920156,9
1660039616.02819,1358979.5920204,13
1660039616.02819,1358979.5920252,25
1660039616.02819,1358979.5920288,23
1660039616.02819,1358979.5920358,23
1660039616.02819,1358979.5920399,30
1660039616.02819,1358979.5920441,25
1660039616.02819,1358979.5920507,27
1660039616.02819,1358979.5920559,46
1660039616.02819,1358979.5920611,60
1660039616.02819,1358979.5920661,64
1660039616.02819,1358979.5920793,60
1660039616.02819,1358979.5920922,51
1660039616.02819,1358979.5921054,44
1660039616.02819,1358979.5921184,30
1660039616.02819,1358979.5921309,11
1660039616.02819,1358979.592143,20
1660039616.02819,1358979.5921494,39
1660039616.02819,1358979.5921595,37
1660039616.02819,1358979.5921711,27
1660039616.02819,1358979.5921771,37
1660039616.02819,1358979.5921865,48
1660039616.02819,1358979.5921981,60
1660039616.02819,1358979.5922088,118
1660039616.02819,1358979.5922208,264
1660039616.02819,1358979.5922323,447
1660039616.02819,1358979.5922467,468
1660039616.02819,1358979.5922597,41
1660039616.02819,1358979.592273,-456
1660039616.02819,1358979.592285,-308
1660039616.02819,1358979.5922936,76
1660039616.02819,1358979.5922997,83
1660039616.02819,1358979.592307,30
1660039616.02819,1358979.5923138,106
1660039616.02819,1358979.5923197,118
1660039616.02819,1358979.5923273,104
1660039616.02819,1358979.5923339,134
1660039616.02819,1358979.5923416,146
1660039616.02819,1358979.5923488,129
1660039616.02819,1358979.5923528,132
1660039616.04315,1358979.5923559,143
1660039616.04315,1358979.5923592,143
1660039616.04315,1358979.5923631,169
1660039616.04315,1358979.5923665,204
1660039616.04315,1358979.592377,194
1660039616.04315,1358979.5923825,180
1660039616.04315,1358979.5923868,197
1660039616.04315,1358979.5923906,218
1660039616.04315,1358979.5923945,229
1660039616.04315,1358979.5923985,227
1660039616.04315,1358979.5924203,218
1660039616.04315,1358979.592427,211
1660039616.04315,1358979.5924315,192
1660039616.04315,1358979.592439,176
1660039616.04315,1358979.5924429,166
1660039616.04315,1358979.5924837,134
1660039616.04315,1358979.592491,102
1660039616.04315,1358980.1279685,88
1660039616.04315,1358980.1279913,67
1660039616.04315,1358980.1279984,39
1660039616.04315,1358980.1280058,16
1660039616.04315,1358980.1280143,0
1660039616.04315,1358980.1280214,-25
1660039616.04315,1358980.1280271,-48
1660039616.57132,1358980.1280338,-39
1660039616.57132,1358980.1280372,-16
1660039616.57132,1358980.1280404,-18
1660039616.57132,1358980.1280437,-34
1660039616.57132,1358980.128047,-34
1660039616.57132,1358980.1280502,-18
1660039616.57132,1358980.1280533,-20
1660039616.57132,1358980.1280565,-16
1660039616.57132,1358980.1280597,4
1660039616.57132,1358980.1280629,9
1660039616.57132,1358980.1280661,-9
1660039616.57132,1358980.1280693,-27
1660039616.57132,1358980.1280725,-30
1660039616.57132,1358980.1280756,-18
1660039616.57132,1358980.1280787,-16
1660039616.57132,1358980.1280819,-16
1660039616.57132,1358980.1280852,-6
1660039616.57132,1358980.1280885,-2
1660039616.57132,1358980.1280935,-2
1660039616.57132,1358980.1280988,-6
1660039616.57132,1358980.1281036,-6
1660039616.57132,1358980.1281075,2
1660039616.57132,1358980.1281139,9
1660039616.57132,1358980.128119,4
1660039616.57132,1358980.1281254,-6
1660039616.57132,1358980.1281307,-11
1660039616.57132,1358980.1281353,-4
1660039616.57132,1358980.128142,-4
1660039616.57132,1358980.1281488,-4
1660039616.57132,1358980.1281553,2
1660039616.57132,1358980.1281621,-2
1660039616.57132,1358980.1281667,6
1660039616.57132,1358980.1281705,25
1660039616.57132,1358980.1281734,27
1660039616.57132,1358980.1281763,30
1660039616.57132,1358980.1281812,39
1660039616.57132,1358980.1281866,30
1660039616.57132,1358980.1281901,18
1660039616.57132,1358980.1281944,34
1660039616.57132,1358980.1281993,51
1660039616.57132,1358980.1282032,41
1660039616.57132,1358980.1282072,37
1660039616.57132,1358980.1282115,81
1660039616.57132,1358980.1282175,192
1660039616.57132,1358980.1282272,366
1660039616.57132,1358980.128234,477
1660039616.57132,1358980.1282399,213
1660039616.57132,1358980.1282461,-340
1660039616.57132,1358980.1282497,-456
1660039616.57132,1358980.1282557,-67
1660039616.58528,1358980.1282608,122
1660039616.58528,1358980.1282691,64
1660039616.58528,1358980.1282748,81
1660039616.58528,1358980.1282782,120
1660039616.58528,1358980.1282863,106
1660039616.58528,1358980.1282924,109
1660039616.58528,1358980.1282991,129
1660039616.58528,1358980.1283084,132
1660039616.58528,1358980.1283156,125
1660039616.58528,1358980.1283225,134
1660039616.58528,1358980.1283288,153
1660039616.58528,1358980.1283348,162
1660039616.58528,1358980.1283458,171
1660039616.58528,1358980.1283538,187
1660039616.58528,1358980.1283618,192
1660039616.58528,1358980.1283701,201
1660039616.58528,1358980.6652477,215
1660039616.58528,1358980.6652698,222
1660039616.58528,1358980.6652795,241
1660039616.58528,1358980.6652881,252
1660039616.58528,1358980.6652967,238
1660039616.58528,1358980.6653046,224
1660039616.58528,1358980.6653104,215
1660039616.58528,1358980.665316,208
1660039617.15156,1358980.6653201,190
1660039617.15156,1358980.6653242,141
1660039617.15156,1358980.6653284,92
1660039617.15156,1358980.6653326,81
1660039617.15156,1358980.6653371,71
1660039617.15156,1358980.6653414,44
1660039617.15156,1358980.6653456,11
1660039617.15156,1358980.6653501,-11
1660039617.15156,1358980.6653546,-20
1660039617.15156,1358980.6653591,-23
1660039617.15156,1358980.6653636,-18
1660039617.15156,1358980.6653679,-9
1660039617.15156,1358980.6653721,6
1660039617.15156,1358980.665376,18
1660039617.15156,1358980.66538,16
1660039617.15156,1358980.6653846,23
1660039617.15156,1358980.6653889,39
1660039617.15156,1358980.6653928,44
1660039617.15156,1358980.6654009,46
1660039617.15156,1358980.6654072,57
1660039617.15156,1358980.6654139,64
1660039617.15156,1358980.6654198,57
1660039617.15156,1358980.6654259,57
1660039617.15156,1358980.6654319,71
1660039617.15156,1358980.6654365,76
1660039617.15156,1358980.6654411,74
1660039617.15156,1358980.6654461,69
1660039617.15156,1358980.66545,64
1660039617.15156,1358980.6654555,67
1660039617.15156,1358980.665462,69
1660039617.15156,1358980.6654697,60
1660039617.15156,1358980.6654749,55
1660039617.15156,1358980.6654791,60
1660039617.15156,1358980.6654833,48
1660039617.15156,1358980.6654873,37
1660039617.15156,1358980.6654914,55
1660039617.15156,1358980.6654955,71
1660039617.15156,1358980.6654995,60
1660039617.15156,1358980.6655038,55
1660039617.15156,1358980.6655088,60
1660039617.15156,1358980.6655148,64
1660039617.15156,1358980.6655217,69
1660039617.15156,1358980.6655283,67
1660039617.15156,1358980.665535,55
1660039617.15156,1358980.6655422,37
1660039617.15156,1358980.6655484,27
1660039617.15156,1358980.665553,48
1660039617.15156,1358980.6655576,118
1660039617.15156,1358980.6655648,259
1660039617.15156,1358980.6655711,442
1660039617.16253,1358980.6655783,475
1660039617.16253,1358980.6655855,62
1660039617.16253,1358980.6656473,-424
1660039617.16253,1358980.6656567,-282
1660039617.16253,1358980.6656634,85
1660039617.16253,1358980.6656696,90
1660039617.16253,1358980.6656767,39
1660039617.16253,1358980.6656832,118
1660039617.16253,1358980.6656901,134
1660039617.16253,1358980.6656966,102
1660039617.16253,1358980.6657031,115
1660039617.16253,1358980.6657101,129
1660039617.16253,1358980.6657149,127
1660039617.16253,1358980.6657189,134
1660039617.16253,1358980.6657228,141
1660039617.16253,1358981.2485419,136
1660039617.16253,1358981.2485616,155
1660039617.16253,1358981.2485682,171
1660039617.16253,1358981.2485725,178
1660039617.16253,1358981.2485761,192
1660039617.16253,1358981.2485823,187
1660039617.16253,1358981.2485873,176
1660039617.16253,1358981.2485905,197
1660039617.16253,1358981.2485935,211
1660039617.73329,1358981.2485965,206
1660039617.73329,1358981.2486028,204
1660039617.73329,1358981.2486095,180
1660039617.73329,1358981.2486162,141
1660039617.73329,1358981.2486228,129
1660039617.73329,1358981.2486295,129
1660039617.73329,1358981.2486329,97
1660039617.73329,1358981.2486373,69
1660039617.73329,1358981.2486429,53
1660039617.73329,1358981.2486481,25
1660039617.73329,1358981.2486512,6
1660039617.73329,1358981.2486556,6
1660039617.73329,1358981.2486588,0
1660039617.73329,1358981.2486644,-2
1660039617.73329,1358981.2486703,11
1660039617.73329,1358981.2486767,18
1660039617.73329,1358981.2486827,23
1660039617.73329,1358981.2486969,25
1660039617.73329,1358981.2487089,25
1660039617.73329,1358981.2487177,44
1660039617.73329,1358981.2487229,57
1660039617.73329,1358981.248736,57
1660039617.73329,1358981.2487483,60
1660039617.73329,1358981.2487579,62
1660039617.73329,1358981.2487665,67
1660039617.73329,1358981.2487776,67
1660039617.73329,1358981.2487833,78
1660039617.73329,1358981.2487884,102
1660039617.73329,1358981.2487925,97
1660039617.73329,1358981.2487976,69
1660039617.73329,1358981.2488013,67
1660039617.73329,1358981.2488063,81
1660039617.73329,1358981.2488113,92
1660039617.73329,1358981.2488161,102
1660039617.73329,1358981.2488224,95
1660039617.73329,1358981.2488262,69
1660039617.73329,1358981.2488318,57
1660039617.73329,1358981.2488357,67
1660039617.73329,1358981.2488412,74
1660039617.73329,1358981.2488449,76
1660039617.73329,1358981.2488503,81
1660039617.73329,1358981.2488542,74
1660039617.73329,1358981.2488574,62
1660039617.73329,1358981.2488625,62
1660039617.73329,1358981.2488675,74
1660039617.73329,1358981.2488707,83
1660039617.73329,1358981.248875,83
1660039617.73329,1358981.2488809,78
1660039617.73329,1358981.2488847,76
1660039617.73329,1358981.2488899,76
1660039617.74278,1358981.2488934,95
1660039617.74278,1358981.2488972,187
1660039617.74278,1358981.2489027,361
1660039617.74278,1358981.2489063,503
1660039617.74278,1358981.2489119,327
1660039617.74278,1358981.2489158,-215
1660039617.74278,1358981.2489209,-429
1660039617.74278,1358981.2489242,-60
1660039617.74278,1358981.2489279,157
1660039617.74278,1358981.2489329,74
1660039617.74278,1358981.2489372,97
1660039617.74278,1358981.2489425,166
1660039617.74278,1358981.2489468,143
1660039617.74278,1358981.2489527,139
1660039617.74278,1358981.8343171,169
1660039617.74278,1358981.8343365,173
1660039617.74278,1358981.834344,164
1660039617.74278,1358981.8343504,173
1660039617.74278,1358981.8343569,194
1660039617.74278,1358981.8343652,199
1660039617.74278,1358981.8343736,206
1660039617.74278,1358981.8343816,218
1660039617.74278,1358981.8343873,211
1660039617.74278,1358981.8343905,192
1660039618.26658,1358981.8343966,201
1660039618.26658,1358981.8344302,229
1660039618.26658,1358981.8344347,238
1660039618.26658,1358981.83444,231
1660039618.26658,1358981.8344447,220
1660039618.26658,1358981.8344502,199
1660039618.26658,1358981.8344556,178
1660039618.26658,1358981.834461,164
1660039618.26658,1358981.8344702,148
1660039618.26658,1358981.8344783,125
1660039618.26658,1358981.8344858,90
1660039618.26658,1358981.8344929,57
1660039618.26658,1358981.8345017,44
1660039618.26658,1358981.8345097,32
1660039618.26658,1358981.8345176,25
1660039618.26658,1358981.8345543,30
1660039618.26658,1358981.8345618,25
1660039618.26658,1358981.8345703,16
1660039618.26658,1358981.8345769,23
1660039618.26658,1358981.8345835,48
1660039618.26658,1358981.8345897,57
1660039618.26658,1358981.8345952,55
1660039618.26658,1358981.8345992,62
1660039618.26658,1358981.8346029,76
1660039618.26658,1358981.8346068,83
1660039618.26658,1358981.8346107,92
1660039618.26658,1358981.8346146,104
1660039618.26658,1358981.8346188,85
1660039618.26658,1358981.8346254,60
1660039618.26658,1358981.8346327,57
1660039618.26658,1358981.8346387,71
1660039618.26658,1358981.8346481,81
1660039618.26658,1358981.8346544,78
1660039618.26658,1358981.8346743,74
1660039618.26658,1358981.8346818,76
1660039618.26658,1358981.8346883,88
1660039618.26658,1358981.8346955,95
1660039618.26658,1358981.8347038,92
1660039618.26658,1358981.8347121,83
1660039618.26658,1358981.8347208,69
1660039618.26658,1358981.8347284,64
1660039618.26658,1358981.8347351,67
1660039618.26658,1358981.8347414,64
1660039618.26658,1358981.8347476,62
1660039618.26658,1358981.8347542,67
1660039618.26658,1358981.8347612,64
1660039618.26658,1358981.8347667,69
1660039618.26658,1358981.8347701,83
1660039618.26658,1358981.8347733,81
1660039618.26658,1358981.8347777,69
1660039618.27655,1358981.8347833,69
1660039618.27655,1358981.8347894,76
1660039618.27655,1358981.8347958,74
1660039618.27655,1358981.8348012,74
1660039618.27655,1358981.8348097,102
1660039618.27655,1358981.8348168,187
1660039618.27655,1358981.8348205,357
1660039618.27655,1358981.8348238,521
1660039618.27655,1358981.8348265,403
1660039618.27655,1358981.8348294,-136
1660039618.27655,1358981.8348322,-461
1660039618.27655,1358981.8348348,-136
1660039618.27655,1358981.8348377,150
1660039618.27655,1358982.3707653,95
1660039618.27655,1358982.3707898,95
1660039618.27655,1358982.3707984,155
1660039618.27655,1358982.3708033,139
1660039618.27655,1358982.3708093,134
1660039618.27655,1358982.3708135,155
1660039618.27655,1358982.3708193,160
1660039618.27655,1358982.3708233,166
1660039618.27655,1358982.3708286,169
1660039618.27655,1358982.3708325,160
1660039618.27655,1358982.3708382,171
1660039618.80664,1358982.3708424,185
1660039618.80664,1358982.3708464,164
1660039618.80664,1358982.3708501,157
1660039618.80664,1358982.3708538,180
1660039618.80664,1358982.3708576,199
1660039618.80664,1358982.3708613,208
1660039618.80664,1358982.3708651,211
1660039618.80664,1358982.3708728,194
1660039618.80664,1358982.3708768,176
1660039618.80664,1358982.3708802,173
1660039618.80664,1358982.370884,169
1660039618.80664,1358982.3708876,162
1660039618.80664,1358982.3708912,153
1660039618.80664,1358982.3708949,127
1660039618.80664,1358982.3708984,104
1660039618.80664,1358982.3709018,85
1660039618.80664,1358982.3709052,67
1660039618.80664,1358982.3709086,57
1660039618.80664,1358982.3709122,41
1660039618.80664,1358982.3709157,11
1660039618.80664,1358982.3709192,-4
1660039618.80664,1358982.3709227,6
1660039618.80664,1358982.3709263,18
1660039618.80664,1358982.3709299,18
1660039618.80664,1358982.3709335,34
1660039618.80664,1358982.3709375,60
1660039618.80664,1358982.3709414,57
1660039618.80664,1358982.3709461,57
1660039618.80664,1358982.3709506,78
1660039618.80664,1358982.3709547,78
1660039618.80664,1358982.3709576,64
1660039618.80664,1358982.3709608,69
1660039618.80664,1358982.3709646,74
1660039618.80664,1358982.3709714,67
1660039618.80664,1358982.3709761,69
1660039618.80664,1358982.3709793,78
1660039618.80664,1358982.3709822,78
1660039618.80664,1358982.3709857,85
1660039618.80664,1358982.3709891,88
1660039618.80664,1358982.3709923,85
1660039618.80664,1358982.3709959,90
1660039618.80664,1358982.3709993,95
1660039618.80664,1358982.3710038,90
1660039618.80664,1358982.3710079,88
1660039618.80664,1358982.3710113,81
1660039618.80664,1358982.3710149,69
1660039618.80664,1358982.3710184,71
1660039618.80664,1358982.371022,90
1660039618.80664,1358982.3710257,92
1660039618.80664,1358982.3710292,78
1660039618.81761,1358982.3710324,71
1660039618.81761,1358982.3710367,81
1660039618.81761,1358982.3710398,92
1660039618.81761,1358982.3710436,90
1660039618.81761,1358982.3710472,88
1660039618.81761,1358982.3710509,95
1660039618.81761,1358982.3710557,99
1660039618.81761,1358982.3710602,95
1660039618.81761,1358982.3710646,120
1660039618.81761,1358982.3710707,229
1660039618.81761,1358982.3710752,410
1660039618.81761,1358982.3710791,531
1660039618.81761,1358982.9081151,280
1660039618.81761,1358982.9081321,-303
1660039618.81761,1358982.9081382,-445
1660039618.81761,1358982.9081455,-34
1660039618.81761,1358982.9081499,157
1660039618.81761,1358982.9081557,78
1660039618.81761,1358982.9081618,109
1660039618.81761,1358982.9081666,162
1660039618.81761,1358982.9081731,129
1660039618.81761,1358982.9081776,113
1660039618.81761,1358982.9081839,132
1660039618.81761,1358982.9081891,129
1660039619.44094,1358982.9081946,134
1660039619.44094,1358982.9081983,157
1660039619.44094,1358982.9082022,160
1660039619.44094,1358982.9082062,141
1660039619.44094,1358982.9082106,139
1660039619.44094,1358982.9082145,157
1660039619.44094,1358982.9082189,176
1660039619.44094,1358982.9082227,190
1660039619.44094,1358982.9082265,204
1660039619.44094,1358982.9082303,208
1660039619.44094,1358982.908234,208
1660039619.44094,1358982.9082377,206
1660039619.44094,1358982.908242,187
1660039619.44094,1358982.9082457,171
1660039619.44094,1358982.90825,173
1660039619.44094,1358982.9082564,162
1660039619.44094,1358982.9082608,141
1660039619.44094,1358982.9082665,129
1660039619.44094,1358982.9082706,111
1660039619.44094,1358982.9082748,81
1660039619.44094,1358982.9082794,62
1660039619.44094,1358982.9082832,51
1660039619.44094,1358982.9082869,34
1660039619.44094,1358982.9082924,25
1660039619.44094,1358982.9082963,27
1660039619.44094,1358982.9083007,32
1660039619.44094,1358982.9083052,32
1660039619.44094,1358982.9083107,37
1660039619.44094,1358982.9083145,53
1660039619.44094,1358982.9083189,64
1660039619.44094,1358982.9083244,74
1660039619.44094,1358982.908328,81
1660039619.44094,1358982.908332,76
1660039619.44094,1358982.9083375,78
1660039619.44094,1358982.9083412,85
1660039619.44094,1358982.9083463,83
1660039619.44094,1358982.9083498,83
1660039619.44094,1358982.908355,85
1660039619.44094,1358982.9083587,78
1660039619.44094,1358982.9083636,81
1660039619.44094,1358982.9083671,95
1660039619.44094,1358982.908372,88
1660039619.44094,1358982.9083766,71
1660039619.44094,1358982.9083816,76
1660039619.44094,1358982.9083853,90
1660039619.44094,1358982.9083904,88
1660039619.44094,1358982.908394,81
1660039619.44094,1358982.9084011,74
1660039619.44094,1358982.908405,71
1660039619.44094,1358982.9084116,62
1660039619.45291,1358982.9084175,48
1660039619.45291,1358982.908422,51
1660039619.45291,1358982.9084256,57
1660039619.45291,1358982.9084292,60
1660039619.45291,1358982.9084329,57
1660039619.45291,1358982.9084369,46
1660039619.45291,1358982.9084425,41
1660039619.45291,1358982.908448,51
1660039619.45291,1358982.9084534,48
1660039619.45291,1358982.9084572,46
1660039619.45291,1358982.9084625,55
1660039619.45291,1358983.5411662,51
1660039619.45291,1358983.541181,48
1660039619.45291,1358983.5411853,62
1660039619.45291,1358983.5411903,90
1660039619.45291,1358983.5411937,176
1660039619.45291,1358983.5411962,333
1660039619.45291,1358983.5411986,459
1660039619.45291,1358983.5412009,280
1660039619.45291,1358983.5412033,-264
1660039619.45291,1358983.5412059,-489
1660039619.45291,1358983.5412082,-122
1660039619.45291,1358983.5412111,99
1660039619.45291,1358983.5412168,20
1660039619.97642,1358983.5412257,48
1660039619.97642,1358983.5412307,111
1660039619.97642,1358983.5412365,76
1660039619.97642,1358983.541245,57
1660039619.97642,1358983.541255,76
1660039619.97642,1358983.5412628,60
1660039619.97642,1358983.5412669,55
1660039619.97642,1358983.5412729,74
1660039619.97642,1358983.5412777,81
1660039619.97642,1358983.5412831,81
1660039619.97642,1358983.5412915,85
1660039619.97642,1358983.5413006,92
1660039619.97642,1358983.5413088,104
1660039619.97642,1358983.5413132,115
1660039619.97642,1358983.541322,127
1660039619.97642,1358983.5413274,141
1660039619.97642,1358983.54134,150
1660039619.97642,1358983.5413506,148
1660039619.97642,1358983.5413579,143
1660039619.97642,1358983.5413688,143
1660039619.97642,1358983.5413791,129
1660039619.97642,1358983.5413878,113
1660039619.97642,1358983.5413979,97
1660039619.97642,1358983.541408,85
1660039619.97642,1358983.5414176,81
1660039619.97642,1358983.5414234,57
1660039619.97642,1358983.5414279,27
1660039619.97642,1358983.5414301,16
1660039619.97642,1358983.5414323,13
1660039619.97642,1358983.5414343,4
1660039619.97642,1358983.5414364,-2
1660039619.97642,1358983.5414385,2
1660039619.97642,1358983.5414405,9
1660039619.97642,1358983.5414469,13
1660039619.97642,1358983.5414578,25
1660039619.97642,1358983.5414628,34
1660039619.97642,1358983.541465,39
1660039619.97642,1358983.5414672,39

1660039619.97642,1358983.5414703,44
1660039619.97642,1358983.5414828,53
1660039619.97642,1358983.5414886,55
1660039619.97642,1358983.541491,48
1660039619.97642,1358983.5414931,39
1660039619.97642,1358983.5414953,30
1660039619.97642,1358983.541498,34
1660039619.97642,1358983.5415081,44
1660039619.97642,1358983.5415158,39
1660039619.97642,1358983.5415182,34
1660039619.97642,1358983.5415202,44
1660039619.97642,1358983.541522,48
1660039619.98739,1358983.5415239,46
1660039619.98739,1358983.5415314,48
1660039619.98739,1358983.5415446,51
1660039619.98739,1358983.5415574,48
1660039619.98739,1358983.541572,39
1660039619.98739,1358983.5415854,25
1660039619.98739,1358983.5415986,20
1660039619.98739,1358983.5416117,30
1660039619.98739,1358983.5416251,27
1660039619.98739,1358983.5416354,18
1660039619.98739,1358984.0760421,13
1660039619.98739,1358984.076056,18
1660039619.98739,1358984.0760588,25
1660039619.98739,1358984.0760621,30
1660039619.98739,1358984.0760643,41
1660039619.98739,1358984.0760665,46
1660039619.98739,1358984.0760686,39
1660039619.98739,1358984.0760707,32
1660039619.98739,1358984.0760729,27
1660039619.98739,1358984.076075,13
1660039619.98739,1358984.0760777,11
1660039619.98739,1358984.076086,18
1660039619.98739,1358984.0760964,20
1660039619.98739,1358984.0761043,23
1660039620.51947,1358984.0761135,2
1660039620.51947,1358984.0761212,-20
1660039620.51947,1358984.0761287,27
1660039620.51947,1358984.0761342,162
1660039620.51947,1358984.0761407,350
1660039620.51947,1358984.0761455,422
1660039620.51947,1358984.0761496,64
1660039620.51947,1358984.0761538,-473
1660039620.51947,1358984.0761578,-433
1660039620.51947,1358984.0761619,-27
1660039620.51947,1358984.0761673,57
1660039620.51947,1358984.0761708,-13
1660039620.51947,1358984.0761741,27
1660039620.51947,1358984.0761802,34
1660039620.51947,1358984.0761891,-11
1660039620.51947,1358984.0761952,11
1660039620.51947,1358984.0761998,51
1660039620.51947,1358984.0762189,55
1660039620.51947,1358984.0762325,67
1660039620.51947,1358984.0762396,81
1660039620.51947,1358984.0762444,78
1660039620.51947,1358984.0762491,88
1660039620.51947,1358984.0762544,104
1660039620.51947,1358984.0762615,113
1660039620.51947,1358984.0762662,127
1660039620.51947,1358984.0762722,134
1660039620.51947,1358984.0762758,132
1660039620.51947,1358984.0762792,141
1660039620.51947,1358984.0762829,153
1660039620.51947,1358984.0762873,153
1660039620.51947,1358984.076291,155
1660039620.51947,1358984.0762946,141
1660039620.51947,1358984.0762981,115
1660039620.51947,1358984.0763015,102
1660039620.51947,1358984.076305,97
1660039620.51947,1358984.076309,85
1660039620.51947,1358984.0763128,67
1660039620.51947,1358984.0763164,51
1660039620.51947,1358984.0763225,37
1660039620.51947,1358984.0763261,23
1660039620.51947,1358984.076335,13
1660039620.51947,1358984.0763406,6
1660039620.51947,1358984.0763459,6
1660039620.51947,1358984.0763496,13
1660039620.51947,1358984.0763553,11
1660039620.51947,1358984.0763609,13
1660039620.51947,1358984.0763662,32
1660039620.51947,1358984.0763699,48
1660039620.51947,1358984.0763737,55
1660039620.51947,1358984.076379,60
1660039620.52945,1358984.0763825,62
1660039620.52945,1358984.0763863,57
1660039620.52945,1358984.07639,51
1660039620.52945,1358984.0763936,53
1660039620.52945,1358984.0763989,62
1660039620.52945,1358984.0764028,57
1660039620.52945,1358984.0764081,55
1660039620.52945,1358984.0764169,57
1660039620.52945,1358984.0764341,55
1660039620.52945,1358984.6144632,57
1660039620.52945,1358984.6144832,48
1660039620.52945,1358984.6144968,34
1660039620.52945,1358984.6145104,34
1660039620.52945,1358984.6145255,41
1660039620.52945,1358984.6145363,30
1660039620.52945,1358984.6145453,13
1660039620.52945,1358984.6145548,16
1660039620.52945,1358984.6145623,20
1660039620.52945,1358984.6145648,11
1660039620.52945,1358984.614571,4
1660039620.52945,1358984.6145814,-4
1660039620.52945,1358984.6145905,-18
1660039620.52945,1358984.6145962,-20
1660039620.52945,1358984.6145983,-13
1660039621.0996,1358984.6146013,-13
1660039621.0996,1358984.6146035,-11
1660039621.0996,1358984.6146055,-18
1660039621.0996,1358984.6146076,-41
1660039621.0996,1358984.6146096,-48
1660039621.0996,1358984.6146115,-39
1660039621.0996,1358984.6146136,-32
1660039621.0996,1358984.6146156,-20
1660039621.0996,1358984.614618,-6
1660039621.0996,1358984.6146248,2
1660039621.0996,1358984.6146317,9
1660039621.0996,1358984.6146364,4
1660039621.0996,1358984.6146414,6
1660039621.0996,1358984.6146471,9
1660039621.0996,1358984.614655,4
1660039621.0996,1358984.6146651,9
1660039621.0996,1358984.6146755,13
1660039621.0996,1358984.6146896,13
1660039621.0996,1358984.6147032,16
1660039621.0996,1358984.6147171,20
1660039621.0996,1358984.6147303,39
1660039621.0996,1358984.6147436,122
1660039621.0996,1358984.6147568,287
1660039621.0996,1358984.6147699,436
1660039621.0996,1358984.6147832,317
1660039621.0996,1358984.6147924,-185
1660039621.0996,1358984.6148045,-494
1660039621.0996,1358984.6148157,-185
1660039621.0996,1358984.6148266,92
1660039621.0996,1358984.6148398,32
1660039621.0996,1358984.6148523,39
1660039621.0996,1358984.6148659,115
1660039621.0996,1358984.6148798,95
1660039621.0996,1358984.6148922,78
1660039621.0996,1358984.6149032,111
1660039621.0996,1358984.6149143,120
1660039621.0996,1358984.6149242,113
1660039621.0996,1358984.6149347,122
1660039621.0996,1358984.6149461,141
1660039621.0996,1358984.6149611,153
1660039621.0996,1358984.6149746,157
1660039621.0996,1358984.6149831,160
1660039621.0996,1358984.6149858,164
1660039621.0996,1358984.6149912,180
1660039621.0996,1358984.6150037,192
1660039621.0996,1358984.6150123,197
1660039621.0996,1358984.61502,206
1660039621.0996,1358984.615029,208
1660039621.0996,1358984.6150352,201
1660039621.0996,1358984.6150429,192
1660039621.10957,1358984.6150495,183
1660039621.10957,1358984.6150605,162
1660039621.10957,1358984.6150711,136
1660039621.10957,1358984.615081,120
1660039621.10957,1358984.61509,99
1660039621.10957,1358984.6150954,74
1660039621.10957,1358984.6151094,64
1660039621.10957,1358984.6151228,53
1660039621.10957,1358985.1978006,39
1660039621.10957,1358985.1978214,37
1660039621.10957,1358985.1978328,37
1660039621.10957,1358985.1978421,32
1660039621.10957,1358985.1978507,37
1660039621.10957,1358985.1978577,46
1660039621.10957,1358985.1978662,53
1660039621.10957,1358985.1978709,55
1660039621.10957,1358985.1978768,48
1660039621.10957,1358985.1978811,37
1660039621.10957,1358985.1978886,46
1660039621.10957,1358985.197893,62
1660039621.10957,1358985.1978995,64
1660039621.10957,1358985.1979045,55
1660039621.10957,1358985.1979122,41
1660039621.10957,1358985.1979196,23
1660039621.63782,1358985.1979274,23
1660039621.63782,1358985.1979337,30
1660039621.63782,1358985.1979393,30
1660039621.63782,1358985.1979452,32
1660039621.63782,1358985.1979504,30
1660039621.63782,1358985.1979569,13
1660039621.63782,1358985.1979608,13
1660039621.63782,1358985.1979657,32
1660039621.63782,1358985.1979725,32
1660039621.63782,1358985.1979798,23
1660039621.63782,1358985.1979846,30
1660039621.63782,1358985.1979905,27
1660039621.63782,1358985.1979953,9
1660039621.63782,1358985.1980012,-2
1660039621.63782,1358985.198006,4
1660039621.63782,1358985.1980122,11
1660039621.63782,1358985.1980177,11
1660039621.63782,1358985.1980262,6
1660039621.63782,1358985.1980344,0
1660039621.63782,1358985.1980428,-2
1660039621.63782,1358985.1980495,9
1660039621.63782,1358985.1980585,23
1660039621.63782,1358985.1980643,30
1660039621.63782,1358985.1980717,41
1660039621.63782,1358985.1980765,46
1660039621.63782,1358985.1980824,37
1660039621.63782,1358985.1980871,41
1660039621.63782,1358985.1980929,51
1660039621.63782,1358985.1980978,46
1660039621.63782,1358985.1981047,39
1660039621.63782,1358985.198111,46
1660039621.63782,1358985.1981182,53
1660039621.63782,1358985.1981244,60
1660039621.63782,1358985.1981318,64
1660039621.63782,1358985.1981389,97
1660039621.63782,1358985.1981476,222
1660039621.63782,1358985.1981564,424
1660039621.63782,1358985.1981627,526
1660039621.63782,1358985.1981713,190
1660039621.63782,1358985.19818,-408
1660039621.63782,1358985.1981875,-438
1660039621.63782,1358985.1981947,6
1660039621.63782,1358985.1982026,125
1660039621.63782,1358985.1982116,25
1660039621.63782,1358985.1982191,74
1660039621.63782,1358985.1982282,115
1660039621.63782,1358985.1982353,78
1660039621.63782,1358985.1982439,90
1660039621.63782,1358985.1982507,127
1660039621.63782,1358985.1982594,118
1660039621.64879,1358985.1982671,111
1660039621.64879,1358985.198276,136
1660039621.64879,1358985.198283,155
1660039621.64879,1358985.1982915,153
1660039621.64879,1358985.1982985,155
1660039621.64879,1358985.1983054,169
1660039621.64879,1358985.1983142,178
1660039621.64879,1358985.7338928,187
1660039621.64879,1358985.733912,201
1660039621.64879,1358985.7339238,211
1660039621.64879,1358985.7339357,218
1660039621.64879,1358985.7339509,220
1660039621.64879,1358985.733965,206
1660039621.64879,1358985.7339783,190
1660039621.64879,1358985.7339915,183
1660039621.64879,1358985.7340048,176
1660039621.64879,1358985.7340182,162
1660039621.64879,1358985.7340314,141
1660039621.64879,1358985.7340458,106
1660039621.64879,1358985.7340591,64
1660039621.64879,1358985.7340724,51
1660039621.64879,1358985.7340868,41
1660039621.64879,1358985.7340953,25
1660039621.64879,1358985.7340979,23
1660039622.17553,1358985.7341001,11
1660039622.17553,1358985.7341023,-13
1660039622.17553,1358985.7341042,-23
1660039622.17553,1358985.7341061,-16
1660039622.17553,1358985.734108,-4
1660039622.17553,1358985.7341104,11
1660039622.17553,1358985.7341125,23
1660039622.17553,1358985.7341144,20
1660039622.17553,1358985.7341163,23
1660039622.17553,1358985.7341183,32
1660039622.17553,1358985.7341202,41
1660039622.17553,1358985.7341221,34
1660039622.17553,1358985.734124,30
1660039622.17553,1358985.7341313,32
1660039622.17553,1358985.7341417,37
1660039622.17553,1358985.7341462,44
1660039622.17553,1358985.7341487,48
1660039622.17553,1358985.7341508,51
1660039622.17553,1358985.7341531,55
1660039622.17553,1358985.7341628,60
1660039622.17553,1358985.7341766,60
1660039622.17553,1358985.73419,53
1660039622.17553,1358985.7342035,53
1660039622.17553,1358985.7342168,60
1660039622.17553,1358985.7342303,55
1660039622.17553,1358985.7342434,39
1660039622.17553,1358985.7342566,27
1660039622.17553,1358985.734277,27
1660039622.17553,1358985.7342835,34
1660039622.17553,1358985.734288,44
1660039622.17553,1358985.7342966,53
1660039622.17553,1358985.7343037,62
1660039622.17553,1358985.7343113,60
1660039622.17553,1358985.7343153,46
1660039622.17553,1358985.7343214,25
1660039622.17553,1358985.7343251,13
1660039622.17553,1358985.7343303,25
1660039622.17553,1358985.734334,37
1660039622.17553,1358985.7343393,34
1660039622.17553,1358985.7343441,27
1660039622.17553,1358985.7343497,27
1660039622.17553,1358985.7343542,34
1660039622.17553,1358985.7343672,46
1660039622.17553,1358985.7343802,90
1660039622.17553,1358985.7343942,218
1660039622.17553,1358985.7344073,408
1660039622.17553,1358985.7344212,489
1660039622.17553,1358985.7344338,146
1660039622.17553,1358985.7344418,-398
1660039622.17553,1358985.7344508,-380
1660039622.1865,1358985.7344633,34
1660039622.1865,1358985.7344728,118
1660039622.1865,1358985.7344805,34
1660039622.1865,1358985.7344936,104
1660039622.1865,1358985.7345064,148
1660039622.1865,1358985.7345204,115
1660039622.1865,1358986.2712981,122
1660039622.1865,1358986.2713168,141
1660039622.1865,1358986.2713249,136
1660039622.1865,1358986.2713344,146
1660039622.1865,1358986.27134,164
1660039622.1865,1358986.2713476,164
1660039622.1865,1358986.2713533,164
1660039622.1865,1358986.271362,171
1660039622.1865,1358986.2713702,164
1660039622.1865,1358986.2713726,162
1660039622.1865,1358986.2713748,166
1660039622.1865,1358986.2713768,166
1660039622.1865,1358986.2713788,176
1660039622.1865,1358986.2713808,192
1660039622.1865,1358986.2713829,183
1660039622.1865,1358986.2713856,146
1660039622.1865,1358986.2713952,122
1660039622.1865,1358986.2714043,125
1660039622.75157,1358986.2714068,118
1660039622.75157,1358986.2714088,102
1660039622.75157,1358986.2714107,88
1660039622.75157,1358986.2714126,64
1660039622.75157,1358986.2714146,41
1660039622.75157,1358986.2714167,32
1660039622.75157,1358986.2714231,23
1660039622.75157,1358986.2714346,13
1660039622.75157,1358986.2714444,16
1660039622.75157,1358986.2714515,18
1660039622.75157,1358986.2714629,16
1660039622.75157,1358986.2714698,20
1660039622.75157,1358986.2714724,27
1660039622.75157,1358986.2714745,32
1660039622.75157,1358986.2714766,41
1660039622.75157,1358986.2714822,55
1660039622.75157,1358986.2714938,62
1660039622.75157,1358986.2714991,64
1660039622.75157,1358986.2715014,69
1660039622.75157,1358986.2715035,71
1660039622.75157,1358986.2715091,67
1660039622.75157,1358986.2715206,69
1660039622.75157,1358986.271526,71
1660039622.75157,1358986.2715282,74
1660039622.75157,1358986.2715335,69
1660039622.75157,1358986.2715397,57
1660039622.75157,1358986.2715443,46
1660039622.75157,1358986.2715546,39
1660039622.75157,1358986.2715647,34
1660039622.75157,1358986.2715736,37
1660039622.75157,1358986.2715784,37
1660039622.75157,1358986.2715911,34
1660039622.75157,1358986.2716016,37
1660039622.75157,1358986.2716099,32
1660039622.75157,1358986.2716194,23
1660039622.75157,1358986.271625,20
1660039622.75157,1358986.2716272,30
1660039622.75157,1358986.2716294,41
1660039622.75157,1358986.2716315,44
1660039622.75157,1358986.2716336,39
1660039622.75157,1358986.2716357,44
1660039622.75157,1358986.2716377,44
1660039622.75157,1358986.2716406,37
1660039622.75157,1358986.2716504,41
1660039622.75157,1358986.2716594,48
1660039622.75157,1358986.2716619,46
1660039622.75157,1358986.2716639,51
1660039622.75157,1358986.271666,57
1660039622.75157,1358986.271668,60
1660039622.75157,1358986.2716709,120
1660039622.7637,1358986.2716809,285
1660039622.7637,1358986.2716895,475
1660039622.7637,1358986.271692,436
1660039622.7637,1358986.2716942,-57
1660039622.7637,1358986.2716963,-489
1660039622.7637,1358986.8557,-241
1660039622.7637,1358986.8557143,113
1660039622.7637,1358986.8557176,71
1660039622.7637,1358986.8557205,41
1660039622.7637,1358986.8557233,118
1660039622.7637,1358986.8557261,90
1660039622.7637,1358986.855729,53
1660039622.7637,1358986.8557319,92
1660039622.7637,1358986.8557372,111
1660039622.7637,1358986.855746,104
1660039622.7637,1358986.8557486,118
1660039622.7637,1358986.8557509,115
1660039622.7637,1358986.855753,102
1660039622.7637,1358986.8557551,113
1660039622.7637,1358986.8557572,136
1660039622.7637,1358986.8557592,148
1660039622.7637,1358986.8557612,160
1660039622.7637,1358986.8557633,166
1660039622.7637,1358986.8557655,166
1660039623.29656,1358986.8557676,176
1660039623.29656,1358986.8557707,183
1660039623.29656,1358986.855781,178
1660039623.29656,1358986.8557918,171
1660039623.29656,1358986.8557981,162
1660039623.29656,1358986.8558021,146
1660039623.29656,1358986.8558069,132
1660039623.29656,1358986.855814,127
1660039623.29656,1358986.85582,111
1660039623.29656,1358986.8558319,90
1660039623.29656,1358986.8558434,74
1660039623.29656,1358986.8558567,57
1660039623.29656,1358986.8558684,44
1660039623.29656,1358986.8558746,44
1660039623.29656,1358986.8558798,39
1660039623.29656,1358986.8558862,25
1660039623.29656,1358986.8558939,27
1660039623.29656,1358986.8559079,41
1660039623.29656,1358986.85593,41
1660039623.29656,1358986.8559394,34
1660039623.29656,1358986.855947,46
1660039623.29656,1358986.8559669,60
1660039623.29656,1358986.8559744,62
1660039623.29656,1358986.8559798,71
1660039623.29656,1358986.855988,76
1660039623.29656,1358986.8559938,71
1660039623.29656,1358986.8559974,71
1660039623.29656,1358986.8560031,74
1660039623.29656,1358986.8560081,74
1660039623.29656,1358986.8560124,76
1660039623.29656,1358986.8560175,78
1660039623.29656,1358986.8560211,76
1660039623.29656,1358986.8560279,81
1660039623.29656,1358986.8560348,90
1660039623.29656,1358986.8560467,85
1660039623.29656,1358986.8560582,85
1660039623.29656,1358986.856066,92
1660039623.29656,1358986.8560721,88
1660039623.29656,1358986.8560791,71
1660039623.29656,1358986.8560852,67
1660039623.29656,1358986.8560939,64
1660039623.29656,1358986.8561012,71
1660039623.29656,1358986.8561095,78
1660039623.29656,1358986.8561158,81
1660039623.29656,1358986.8561253,90
1660039623.29656,1358986.8561352,85
1660039623.29656,1358986.8561466,64
1660039623.29656,1358986.8561507,55
1660039623.29656,1358986.85616,60
1660039623.29656,1358986.8561683,57
1660039623.30852,1358986.8561812,62
1660039623.30852,1358986.8561933,74
1660039623.30852,1358986.856205,74
1660039623.30852,1358986.8562107,69
1660039623.30852,1358987.3917968,81
1660039623.30852,1358987.3918171,134
1660039623.30852,1358987.391827,273
1660039623.30852,1358987.3918297,456
1660039623.30852,1358987.391832,470
1660039623.30852,1358987.3918342,20
1660039623.30852,1358987.3918364,-468
1660039623.30852,1358987.3918385,-292
1660039623.30852,1358987.3918406,81
1660039623.30852,1358987.3918427,69
1660039623.30852,1358987.3918448,30
1660039623.30852,1358987.3918469,120
1660039623.30852,1358987.391849,129
1660039623.30852,1358987.3918511,99
1660039623.30852,1358987.3918532,106
1660039623.30852,1358987.3918553,99
1660039623.30852,1358987.3918574,92
1660039623.30852,1358987.3918595,111
1660039623.30852,1358987.3918617,122
1660039623.30852,1358987.3918638,129
1660039623.9261,1358987.3918659,139
1660039623.9261,1358987.391868,143
1660039623.9261,1358987.3918699,155
1660039623.9261,1358987.3918719,171
1660039623.9261,1358987.3918739,180
1660039623.9261,1358987.391876,180
1660039623.9261,1358987.3918779,185
1660039623.9261,1358987.3918799,190
1660039623.9261,1358987.3918818,183
1660039623.9261,1358987.3918838,166
1660039623.9261,1358987.3918863,141
1660039623.9261,1358987.3918922,129
1660039623.9261,1358987.3918987,129
1660039623.9261,1358987.3919029,115
1660039623.9261,1358987.3919066,88
1660039623.9261,1358987.3919128,74
1660039623.9261,1358987.3919192,64
1660039623.9261,1358987.3919278,51
1660039623.9261,1358987.391936,44
1660039623.9261,1358987.3919385,37
1660039623.9261,1358987.3919407,23
1660039623.9261,1358987.3919428,25
1660039623.9261,1358987.3919449,39
1660039623.9261,1358987.391947,53
1660039623.9261,1358987.3919491,62
1660039623.9261,1358987.3919512,74
1660039623.9261,1358987.3919533,74
1660039623.9261,1358987.3919554,74
1660039623.9261,1358987.3919575,83
1660039623.9261,1358987.3919596,97
1660039623.9261,1358987.3919618,104
1660039623.9261,1358987.3919639,99
1660039623.9261,1358987.3919661,85
1660039623.9261,1358987.3919682,85
1660039623.9261,1358987.3919703,102
1660039623.9261,1358987.3919724,106
1660039623.9261,1358987.3919745,95
1660039623.9261,1358987.3919766,88
1660039623.9261,1358987.3919788,85
1660039623.9261,1358987.3919859,81
1660039623.9261,1358987.3919955,78
1660039623.9261,1358987.392004,81
1660039623.9261,1358987.3920154,85
1660039623.9261,1358987.3920289,90
1660039623.9261,1358987.392043,85
1660039623.9261,1358987.392056,85
1660039623.9261,1358987.3920689,92
1660039623.9261,1358987.392082,83
1660039623.9261,1358987.3920951,71
1660039623.9261,1358987.3921083,74
1660039623.93807,1358987.3921215,74
1660039623.93807,1358987.3921346,71
1660039623.93807,1358987.3921469,71
1660039623.93807,1358988.0258723,76
1660039623.93807,1358988.0258958,81
1660039623.93807,1358988.025906,81
1660039623.93807,1358988.0259172,88
1660039623.93807,1358988.0259265,139
1660039623.93807,1358988.0259319,269
1660039623.93807,1358988.0259371,438
1660039623.93807,1358988.0259432,403
1660039623.93807,1358988.025952,-106
1660039623.93807,1358988.0259571,-542
1660039623.93807,1358988.0259612,-259
1660039623.93807,1358988.0259724,97
1660039623.93807,1358988.0259811,41
1660039623.93807,1358988.0259868,20
1660039623.93807,1358988.0259912,106
1660039623.93807,1358988.0259988,92
1660039623.93807,1358988.0260042,67
1660039623.93807,1358988.026011,97
1660039623.93807,1358988.0260163,106
1660039623.93807,1358988.0260243,102
1660039623.93807,1358988.0260333,120
1660039624.45948,1358988.0260417,127
1660039624.45948,1358988.0260467,115
1660039624.45948,1358988.0260501,115
1660039624.45948,1358988.0260535,132
1660039624.45948,1358988.0260569,146
1660039624.45948,1358988.0260601,153
1660039624.45948,1358988.0260633,164
1660039624.45948,1358988.0260664,180
1660039624.45948,1358988.0260696,192
1660039624.45948,1358988.0260727,192
1660039624.45948,1358988.0260759,185
1660039624.45948,1358988.026079,178
1660039624.45948,1358988.0260824,171
1660039624.45948,1358988.0260857,162
1660039624.45948,1358988.026089,150
1660039624.45948,1358988.0260921,134
1660039624.45948,1358988.0260952,115
1660039624.45948,1358988.0260984,92
1660039624.45948,1358988.0261014,76
1660039624.45948,1358988.0261046,67
1660039624.45948,1358988.0261077,64
1660039624.45948,1358988.0261108,60
1660039624.45948,1358988.0261139,48
1660039624.45948,1358988.0261171,46
1660039624.45948,1358988.0261202,57
1660039624.45948,1358988.0261232,67
1660039624.45948,1358988.0261263,69
1660039624.45948,1358988.0261294,71
1660039624.45948,1358988.0261328,76
1660039624.45948,1358988.0261359,81
1660039624.45948,1358988.0261391,85
1660039624.45948,1358988.026143,95
1660039624.45948,1358988.0261479,102
1660039624.45948,1358988.0261522,99
1660039624.45948,1358988.0261553,90
1660039624.45948,1358988.026159,85
1660039624.45948,1358988.0261621,88
1660039624.45948,1358988.0261652,99
1660039624.45948,1358988.0261684,102
1660039624.45948,1358988.0261719,99
1660039624.45948,1358988.0261755,99
1660039624.45948,1358988.0261788,95
1660039624.45948,1358988.0261823,88
1660039624.45948,1358988.0261856,95
1660039624.45948,1358988.0261886,104
1660039624.45948,1358988.0261922,99
1660039624.45948,1358988.0261962,104
1660039624.45948,1358988.0262002,111
1660039624.45948,1358988.026204,92
1660039624.45948,1358988.0262091,81
1660039624.46945,1358988.0262125,85
1660039624.46945,1358988.0262161,88
1660039624.46945,1358988.5613367,88
1660039624.46945,1358988.5613538,90
1660039624.46945,1358988.5613595,85
1660039624.46945,1358988.5613678,88
1660039624.46945,1358988.5613729,90
1660039624.46945,1358988.5613797,102
1660039624.46945,1358988.5613858,166
1660039624.46945,1358988.5613929,299
1660039624.46945,1358988.5614004,431
1660039624.46945,1358988.561405,336
1660039624.46945,1358988.5614123,-160
1660039624.46945,1358988.5614166,-496
1660039624.46945,1358988.5614208,-183
1660039624.46945,1358988.5614271,122
1660039624.46945,1358988.5614314,55
1660039624.46945,1358988.5614382,32
1660039624.46945,1358988.5614423,99
1660039624.46945,1358988.5614466,95
1660039624.46945,1358988.5614531,83
1660039624.46945,1358988.5614572,109
1660039624.46945,1358988.5614631,102
1660039624.46945,1358988.5614671,81
1660039625.05183,1358988.5614712,92
1660039625.05183,1358988.5614754,113
1660039625.05183,1358988.5614797,118
1660039625.05183,1358988.561484,125
1660039625.05183,1358988.5614895,141
1660039625.05183,1358988.5614939,148
1660039625.05183,1358988.5614971,150
1660039625.05183,1358988.5615004,169
1660039625.05183,1358988.5615036,192
1660039625.05183,1358988.5615066,194
1660039625.05183,1358988.5615125,190
1660039625.05183,1358988.5615167,180
1660039625.05183,1358988.5615225,173
1660039625.05183,1358988.5615276,171
1660039625.05183,1358988.561537,164
1660039625.05183,1358988.5615518,148
1660039625.05183,1358988.5615733,125
1660039625.05183,1358988.5615812,102
1660039625.05183,1358988.5615847,78
1660039625.05183,1358988.5615877,60
1660039625.05183,1358988.5615906,53
1660039625.05183,1358988.5615935,51
1660039625.05183,1358988.5615969,44
1660039625.05183,1358988.5615998,39
1660039625.05183,1358988.5616027,37
1660039625.05183,1358988.5616054,44
1660039625.05183,1358988.5616081,62
1660039625.05183,1358988.561611,76
1660039625.05183,1358988.5616137,74
1660039625.05183,1358988.5616164,78
1660039625.05183,1358988.5616193,90
1660039625.05183,1358988.5616221,97
1660039625.05183,1358988.5616249,102
1660039625.05183,1358988.5616277,106
1660039625.05183,1358988.5616304,99
1660039625.05183,1358988.5616333,95
1660039625.05183,1358988.5616441,97
1660039625.05183,1358988.5616477,97
1660039625.05183,1358988.5616507,95
1660039625.05183,1358988.5616537,104
1660039625.05183,1358988.5616566,113
1660039625.05183,1358988.5616595,106
1660039625.05183,1358988.5616624,102
1660039625.05183,1358988.5616653,106
1660039625.05183,1358988.5616683,104
1660039625.05183,1358988.5616711,95
1660039625.05183,1358988.5616741,97
1660039625.05183,1358988.5616771,97
1660039625.05183,1358988.56168,81
1660039625.05183,1358988.5616829,60
1660039625.0638,1358988.5616859,57
1660039625.0638,1358989.1465069,71
1660039625.0638,1358989.1465193,74
1660039625.0638,1358989.146523,74
1660039625.0638,1358989.1465259,81
1660039625.0638,1358989.1465288,83
1660039625.0638,1358989.1465335,76
1660039625.0638,1358989.1465397,69
1660039625.0638,1358989.1465426,60
1660039625.0638,1358989.1465465,53
1660039625.0638,1358989.1465522,51
1660039625.0638,1358989.146564,41
1660039625.0638,1358989.1465763,25
1660039625.0638,1358989.1465853,11
1660039625.0638,1358989.1465912,23
1660039625.0638,1358989.1465935,90
1660039625.0638,1358989.1465965,243
1660039625.0638,1358989.1465987,431
1660039625.0638,1358989.1466008,371
1660039625.0638,1358989.1466035,-155
1660039625.0638,1358989.1466145,-556
1660039625.0638,1358989.146623,-273
1660039625.0638,1358989.1466293,62
1660039625.0638,1358989.146637,27
1660039625.68387,1358989.1466439,16
1660039625.68387,1358989.1466491,83
1660039625.68387,1358989.1466556,76
1660039625.68387,1358989.1466617,67
1660039625.68387,1358989.1466676,97
1660039625.68387,1358989.1466746,106
1660039625.68387,1358989.1466794,102
1660039625.68387,1358989.1466986,104
1660039625.68387,1358989.1467057,111
1660039625.68387,1358989.1467101,127
1660039625.68387,1358989.1467137,141
1660039625.68387,1358989.146717,146
1660039625.68387,1358989.1467203,164
1660039625.68387,1358989.1467238,180
1660039625.68387,1358989.1467271,178
1660039625.68387,1358989.1467306,180
1660039625.68387,1358989.1467343,192
1660039625.68387,1358989.1467378,199
1660039625.68387,1358989.1467414,201
1660039625.68387,1358989.146749,192
1660039625.68387,1358989.1467526,166
1660039625.68387,1358989.1467563,153
1660039625.68387,1358989.1467599,157
1660039625.68387,1358989.1467673,150
1660039625.68387,1358989.1467711,127
1660039625.68387,1358989.1467771,106
1660039625.68387,1358989.1467807,92
1660039625.68387,1358989.1467844,78
1660039625.68387,1358989.1469235,69
1660039625.68387,1358989.1469374,69
1660039625.68387,1358989.1469476,67
1660039625.68387,1358989.1469542,64
1660039625.68387,1358989.1469683,62
1660039625.68387,1358989.1469767,64
1660039625.68387,1358989.14698,74
1660039625.68387,1358989.1469898,92
1660039625.68387,1358989.1470031,102
1660039625.68387,1358989.1470148,104
1660039625.68387,1358989.1470238,104
1660039625.68387,1358989.1470307,104
1660039625.68387,1358989.1470402,104
1660039625.68387,1358989.1470462,99
1660039625.68387,1358989.1470537,95
1660039625.68387,1358989.1470621,97
1660039625.68387,1358989.1470732,99
1660039625.68387,1358989.1470818,97
1660039625.68387,1358989.1470903,97
1660039625.68387,1358989.1471002,99
1660039625.68387,1358989.1471109,104
1660039625.68387,1358989.1471192,106
1660039625.69484,1358989.7805435,99
1660039625.69484,1358989.7805609,81
1660039625.69484,1358989.7805651,74
1660039625.69484,1358989.7805704,76
1660039625.69484,1358989.7805741,71
1660039625.69484,1358989.7805792,64
1660039625.69484,1358989.7805827,62
1660039625.69484,1358989.7805876,51
1660039625.69484,1358989.7805931,30
1660039625.69484,1358989.7805978,20
1660039625.69484,1358989.7806014,27
1660039625.69484,1358989.7806066,32
1660039625.69484,1358989.7806119,27
1660039625.69484,1358989.7806154,20
1660039625.69484,1358989.7806189,2
1660039625.69484,1358989.7806239,-11
1660039625.69484,1358989.7806284,9
1660039625.69484,1358989.7806321,27
1660039625.69484,1358989.7806372,27
1660039625.69484,1358989.7806439,41
1660039625.69484,1358989.780718,46
1660039625.69484,1358989.7807324,32
1660039625.69484,1358989.7807418,30
1660039625.69484,1358989.7807493,37
1660039626.12263,1358989.7807533,39
1660039626.12263,1358989.7807571,41
1660039626.12263,1358989.7807612,44
1660039626.12263,1358989.7807646,46
1660039626.12263,1358989.7807684,51
1660039626.12263,1358989.7807717,60
1660039626.12263,1358989.7807764,106
1660039626.12263,1358989.7807821,243
1660039626.12263,1358989.7807885,431
1660039626.12263,1358989.7807947,466
1660039626.12263,1358989.7807983,55
1660039626.12263,1358989.7808024,-454
1660039626.12263,1358989.780806,-331
1660039626.12263,1358989.7808096,76
1660039626.12263,1358989.7808133,120
1660039626.12263,1358989.7808176,60
1660039626.12263,1358989.7808222,129
1660039626.12263,1358989.7808259,153
1660039626.12263,1358989.7808292,125
1660039626.12263,1358989.7808331,141
1660039626.12263,1358989.7808374,164
1660039626.12263,1358989.7808616,162
1660039626.12263,1358989.7808665,164
1660039626.12263,1358989.7808697,178
1660039626.12263,1358989.7808727,183
1660039626.12263,1358989.7808757,185
1660039626.12263,1358989.7808786,197
1660039626.12263,1358989.7808815,211
1660039626.12263,1358989.7808846,220
1660039626.12263,1358989.7808874,218
1660039626.12263,1358989.7808904,215
1660039626.12263,1358989.7808933,224
1660039626.12263,1358989.7808962,236
1660039626.12263,1358989.780899,229
1660039626.12263,1358989.780902,218
1660039626.12263,1358989.7809047,211
1660039626.12263,1358989.7809077,197
1660039626.12263,1358989.7809105,180
1660039626.12263,1358989.7809135,166
1660039626.12263,1358989.7809164,157
1660039626.12263,1358989.7809192,141
1660039626.12263,1358989.7809221,118
1660039626.12263,1358989.7809249,90
1660039626.12263,1358989.7809277,64
1660039626.12263,1358989.7809306,57
1660039626.12263,1358989.7809334,57
1660039626.12263,1358989.7809363,57
1660039626.12263,1358989.7809391,53
1660039626.12263,1358989.7809422,55
1660039626.12263,1358990.2193452,67
1660039626.1346,1358990.2193573,78
1660039626.1346,1358990.2193597,85
1660039626.1346,1358990.2193621,88
1660039626.1346,1358990.2193643,95
1660039626.1346,1358990.2193664,95
1660039626.1346,1358990.2193687,95
1660039626.1346,1358990.2193707,97
1660039626.1346,1358990.2193728,102
1660039626.1346,1358990.2193749,106
1660039626.1346,1358990.219377,104
1660039626.1346,1358990.219379,95
1660039626.1346,1358990.219381,88
1660039626.1346,1358990.2193831,90
1660039626.1346,1358990.2193864,102
1660039626.1346,1358990.2193931,102
1660039626.1346,1358990.2193973,97
1660039626.1346,1358990.2194037,81
1660039626.1346,1358990.219411,53
1660039626.1346,1358990.2194188,51
1660039626.1346,1358990.2194245,62
1660039626.1346,1358990.2194294,60
1660039626.1346,1358990.2194344,44
1660039626.1346,1358990.2194392,34
1660039626.1346,1358990.2194437,41
1660039626.66023,1358990.2194481,51
1660039626.66023,1358990.2194525,46
1660039626.66023,1358990.2194581,41
1660039626.66023,1358990.2194629,44
1660039626.66023,1358990.2194679,30
1660039626.66023,1358990.2194726,4
1660039626.66023,1358990.2194781,-6
1660039626.66023,1358990.2194845,2
1660039626.66023,1358990.2194893,13
1660039626.66023,1358990.2194941,32
1660039626.66023,1358990.2194986,46
1660039626.66023,1358990.219503,44
1660039626.66023,1358990.2195078,37
1660039626.66023,1358990.2195122,39
1660039626.66023,1358990.2195167,44
1660039626.66023,1358990.219521,44
1660039626.66023,1358990.2195255,46
1660039626.66023,1358990.2195298,48
1660039626.66023,1358990.2195342,46
1660039626.66023,1358990.2195386,41
1660039626.66023,1358990.2195433,44
1660039626.66023,1358990.2195476,53
1660039626.66023,1358990.2195521,81
1660039626.66023,1358990.2195571,183
1660039626.66023,1358990.2195615,368
1660039626.66023,1358990.2195661,494
1660039626.66023,1358990.2195708,215
1660039626.66023,1358990.2195756,-366
1660039626.66023,1358990.2195805,-454
1660039626.66023,1358990.219585,-25
1660039626.66023,1358990.2195896,125
1660039626.66023,1358990.2195982,37
1660039626.66023,1358990.2196044,99
1660039626.66023,1358990.2196099,150
1660039626.66023,1358990.2196141,99
1660039626.66023,1358990.2196179,85
1660039626.66023,1358990.219626,120
1660039626.66023,1358990.2196323,127
1660039626.66023,1358990.2196362,125
1660039626.66023,1358990.2196413,134
1660039626.66023,1358990.2196449,146
1660039626.66023,1358990.2196486,155
1660039626.66023,1358990.219652,166
1660039626.66023,1358990.2196555,173
1660039626.66023,1358990.2196593,178
1660039626.66023,1358990.2196655,192
1660039626.66023,1358990.2196694,204
1660039626.66023,1358990.2196747,208
1660039626.66023,1358990.7549393,213
1660039626.66023,1358990.7549574,215
1660039626.6712,1358990.7549606,204
1660039626.6712,1358990.754963,187
1660039626.6712,1358990.7549651,169
1660039626.6712,1358990.7549673,155
1660039626.6712,1358990.7549695,146
1660039626.6712,1358990.7549716,122
1660039626.6712,1358990.7549743,88
1660039626.6712,1358990.7549765,57
1660039626.6712,1358990.7549785,44
1660039626.6712,1358990.7549805,34
1660039626.6712,1358990.7549824,25
1660039626.6712,1358990.7549842,23
1660039626.6712,1358990.7549861,4
1660039626.6712,1358990.7549882,-20
1660039626.6712,1358990.7549901,-11
1660039626.6712,1358990.754992,6
1660039626.6712,1358990.754994,11
1660039626.6712,1358990.7549959,25
1660039626.6712,1358990.7549978,37
1660039626.6712,1358990.7549997,34
1660039626.6712,1358990.7550023,37
1660039626.6712,1358990.7550102,44
1660039626.6712,1358990.755018,46
1660039626.6712,1358990.7550213,48
1660039627.28577,1358990.7550243,57
1660039627.28577,1358990.7550272,60
1660039627.28577,1358990.7550302,53
1660039627.28577,1358990.7550336,53
1660039627.28577,1358990.7550368,62
1660039627.28577,1358990.7550411,67
1660039627.28577,1358990.7550452,71
1660039627.28577,1358990.7550491,71
1660039627.28577,1358990.7550524,67
1660039627.28577,1358990.7550603,67
1660039627.28577,1358990.7550635,62
1660039627.28577,1358990.7550667,53
1660039627.28577,1358990.7550699,48
1660039627.28577,1358990.755073,48
1660039627.28577,1358990.7550762,39
1660039627.28577,1358990.7550794,34
1660039627.28577,1358990.7550827,46
1660039627.28577,1358990.7550862,51
1660039627.28577,1358990.7550897,48
1660039627.28577,1358990.7550939,46
1660039627.28577,1358990.7550991,46
1660039627.28577,1358990.7551024,51
1660039627.28577,1358990.7551054,53
1660039627.28577,1358990.7551086,55
1660039627.28577,1358990.7551117,53
1660039627.28577,1358990.7551149,39
1660039627.28577,1358990.7551195,20
1660039627.28577,1358990.7551235,20
1660039627.28577,1358990.7551269,46
1660039627.28577,1358990.7551321,60
1660039627.28577,1358990.7551365,62
1660039627.28577,1358990.7551413,69
1660039627.28577,1358990.7551448,64
1660039627.28577,1358990.7551498,53
1660039627.28577,1358990.7551553,62
1660039627.28577,1358990.7551625,69
1660039627.28577,1358990.7551674,69
1660039627.28577,1358990.7551721,76
1660039627.28577,1358990.7551755,76
1660039627.28577,1358990.7551784,69
1660039627.28577,1358990.7551814,69
1660039627.28577,1358990.7551843,78
1660039627.28577,1358990.7551871,136
1660039627.28577,1358990.7551899,287
1660039627.28577,1358990.7551929,470
1660039627.28577,1358990.7551957,442
1660039627.28577,1358990.7551986,-30
1660039627.28577,1358991.3904033,-470
1660039627.28577,1358991.3904204,-245
1660039627.28577,1358991.3904258,122
1660039627.29674,1358991.3904321,102
1660039627.29674,1358991.3904369,46
1660039627.29674,1358991.3904429,104
1660039627.29674,1358991.3904476,106
1660039627.29674,1358991.3904541,92
1660039627.29674,1358991.3904586,120
1660039627.29674,1358991.3904648,132
1660039627.29674,1358991.3904695,120
1660039627.29674,1358991.3904756,109
1660039627.29674,1358991.3904797,106
1660039627.29674,1358991.3904836,118
1660039627.29674,1358991.3904874,143
1660039627.29674,1358991.3904912,153
1660039627.29674,1358991.3904949,148
1660039627.29674,1358991.3905004,157
1660039627.29674,1358991.3905043,176
1660039627.29674,1358991.3905124,180
1660039627.29674,1358991.3905272,185
1660039627.29674,1358991.3905371,190
1660039627.29674,1358991.390542,192
1660039627.29674,1358991.390549,192
1660039627.29674,1358991.3905563,180
1660039627.29674,1358991.3905629,164
1660039627.29674,1358991.3905701,146
1660039627.82798,1358991.3905758,129
1660039627.82798,1358991.3905799,113

1660039627.82798,1358991.3905844,92
1660039627.82798,1358991.3905886,76
1660039627.82798,1358991.390592,67
1660039627.82798,1358991.3905952,57
1660039627.82798,1358991.3905986,46
1660039627.82798,1358991.3906016,48
1660039627.82798,1358991.3906056,53
1660039627.82798,1358991.3906111,51
1660039627.82798,1358991.3906159,60
1660039627.82798,1358991.3906192,69
1660039627.82798,1358991.3906227,67
1660039627.82798,1358991.3906263,76
1660039627.82798,1358991.3906299,95
1660039627.82798,1358991.3906354,104
1660039627.82798,1358991.3906419,97
1660039627.82798,1358991.390648,85
1660039627.82798,1358991.3906533,85
1660039627.82798,1358991.3906599,90
1660039627.82798,1358991.390666,85
1660039627.82798,1358991.3906726,85
1660039627.82798,1358991.3906794,90
1660039627.82798,1358991.3906883,92
1660039627.82798,1358991.3906934,90
1660039627.82798,1358991.3907026,95
1660039627.82798,1358991.390709,102
1660039627.82798,1358991.3907185,99
1660039627.82798,1358991.3907271,99
1660039627.82798,1358991.3907401,104
1660039627.82798,1358991.3907538,92
1660039627.82798,1358991.390766,69
1660039627.82798,1358991.3907807,67
1660039627.82798,1358991.3907936,69
1660039627.82798,1358991.3908061,60
1660039627.82798,1358991.3908167,55
1660039627.82798,1358991.3908237,55
1660039627.82798,1358991.3908285,53
1660039627.82798,1358991.3908344,57
1660039627.82798,1358991.3908383,57
1660039627.82798,1358991.3908465,51
1660039627.82798,1358991.3908597,55
1660039627.82798,1358991.3908707,60
1660039627.82798,1358991.3908806,55
1660039627.82798,1358991.3908889,57
1660039627.82798,1358991.3909004,64
1660039627.82798,1358991.9250144,69
1660039627.82798,1358991.9250263,69
1660039627.82798,1358991.9250308,60
1660039627.82798,1358991.925036,60
1660039627.83895,1358991.9250386,74
1660039627.83895,1358991.9250411,71
1660039627.83895,1358991.9250436,67
1660039627.83895,1358991.925046,78
1660039627.83895,1358991.9250482,85
1660039627.83895,1358991.9250503,90
1660039627.83895,1358991.9250524,99
1660039627.83895,1358991.9250545,92
1660039627.83895,1358991.9250567,88
1660039627.83895,1358991.9250587,95
1660039627.83895,1358991.9250608,76
1660039627.83895,1358991.925063,62
1660039627.83895,1358991.925065,74
1660039627.83895,1358991.9250671,76
1660039627.83895,1358991.9250692,67
1660039627.83895,1358991.9250712,71
1660039627.83895,1358991.9250733,67
1660039627.83895,1358991.9250753,90
1660039627.83895,1358991.9250774,224
1660039627.83895,1358991.9250797,417
1660039627.83895,1358991.925082,436
1660039627.83895,1358991.9250843,25
1660039627.83895,1358991.9250867,-459
1660039627.83895,1358991.9250891,-338
1660039628.41342,1358991.9250914,41
1660039628.41342,1358991.9250936,81
1660039628.41342,1358991.9250957,30
1660039628.41342,1358991.9250978,97
1660039628.41342,1358991.9251012,113
1660039628.41342,1358991.9251031,83
1660039628.41342,1358991.9251051,102
1660039628.41342,1358991.9251072,127
1660039628.41342,1358991.9251093,118
1660039628.41342,1358991.9251113,99
1660039628.41342,1358991.9251134,109
1660039628.41342,1358991.9251154,125
1660039628.41342,1358991.9251176,129
1660039628.41342,1358991.9251202,141
1660039628.41342,1358991.9251224,157
1660039628.41342,1358991.9251246,164
1660039628.41342,1358991.9251267,173
1660039628.41342,1358991.9251288,185
1660039628.41342,1358991.9251309,190
1660039628.41342,1358991.9251335,194
1660039628.41342,1358991.9251419,204
1660039628.41342,1358991.9251522,197
1660039628.41342,1358991.9251568,176
1660039628.41342,1358991.9251632,164
1660039628.41342,1358991.9251679,150
1660039628.41342,1358991.9251744,132
1660039628.41342,1358991.9251809,120
1660039628.41342,1358991.9251855,111
1660039628.41342,1358991.9251916,92
1660039628.41342,1358991.9251961,78
1660039628.41342,1358991.9252026,69
1660039628.41342,1358991.9252081,55
1660039628.41342,1358991.9252156,51
1660039628.41342,1358991.9252203,53
1660039628.41342,1358991.9252267,51
1660039628.41342,1358991.9252315,60
1660039628.41342,1358991.925236,71
1660039628.41342,1358991.9252398,69
1660039628.41342,1358991.9252432,74
1660039628.41342,1358991.9252487,92
1660039628.41342,1358991.9252525,99
1660039628.41342,1358991.925257,97
1660039628.41342,1358991.9252615,102
1660039628.41342,1358991.9252662,102
1660039628.41342,1358991.9252721,99
1660039628.41342,1358992.510072,104
1660039628.41342,1358992.5100851,109
1660039628.41342,1358992.5100883,109
1660039628.41342,1358992.5100962,104
1660039628.41342,1358992.5101052,109
1660039628.4244,1358992.5101126,118
1660039628.4244,1358992.5101151,115
1660039628.4244,1358992.5101173,111
1660039628.4244,1358992.5101194,106
1660039628.4244,1358992.5101214,102
1660039628.4244,1358992.5101235,85
1660039628.4244,1358992.5101256,60
1660039628.4244,1358992.5101277,46
1660039628.4244,1358992.5101298,46
1660039628.4244,1358992.5101319,41
1660039628.4244,1358992.5101339,37
1660039628.4244,1358992.510136,39
1660039628.4244,1358992.510138,27
1660039628.4244,1358992.5101402,9
1660039628.4244,1358992.5101423,11
1660039628.4244,1358992.5101444,16
1660039628.4244,1358992.5101464,13
1660039628.4244,1358992.5101485,18
1660039628.4244,1358992.5101506,27
1660039628.4244,1358992.5101526,25
1660039628.4244,1358992.5101547,25
1660039628.4244,1358992.5101569,34
1660039628.4244,1358992.5101589,37
1660039628.4244,1358992.510161,32
1660039628.94966,1358992.5101631,23
1660039628.94966,1358992.5101651,13
1660039628.94966,1358992.510167,9
1660039628.94966,1358992.5101689,23
1660039628.94966,1358992.5101709,44
1660039628.94966,1358992.5101728,51
1660039628.94966,1358992.5101747,57
1660039628.94966,1358992.5101766,69
1660039628.94966,1358992.5101785,67
1660039628.94966,1358992.5101804,62
1660039628.94966,1358992.5101824,69
1660039628.94966,1358992.5101843,71
1660039628.94966,1358992.5101864,64
1660039628.94966,1358992.5101884,64
1660039628.94966,1358992.5101905,64
1660039628.94966,1358992.5101925,67
1660039628.94966,1358992.5101944,76
1660039628.94966,1358992.5101964,95
1660039628.94966,1358992.5102003,173
1660039628.94966,1358992.5102024,338
1660039628.94966,1358992.5102071,512
1660039628.94966,1358992.5102092,477
1660039628.94966,1358992.5102117,-16
1660039628.94966,1358992.5102189,-482
1660039628.94966,1358992.5102326,-238
1660039628.94966,1358992.5102396,148
1660039628.94966,1358992.5102422,115
1660039628.94966,1358992.5102444,74
1660039628.94966,1358992.5102466,162
1660039628.94966,1358992.5102487,164
1660039628.94966,1358992.5102509,143
1660039628.94966,1358992.510253,176
1660039628.94966,1358992.5102551,185
1660039628.94966,1358992.5102584,169
1660039628.94966,1358992.5102713,180
1660039628.94966,1358992.5102774,199
1660039628.94966,1358992.5102797,201
1660039628.94966,1358992.5102818,206
1660039628.94966,1358992.5102839,213
1660039628.94966,1358992.5102865,220
1660039628.94966,1358992.5102968,227
1660039628.94966,1358992.5103058,241
1660039628.94966,1358992.5103084,252
1660039628.94966,1358992.5103106,255
1660039628.94966,1358993.0481014,245
1660039628.94966,1358993.0481229,236
1660039628.94966,1358993.0481341,236
1660039628.94966,1358993.0481464,229
1660039628.94966,1358993.0481577,208
1660039628.94966,1358993.0481614,187
1660039628.96063,1358993.0481645,173
1660039628.96063,1358993.048169,148
1660039628.96063,1358993.0481758,109
1660039628.96063,1358993.0481842,85
1660039628.96063,1358993.0481921,76
1660039628.96063,1358993.0481998,60
1660039628.96063,1358993.048204,44
1660039628.96063,1358993.0482115,34
1660039628.96063,1358993.0482167,18
1660039628.96063,1358993.0482254,4
1660039628.96063,1358993.0482329,16
1660039628.96063,1358993.0482376,27
1660039628.96063,1358993.0482454,30
1660039628.96063,1358993.0482527,41
1660039628.96063,1358993.0482578,53
1660039628.96063,1358993.0482668,46
1660039628.96063,1358993.0482715,37
1660039628.96063,1358993.0482851,46
1660039628.96063,1358993.0482955,51
1660039628.96063,1358993.048301,46
1660039628.96063,1358993.048314,53
1660039628.96063,1358993.0483242,55
1660039628.96063,1358993.0483345,51
1660039628.96063,1358993.0483454,55
1660039629.53657,1358993.0483533,64
1660039629.53657,1358993.0483632,62
1660039629.53657,1358993.0484697,48
1660039629.53657,1358993.0484817,46
1660039629.53657,1358993.0484898,60
1660039629.53657,1358993.0484938,67
1660039629.53657,1358993.0484974,55
1660039629.53657,1358993.048501,48
1660039629.53657,1358993.0485047,48
1660039629.53657,1358993.0485081,44
1660039629.53657,1358993.0485114,41
1660039629.53657,1358993.048515,44
1660039629.53657,1358993.0485185,44
1660039629.53657,1358993.0485239,41
1660039629.53657,1358993.0485288,39
1660039629.53657,1358993.0485341,37
1660039629.53657,1358993.0485374,37
1660039629.53657,1358993.0485425,41
1660039629.53657,1358993.0485515,48
1660039629.53657,1358993.0485586,60
1660039629.53657,1358993.0485676,76
1660039629.53657,1358993.0485767,78
1660039629.53657,1358993.0485825,67
1660039629.53657,1358993.0485881,64
1660039629.53657,1358993.0485919,69
1660039629.53657,1358993.0485959,74
1660039629.53657,1358993.0486013,76
1660039629.53657,1358993.0486059,83
1660039629.53657,1358993.0486099,85
1660039629.53657,1358993.0486166,83
1660039629.53657,1358993.0486222,85
1660039629.53657,1358993.0486278,106
1660039629.53657,1358993.0486313,185
1660039629.53657,1358993.048637,343
1660039629.53657,1358993.0486457,519
1660039629.53657,1358993.0486539,456
1660039629.53657,1358993.0486608,-57
1660039629.53657,1358993.0486695,-466
1660039629.53657,1358993.0486775,-183
1660039629.53657,1358993.0486816,160
1660039629.53657,1358993.0486851,102
1660039629.53657,1358993.0486885,71
1660039629.53657,1358993.0486939,157
1660039629.53657,1358993.6320708,153
1660039629.53657,1358993.6320838,132
1660039629.53657,1358993.632088,166
1660039629.53657,1358993.6320903,178
1660039629.53657,1358993.6320924,169
1660039629.53657,1358993.6320945,176
1660039629.53657,1358993.6320966,185
1660039629.54655,1358993.6320987,194
1660039629.54655,1358993.6321008,206
1660039629.54655,1358993.6321029,218
1660039629.54655,1358993.6321049,218
1660039629.54655,1358993.632107,206
1660039629.54655,1358993.6321091,199
1660039629.54655,1358993.6321126,211
1660039629.54655,1358993.6321233,215
1660039629.54655,1358993.6321296,220
1660039629.54655,1358993.6321368,218
1660039629.54655,1358993.632146,185
1660039629.54655,1358993.6321529,155
1660039629.54655,1358993.6321559,160
1660039629.54655,1358993.6321582,155
1660039629.54655,1358993.6321604,132
1660039629.54655,1358993.6321625,113
1660039629.54655,1358993.6321646,81
1660039629.54655,1358993.6321667,44
1660039629.54655,1358993.6321688,30
1660039629.54655,1358993.632171,30
1660039629.54655,1358993.6321731,27
1660039629.54655,1358993.6321752,18
1660039629.54655,1358993.6321772,11
1660039629.54655,1358993.6321793,18
1660039630.11241,1358993.6321814,30
1660039630.11241,1358993.6321835,30
1660039630.11241,1358993.6321854,39
1660039630.11241,1358993.6321875,55
1660039630.11241,1358993.6321894,62
1660039630.11241,1358993.6321913,67
1660039630.11241,1358993.6321933,78
1660039630.11241,1358993.6321954,83
1660039630.11241,1358993.6321974,85
1660039630.11241,1358993.6321993,90
1660039630.11241,1358993.6322013,88
1660039630.11241,1358993.6322032,92
1660039630.11241,1358993.6322052,92
1660039630.11241,1358993.6322071,95
1660039630.11241,1358993.6322091,106
1660039630.11241,1358993.6322282,109
1660039630.11241,1358993.6322343,104
1660039630.11241,1358993.6322377,106
1660039630.11241,1358993.632241,113
1660039630.11241,1358993.6322441,118
1660039630.11241,1358993.6322486,113
1660039630.11241,1358993.6322552,104
1660039630.11241,1358993.6322653,99
1660039630.11241,1358993.6322689,99
1660039630.11241,1358993.6322739,88
1660039630.11241,1358993.6322773,78
1660039630.11241,1358993.632282,74
1660039630.11241,1358993.6322855,69
1660039630.11241,1358993.6322906,69
1660039630.11241,1358993.6322943,81
1660039630.11241,1358993.6322992,88
1660039630.11241,1358993.6323026,92
1660039630.11241,1358993.632309,102
1660039630.11241,1358993.6323155,106
1660039630.11241,1358993.6323233,97
1660039630.11241,1358993.6323353,90
1660039630.11241,1358993.6323493,97
1660039630.11241,1358993.6323618,102
1660039630.11241,1358993.6323723,102
1660039630.11241,1358993.6323827,104
1660039630.11241,1358993.6323909,109
1660039630.11241,1358993.6323934,113
1660039630.11241,1358994.2170509,115
1660039630.11241,1358994.2170672,136
1660039630.11241,1358994.217078,236
1660039630.11241,1358994.217087,429
1660039630.11241,1358994.2170932,552
1660039630.11241,1358994.2171029,262
1660039630.11241,1358994.2171093,-327
1660039630.11241,1358994.2171159,-429
1660039630.12338,1358994.2171295,-27
1660039630.12338,1358994.2171423,111
1660039630.12338,1358994.2171553,27
1660039630.12338,1358994.21717,78
1660039630.12338,1358994.2171976,132
1660039630.12338,1358994.2172131,106
1660039630.12338,1358994.2172175,109
1660039630.12338,1358994.2172208,132
1660039630.12338,1358994.2172258,127
1660039630.12338,1358994.2172338,127
1660039630.12338,1358994.2172394,148
1660039630.12338,1358994.2172466,157
1660039630.12338,1358994.2172512,143
1660039630.12338,1358994.2172552,132
1660039630.12338,1358994.2172609,143
1660039630.12338,1358994.2172697,162
1660039630.12338,1358994.2172781,173
1660039630.12338,1358994.217285,183
1660039630.12338,1358994.2172937,187
1660039630.12338,1358994.2173009,180
1660039630.12338,1358994.2173097,178
1660039630.12338,1358994.2173163,183
1660039630.12338,1358994.2173251,185
1660039630.12338,1358994.2173336,176
1660039630.64915,1358994.2173407,162
1660039630.64915,1358994.2173476,146
1660039630.64915,1358994.217353,129
1660039630.64915,1358994.217359,111
1660039630.64915,1358994.2173652,92
1660039630.64915,1358994.217371,78
1660039630.64915,1358994.2173774,69
1660039630.64915,1358994.2173834,55
1660039630.64915,1358994.2173895,41
1660039630.64915,1358994.2173956,44
1660039630.64915,1358994.2174019,51
1660039630.64915,1358994.2174083,53
1660039630.64915,1358994.2174166,60
1660039630.64915,1358994.2174227,69
1660039630.64915,1358994.2174313,69
1660039630.64915,1358994.2174376,69
1660039630.64915,1358994.2174451,81
1660039630.64915,1358994.2174513,95
1660039630.64915,1358994.2174602,102
1660039630.64915,1358994.2174661,104
1660039630.64915,1358994.2174729,102
1660039630.64915,1358994.2174954,97
1660039630.64915,1358994.2175045,104
1660039630.64915,1358994.2175126,111
1660039630.64915,1358994.21752,109
1660039630.64915,1358994.2175296,113
1660039630.64915,1358994.2175395,115
1660039630.64915,1358994.2175502,109
1660039630.64915,1358994.2175592,106
1660039630.64915,1358994.2175638,118
1660039630.64915,1358994.2175693,120
1660039630.64915,1358994.2175786,104
1660039630.64915,1358994.2175861,90
1660039630.64915,1358994.2175921,95
1660039630.64915,1358994.2176,104
1660039630.64915,1358994.2176051,106
1660039630.64915,1358994.2176141,111
1660039630.64915,1358994.2176187,109
1660039630.64915,1358994.2176319,92
1660039630.64915,1358994.2176403,78
1660039630.64915,1358994.217654,71
1660039630.64915,1358994.7535032,67
1660039630.64915,1358994.7535238,71
1660039630.64915,1358994.753533,74
1660039630.64915,1358994.7535358,71
1660039630.64915,1358994.7535379,71
1660039630.64915,1358994.7535401,69
1660039630.64915,1358994.7535422,71
1660039630.64915,1358994.7535444,143
1660039630.64915,1358994.7535465,315
1660039630.66012,1358994.7535486,491
1660039630.66012,1358994.7535507,391
1660039630.66012,1358994.753553,-162
1660039630.66012,1358994.7535552,-533
1660039630.66012,1358994.7535573,-192
1660039630.66012,1358994.7535594,129
1660039630.66012,1358994.7535615,53
1660039630.66012,1358994.7535636,41
1660039630.66012,1358994.7535657,125
1660039630.66012,1358994.7535679,109
1660039630.66012,1358994.7535699,102
1660039630.66012,1358994.753572,139
1660039630.66012,1358994.7535741,139
1660039630.66012,1358994.7535762,125
1660039630.66012,1358994.7535783,125
1660039630.66012,1358994.7535803,127
1660039630.66012,1358994.7535831,134
1660039630.66012,1358994.7535852,148
1660039630.66012,1358994.7535874,148
1660039630.66012,1358994.7535894,157
1660039630.66012,1358994.7535915,180
1660039630.66012,1358994.7535936,180
1660039630.66012,1358994.7535956,183
1660039630.66012,1358994.7535977,208
1660039631.18915,1358994.7535998,218
1660039631.18915,1358994.7536018,206
1660039631.18915,1358994.7536044,201
1660039631.18915,1358994.7536068,194
1660039631.18915,1358994.7536087,183
1660039631.18915,1358994.7536108,166
1660039631.18915,1358994.7536128,146
1660039631.18915,1358994.7536148,125
1660039631.18915,1358994.7536168,104
1660039631.18915,1358994.7536187,81
1660039631.18915,1358994.7536206,64
1660039631.18915,1358994.7536226,60
1660039631.18915,1358994.7536247,60
1660039631.18915,1358994.7536266,53
1660039631.18915,1358994.7536285,53
1660039631.18915,1358994.7536338,60
1660039631.18915,1358994.7536451,60
1660039631.18915,1358994.7536508,57
1660039631.18915,1358994.7536532,67
1660039631.18915,1358994.7536554,76
1660039631.18915,1358994.7536574,88
1660039631.18915,1358994.7536644,88
1660039631.18915,1358994.7536795,92
1660039631.18915,1358994.7536924,102
1660039631.18915,1358994.7537056,95
1660039631.18915,1358994.75372,78
1660039631.18915,1358994.7537331,85
1660039631.18915,1358994.7537466,95
1660039631.18915,1358994.7537596,85
1660039631.18915,1358994.7537729,76
1660039631.18915,1358994.753786,76
1660039631.18915,1358994.7537994,64
1660039631.18915,1358994.7538137,53
1660039631.18915,1358994.75382,62
1660039631.18915,1358994.753823,74
1660039631.18915,1358994.7538258,64
1660039631.18915,1358994.7538285,67
1660039631.18915,1358994.7538392,71
1660039631.18915,1358994.7538524,48
1660039631.18915,1358994.7538658,27
1660039631.18915,1358995.2888704,30
1660039631.18915,1358995.2888928,37
1660039631.18915,1358995.2889108,34
1660039631.18915,1358995.2889254,34
1660039631.18915,1358995.2889317,32
1660039631.18915,1358995.2889383,25
1660039631.18915,1358995.2889513,30
1660039631.18915,1358995.2889633,51
1660039631.18915,1358995.2889712,122
1660039631.18915,1358995.2889753,285
1660039631.20012,1358995.288988,463
1660039631.20012,1358995.2889992,352
1660039631.20012,1358995.2890066,-229
1660039631.20012,1358995.2890111,-577
1660039631.20012,1358995.2890187,-211
1660039631.20012,1358995.2890226,97
1660039631.20012,1358995.2890291,27
1660039631.20012,1358995.289035,44
1660039631.20012,1358995.2890383,127
1660039631.20012,1358995.2890413,106
1660039631.20012,1358995.2890443,78
1660039631.20012,1358995.2890474,83
1660039631.20012,1358995.2890504,88
1660039631.20012,1358995.2890535,92
1660039631.20012,1358995.2890564,106
1660039631.20012,1358995.2890595,122
1660039631.20012,1358995.2890624,115
1660039631.20012,1358995.2890654,99
1660039631.20012,1358995.2890684,111
1660039631.20012,1358995.2890714,136
1660039631.20012,1358995.2890744,143
1660039631.20012,1358995.2890774,150
1660039631.20012,1358995.2890804,157
1660039631.20012,1358995.2890834,164
1660039631.72474,1358995.2890932,162
1660039631.72474,1358995.2890961,155
1660039631.72474,1358995.2890984,148
1660039631.72474,1358995.2891004,134
1660039631.72474,1358995.2891024,120
1660039631.72474,1358995.2891044,111
1660039631.72474,1358995.2891064,95
1660039631.72474,1358995.2891084,67
1660039631.72474,1358995.2891103,41
1660039631.72474,1358995.2891123,23
1660039631.72474,1358995.2891144,-4
1660039631.72474,1358995.2891164,-30
1660039631.72474,1358995.2891183,-18
1660039631.72474,1358995.2891203,-9
1660039631.72474,1358995.2891222,-32
1660039631.72474,1358995.2891243,-34
1660039631.72474,1358995.2891263,-9
1660039631.72474,1358995.2891332,-11
1660039631.72474,1358995.2891431,-18
1660039631.72474,1358995.289148,-4
1660039631.72474,1358995.2891577,0
1660039631.72474,1358995.2891654,4
1660039631.72474,1358995.2891783,13
1660039631.72474,1358995.2891914,-2
1660039631.72474,1358995.2891998,-30
1660039631.72474,1358995.289204,-30
1660039631.72474,1358995.2892063,-6
1660039631.72474,1358995.2892084,-6
1660039631.72474,1358995.2892105,-11
1660039631.72474,1358995.2892126,4
1660039631.72474,1358995.2892147,9
1660039631.72474,1358995.2892169,4
1660039631.72474,1358995.2892189,11
1660039631.72474,1358995.289221,9
1660039631.72474,1358995.2892231,30
1660039631.72474,1358995.2892252,55
1660039631.72474,1358995.2892272,39
1660039631.72474,1358995.2892293,20
1660039631.72474,1358995.2892322,32
1660039631.72474,1358995.8255092,23
1660039631.72474,1358995.8255332,20
1660039631.72474,1358995.8255458,44
1660039631.72474,1358995.82555,53
1660039631.72474,1358995.8255536,41
1660039631.72474,1358995.8255558,34
1660039631.72474,1358995.8255579,37
1660039631.72474,1358995.82556,67
1660039631.72474,1358995.8255634,162
1660039631.72474,1358995.8255746,317
1660039631.72474,1358995.8255822,382
1660039631.73671,1358995.8255882,23
1660039631.73671,1358995.825601,-507
1660039631.73671,1358995.8256141,-429
1660039631.73671,1358995.8256228,-4
1660039631.73671,1358995.8256272,67
1660039631.73671,1358995.8256293,13
1660039631.73671,1358995.8256315,64
1660039631.73671,1358995.8256337,67
1660039631.73671,1358995.8256358,27
1660039631.73671,1358995.8256387,27
1660039631.73671,1358995.8256409,57
1660039631.73671,1358995.8256432,78
1660039631.73671,1358995.8256453,85
1660039631.73671,1358995.8256475,85
1660039631.73671,1358995.8256497,83
1660039631.73671,1358995.8256527,90
1660039631.73671,1358995.8256563,113
1660039631.73671,1358995.8256584,141
1660039631.73671,1358995.8256616,153
1660039631.73671,1358995.8256638,157
1660039631.73671,1358995.8256659,169
1660039631.73671,1358995.825668,190
1660039631.73671,1358995.8256702,197
1660039631.73671,1358995.8256723,180
1660039632.31034,1358995.8256744,160
1660039632.31034,1358995.8256765,150
1660039632.31034,1358995.8256785,155
1660039632.31034,1358995.8256806,155
1660039632.31034,1358995.8256826,155
1660039632.31034,1358995.8256846,139
1660039632.31034,1358995.8256866,88
1660039632.31034,1358995.8256886,55
1660039632.31034,1358995.8256905,41
1660039632.31034,1358995.8256925,37
1660039632.31034,1358995.8256945,48
1660039632.31034,1358995.8256965,41
1660039632.31034,1358995.8256984,18
1660039632.31034,1358995.8257003,18
1660039632.31034,1358995.8257023,32
1660039632.31034,1358995.8257043,37
1660039632.31034,1358995.8257063,27
1660039632.31034,1358995.8257083,23
1660039632.31034,1358995.8257107,41
1660039632.31034,1358995.8257128,57
1660039632.31034,1358995.8257152,57
1660039632.31034,1358995.8257173,62
1660039632.31034,1358995.8257194,76
1660039632.31034,1358995.8257215,81
1660039632.31034,1358995.8257236,88
1660039632.31034,1358995.8257257,102
1660039632.31034,1358995.8257278,106
1660039632.31034,1358995.8257299,113
1660039632.31034,1358995.825732,125
1660039632.31034,1358995.8257341,129
1660039632.31034,1358995.8257362,134
1660039632.31034,1358995.8257384,162
1660039632.31034,1358995.8257405,190
1660039632.31034,1358995.8257428,173
1660039632.31034,1358995.8257449,141
1660039632.31034,1358995.825747,143
1660039632.31034,1358995.8257492,153
1660039632.31034,1358995.8257514,139
1660039632.31034,1358996.4106157,129
1660039632.31034,1358996.4106311,136
1660039632.31034,1358996.4106355,143
1660039632.31034,1358996.4106407,132
1660039632.31034,1358996.4106448,115
1660039632.31034,1358996.4106485,122
1660039632.31034,1358996.4106534,157
1660039632.31034,1358996.4106569,238
1660039632.31034,1358996.4106606,357
1660039632.31034,1358996.4106657,398
1660039632.31034,1358996.4106691,88
1660039632.31034,1358996.4106727,-361
1660039632.32131,1358996.4106796,-292
1660039632.32131,1358996.4106928,51
1660039632.32131,1358996.4107031,92
1660039632.32131,1358996.410713,51
1660039632.32131,1358996.410723,122
1660039632.32131,1358996.4107343,141
1660039632.32131,1358996.4107431,120
1660039632.32131,1358996.4107518,148
1660039632.32131,1358996.4107578,157
1660039632.32131,1358996.41076,143
1660039632.32131,1358996.4107623,162
1660039632.32131,1358996.4107644,185
1660039632.32131,1358996.4107664,178
1660039632.32131,1358996.4107685,187
1660039632.32131,1358996.4107705,213
1660039632.32131,1358996.4107726,222
1660039632.32131,1358996.4107746,238
1660039632.32131,1358996.4107766,255
1660039632.32131,1358996.4107788,262
1660039632.32131,1358996.4107808,282
1660039632.32131,1358996.4107828,294
1660039632.32131,1358996.4107848,285
1660039632.32131,1358996.4107869,273
1660039632.32131,1358996.410789,271
1660039632.84857,1358996.4107911,280
1660039632.84857,1358996.4107931,278
1660039632.84857,1358996.4107951,238
1660039632.84857,1358996.4107969,199
1660039632.84857,1358996.4107988,194
1660039632.84857,1358996.4108008,176
1660039632.84857,1358996.4108027,115
1660039632.84857,1358996.4108046,85
1660039632.84857,1358996.4108065,102
1660039632.84857,1358996.4108103,92
1660039632.84857,1358996.4108185,67
1660039632.84857,1358996.4108249,67
1660039632.84857,1358996.4108309,76
1660039632.84857,1358996.4108378,85
1660039632.84857,1358996.410846,95
1660039632.84857,1358996.4108547,92
1660039632.84857,1358996.4108604,97
1660039632.84857,1358996.4108633,106
1660039632.84857,1358996.4108655,102
1660039632.84857,1358996.4108675,95
1660039632.84857,1358996.4108696,97
1660039632.84857,1358996.4108717,85
1660039632.84857,1358996.4108739,83
1660039632.84857,1358996.4108759,97
1660039632.84857,1358996.4108781,88
1660039632.84857,1358996.4108801,76
1660039632.84857,1358996.4108822,83
1660039632.84857,1358996.4108843,78
1660039632.84857,1358996.4108863,62
1660039632.84857,1358996.4108884,64
1660039632.84857,1358996.4108904,85
1660039632.84857,1358996.4108925,99
1660039632.84857,1358996.4108945,99
1660039632.84857,1358996.4108966,90
1660039632.84857,1358996.4108986,74
1660039632.84857,1358996.4109007,67
1660039632.84857,1358996.4109028,60
1660039632.84857,1358996.9462868,32
1660039632.84857,1358996.946299,6
1660039632.84857,1358996.9463025,13
1660039632.84857,1358996.9463074,37
1660039632.84857,1358996.9463118,46
1660039632.84857,1358996.9463144,60
1660039632.84857,1358996.9463169,83
1660039632.84857,1358996.9463193,139
1660039632.84857,1358996.9463218,271
1660039632.84857,1358996.9463243,426
1660039632.84857,1358996.9463267,315
1660039632.84857,1358996.9463291,-238
1660039632.84857,1358996.9463315,-572
1660039632.85955,1358996.9463339,-231
1660039632.85955,1358996.9463363,83
1660039632.85955,1358996.9463386,51
1660039632.85955,1358996.946341,39
1660039632.85955,1358996.9463434,60
1660039632.85955,1358996.9463477,34
1660039632.85955,1358996.9463513,57
1660039632.85955,1358996.9463635,92
1660039632.85955,1358996.9463724,83
1660039632.85955,1358996.9463813,88
1660039632.85955,1358996.9463863,97
1660039632.85955,1358996.9463884,74
1660039632.85955,1358996.9463922,81
1660039632.85955,1358996.9463943,136
1660039632.85955,1358996.9463965,176
1660039632.85955,1358996.9463985,162
1660039632.85955,1358996.9464004,148
1660039632.85955,1358996.9464025,153
1660039632.85955,1358996.9464046,162
1660039632.85955,1358996.9464067,183
1660039632.85955,1358996.9464088,192
1660039632.85955,1358996.9464108,157
1660039632.85955,1358996.9464128,134
1660039632.85955,1358996.9464149,157
1660039633.38177,1358996.946417,164
1660039633.38177,1358996.946419,153
1660039633.38177,1358996.9464209,157
1660039633.38177,1358996.9464228,150
1660039633.38177,1358996.9464248,125
1660039633.38177,1358996.9464267,104
1660039633.38177,1358996.9464286,85
1660039633.38177,1358996.9464336,76
1660039633.38177,1358996.9464355,78
1660039633.38177,1358996.9464374,81
1660039633.38177,1358996.9464393,81
1660039633.38177,1358996.9464412,85
1660039633.38177,1358996.9464431,95
1660039633.38177,1358996.946445,90
1660039633.38177,1358996.9464505,76
1660039633.38177,1358996.9464608,88
1660039633.38177,1358996.946467,111
1660039633.38177,1358996.9464712,127
1660039633.38177,1358996.9464734,132
1660039633.38177,1358996.9464755,127
1660039633.38177,1358996.9464776,127
1660039633.38177,1358996.9464797,118
1660039633.38177,1358996.9464818,109
1660039633.38177,1358996.946484,111
1660039633.38177,1358996.946486,113
1660039633.38177,1358996.9464881,118
1660039633.38177,1358996.9464902,129
1660039633.38177,1358996.9464923,132
1660039633.38177,1358996.9464944,122
1660039633.38177,1358996.9464965,120
1660039633.38177,1358996.9464986,106
1660039633.38177,1358996.9465006,102
1660039633.38177,1358996.9465027,111
1660039633.38177,1358996.9465048,109
1660039633.38177,1358996.9465072,111
1660039633.38177,1358996.9465093,109
1660039633.38177,1358997.483994,99
1660039633.38177,1358997.4840093,97
1660039633.38177,1358997.4840244,88
1660039633.38177,1358997.4840318,81
1660039633.38177,1358997.4840403,95
1660039633.38177,1358997.4840473,104
1660039633.38177,1358997.4840561,99
1660039633.38177,1358997.4840626,146
1660039633.38177,1358997.484069,273
1660039633.38177,1358997.4840764,454
1660039633.38177,1358997.4840866,398
1660039633.38177,1358997.4840921,-136
1660039633.38177,1358997.4840994,-498
1660039633.38177,1358997.4841031,-183
1660039633.39274,1358997.4841171,92
1660039633.39274,1358997.4841304,9
1660039633.39274,1358997.4841392,13
1660039633.39274,1358997.4841425,97
1660039633.39274,1358997.4841451,81
1660039633.39274,1358997.4841531,78
1660039633.39274,1358997.484162,115
1660039633.39274,1358997.4841669,104
1660039633.39274,1358997.4841715,95
1660039633.39274,1358997.4841774,120
1660039633.39274,1358997.4841822,134
1660039633.39274,1358997.4841884,134
1660039633.39274,1358997.4841925,125
1660039633.39274,1358997.4841957,120
1660039633.39274,1358997.484199,141
1660039633.39274,1358997.4842028,169
1660039633.39274,1358997.4842066,178
1660039633.39274,1358997.4842116,187
1660039633.39274,1358997.4842152,208
1660039633.39274,1358997.4842187,211
1660039633.39274,1358997.4842221,208
1660039633.39274,1358997.4842253,211
1660039633.39274,1358997.4842305,208
1660039633.39274,1358997.4842341,199
1660039634.0145,1358997.4842377,173
1660039634.0145,1358997.4842411,146
1660039634.0145,1358997.4842444,129
1660039634.0145,1358997.4842477,118
1660039634.0145,1358997.4842511,99
1660039634.0145,1358997.4842542,76
1660039634.0145,1358997.4842589,74
1660039634.0145,1358997.4842621,71
1660039634.0145,1358997.4842653,57
1660039634.0145,1358997.4842727,37
1660039634.0145,1358997.4842761,44
1660039634.0145,1358997.4842796,81
1660039634.0145,1358997.4842827,95
1660039634.0145,1358997.4842862,74
1660039634.0145,1358997.4842897,81
1660039634.0145,1358997.4842932,104
1660039634.0145,1358997.4842999,90
1660039634.0145,1358997.4843039,92
1660039634.0145,1358997.4843078,115
1660039634.0145,1358997.4843117,95
1660039634.0145,1358997.4843158,67
1660039634.0145,1358997.4843215,81
1660039634.0145,1358997.4843252,90
1660039634.0145,1358997.4843288,83
1660039634.0145,1358997.4843325,83
1660039634.0145,1358997.4843391,85
1660039634.0145,1358997.4843497,81
1660039634.0145,1358997.4843674,78
1660039634.0145,1358997.4843829,85
1660039634.0145,1358997.4843894,106
1660039634.0145,1358997.4843929,132
1660039634.0145,1358997.4843962,115
1660039634.0145,1358997.4843994,78
1660039634.0145,1358997.4844035,78
1660039634.0145,1358997.4844085,69
1660039634.0145,1358998.117182,48
1660039634.0145,1358998.1171999,64
1660039634.0145,1358998.1173996,95
1660039634.0145,1358998.1174213,90
1660039634.0145,1358998.1174302,46
1660039634.0145,1358998.1174358,27
1660039634.0145,1358998.1174395,51
1660039634.0145,1358998.1174447,57
1660039634.0145,1358998.1174483,30
1660039634.0145,1358998.1174517,16
1660039634.0145,1358998.1174549,11
1660039634.0145,1358998.1174583,4
1660039634.0145,1358998.1174617,18
1660039634.0145,1358998.117465,37
1660039634.0145,1358998.1174684,44
1660039634.02547,1358998.1174725,44
1660039634.02547,1358998.1174763,23
1660039634.02547,1358998.1174922,9
1660039634.02547,1358998.1174971,4
1660039634.02547,1358998.1175004,-11
1660039634.02547,1358998.1175034,-2
1660039634.02547,1358998.1175062,18
1660039634.02547,1358998.1175092,9
1660039634.02547,1358998.1175121,9
1660039634.02547,1358998.1175153,23
1660039634.02547,1358998.1175183,30
1660039634.02547,1358998.1175215,74
1660039634.02547,1358998.1175264,208
1660039634.02547,1358998.1175296,401
1660039634.02547,1358998.1175326,477
1660039634.02547,1358998.1175376,139
1660039634.02547,1358998.1175436,-345
1660039634.02547,1358998.1175496,-299
1660039634.02547,1358998.1175558,39
1660039634.02547,1358998.1175641,76
1660039634.02547,1358998.1175704,18
1660039634.02547,1358998.117622,90
1660039634.02547,1358998.1176291,120
1660039634.02547,1358998.1176328,95
1660039634.54956,1358998.1176362,118
1660039634.54956,1358998.1176395,139
1660039634.54956,1358998.1176429,129
1660039634.54956,1358998.1176461,127
1660039634.54956,1358998.117649,139
1660039634.54956,1358998.1176524,157
1660039634.54956,1358998.1176555,162
1660039634.54956,1358998.1176589,169
1660039634.54956,1358998.1176622,199
1660039634.54956,1358998.1176657,206
1660039634.54956,1358998.1176693,183
1660039634.54956,1358998.1176727,190
1660039634.54956,1358998.1176758,222
1660039634.54956,1358998.1176792,245
1660039634.54956,1358998.1176849,248
1660039634.54956,1358998.1176899,229
1660039634.54956,1358998.1176956,227
1660039634.54956,1358998.1177001,220
1660039634.54956,1358998.1177064,187
1660039634.54956,1358998.1177131,173
1660039634.54956,1358998.11772,160
1660039634.54956,1358998.1177262,132
1660039634.54956,1358998.1177305,127
1660039634.54956,1358998.117734,122
1660039634.54956,1358998.1177393,90
1660039634.54956,1358998.1177433,55
1660039634.54956,1358998.1177467,48
1660039634.54956,1358998.1177499,74
1660039634.54956,1358998.1177528,76
1660039634.54956,1358998.1177555,55
1660039634.54956,1358998.1177581,67
1660039634.54956,1358998.1177608,90
1660039634.54956,1358998.1177634,95
1660039634.54956,1358998.1177662,92
1660039634.54956,1358998.653253,102
1660039634.54956,1358998.6532705,106
1660039634.54956,1358998.6532877,97
1660039634.54956,1358998.6533023,97
1660039634.54956,1358998.6533178,109
1660039634.54956,1358998.6533303,109
1660039634.54956,1358998.6533397,99
1660039634.54956,1358998.6533435,106
1660039634.54956,1358998.6533493,106
1660039634.54956,1358998.6533528,85
1660039634.54956,1358998.6533564,71
1660039634.54956,1358998.6533598,62
1660039634.54956,1358998.6533633,55
1660039634.54956,1358998.6533671,60
1660039634.54956,1358998.6533714,46
1660039634.54956,1358998.6533755,30
1660039634.55854,1358998.6533797,23
1660039634.55854,1358998.6533831,30
1660039634.55854,1358998.6533866,34
1660039634.55854,1358998.6533898,2
1660039634.55854,1358998.6533932,-30
1660039634.55854,1358998.6533967,-25
1660039634.55854,1358998.6534004,-20
1660039634.55854,1358998.653404,-20
1660039634.55854,1358998.6534076,-4
1660039634.55854,1358998.6534111,0
1660039634.55854,1358998.653415,-11
1660039634.55854,1358998.6534198,-25
1660039634.55854,1358998.6534247,-27
1660039634.55854,1358998.6534287,-4
1660039634.55854,1358998.6534411,16
1660039634.55854,1358998.653449,2
1660039634.55854,1358998.6534609,-11
1660039634.55854,1358998.6534706,-11
1660039634.55854,1358998.6534769,-9
1660039634.55854,1358998.6534805,9
1660039634.55854,1358998.6534883,37
1660039634.55854,1358998.6534953,32
1660039634.55854,1358998.6534985,20
1660039634.55854,1358998.6535015,34
1660039635.09157,1358998.6535052,39
1660039635.09157,1358998.6535119,32
1660039635.09157,1358998.6535187,34
1660039635.09157,1358998.6535255,51
1660039635.09157,1358998.6535306,55
1660039635.09157,1358998.6535384,41
1660039635.09157,1358998.6535446,48
1660039635.09157,1358998.6535494,62
1660039635.09157,1358998.6535542,62
1660039635.09157,1358998.6535589,104
1660039635.09157,1358998.6535654,238
1660039635.09157,1358998.6535721,438
1660039635.09157,1358998.6535766,598
1660039635.09157,1358998.6535811,408
1660039635.09157,1358998.6535878,-208
1660039635.09157,1358998.6535944,-487
1660039635.09157,1358998.6536011,-115
1660039635.09157,1358998.6536078,122
1660039635.09157,1358998.6536149,51
1660039635.09157,1358998.65362,62
1660039635.09157,1358998.6536266,97
1660039635.09157,1358998.6536312,88
1660039635.09157,1358998.6536373,120
1660039635.09157,1358998.6536425,141
1660039635.09157,1358998.6536484,125
1660039635.09157,1358998.6536535,141
1660039635.09157,1358998.6536605,162
1660039635.09157,1358998.6536654,153
1660039635.09157,1358998.6536721,155
1660039635.09157,1358998.6536779,178
1660039635.09157,1358998.6536885,192
1660039635.09157,1358998.6536952,187
1660039635.09157,1358998.6536999,190
1660039635.09157,1358999.1891061,211
1660039635.09157,1358999.1891215,227
1660039635.09157,1358999.1891261,229
1660039635.09157,1358999.1891301,227
1660039635.09157,1358999.1891339,222
1660039635.09157,1358999.1891376,220
1660039635.09157,1358999.1891412,211

1660039635.09157,1358999.1891445,183
1660039635.09157,1358999.1891476,160
1660039635.09157,1358999.1891507,155
1660039635.09157,1358999.1891537,129
1660039635.09157,1358999.1891568,88
1660039635.09157,1358999.1891602,60
1660039635.09157,1358999.1891636,34
1660039635.09157,1358999.1891666,18
1660039635.09157,1358999.1891697,13
1660039635.09157,1358999.1891735,-9
1660039635.10353,1358999.1891774,-23
1660039635.10353,1358999.1891812,-20
1660039635.10353,1358999.1891868,-23
1660039635.10353,1358999.1891905,-6
1660039635.10353,1358999.1891958,16
1660039635.10353,1358999.1892005,16
1660039635.10353,1358999.1892057,11
1660039635.10353,1358999.1892108,27
1660039635.10353,1358999.1892143,46
1660039635.10353,1358999.1892179,44
1660039635.10353,1358999.1892215,34
1660039635.10353,1358999.1892251,51
1660039635.10353,1358999.1892286,60
1660039635.10353,1358999.1892338,46
1660039635.10353,1358999.1892373,44
1660039635.10353,1358999.1892423,53
1660039635.10353,1358999.1892457,60
1660039635.10353,1358999.1892496,69
1660039635.10353,1358999.1892546,69
1660039635.10353,1358999.1892588,53
1660039635.10353,1358999.1892624,57
1660039635.10353,1358999.189266,71
1660039635.10353,1358999.1892713,62
1660039635.10353,1358999.1892749,46
1660039635.67492,1358999.1892784,53
1660039635.67492,1358999.1892819,71
1660039635.67492,1358999.1892853,71
1660039635.67492,1358999.189289,48
1660039635.67492,1358999.1892924,34
1660039635.67492,1358999.1892961,51
1660039635.67492,1358999.1892996,57
1660039635.67492,1358999.189303,48
1660039635.67492,1358999.1893064,57
1660039635.67492,1358999.1893097,62
1660039635.67492,1358999.1893132,55
1660039635.67492,1358999.1893166,69
1660039635.67492,1358999.1893202,83
1660039635.67492,1358999.1893237,71
1660039635.67492,1358999.1893272,74
1660039635.67492,1358999.1893322,90
1660039635.67492,1358999.1893387,90
1660039635.67492,1358999.1893436,88
1660039635.67492,1358999.1893467,97
1660039635.67492,1358999.1894608,97
1660039635.67492,1358999.1894762,78
1660039635.67492,1358999.1894822,76
1660039635.67492,1358999.1894862,90
1660039635.67492,1358999.1894897,92
1660039635.67492,1358999.1894933,81
1660039635.67492,1358999.1894967,85
1660039635.67492,1358999.1895008,104
1660039635.67492,1358999.1895061,102
1660039635.67492,1358999.1895094,95
1660039635.67492,1358999.1895131,92
1660039635.67492,1358999.1895168,85
1660039635.67492,1358999.1895203,95
1660039635.67492,1358999.7739448,92
1660039635.67492,1358999.7739575,76
1660039635.67492,1358999.7739626,81
1660039635.67492,1358999.773967,95
1660039635.67492,1358999.7739699,95
1660039635.67492,1358999.7739729,95
1660039635.67492,1358999.7739753,106
1660039635.67492,1358999.7739781,143
1660039635.67492,1358999.7739805,241
1660039635.67492,1358999.773983,429
1660039635.67492,1358999.7739858,596
1660039635.67492,1358999.7739886,382
1660039635.67492,1358999.7739913,-224
1660039635.67492,1358999.7739939,-440
1660039635.67492,1358999.7739967,-83
1660039635.67492,1358999.7740012,88
1660039635.67492,1358999.7740039,9
1660039635.67492,1358999.7740067,51
1660039635.68589,1358999.7740094,99
1660039635.68589,1358999.7740121,78
1660039635.68589,1358999.7740144,88
1660039635.68589,1358999.7740168,99
1660039635.68589,1358999.774019,85
1660039635.68589,1358999.7740216,99
1660039635.68589,1358999.7740238,127
1660039635.68589,1358999.7740259,115
1660039635.68589,1358999.7740282,113
1660039635.68589,1358999.7740304,150
1660039635.68589,1358999.7740325,166
1660039635.68589,1358999.7740346,155
1660039635.68589,1358999.7740366,173
1660039635.68589,1358999.7740387,208
1660039635.68589,1358999.7740408,215
1660039635.68589,1358999.7740429,215
1660039635.68589,1358999.7740449,224
1660039635.68589,1358999.7740469,243
1660039635.68589,1358999.7740489,248
1660039635.68589,1358999.774051,218
1660039635.68589,1358999.7740531,204
1660039635.68589,1358999.774055,211
1660039635.68589,1358999.7740571,176
1660039635.68589,1358999.7740592,143
1660039636.21461,1358999.7740613,141
1660039636.21461,1358999.7740638,129
1660039636.21461,1358999.7740662,106
1660039636.21461,1358999.7740684,71
1660039636.21461,1358999.7740707,55
1660039636.21461,1358999.7740729,53
1660039636.21461,1358999.7740751,44
1660039636.21461,1358999.7740773,53
1660039636.21461,1358999.7740793,64
1660039636.21461,1358999.7740815,64
1660039636.21461,1358999.7740836,83
1660039636.21461,1358999.7740857,95
1660039636.21461,1358999.7740877,88
1660039636.21461,1358999.7740899,95
1660039636.21461,1358999.7740921,97
1660039636.21461,1358999.7740943,74
1660039636.21461,1358999.7740964,62
1660039636.21461,1358999.7740985,76
1660039636.21461,1358999.7741006,92
1660039636.21461,1358999.7741035,99
1660039636.21461,1358999.7741059,81
1660039636.21461,1358999.774108,60
1660039636.21461,1358999.77411,71
1660039636.21461,1358999.7741121,69
1660039636.21461,1358999.7741141,57
1660039636.21461,1358999.7741161,71
1660039636.21461,1358999.7741182,88
1660039636.21461,1358999.7741203,78
1660039636.21461,1358999.7741223,71
1660039636.21461,1358999.7741276,78
1660039636.21461,1358999.7741297,67
1660039636.21461,1359000.3110819,48
1660039636.21461,1359000.3110985,60
1660039636.21461,1359000.3111065,74
1660039636.21461,1359000.3111124,74
1660039636.21461,1359000.3111166,51
1660039636.21461,1359000.3111226,32
1660039636.21461,1359000.3111271,57
1660039636.21461,1359000.3111324,92
1660039636.21461,1359000.3111381,67
1660039636.21461,1359000.3111436,39
1660039636.21461,1359000.311147,48
1660039636.21461,1359000.3111512,41
1660039636.21461,1359000.3111549,13
1660039636.21461,1359000.3111582,11
1660039636.21461,1359000.3111611,25
1660039636.21461,1359000.3111642,27
1660039636.21461,1359000.3111677,11
1660039636.21461,1359000.3111708,0
1660039636.21461,1359000.3111737,2
1660039636.22458,1359000.3111766,16
1660039636.22458,1359000.3111795,16
1660039636.22458,1359000.3111824,13
1660039636.22458,1359000.3111853,25
1660039636.22458,1359000.3111881,32
1660039636.22458,1359000.3111908,39
1660039636.22458,1359000.3111937,30
1660039636.22458,1359000.3111964,16
1660039636.22458,1359000.3111992,32
1660039636.22458,1359000.3112019,57
1660039636.22458,1359000.3112046,44
1660039636.22458,1359000.3112075,23
1660039636.22458,1359000.3112102,44
1660039636.22458,1359000.3112129,64
1660039636.22458,1359000.3112157,60
1660039636.22458,1359000.3112184,53
1660039636.22458,1359000.3112212,64
1660039636.22458,1359000.3112239,78
1660039636.22458,1359000.3112268,78
1660039636.22458,1359000.3112297,76
1660039636.22458,1359000.3112324,85
1660039636.22458,1359000.3112378,97
1660039636.22458,1359000.3112471,104
1660039636.22458,1359000.3112496,102
1660039636.74565,1359000.311252,92
1660039636.74565,1359000.3112542,88
1660039636.74565,1359000.3112563,92
1660039636.74565,1359000.3112583,99
1660039636.74565,1359000.3112603,95
1660039636.74565,1359000.3112623,88
1660039636.74565,1359000.3112642,106
1660039636.74565,1359000.3112663,109
1660039636.74565,1359000.3112682,97
1660039636.74565,1359000.3112702,153
1660039636.74565,1359000.3112723,308
1660039636.74565,1359000.3112782,514
1660039636.74565,1359000.3112887,635
1660039636.74565,1359000.3112948,354
1660039636.74565,1359000.3112973,-245
1660039636.74565,1359000.3112995,-408
1660039636.74565,1359000.3113049,-51
1660039636.74565,1359000.3113164,104
1660039636.74565,1359000.3113219,25
1660039636.74565,1359000.3113241,57
1660039636.74565,1359000.3113262,115
1660039636.74565,1359000.3113293,95
1660039636.74565,1359000.311342,95
1660039636.74565,1359000.3113484,115
1660039636.74565,1359000.3113507,109
1660039636.74565,1359000.3113528,104
1660039636.74565,1359000.3113552,125
1660039636.74565,1359000.3113644,136
1660039636.74565,1359000.3113771,136
1660039636.74565,1359000.3113923,134
1660039636.74565,1359000.847191,141
1660039636.74565,1359000.8472119,150
1660039636.74565,1359000.8472216,164
1660039636.74565,1359000.8472242,178
1660039636.74565,1359000.8472265,180
1660039636.74565,1359000.8472287,180
1660039636.74565,1359000.8472309,194
1660039636.74565,1359000.8472331,185
1660039636.74565,1359000.8472352,150
1660039636.74565,1359000.8472373,139
1660039636.74565,1359000.8472395,139
1660039636.74565,1359000.8472417,120
1660039636.74565,1359000.8472438,102
1660039636.74565,1359000.847246,74
1660039636.74565,1359000.847248,25
1660039636.74565,1359000.8472501,0
1660039636.74565,1359000.8472522,-6
1660039636.74565,1359000.847255,-18
1660039636.74565,1359000.8472635,-27
1660039636.74565,1359000.8472713,-44
1660039636.75519,1359000.8472835,-48
1660039636.75519,1359000.8472952,-44
1660039636.75519,1359000.8473007,-62
1660039636.75519,1359000.8473037,-57
1660039636.75519,1359000.8473059,-18
1660039636.75519,1359000.847308,0
1660039636.75519,1359000.8473101,0
1660039636.75519,1359000.8473122,0
1660039636.75519,1359000.8473158,0
1660039636.75519,1359000.8473286,9
1660039636.75519,1359000.8473401,9
1660039636.75519,1359000.847354,4
1660039636.75519,1359000.847367,18
1660039636.75519,1359000.8473807,41
1660039636.75519,1359000.8473928,34
1660039636.75519,1359000.8474093,11
1660039636.75519,1359000.8474226,6
1660039636.75519,1359000.8474284,32
1660039636.75519,1359000.8475507,41
1660039636.75519,1359000.8475586,25
1660039636.75519,1359000.8475622,23
1660039636.75519,1359000.8475655,32
1660039636.75519,1359000.8475688,37
1660039636.75519,1359000.8476403,27
1660039637.39154,1359000.8476505,25
1660039637.39154,1359000.8476556,51
1660039637.39154,1359000.8476606,48
1660039637.39154,1359000.8476639,-2
1660039637.39154,1359000.8476672,-16
1660039637.39154,1359000.8476715,9
1660039637.39154,1359000.8476756,16
1660039637.39154,1359000.8476819,11
1660039637.39154,1359000.8476852,27
1660039637.39154,1359000.8476883,32
1660039637.39154,1359000.8476914,18
1660039637.39154,1359000.8476984,16
1660039637.39154,1359000.8477017,30
1660039637.39154,1359000.8477048,44
1660039637.39154,1359000.8477079,46
1660039637.39154,1359000.8477132,39
1660039637.39154,1359000.8477182,37
1660039637.39154,1359000.847725,44
1660039637.39154,1359000.8477289,57
1660039637.39154,1359000.8477322,60
1660039637.39154,1359000.8477359,41
1660039637.39154,1359000.847739,39
1660039637.39154,1359000.8477421,67
1660039637.39154,1359000.8477455,74
1660039637.39154,1359000.8477489,44
1660039637.39154,1359000.8477522,37
1660039637.39154,1359000.8477563,53
1660039637.39154,1359000.8477603,60
1660039637.39154,1359000.8477639,76
1660039637.39154,1359001.4831269,76
1660039637.39154,1359001.4831502,57
1660039637.39154,1359001.4831601,81
1660039637.39154,1359001.4831697,90
1660039637.39154,1359001.4831757,39
1660039637.39154,1359001.4831858,20
1660039637.39154,1359001.4831911,44
1660039637.39154,1359001.4831942,48
1660039637.39154,1359001.4831964,34
1660039637.39154,1359001.4831986,37
1660039637.39154,1359001.4832007,60
1660039637.39154,1359001.4832028,134
1660039637.39154,1359001.483205,280
1660039637.39154,1359001.4832071,449
1660039637.39154,1359001.4832092,408
1660039637.39154,1359001.4832114,-69
1660039637.39154,1359001.4832134,-438
1660039637.39154,1359001.4832156,-187
1660039637.39154,1359001.4832177,81
1660039637.39154,1359001.4832198,37
1660039637.39154,1359001.4832218,44
1660039637.40152,1359001.4832239,102
1660039637.40152,1359001.483226,74
1660039637.40152,1359001.4832281,62
1660039637.40152,1359001.4832301,99
1660039637.40152,1359001.4832322,106
1660039637.40152,1359001.4832343,95
1660039637.40152,1359001.4832363,102
