Time,TimeLsl,Value
1660048348.69219,1367711.4030447,126
1660048348.69219,1367711.4030681,149
1660048348.69219,1367711.4030768,156
1660048348.69219,1367711.4030812,163
1660048348.69219,1367711.4030871,180
1660048348.69219,1367711.4030925,184
1660048348.69219,1367711.4030976,184
1660048348.69219,1367711.4031021,196
1660048348.69219,1367711.4031077,198
1660048348.69219,1367711.4031115,166
1660048348.69219,1367711.4031155,121
1660048348.69219,1367711.403122,107
1660048348.69219,1367711.403127,107
1660048348.69219,1367711.4031326,95
1660048348.69219,1367711.4031379,88
1660048348.69219,1367711.4031431,79
1660048348.69219,1367711.4031472,53
1660048348.69219,1367711.4031527,39
1660048348.69219,1367711.4031585,49
1660048348.69219,1367711.4031622,46
1660048348.69219,1367711.4031659,44
1660048348.69219,1367711.4031695,79
1660048348.69219,1367711.403174,100
1660048348.69219,1367711.4031774,81
1660048348.69219,1367711.4031811,74
1660048348.69219,1367711.4031866,88
1660048348.69219,1367711.4031904,93
1660048348.69219,1367711.4031943,93
1660048348.69219,1367711.4031981,88
1660048348.69219,1367711.4032077,84
1660048348.69219,1367711.4032117,86
1660048348.69219,1367711.4032156,88
1660048348.69219,1367711.4032206,98
1660048348.69219,1367711.4032242,116
1660048348.69219,1367711.4032282,114
1660048348.69219,1367711.403234,91
1660048348.69219,1367711.4032378,91
1660048348.69219,1367711.403246,107
1660048348.69219,1367711.4032498,100
1660048348.69219,1367711.4032538,88
1660048348.69219,1367711.4032574,91
1660048348.69219,1367711.4032611,84
1660048348.69219,1367711.4032649,72
1660048348.69219,1367711.4032687,65
1660048348.69219,1367711.4032724,60
1660048348.69219,1367711.4032761,56
1660048348.69219,1367711.4032799,58
1660048348.69219,1367711.403286,67
1660048348.69219,1367711.4032898,72
1660048348.69219,1367711.4033275,77
1660048348.91161,1367711.4033376,79
1660048348.91161,1367711.403345,81
1660048348.91161,1367711.403352,81
1660048348.91161,1367711.4033573,72
1660048348.91161,1367711.4033621,70
1660048348.91161,1367711.4033656,77
1660048348.91161,1367711.4033693,77
1660048348.91161,1367711.403373,105
1660048348.91161,1367711.4033767,226
1660048348.91161,1367711.4033818,435
1660048348.91161,1367711.4033897,603
1660048348.91161,1367711.4033956,561
1660048348.91161,1367711.4034005,271
1660048348.91161,1367711.4034058,-23
1660048348.91161,1367711.4034128,-25
1660048348.91161,1367711.4034191,102
1660048348.91161,1367711.4034231,88
1660048348.91161,1367711.4034286,51
1660048348.91161,1367711.4034322,88
1660048348.91161,1367711.4034681,95
1660048348.91161,1367711.4034782,74
1660048348.91161,1367711.4034872,88
1660048348.91161,1367711.4035005,102
1660048348.91161,1367711.9395711,93
1660048348.91161,1367711.939594,93
1660048348.91161,1367711.9396045,107
1660048348.91161,1367711.9396116,116
1660048348.91161,1367711.939616,116
1660048348.91161,1367711.9396193,114
1660048348.91161,1367711.9396225,105
1660048348.91161,1367711.9396261,93
1660048348.91161,1367711.939632,105
1660048348.91161,1367711.939637,116
1660048348.91161,1367711.9396417,126
1660048348.91161,1367711.9396472,145
1660048348.91161,1367711.9396528,145
1660048348.91161,1367711.9396627,124
1660048348.91161,1367711.9396704,119
1660048348.91161,1367711.9396779,124
1660048348.91161,1367711.9396867,109
1660048348.91161,1367711.9397609,98
1660048348.91161,1367711.9397742,100
1660048348.91161,1367711.9397832,95
1660048348.91161,1367711.9397904,91
1660048348.91161,1367711.9398026,88
1660048348.91161,1367711.9398096,84
1660048348.91161,1367711.9398151,79
1660048348.91161,1367711.9398242,81
1660048348.91161,1367711.9398314,81
1660048348.91161,1367711.9398393,84
1660048348.96447,1367711.939846,88
1660048348.96447,1367711.9398947,91
1660048348.96447,1367711.9399098,91
1660048348.96447,1367711.9399232,86
1660048348.96447,1367711.939934,79
1660048348.96447,1367711.9399422,74
1660048348.96447,1367711.9399477,74
1660048348.96447,1367711.9399529,74
1660048348.96447,1367711.9399588,77
1660048348.96447,1367711.9400091,74
1660048348.96447,1367711.9400177,72
1660048348.96447,1367711.9400214,74
1660048348.96447,1367711.9400281,74
1660048348.96447,1367711.9400342,74
1660048348.96447,1367711.9400381,81
1660048348.96447,1367711.9400458,91
1660048348.96447,1367711.9400555,95
1660048348.96447,1367711.9400615,95
1660048348.96447,1367711.9400652,86
1660048348.96447,1367711.94007,74
1660048348.96447,1367711.9400731,70
1660048348.96447,1367711.9400762,84
1660048348.96447,1367711.9400792,95
1660048348.96447,1367711.9400832,91
1660048348.96447,1367711.9400878,84
1660048348.96447,1367711.9400907,81
1660048348.96447,1367711.9400938,81
1660048348.96447,1367711.9400968,81
1660048348.96447,1367711.9400997,81
1660048348.96447,1367711.9401027,91
1660048348.96447,1367711.9401057,98
1660048348.96447,1367711.9401088,95
1660048348.96447,1367711.9401117,98
1660048348.96447,1367711.940117,91
1660048348.96447,1367711.9401198,70
1660048348.96447,1367711.9401229,58
1660048348.96447,1367711.9401259,72
1660048348.96447,1367711.9401289,100
1660048348.96447,1367711.9401318,116
1660048348.96447,1367711.9401349,109
1660048348.96447,1367711.9401378,93
1660048348.96447,1367711.9401408,95
1660048348.96447,1367711.9401438,114
1660048348.96447,1367711.9401468,166
1660048348.96447,1367711.9401497,318
1660048348.96447,1367711.9401529,526
1660048348.96447,1367712.5728344,603
1660048348.96447,1367712.5728529,414
1660048349.27065,1367712.5728616,77
1660048349.27065,1367712.5728698,-79
1660048349.27065,1367712.5728758,11
1660048349.27065,1367712.5728822,56
1660048349.27065,1367712.572887,9
1660048349.27065,1367712.5728908,25
1660048349.27065,1367712.5728936,51
1660048349.27065,1367712.572897,16
1660048349.27065,1367712.5729003,-2
1660048349.27065,1367712.5729041,25
1660048349.27065,1367712.5729093,37
1660048349.27065,1367712.5729133,30
1660048349.27065,1367712.572918,39
1660048349.27065,1367712.5729239,49
1660048349.27065,1367712.5729285,46
1660048349.27065,1367712.5729357,46
1660048349.27065,1367712.5729412,53
1660048349.27065,1367712.5729481,67
1660048349.27065,1367712.5729583,93
1660048349.27065,1367712.572968,114
1660048349.27065,1367712.5729758,119
1660048349.27065,1367712.5729901,109
1660048349.27065,1367712.573003,109
1660048349.27065,1367712.5730105,114
1660048349.27065,1367712.5730187,95
1660048349.27065,1367712.5730268,74
1660048349.27065,1367712.5730387,86
1660048349.27065,1367712.573052,91
1660048349.27065,1367712.5730607,77
1660048349.27065,1367712.5730684,72
1660048349.27065,1367712.5730766,67
1660048349.27065,1367712.5730834,58
1660048349.27065,1367712.5730915,51
1660048349.27065,1367712.5730965,53
1660048349.27065,1367712.5731019,74
1660048349.27065,1367712.573109,91
1660048349.27065,1367712.573115,81
1660048349.27065,1367712.5731189,74
1660048349.27065,1367712.5731231,72
1660048349.27065,1367712.5731294,65
1660048349.27065,1367712.5731374,63
1660048349.27065,1367712.5731437,65
1660048349.27065,1367712.5731493,67
1660048349.27065,1367712.5731526,72
1660048349.27065,1367712.5731577,77
1660048349.27065,1367712.573161,70
1660048349.27065,1367712.5731687,63
1660048349.27065,1367712.5731744,77
1660048349.27065,1367712.5731782,93
1660048349.27065,1367712.5731854,88
1660048349.35143,1367712.5732087,81
1660048349.35143,1367712.5732224,79
1660048349.35143,1367712.5732316,74
1660048349.35143,1367712.5733304,79
1660048349.35143,1367712.5733451,88
1660048349.35143,1367712.5733531,81
1660048349.35143,1367712.5733567,56
1660048349.35143,1367712.5733598,35
1660048349.35143,1367712.5733628,35
1660048349.35143,1367712.5733658,42
1660048349.35143,1367712.5733714,32
1660048349.35143,1367712.5733748,16
1660048349.35143,1367712.5733779,25
1660048349.35143,1367712.5733811,44
1660048349.35143,1367712.5733842,30
1660048349.35143,1367712.5733872,23
1660048349.35143,1367712.5733903,63
1660048349.35143,1367712.5733943,81
1660048349.35143,1367712.5734,67
1660048349.35143,1367712.5734056,63
1660048349.35143,1367712.5734114,67
1660048349.35143,1367713.1601469,67
1660048349.35143,1367713.1601684,56
1660048349.35143,1367713.1601736,25
1660048349.35143,1367713.1601768,11
1660048349.35143,1367713.1601807,42
1660048349.35143,1367713.1601865,72
1660048349.35143,1367713.1601925,49
1660048349.35143,1367713.1601985,25
1660048349.54442,1367713.1602046,63
1660048349.54442,1367713.1602107,184
1660048349.54442,1367713.1602181,381
1660048349.54442,1367713.160225,545
1660048349.54442,1367713.1602307,526
1660048349.54442,1367713.1602338,262
1660048349.54442,1367713.160237,-49
1660048349.54442,1367713.1602403,-109
1660048349.54442,1367713.1602435,-28
1660048349.54442,1367713.1602465,-56
1660048349.54442,1367713.1602497,-95
1660048349.54442,1367713.1602527,-81
1660048349.54442,1367713.1602555,-86
1660048349.54442,1367713.1602584,-84
1660048349.54442,1367713.1602612,-58
1660048349.54442,1367713.1602641,-56
1660048349.54442,1367713.1602669,-60
1660048349.54442,1367713.16027,-44
1660048349.54442,1367713.1602733,-23
1660048349.54442,1367713.1602765,-7
1660048349.54442,1367713.1602795,7
1660048349.54442,1367713.1602825,9
1660048349.54442,1367713.1602865,4
1660048349.54442,1367713.1602899,4
1660048349.54442,1367713.1602936,2
1660048349.54442,1367713.160297,14
1660048349.54442,1367713.1603004,49
1660048349.54442,1367713.1603045,79
1660048349.54442,1367713.1603077,93
1660048349.54442,1367713.1603112,81
1660048349.54442,1367713.1603148,63
1660048349.54442,1367713.1603181,60
1660048349.54442,1367713.1603211,63
1660048349.54442,1367713.1603246,49
1660048349.54442,1367713.1603278,42
1660048349.54442,1367713.1603309,49
1660048349.54442,1367713.160373,42
1660048349.54442,1367713.1603872,21
1660048349.54442,1367713.1603969,16
1660048349.54442,1367713.1604053,14
1660048349.54442,1367713.1604155,16
1660048349.54442,1367713.1604254,21
1660048349.54442,1367713.1604328,0
1660048349.54442,1367713.160442,-18
1660048349.54442,1367713.1604513,-7
1660048349.54442,1367713.1604683,7
1660048349.54442,1367713.1604778,9
1660048349.54442,1367713.1604892,14
1660048349.54442,1367713.1605007,7
1660048349.54442,1367713.1605122,-14
1660048349.55639,1367713.160521,-2
1660048349.55639,1367713.1605292,25
1660048349.55639,1367713.1605401,14
1660048349.55639,1367713.1605504,-7
1660048349.55639,1367713.1605649,2
1660048349.55639,1367713.1605782,11
1660048349.55639,1367713.16059,-2
1660048349.55639,1367713.1606014,4
1660048349.55639,1367713.1606161,25
1660048349.55639,1367713.1606264,18
1660048349.55639,1367713.1606353,-7
1660048349.55639,1367713.160644,-11
1660048349.55639,1367713.1606514,-9
1660048349.55639,1367713.160661,-7
1660048349.55639,1367713.1606964,11
1660048349.55639,1367713.6473346,30
1660048349.55639,1367713.647354,2
1660048349.55639,1367713.6473631,-30
1660048349.55639,1367713.6473702,-28
1660048350.18149,1367713.6473787,-14
1660048350.18149,1367713.6473861,-4
1660048350.18149,1367713.6473941,-2
1660048350.18149,1367713.6474015,-2
1660048350.18149,1367713.647408,2
1660048350.18149,1367713.6474138,-4
1660048350.18149,1367713.6474175,-21
1660048350.18149,1367713.6474213,-9
1660048350.18149,1367713.6474263,9
1660048350.18149,1367713.6474319,-11
1660048350.18149,1367713.6474363,-32
1660048350.18149,1367713.6474439,-35
1660048350.18149,1367713.6474493,-39
1660048350.18149,1367713.6474567,-44
1660048350.18149,1367713.6474636,-32
1660048350.18149,1367713.6474715,-9
1660048350.18149,1367713.6474791,67
1660048350.18149,1367713.6474849,222
1660048350.18149,1367713.6474928,409
1660048350.18149,1367713.6475024,493
1660048350.18149,1367713.6475105,332
1660048350.18149,1367713.6475236,-4
1660048350.18149,1367713.6475349,-161
1660048350.18149,1367713.6475445,-58
1660048350.18149,1367713.6475516,-21
1660048350.18149,1367713.64756,-86
1660048350.18149,1367713.6475689,-63
1660048350.18149,1367713.6475739,-23
1660048350.18149,1367713.6475803,-35
1660048350.18149,1367713.6475836,-37
1660048350.18149,1367713.647595,-18
1660048350.18149,1367713.6476038,-9
1660048350.18149,1367713.6476128,-11
1660048350.18149,1367713.6476199,-7
1660048350.18149,1367713.6476261,18
1660048350.18149,1367713.6476337,35
1660048350.18149,1367713.6476426,35
1660048350.18149,1367713.6476481,42
1660048350.18149,1367713.6476566,51
1660048350.18149,1367713.647665,58
1660048350.18149,1367713.6476724,74
1660048350.18149,1367713.6476803,93
1660048350.18149,1367713.6476854,100
1660048350.18149,1367713.6476988,102
1660048350.18149,1367713.6477116,109
1660048350.18149,1367713.6477205,116
1660048350.18149,1367713.6477267,109
1660048350.18149,1367713.647732,102
1660048350.18149,1367713.6477407,98
1660048350.18149,1367713.6477492,88
1660048350.19745,1367713.6477537,79
1660048350.19745,1367713.6477609,79
1660048350.19745,1367713.6477685,79
1660048350.19745,1367713.6477733,72
1660048350.19745,1367713.6477769,72
1660048350.19745,1367713.6477799,67
1660048350.19745,1367713.647783,51
1660048350.19745,1367713.6477859,39
1660048350.19745,1367713.6477887,58
1660048350.19745,1367713.6477915,88
1660048350.19745,1367713.6477944,100
1660048350.19745,1367713.6477972,91
1660048350.19745,1367713.6478001,86
1660048350.19745,1367713.6478029,98
1660048350.19745,1367713.6478056,107
1660048350.19745,1367713.6478084,102
1660048350.19745,1367713.6478116,100
1660048350.19745,1367713.6478234,105
1660048350.19745,1367713.6478317,95
1660048350.19745,1367714.283418,77
1660048350.19745,1367714.2834335,74
1660048350.19745,1367714.2834439,58
1660048350.19745,1367714.2834521,42
1660048350.19745,1367714.2834601,53
1660048350.6677,1367714.283468,65
1660048350.6677,1367714.2834746,44
1660048350.6677,1367714.2834804,25
1660048350.6677,1367714.2834842,25
1660048350.6677,1367714.2834877,16
1660048350.6677,1367714.2834912,11
1660048350.6677,1367714.2834947,32
1660048350.6677,1367714.2834981,32
1660048350.6677,1367714.2835016,4
1660048350.6677,1367714.283505,9
1660048350.6677,1367714.2835085,21
1660048350.6677,1367714.2835119,7
1660048350.6677,1367714.2835154,7
1660048350.6677,1367714.283519,23
1660048350.6677,1367714.2835225,28
1660048350.6677,1367714.2835259,35
1660048350.6677,1367714.2835294,37
1660048350.6677,1367714.2835328,23
1660048350.6677,1367714.2835363,16
1660048350.6677,1367714.2835397,25
1660048350.6677,1367714.2835432,25
1660048350.6677,1367714.2835466,23
1660048350.6677,1367714.2835502,32
1660048350.6677,1367714.2835536,37
1660048350.6677,1367714.2835571,35
1660048350.6677,1367714.2835615,32
1660048350.6677,1367714.283567,42
1660048350.6677,1367714.2835705,91
1660048350.6677,1367714.2835738,226
1660048350.6677,1367714.2835775,435
1660048350.6677,1367714.2836592,561
1660048350.6677,1367714.2836682,432
1660048350.6677,1367714.2836759,102
1660048350.6677,1367714.2836825,-74
1660048350.6677,1367714.2836867,30
1660048350.6677,1367714.2836927,102
1660048350.6677,1367714.2836968,30
1660048350.6677,1367714.2837019,2
1660048350.6677,1367714.2837062,42
1660048350.6677,1367714.2837119,42
1660048350.6677,1367714.2837165,30
1660048350.6677,1367714.2837226,58
1660048350.6677,1367714.2837272,88
1660048350.6677,1367714.2837332,86
1660048350.6677,1367714.2837377,79
1660048350.6677,1367714.2837411,91
1660048350.6677,1367714.2837473,100
1660048350.6677,1367714.2837518,105
1660048350.6677,1367714.2837569,116
1660048350.6677,1367714.2837603,131
1660048350.67931,1367714.2837662,142
1660048350.67931,1367714.2837696,154
1660048350.67931,1367714.2837749,156
1660048350.67931,1367714.2837786,166
1660048350.67931,1367714.2837838,184
1660048350.67931,1367714.2837874,187
1660048350.67931,1367714.2837935,177
1660048350.67931,1367714.2837983,170
1660048350.67931,1367714.2838058,163
1660048350.67931,1367714.2838129,161
1660048350.67931,1367714.2838213,161
1660048350.67931,1367714.283828,152
1660048350.67931,1367714.283835,131
1660048350.67931,1367714.2838403,114
1660048350.67931,1367714.2838447,107
1660048350.67931,1367714.2838504,112
1660048350.67931,1367714.2838552,114
1660048350.67931,1367714.2838616,102
1660048350.67931,1367714.7675613,93
1660048350.67931,1367714.7675803,100
1660048350.67931,1367714.767587,100
1660048350.67931,1367714.767591,100
1660048350.67931,1367714.7675972,131
1660048350.67931,1367714.7676014,147
1660048351.3016,1367714.767607,121
1660048351.3016,1367714.7676106,124
1660048351.3016,1367714.767614,145
1660048351.3016,1367714.7676175,124
1660048351.3016,1367714.7676209,100
1660048351.3016,1367714.7676244,107
1660048351.3016,1367714.7676281,114
1660048351.3016,1367714.7676329,107
1660048351.3016,1367714.7676363,105
1660048351.3016,1367714.7676404,95
1660048351.3016,1367714.7676432,65
1660048351.3016,1367714.7676465,60
1660048351.3016,1367714.76765,77
1660048351.3016,1367714.7676538,77
1660048351.3016,1367714.7676592,72
1660048351.3016,1367714.7676632,81
1660048351.3016,1367714.7676687,91
1660048351.3016,1367714.7676752,81
1660048351.3016,1367714.7676817,65
1660048351.3016,1367714.7676878,60
1660048351.3016,1367714.7676941,53
1660048351.3016,1367714.767702,37
1660048351.3016,1367714.7677083,9
1660048351.3016,1367714.7677123,-14
1660048351.3016,1367714.7677165,-2
1660048351.3016,1367714.7677202,30
1660048351.3016,1367714.7677232,49
1660048351.3016,1367714.7677264,60
1660048351.3016,1367714.7677315,51
1660048351.3016,1367714.7677363,23
1660048351.3016,1367714.7677407,11
1660048351.3016,1367714.7677456,14
1660048351.3016,1367714.7677552,11
1660048351.3016,1367714.7677649,18
1660048351.3016,1367714.7677728,28
1660048351.3016,1367714.7677804,25
1660048351.3016,1367714.7677877,21
1660048351.3016,1367714.7677967,30
1660048351.3016,1367714.7678052,81
1660048351.3016,1367714.767814,236
1660048351.3016,1367714.7678211,458
1660048351.3016,1367714.7678301,580
1660048351.3016,1367714.7678382,458
1660048351.3016,1367714.7678462,156
1660048351.3016,1367714.7678548,-49
1660048351.3016,1367714.7678619,2
1660048351.3016,1367714.7678705,86
1660048351.3016,1367714.7678783,44
1660048351.3016,1367714.7678856,21
1660048351.3016,1367714.7678941,49
1660048351.31257,1367714.7679022,53
1660048351.31257,1367714.7679111,51
1660048351.31257,1367714.7679177,63
1660048351.31257,1367714.7679253,67
1660048351.31257,1367714.7679292,56
1660048351.31257,1367714.7679345,39
1660048351.31257,1367714.7679379,35
1660048351.31257,1367714.7679452,51
1660048351.31257,1367714.767953,70
1660048351.31257,1367714.7679616,74
1660048351.31257,1367714.7679697,77
1660048351.31257,1367714.7679777,88
1660048351.31257,1367714.7679842,109
1660048351.31257,1367714.7679924,121
1660048351.31257,1367714.7680014,128
1660048351.31257,1367714.7680097,135
1660048351.31257,1367714.7680159,135
1660048351.31257,1367715.4002425,128
1660048351.31257,1367715.4002623,131
1660048351.31257,1367715.4002673,131
1660048351.31257,1367715.4002713,119
1660048351.31257,1367715.4002779,109
1660048351.31257,1367715.400282,98
1660048351.31257,1367715.4002882,63
1660048351.83736,1367715.4002925,30
1660048351.83736,1367715.4002966,32
1660048351.83736,1367715.4003007,35
1660048351.83736,1367715.4003048,21
1660048351.83736,1367715.400309,14
1660048351.83736,1367715.4003136,-9
1660048351.83736,1367715.4003186,-35
1660048351.83736,1367715.4003227,-35
1660048351.83736,1367715.4003258,-37
1660048351.83736,1367715.4003292,-49
1660048351.83736,1367715.4003325,-49
1660048351.83736,1367715.4003364,-46
1660048351.83736,1367715.4003416,-49
1660048351.83736,1367715.4003457,-44
1660048351.83736,1367715.400351,-44
1660048351.83736,1367715.4003566,-53
1660048351.83736,1367715.4003598,-53
1660048351.83736,1367715.4003629,-44
1660048351.83736,1367715.400366,-46
1660048351.83736,1367715.4003689,-42
1660048351.83736,1367715.4003721,-35
1660048351.83736,1367715.400375,-42
1660048351.83736,1367715.4003788,-39
1660048351.83736,1367715.4003828,-35
1660048351.83736,1367715.4003861,-51
1660048351.83736,1367715.4003892,-63
1660048351.83736,1367715.4003925,-72
1660048351.83736,1367715.4003958,-77
1660048351.83736,1367715.4003991,-74
1660048351.83736,1367715.4004033,-72
1660048351.83736,1367715.4004079,-84
1660048351.83736,1367715.4004138,-74
1660048351.83736,1367715.4004218,-39
1660048351.83736,1367715.4004313,-25
1660048351.83736,1367715.4004392,-28
1660048351.83736,1367715.4004452,-25
1660048351.83736,1367715.4004493,-32
1660048351.83736,1367715.4004552,-58
1660048351.83736,1367715.400461,-72
1660048351.83736,1367715.400466,-77
1660048351.83736,1367715.4004727,-84
1660048351.83736,1367715.4004786,-77
1660048351.83736,1367715.4004844,-60
1660048351.83736,1367715.4004886,-74
1660048351.83736,1367715.4004929,-102
1660048351.83736,1367715.4004969,-100
1660048351.83736,1367715.4005009,-81
1660048351.83736,1367715.4005055,-51
1660048351.83736,1367715.4005117,88
1660048351.83736,1367715.4005161,327
1660048351.85032,1367715.4005221,465
1660048351.85032,1367715.4005263,360
1660048351.85032,1367715.4005321,44
1660048351.85032,1367715.4005364,-224
1660048351.85032,1367715.4005421,-198
1660048351.85032,1367715.4005473,-91
1660048351.85032,1367715.4005532,-116
1660048351.85032,1367715.4005572,-131
1660048351.85032,1367715.4005629,-86
1660048351.85032,1367715.400567,-88
1660048351.85032,1367715.4005734,-100
1660048351.85032,1367715.4005776,-84
1660048351.85032,1367715.400583,-77
1660048351.85032,1367715.400587,-70
1660048351.85032,1367715.4005911,-53
1660048351.85032,1367715.400597,-53
1660048351.85032,1367715.9366469,-56
1660048351.85032,1367715.9366667,-35
1660048351.85032,1367715.9366743,-25
1660048351.85032,1367715.9366799,-39
1660048351.85032,1367715.9366841,-39
1660048351.85032,1367715.9366903,-25
1660048351.85032,1367715.9366978,-21
1660048351.85032,1367715.9367039,-2
1660048352.38058,1367715.9367086,9
1660048352.38058,1367715.9367121,-2
1660048352.38058,1367715.9367154,2
1660048352.38058,1367715.9367188,23
1660048352.38058,1367715.936722,28
1660048352.38058,1367715.9367267,18
1660048352.38058,1367715.9367307,2
1660048352.38058,1367715.9367341,-30
1660048352.38058,1367715.9367372,-58
1660048352.38058,1367715.9367406,-53
1660048352.38058,1367715.9367435,-51
1660048352.38058,1367715.9367484,-65
1660048352.38058,1367715.9367531,-70
1660048352.38058,1367715.9367573,-72
1660048352.38058,1367715.936764,-93
1660048352.38058,1367715.936768,-100
1660048352.38058,1367715.936772,-79
1660048352.38058,1367715.9367769,-70
1660048352.38058,1367715.9367818,-79
1660048352.38058,1367715.9367887,-74
1660048352.38058,1367715.9367981,-65
1660048352.38058,1367715.9368084,-63
1660048352.38058,1367715.9368342,-51
1660048352.38058,1367715.936843,-42
1660048352.38058,1367715.9368486,-46
1660048352.38058,1367715.9368573,-42
1660048352.38058,1367715.9368633,-21
1660048352.38058,1367715.9368667,-9
1660048352.38058,1367715.9368741,-4
1660048352.38058,1367715.9368837,-7
1660048352.38058,1367715.9368902,-25
1660048352.38058,1367715.9368964,-35
1660048352.38058,1367715.9369033,-32
1660048352.38058,1367715.9369083,-37
1660048352.38058,1367715.9369181,-44
1660048352.38058,1367715.936926,-39
1660048352.38058,1367715.9369318,-28
1660048352.38058,1367715.9369356,-25
1660048352.38058,1367715.936941,-35
1660048352.38058,1367715.9369486,-49
1660048352.38058,1367715.9369554,-53
1660048352.38058,1367715.9369593,-44
1660048352.38058,1367715.9369626,-28
1660048352.38058,1367715.9369675,-11
1660048352.38058,1367715.9369733,-7
1660048352.38058,1367715.9369766,-2
1660048352.38058,1367715.9369801,7
1660048352.38058,1367715.9369856,18
1660048352.38058,1367715.9369891,21
1660048352.38058,1367715.9369943,14
1660048352.39155,1367715.936998,18
1660048352.39155,1367715.9370031,30
1660048352.39155,1367715.9370069,32
1660048352.39155,1367715.937019,35
1660048352.39155,1367715.9370226,42
1660048352.39155,1367715.937028,44
1660048352.39155,1367715.9370317,58
1660048352.39155,1367715.9370371,119
1660048352.39155,1367715.9370402,269
1660048352.39155,1367715.9370434,488
1660048352.39155,1367715.9370466,603
1660048352.39155,1367715.9370499,439
1660048352.39155,1367715.9370535,86
1660048352.39155,1367715.937059,-112
1660048352.39155,1367715.9370625,-39
1660048352.39155,1367716.4729756,23
1660048352.39155,1367716.4729948,-7
1660048352.39155,1367716.4730062,14
1660048352.39155,1367716.4730149,65
1660048352.39155,1367716.4730235,72
1660048352.39155,1367716.4730329,60
1660048352.39155,1367716.473039,58
1660048352.39155,1367716.4730448,63
1660048352.39155,1367716.4730539,58
1660048353.05267,1367716.4730785,53
1660048353.05267,1367716.4730861,67
1660048353.05267,1367716.4730921,81
1660048353.05267,1367716.4730969,79
1660048353.05267,1367716.473102,70
1660048353.05267,1367716.4731074,81
1660048353.05267,1367716.4731126,102
1660048353.05267,1367716.4731189,112
1660048353.05267,1367716.4731232,116
1660048353.05267,1367716.4731262,116
1660048353.05267,1367716.4731291,112
1660048353.05267,1367716.4731318,109
1660048353.05267,1367716.4731348,112
1660048353.05267,1367716.4731376,114
1660048353.05267,1367716.4731405,112
1660048353.05267,1367716.4731451,105
1660048353.05267,1367716.4731484,91
1660048353.05267,1367716.4731512,74
1660048353.05267,1367716.4731541,67
1660048353.05267,1367716.4731571,67
1660048353.05267,1367716.4731603,60
1660048353.05267,1367716.4731637,56
1660048353.05267,1367716.4731667,46
1660048353.05267,1367716.4731698,18
1660048353.05267,1367716.4731727,9
1660048353.05267,1367716.4731755,30
1660048353.05267,1367716.4731785,58
1660048353.05267,1367716.4731818,77
1660048353.05267,1367716.4731868,74
1660048353.05267,1367716.4731909,58
1660048353.05267,1367716.4731963,46
1660048353.05267,1367716.4732012,49
1660048353.05267,1367716.4732053,51
1660048353.05267,1367716.473209,49
1660048353.05267,1367716.4732126,56
1660048353.05267,1367716.4732162,58
1660048353.05267,1367716.4732198,49
1660048353.05267,1367716.4732233,53
1660048353.05267,1367716.4732268,65
1660048353.05267,1367716.4732301,65
1660048353.05267,1367716.473234,58
1660048353.05267,1367716.4732371,51
1660048353.05267,1367716.4732403,58
1660048353.05267,1367716.4732447,72
1660048353.05267,1367716.4732484,74
1660048353.05267,1367716.4732612,72
1660048353.05267,1367716.4732736,74
1660048353.05267,1367716.4732826,74
1660048353.05267,1367716.473292,77
1660048353.05267,1367716.4732995,91
1660048353.06563,1367716.4733077,95
1660048353.06563,1367716.4733138,86
1660048353.06563,1367716.4733187,77
1660048353.06563,1367716.4733254,79
1660048353.06563,1367716.4733315,91
1660048353.06563,1367716.473337,102
1660048353.06563,1367716.473345,102
1660048353.06563,1367716.4733515,109
1660048353.06563,1367716.4733569,121
1660048353.06563,1367716.473366,114
1660048353.06563,1367716.4733748,105
1660048353.06563,1367716.4733831,102
1660048353.06563,1367716.4733912,102
1660048353.06563,1367716.473399,109
1660048353.06563,1367717.156017,114
1660048353.06563,1367717.1560389,109
1660048353.06563,1367717.156048,105
1660048353.06563,1367717.1560541,105
1660048353.06563,1367717.1560613,119
1660048353.06563,1367717.1560644,159
1660048353.06563,1367717.1560674,250
1660048353.06563,1367717.1560704,428
1660048353.06563,1367717.1560734,603
1660048353.06563,1367717.1560763,568
1660048353.49989,1367717.15608,273
1660048353.49989,1367717.1560868,-18
1660048353.49989,1367717.1560937,-30
1660048353.49989,1367717.1561183,88
1660048353.49989,1367717.1561231,77
1660048353.49989,1367717.1561264,28
1660048353.49989,1367717.1561305,51
1660048353.49989,1367717.1561365,67
1660048353.49989,1367717.1561397,51
1660048353.49989,1367717.1561428,44
1660048353.49989,1367717.1561459,44
1660048353.49989,1367717.1561489,44
1660048353.49989,1367717.1561519,49
1660048353.49989,1367717.156155,67
1660048353.49989,1367717.156158,79
1660048353.49989,1367717.156164,84
1660048353.49989,1367717.1561672,91
1660048353.49989,1367717.1561704,102
1660048353.49989,1367717.1561734,112
1660048353.49989,1367717.1561765,124
1660048353.49989,1367717.1561795,140
1660048353.49989,1367717.1561827,149
1660048353.49989,1367717.1561858,145
1660048353.49989,1367717.1561888,142
1660048353.49989,1367717.1561917,152
1660048353.49989,1367717.1561949,152
1660048353.49989,1367717.1561982,140
1660048353.49989,1367717.1562017,133
1660048353.49989,1367717.1562047,142
1660048353.49989,1367717.1562079,152
1660048353.49989,1367717.1562111,147
1660048353.49989,1367717.1562154,131
1660048353.49989,1367717.1562185,116
1660048353.49989,1367717.1562218,102
1660048353.49989,1367717.1562251,100
1660048353.49989,1367717.1562287,107
1660048353.49989,1367717.156232,105
1660048353.49989,1367717.1562352,105
1660048353.49989,1367717.1562386,109
1660048353.49989,1367717.1562441,114
1660048353.49989,1367717.1562475,114
1660048353.49989,1367717.1562533,114
1660048353.49989,1367717.1562576,121
1660048353.49989,1367717.1562638,126
1660048353.49989,1367717.1562669,128
1660048353.49989,1367717.1562698,131
1660048353.49989,1367717.1562727,135
1660048353.49989,1367717.1562756,140
1660048353.49989,1367717.1562786,145
1660048353.49989,1367717.1562816,135
1660048353.50987,1367717.1562846,121
1660048353.50987,1367717.1562875,114
1660048353.50987,1367717.1562904,112
1660048353.50987,1367717.1562934,112
1660048353.50987,1367717.1562963,116
1660048353.50987,1367717.1562991,121
1660048353.50987,1367717.1563022,107
1660048353.50987,1367717.1563051,98
1660048353.50987,1367717.156308,112
1660048353.50987,1367717.1563109,121
1660048353.50987,1367717.1563139,128
1660048353.50987,1367717.1563168,145
1660048353.50987,1367717.1563197,154
1660048353.50987,1367717.593905,142
1660048353.50987,1367717.5939185,135
1660048353.50987,1367717.5939233,138
1660048353.50987,1367717.5939273,138
1660048353.50987,1367717.5939295,142
1660048353.50987,1367717.5939317,145
1660048353.50987,1367717.5939338,145
1660048353.50987,1367717.5939359,147
1660048353.50987,1367717.5939381,156
1660048353.50987,1367717.5939403,168
1660048353.50987,1367717.5939424,173
1660048354.0307,1367717.5939445,154
1660048354.0307,1367717.5939466,114
1660048354.0307,1367717.5939486,91
1660048354.0307,1367717.5939505,109
1660048354.0307,1367717.593954,126
1660048354.0307,1367717.593963,119
1660048354.0307,1367717.5939678,119
1660048354.0307,1367717.5939733,116
1660048354.0307,1367717.593981,100
1660048354.0307,1367717.5939875,102
1660048354.0307,1367717.5939898,145
1660048354.0307,1367717.5939922,269
1660048354.0307,1367717.5939944,470
1660048354.0307,1367717.5939965,627
1660048354.0307,1367717.5939987,559
1660048354.0307,1367717.5940008,264
1660048354.0307,1367717.594003,-4
1660048354.0307,1367717.5940052,2
1660048354.0307,1367717.5940073,109
1660048354.0307,1367717.5940095,77
1660048354.0307,1367717.5940116,35
1660048354.0307,1367717.5940138,67
1660048354.0307,1367717.5940159,98
1660048354.0307,1367717.594018,105
1660048354.0307,1367717.5940201,119
1660048354.0307,1367717.5940222,119
1660048354.0307,1367717.5940243,93
1660048354.0307,1367717.5940265,70
1660048354.0307,1367717.5940287,84
1660048354.0307,1367717.5940308,124
1660048354.0307,1367717.5940329,138
1660048354.0307,1367717.594035,135
1660048354.0307,1367717.5940371,147
1660048354.0307,1367717.5940392,142
1660048354.0307,1367717.5940413,124
1660048354.0307,1367717.5940435,149
1660048354.0307,1367717.5940455,182
1660048354.0307,1367717.5940477,182
1660048354.0307,1367717.5940497,173
1660048354.0307,1367717.5940518,175
1660048354.0307,1367717.594054,173
1660048354.0307,1367717.5940562,173
1660048354.0307,1367717.5940583,166
1660048354.0307,1367717.5940604,145
1660048354.0307,1367717.5940625,131
1660048354.0307,1367717.5940646,133
1660048354.0307,1367717.5940666,138
1660048354.0307,1367717.5940687,126
1660048354.0307,1367717.5940708,109
1660048354.0307,1367717.594073,112
1660048354.04167,1367717.594075,105
1660048354.04167,1367717.5940772,84
1660048354.04167,1367717.5940793,93
1660048354.04167,1367717.5940814,114
1660048354.04167,1367717.5940834,102
1660048354.04167,1367717.5940855,88
1660048354.04167,1367717.5940877,100
1660048354.04167,1367717.5940898,116
1660048354.04167,1367717.5940919,114
1660048354.04167,1367717.594094,109
1660048354.04167,1367717.5940964,107
1660048354.04167,1367717.5940986,100
1660048354.04167,1367718.1307133,86
1660048354.04167,1367718.1307333,72
1660048354.04167,1367718.1307435,63
1660048354.04167,1367718.1307529,77
1660048354.04167,1367718.1307603,86
1660048354.04167,1367718.1307723,67
1660048354.04167,1367718.1307793,60
1660048354.04167,1367718.130788,79
1660048354.04167,1367718.1307966,74
1660048354.04167,1367718.1308016,37
1660048354.04167,1367718.1308095,16
1660048354.04167,1367718.1308169,30
1660048354.66723,1367718.1308224,37
1660048354.66723,1367718.1308271,37
1660048354.66723,1367718.130835,46
1660048354.66723,1367718.1308427,44
1660048354.66723,1367718.1308495,18
1660048354.66723,1367718.1308564,-2
1660048354.66723,1367718.1308638,-16
1660048354.66723,1367718.1308712,-2
1660048354.66723,1367718.1308762,23
1660048354.66723,1367718.1308807,18
1660048354.66723,1367718.1308844,16
1660048354.66723,1367718.1308892,39
1660048354.66723,1367718.1308947,49
1660048354.66723,1367718.1309009,39
1660048354.66723,1367718.130905,30
1660048354.66723,1367718.1309103,28
1660048354.66723,1367718.1309166,32
1660048354.66723,1367718.1309244,37
1660048354.66723,1367718.1309316,42
1660048354.66723,1367718.130938,56
1660048354.66723,1367718.1309438,60
1660048354.66723,1367718.1309499,56
1660048354.66723,1367718.1309569,84
1660048354.66723,1367718.1309648,191
1660048354.66723,1367718.1309708,390
1660048354.66723,1367718.1309766,568
1660048354.66723,1367718.1309815,549
1660048354.66723,1367718.1309876,276
1660048354.66723,1367718.1309952,-30
1660048354.66723,1367718.1310017,-67
1660048354.66723,1367718.1310085,46
1660048354.66723,1367718.1310128,49
1660048354.66723,1367718.1310176,16
1660048354.66723,1367718.1310243,51
1660048354.66723,1367718.1310315,67
1660048354.66723,1367718.1310381,46
1660048354.66723,1367718.1310436,51
1660048354.66723,1367718.1310481,70
1660048354.66723,1367718.1310538,84
1660048354.66723,1367718.1310606,98
1660048354.66723,1367718.1310681,98
1660048354.66723,1367718.1310733,84
1660048354.66723,1367718.1310796,72
1660048354.66723,1367718.1310848,95
1660048354.66723,1367718.131092,140
1660048354.66723,1367718.131099,152
1660048354.66723,1367718.1311053,140
1660048354.66723,1367718.1311092,152
1660048354.66723,1367718.1311145,170
1660048354.66723,1367718.1311204,184
1660048354.6792,1367718.1311278,205
1660048354.6792,1367718.1311334,208
1660048354.6792,1367718.1311388,177
1660048354.6792,1367718.1311463,149
1660048354.6792,1367718.1312351,140
1660048354.6792,1367718.1312586,131
1660048354.6792,1367718.1312659,126
1660048354.6792,1367718.1312706,126
1660048354.6792,1367718.1312751,107
1660048354.6792,1367718.1312788,98
1660048354.6792,1367718.1312825,109
1660048354.6792,1367718.7638976,100
1660048354.6792,1367718.7639102,81
1660048354.6792,1367718.7639143,84
1660048354.6792,1367718.7639167,86
1660048354.6792,1367718.763919,79
1660048354.6792,1367718.7639212,72
1660048354.6792,1367718.7639234,56
1660048354.6792,1367718.7639256,42
1660048354.6792,1367718.7639277,46
1660048354.6792,1367718.7639299,37
1660048354.6792,1367718.763932,14
1660048354.6792,1367718.7639348,-4
1660048354.6792,1367718.7639427,-16
1660048355.20166,1367718.7639538,-16
1660048355.20166,1367718.7639576,-4
1660048355.20166,1367718.7639605,-2
1660048355.20166,1367718.7639634,-11
1660048355.20166,1367718.7639662,-4
1660048355.20166,1367718.7639692,11
1660048355.20166,1367718.7639755,7
1660048355.20166,1367718.7639828,-2
1660048355.20166,1367718.7639875,9
1660048355.20166,1367718.7639917,21
1660048355.20166,1367718.7639968,9
1660048355.20166,1367718.7640035,0
1660048355.20166,1367718.7640116,7
1660048355.20166,1367718.7640221,16
1660048355.20166,1367718.7640257,23
1660048355.20166,1367718.7640312,28
1660048355.20166,1367718.7640333,37
1660048355.20166,1367718.7640362,46
1660048355.20166,1367718.7640383,63
1660048355.20166,1367718.7640404,77
1660048355.20166,1367718.7640425,79
1660048355.20166,1367718.7640446,74
1660048355.20166,1367718.7640467,84
1660048355.20166,1367718.7640489,98
1660048355.20166,1367718.7640509,91
1660048355.20166,1367718.764053,74
1660048355.20166,1367718.764055,79
1660048355.20166,1367718.764057,91
1660048355.20166,1367718.7640591,91
1660048355.20166,1367718.7640612,88
1660048355.20166,1367718.764064,91
1660048355.20166,1367718.7640661,93
1660048355.20166,1367718.7640682,102
1660048355.20166,1367718.7640704,133
1660048355.20166,1367718.7640725,224
1660048355.20166,1367718.7640746,416
1660048355.20166,1367718.7640768,610
1660048355.20166,1367718.7640789,582

1660048355.20166,1367718.7640811,299
1660048355.20166,1367718.7640832,23
1660048355.20166,1367718.7640854,9
1660048355.20166,1367718.7640875,124
1660048355.20166,1367718.7640895,112
1660048355.20166,1367718.7640917,65
1660048355.20166,1367718.7640937,84
1660048355.20166,1367718.7640958,95
1660048355.20166,1367718.7640979,98
1660048355.20166,1367718.7641001,116
1660048355.20166,1367718.7641028,116
1660048355.20166,1367718.7641048,114
1660048355.21362,1367718.7641069,119
1660048355.21362,1367718.764109,119
1660048355.21362,1367718.7641111,131
1660048355.21362,1367718.7641132,156
1660048355.21362,1367718.7641153,173
1660048355.21362,1367718.7641174,182
1660048355.21362,1367718.7641195,182
1660048355.21362,1367718.764122,163
1660048355.21362,1367718.7641241,163
1660048355.21362,1367718.7641263,194
1660048355.21362,1367719.3004782,210
1660048355.21362,1367719.3004981,212
1660048355.21362,1367719.3005072,217
1660048355.21362,1367719.300511,194
1660048355.21362,1367719.3005145,159
1660048355.21362,1367719.3005178,161
1660048355.21362,1367719.3005213,170
1660048355.21362,1367719.3005248,140
1660048355.21362,1367719.3005291,102
1660048355.21362,1367719.3005325,79
1660048355.21362,1367719.3005359,60
1660048355.21362,1367719.3005401,53
1660048355.21362,1367719.3005461,72
1660048355.21362,1367719.3005524,86
1660048355.74224,1367719.3005574,81
1660048355.74224,1367719.3005632,81
1660048355.74224,1367719.3005664,74
1660048355.74224,1367719.3005695,58
1660048355.74224,1367719.3005728,74
1660048355.74224,1367719.3005757,79
1660048355.74224,1367719.3005788,44
1660048355.74224,1367719.3005822,23
1660048355.74224,1367719.3005857,21
1660048355.74224,1367719.3005896,18
1660048355.74224,1367719.3005932,23
1660048355.74224,1367719.3005978,35
1660048355.74224,1367719.3006022,37
1660048355.74224,1367719.3006071,18
1660048355.74224,1367719.3006136,16
1660048355.74224,1367719.3006197,28
1660048355.74224,1367719.3006262,30
1660048355.74224,1367719.3006327,30
1660048355.74224,1367719.3006404,37
1660048355.74224,1367719.3006438,37
1660048355.74224,1367719.3006546,23
1660048355.74224,1367719.3006648,28
1660048355.74224,1367719.3006747,53
1660048355.74224,1367719.3006826,56
1660048355.74224,1367719.3006936,46
1660048355.74224,1367719.3007022,46
1660048355.74224,1367719.3007104,49
1660048355.74224,1367719.3007212,53
1660048355.74224,1367719.3007296,63
1660048355.74224,1367719.3007384,67
1660048355.74224,1367719.3007492,74
1660048355.74224,1367719.3007569,79
1660048355.74224,1367719.3007659,81
1660048355.74224,1367719.3007714,86
1660048355.74224,1367719.300774,88
1660048355.74224,1367719.3007763,86
1660048355.74224,1367719.3007784,81
1660048355.74224,1367719.3007805,79
1660048355.74224,1367719.3007826,81
1660048355.74224,1367719.3007847,77
1660048355.74224,1367719.3007868,70
1660048355.74224,1367719.3007888,77
1660048355.74224,1367719.300791,88
1660048355.74224,1367719.3007935,91
1660048355.74224,1367719.3008019,100
1660048355.74224,1367719.3008122,147
1660048355.74224,1367719.3008156,271
1660048355.74224,1367719.3008192,465
1660048355.74224,1367719.3008212,596
1660048355.74224,1367719.3008237,488
1660048355.75321,1367719.3008258,177
1660048355.75321,1367719.3008286,-39
1660048355.75321,1367719.3008386,16
1660048355.75321,1367719.3008474,105
1660048355.75321,1367719.3008498,49
1660048355.75321,1367719.300852,18
1660048355.75321,1367719.3008541,58
1660048355.75321,1367719.3008562,63
1660048355.75321,1367719.3008583,46
1660048355.75321,1367719.8373071,63
1660048355.75321,1367719.8373207,77
1660048355.75321,1367719.837324,72
1660048355.75321,1367719.8373266,79
1660048355.75321,1367719.837329,93
1660048355.75321,1367719.8373314,98
1660048355.75321,1367719.8373337,98
1660048355.75321,1367719.8373358,95
1660048355.75321,1367719.837338,98
1660048355.75321,1367719.8373402,116
1660048355.75321,1367719.8373424,133
1660048355.75321,1367719.8373451,133
1660048355.75321,1367719.8373517,124
1660048355.75321,1367719.8373587,114
1660048355.75321,1367719.8373635,112
1660048356.36819,1367719.8373674,116
1660048356.36819,1367719.8373719,119
1660048356.36819,1367719.837376,109
1660048356.36819,1367719.8373798,81
1660048356.36819,1367719.8373833,56
1660048356.36819,1367719.8373892,44
1660048356.36819,1367719.8373958,44
1660048356.36819,1367719.8373982,49
1660048356.36819,1367719.8374002,46
1660048356.36819,1367719.8374023,42
1660048356.36819,1367719.8374043,37
1660048356.36819,1367719.8374075,18
1660048356.36819,1367719.8374136,0
1660048356.36819,1367719.8374239,9
1660048356.36819,1367719.8374307,35
1660048356.36819,1367719.8374351,46
1660048356.36819,1367719.8374408,44
1660048356.36819,1367719.8374446,37
1660048356.36819,1367719.8374482,37
1660048356.36819,1367719.8374532,46
1660048356.36819,1367719.8374581,46
1660048356.36819,1367719.8374687,44
1660048356.36819,1367719.8374726,46
1660048356.36819,1367719.8374749,44
1660048356.36819,1367719.837477,42
1660048356.36819,1367719.8374791,39
1660048356.36819,1367719.8374813,42
1660048356.36819,1367719.8374835,46
1660048356.36819,1367719.8374856,49
1660048356.36819,1367719.8374876,44
1660048356.36819,1367719.8374896,44
1660048356.36819,1367719.8374917,58
1660048356.36819,1367719.8374937,65
1660048356.36819,1367719.8374958,74
1660048356.36819,1367719.8374978,84
1660048356.36819,1367719.8374998,79
1660048356.36819,1367719.8375019,67
1660048356.36819,1367719.8375039,72
1660048356.36819,1367719.8375059,77
1660048356.36819,1367719.8375079,67
1660048356.36819,1367719.8375099,77
1660048356.36819,1367719.8375121,112
1660048356.36819,1367719.8375141,128
1660048356.36819,1367719.8375161,128
1660048356.36819,1367719.8375181,138
1660048356.36819,1367719.8375202,142
1660048356.36819,1367719.8375222,128
1660048356.36819,1367719.8375243,91
1660048356.36819,1367719.8375263,58
1660048356.36819,1367719.8375285,58
1660048356.38116,1367719.8375306,65
1660048356.38116,1367719.837533,67
1660048356.38116,1367719.8375353,72
1660048356.38116,1367719.8375374,88
1660048356.38116,1367719.8375394,116
1660048356.38116,1367719.8375413,133
1660048356.38116,1367719.8375487,142
1660048356.38116,1367719.8375597,217
1660048356.38116,1367720.4710207,395
1660048356.38116,1367720.4710424,561
1660048356.38116,1367720.4710515,556
1660048356.38116,1367720.4710544,322
1660048356.38116,1367720.4710569,28
1660048356.38116,1367720.4710592,-28
1660048356.38116,1367720.4710614,93
1660048356.38116,1367720.4710635,105
1660048356.38116,1367720.4710656,42
1660048356.38116,1367720.4710676,21
1660048356.38116,1367720.4710697,23
1660048356.38116,1367720.4710718,42
1660048356.38116,1367720.4710739,53
1660048356.38116,1367720.4710759,53
1660048356.38116,1367720.471078,53
1660048356.38116,1367720.4710801,49
1660048356.86498,1367720.4710822,51
1660048356.86498,1367720.4710842,58
1660048356.86498,1367720.4710861,56
1660048356.86498,1367720.471088,58
1660048356.86498,1367720.4710899,63
1660048356.86498,1367720.4710918,70
1660048356.86498,1367720.4710938,86
1660048356.86498,1367720.4710957,95
1660048356.86498,1367720.4710977,102
1660048356.86498,1367720.4710996,131
1660048356.86498,1367720.4711014,159
1660048356.86498,1367720.4711033,147
1660048356.86498,1367720.4711052,131
1660048356.86498,1367720.4711072,119
1660048356.86498,1367720.4711092,88
1660048356.86498,1367720.4711113,67
1660048356.86498,1367720.4711132,70
1660048356.86498,1367720.4711151,67
1660048356.86498,1367720.471117,63
1660048356.86498,1367720.4711231,67
1660048356.86498,1367720.4711327,67
1660048356.86498,1367720.4711444,49
1660048356.86498,1367720.4711592,25
1660048356.86498,1367720.4711733,28
1660048356.86498,1367720.4711868,39
1660048356.86498,1367720.4712003,25
1660048356.86498,1367720.4712136,30
1660048356.86498,1367720.4712282,56
1660048356.86498,1367720.4712364,44
1660048356.86498,1367720.4712388,30
1660048356.86498,1367720.4712409,42
1660048356.86498,1367720.4712431,46
1660048356.86498,1367720.4712452,30
1660048356.86498,1367720.4712473,16
1660048356.86498,1367720.4712503,16
1660048356.86498,1367720.4712524,30
1660048356.86498,1367720.4712549,42
1660048356.86498,1367720.4712571,35
1660048356.86498,1367720.4712592,16
1660048356.86498,1367720.4712613,11
1660048356.86498,1367720.4712634,16
1660048356.86498,1367720.4712655,14
1660048356.86498,1367720.4712676,14
1660048356.86498,1367720.4712698,18
1660048356.86498,1367720.4712721,23
1660048356.86498,1367720.4712742,28
1660048356.86498,1367720.4712762,23
1660048356.86498,1367720.4712783,16
1660048356.86498,1367720.4712805,23
1660048356.86498,1367720.4712826,32
1660048356.87595,1367720.4712848,23
1660048356.87595,1367720.471287,16
1660048356.87595,1367720.4712891,39
1660048356.87595,1367720.4712912,56
1660048356.87595,1367720.4712934,37
1660048356.87595,1367720.4712955,21
1660048356.87595,1367720.4712976,30
1660048356.87595,1367720.958566,37
1660048356.87595,1367720.9585883,35
1660048356.87595,1367720.9586721,42
1660048356.87595,1367720.9586855,63
1660048356.87595,1367720.9586929,72
1660048356.87595,1367720.9586998,56
1660048356.87595,1367720.9587046,53
1660048356.87595,1367720.958711,147
1660048356.87595,1367720.9587146,355
1660048356.87595,1367720.9587208,556
1660048356.87595,1367720.9587247,580
1660048356.87595,1367720.9587292,343
1660048356.87595,1367720.9587358,-4
1660048356.87595,1367720.958743,-128
1660048356.87595,1367720.9587468,-21
1660048356.87595,1367720.9587522,-2
1660048356.87595,1367720.9587554,-53
1660048357.40145,1367720.9587596,-21
1660048357.40145,1367720.9587638,2
1660048357.40145,1367720.9587677,-28
1660048357.40145,1367720.9587715,-28
1660048357.40145,1367720.9587747,-11
1660048357.40145,1367720.9587788,-21
1660048357.40145,1367720.9587821,-21
1660048357.40145,1367720.9587851,-25
1660048357.40145,1367720.9587882,-51
1660048357.40145,1367720.9587915,-53
1660048357.40145,1367720.9587949,-21
1660048357.40145,1367720.9588024,-7
1660048357.40145,1367720.9588059,-7
1660048357.40145,1367720.9588093,-2
1660048357.40145,1367720.9588132,-9
1660048357.40145,1367720.9588231,-4
1660048357.40145,1367720.9588284,30
1660048357.40145,1367720.9588348,51
1660048357.40145,1367720.9588396,53
1660048357.40145,1367720.95885,49
1660048357.40145,1367720.9588639,30
1660048357.40145,1367720.9588699,4
1660048357.40145,1367720.9588807,-16
1660048357.40145,1367720.9588846,-32
1660048357.40145,1367720.9588897,-18
1660048357.40145,1367720.9588944,-2
1660048357.40145,1367720.9589026,-11
1660048357.40145,1367720.9589073,-4
1660048357.40145,1367720.958954,-7
1660048357.40145,1367720.9589644,-46
1660048357.40145,1367720.9590079,-72
1660048357.40145,1367720.9590141,-70
1660048357.40145,1367720.9590179,-81
1660048357.40145,1367720.9590227,-95
1660048357.40145,1367720.9590291,-79
1660048357.40145,1367720.9590342,-72
1660048357.40145,1367720.9590428,-84
1660048357.40145,1367720.9590515,-74
1660048357.40145,1367720.959054,-49
1660048357.40145,1367720.9590563,-58
1660048357.40145,1367720.9590585,-77
1660048357.40145,1367720.959061,-70
1660048357.40145,1367720.9590629,-58
1660048357.40145,1367720.9590651,-58
1660048357.40145,1367720.9590671,-51
1660048357.40145,1367720.9590691,-44
1660048357.40145,1367720.9590712,-58
1660048357.40145,1367720.9590733,-63
1660048357.40145,1367720.9590753,-49
1660048357.40145,1367720.9590774,-51
1660048357.41242,1367720.9590794,-60
1660048357.41242,1367720.9590826,-60
1660048357.41242,1367720.9590847,-51
1660048357.41242,1367720.9590868,-35
1660048357.41242,1367720.9590888,-28
1660048357.41242,1367720.9590909,-35
1660048357.41242,1367721.4947265,-32
1660048357.41242,1367721.4947485,-11
1660048357.41242,1367721.4947579,2
1660048357.41242,1367721.4947605,-4
1660048357.41242,1367721.4947626,-18
1660048357.41242,1367721.4947647,-25
1660048357.41242,1367721.4947668,-25
1660048357.41242,1367721.4947688,-23
1660048357.41242,1367721.4947708,-30
1660048357.41242,1367721.4947729,-56
1660048357.41242,1367721.4947751,-65
1660048357.41242,1367721.4947772,-44
1660048357.41242,1367721.4947792,-44
1660048357.41242,1367721.4947814,-58
1660048357.41242,1367721.4947834,-39
1660048357.41242,1367721.4947855,23
1660048357.41242,1367721.4947876,168
1660048357.41242,1367721.4947897,379
1660048357.98655,1367721.4947919,470
1660048357.98655,1367721.4947939,287
1660048357.98655,1367721.4947958,-60
1660048357.98655,1367721.4947977,-217
1660048357.98655,1367721.4947996,-112
1660048357.98655,1367721.4948015,-63
1660048357.98655,1367721.4948035,-114
1660048357.98655,1367721.4948054,-91
1660048357.98655,1367721.4948073,-39
1660048357.98655,1367721.4948092,-44
1660048357.98655,1367721.4948111,-51
1660048357.98655,1367721.494813,-37
1660048357.98655,1367721.4948148,-30
1660048357.98655,1367721.4948169,-28
1660048357.98655,1367721.4948199,-21
1660048357.98655,1367721.4948295,-16
1660048357.98655,1367721.494837,-4
1660048357.98655,1367721.4948416,2
1660048357.98655,1367721.4948436,-4
1660048357.98655,1367721.4948467,-11
1660048357.98655,1367721.4948489,7
1660048357.98655,1367721.4948509,32
1660048357.98655,1367721.494853,30
1660048357.98655,1367721.4948551,30
1660048357.98655,1367721.4948572,53
1660048357.98655,1367721.4948593,53
1660048357.98655,1367721.4948613,32
1660048357.98655,1367721.4948635,14
1660048357.98655,1367721.4948655,-4
1660048357.98655,1367721.4948676,0
1660048357.98655,1367721.4948697,23
1660048357.98655,1367721.4948717,16
1660048357.98655,1367721.4948737,4
1660048357.98655,1367721.494876,7
1660048357.98655,1367721.4948782,-21
1660048357.98655,1367721.4948803,-46
1660048357.98655,1367721.4948823,-18
1660048357.98655,1367721.4948843,-2
1660048357.98655,1367721.4948864,-16
1660048357.98655,1367721.4948884,-11
1660048357.98655,1367721.4948904,-11
1660048357.98655,1367721.4948925,-32
1660048357.98655,1367721.4948946,-25
1660048357.98655,1367721.4948966,-2
1660048357.98655,1367721.4948986,-7
1660048357.98655,1367721.4949006,0
1660048357.98655,1367721.4949027,37
1660048357.98655,1367721.4949048,58
1660048357.98655,1367721.4949068,44
1660048357.98655,1367721.4949089,21
1660048357.99652,1367721.4949131,16
1660048357.99652,1367721.4949166,18
1660048357.99652,1367721.4949267,0
1660048357.99652,1367721.4949341,-25
1660048357.99652,1367721.4949403,-28
1660048357.99652,1367722.0798617,-16
1660048357.99652,1367722.0798744,-9
1660048357.99652,1367722.0798771,-9
1660048357.99652,1367722.0798793,-25
1660048357.99652,1367722.0798814,-44
1660048357.99652,1367722.0798835,-46
1660048357.99652,1367722.0798856,-46
1660048357.99652,1367722.0798877,-37
1660048357.99652,1367722.0798897,-4
1660048357.99652,1367722.0798919,11
1660048357.99652,1367722.0798941,-2
1660048357.99652,1367722.0798961,-14
1660048357.99652,1367722.0798981,-14
1660048357.99652,1367722.0799002,-21
1660048357.99652,1367722.0799024,-25
1660048357.99652,1367722.0799044,-30
1660048357.99652,1367722.0799065,-39
1660048357.99652,1367722.0799125,-51
1660048357.99652,1367722.0799248,-56
1660048358.56714,1367722.0799307,-35
1660048358.56714,1367722.079933,0
1660048358.56714,1367722.0799349,18
1660048358.56714,1367722.0799368,32
1660048358.56714,1367722.0799387,81
1660048358.56714,1367722.0799468,208
1660048358.56714,1367722.0799559,409
1660048358.56714,1367722.0799594,540
1660048358.56714,1367722.0799698,397
1660048358.56714,1367722.0799778,53
1660048358.56714,1367722.0799898,-133
1660048358.56714,1367722.0799987,-46
1660048358.56714,1367722.0800013,21
1660048358.56714,1367722.0800035,-18
1660048358.56714,1367722.0800057,0
1660048358.56714,1367722.0800091,35
1660048358.56714,1367722.0800173,9
1660048358.56714,1367722.0800247,-21
1660048358.56714,1367722.0800313,-21
1660048358.56714,1367722.0800363,-7
1660048358.56714,1367722.0800431,0
1660048358.56714,1367722.0800489,16
1660048358.56714,1367722.0800547,21
1660048358.56714,1367722.0800589,9
1660048358.56714,1367722.0800647,32
1660048358.56714,1367722.0800712,79
1660048358.56714,1367722.0800759,88
1660048358.56714,1367722.0800797,60
1660048358.56714,1367722.0800871,67
1660048358.56714,1367722.0800948,93
1660048358.56714,1367722.0801022,98
1660048358.56714,1367722.080109,109
1660048358.56714,1367722.0801129,116
1660048358.56714,1367722.0801202,100
1660048358.56714,1367722.0801247,95
1660048358.56714,1367722.0801288,100
1660048358.56714,1367722.080133,91
1660048358.56714,1367722.0801373,77
1660048358.56714,1367722.0801421,70
1660048358.56714,1367722.0801462,58
1660048358.56714,1367722.08015,42
1660048358.56714,1367722.0801539,32
1660048358.56714,1367722.0801578,30
1660048358.56714,1367722.0801614,23
1660048358.56714,1367722.0801654,16
1660048358.56714,1367722.0801692,25
1660048358.56714,1367722.080173,49
1660048358.56714,1367722.0801769,51
1660048358.56714,1367722.0801814,32
1660048358.56714,1367722.0801859,23
1660048358.57712,1367722.0801902,18
1660048358.57712,1367722.080194,0
1660048358.57712,1367722.0801976,-9
1660048358.57712,1367722.0802016,0
1660048358.57712,1367722.664388,-4
1660048358.57712,1367722.6644009,-9
1660048358.57712,1367722.6644049,11
1660048358.57712,1367722.6644139,16
1660048358.57712,1367722.6644238,9
1660048358.57712,1367722.6644312,25
1660048358.57712,1367722.6644337,28
1660048358.57712,1367722.6644359,4
1660048358.57712,1367722.664438,-16
1660048358.57712,1367722.6644401,-35
1660048358.57712,1367722.6644429,-25
1660048358.57712,1367722.6644505,-9
1660048358.57712,1367722.6644619,-37
1660048358.57712,1367722.664465,-58
1660048358.57712,1367722.6644673,-46
1660048358.57712,1367722.6644694,-53
1660048358.57712,1367722.6644715,-72
1660048358.57712,1367722.6644736,-77
1660048358.57712,1367722.6644758,-67
1660048358.57712,1367722.6644779,-49
1660048359.15539,1367722.6644798,-44
1660048359.15539,1367722.6644865,-70
1660048359.15539,1367722.6644963,-84
1660048359.15539,1367722.6645001,-58
1660048359.15539,1367722.6645021,-44
1660048359.15539,1367722.6645042,-58
1660048359.15539,1367722.6645108,-79
1660048359.15539,1367722.6645179,-100
1660048359.15539,1367722.6645313,-95
1660048359.15539,1367722.6645397,-67
1660048359.15539,1367722.6645533,-53
1660048359.15539,1367722.6645614,-53
1660048359.15539,1367722.6645639,-49
1660048359.15539,1367722.6645661,-32
1660048359.15539,1367722.6645683,9
1660048359.15539,1367722.6645711,124
1660048359.15539,1367722.6645809,339
1660048359.15539,1367722.6645897,488
1660048359.15539,1367722.6645923,369
1660048359.15539,1367722.6645956,53
1660048359.15539,1367722.6646025,-149
1660048359.15539,1367722.6646116,-79
1660048359.15539,1367722.6646192,14
1660048359.15539,1367722.6646248,-11
1660048359.15539,1367722.6646296,-11
1660048359.15539,1367722.6646371,16
1660048359.15539,1367722.6646405,7
1660048359.15539,1367722.66465,0
1660048359.15539,1367722.664658,18
1660048359.15539,1367722.6646625,32
1660048359.15539,1367722.6646658,35
1660048359.15539,1367722.6646707,37
1660048359.15539,1367722.6646779,42
1660048359.15539,1367722.664682,42
1660048359.15539,1367722.6646867,42
1660048359.15539,1367722.6646913,49
1660048359.15539,1367722.6646952,53
1660048359.15539,1367722.6646984,67
1660048359.15539,1367722.6647022,105
1660048359.15539,1367722.6647067,114
1660048359.15539,1367722.6647122,93
1660048359.15539,1367722.6647156,102
1660048359.15539,1367722.6647219,126
1660048359.15539,1367722.6647269,124
1660048359.15539,1367722.6647318,116
1660048359.15539,1367722.6647346,131
1660048359.15539,1367722.6647374,133
1660048359.15539,1367722.6647403,112
1660048359.15539,1367722.6647438,81
1660048359.15539,1367722.6647468,70
1660048359.16536,1367722.6647498,86
1660048359.16536,1367722.6647528,98
1660048359.16536,1367722.6647558,81
1660048359.16536,1367723.2513749,58
1660048359.16536,1367723.2513967,67
1660048359.16536,1367723.2514083,95
1660048359.16536,1367723.2514159,93
1660048359.16536,1367723.2514184,74
1660048359.16536,1367723.2514205,72
1660048359.16536,1367723.2514224,60
1660048359.16536,1367723.2514243,56
1660048359.16536,1367723.2514263,60
1660048359.16536,1367723.2514283,56
1660048359.16536,1367723.2514344,53
1660048359.16536,1367723.251442,60
1660048359.16536,1367723.2514463,46
1660048359.16536,1367723.25145,25
1660048359.16536,1367723.2514557,28
1660048359.16536,1367723.2514616,14
1660048359.16536,1367723.2514672,-11
1660048359.16536,1367723.2514713,-14
1660048359.16536,1367723.2514749,-25
1660048359.16536,1367723.2514823,-56
1660048359.16536,1367723.2514967,-60
1660048359.78871,1367723.2515094,-51
1660048359.78871,1367723.2515176,-56
1660048359.78871,1367723.251525,-63
1660048359.78871,1367723.2515326,-72
1660048359.78871,1367723.251538,-81
1660048359.78871,1367723.251543,-79
1660048359.78871,1367723.2515483,-65
1660048359.78871,1367723.2515521,-51
1660048359.78871,1367723.2515556,-35
1660048359.78871,1367723.2515627,-35
1660048359.78871,1367723.2515763,-53
1660048359.78871,1367723.2515871,-70
1660048359.78871,1367723.2515934,-56
1660048359.78871,1367723.251608,-23
1660048359.78871,1367723.2516215,2
1660048359.78871,1367723.2516355,0
1660048359.78871,1367723.2516486,-23
1660048359.78871,1367723.2516627,-39
1660048359.78871,1367723.2516757,-25
1660048359.78871,1367723.251689,-4
1660048359.78871,1367723.2517024,-2
1660048359.78871,1367723.2517162,-9
1660048359.78871,1367723.2517295,-21
1660048359.78871,1367723.2517431,-37
1660048359.78871,1367723.2517565,-25
1660048359.78871,1367723.2517687,53
1660048359.78871,1367723.251779,229
1660048359.78871,1367723.2517921,453
1660048359.78871,1367723.2518054,538
1660048359.78871,1367723.2518188,362
1660048359.78871,1367723.2518326,58
1660048359.78871,1367723.2518457,-112
1660048359.78871,1367723.2518594,-51
1660048359.78871,1367723.2518659,11
1660048359.78871,1367723.2518708,-23
1660048359.78871,1367723.251879,-37
1660048359.78871,1367723.2518863,-35
1660048359.78871,1367723.2518948,-32
1660048359.78871,1367723.2519017,-9
1660048359.78871,1367723.2519075,0
1660048359.78871,1367723.2519117,-7
1660048359.78871,1367723.2519167,0
1660048359.78871,1367723.2519197,23
1660048359.78871,1367723.2519246,35
1660048359.78871,1367723.251928,35
1660048359.78871,1367723.2519314,44
1660048359.78871,1367723.2519345,58
1660048359.78871,1367723.2519382,65
1660048359.78871,1367723.2519463,58
1660048359.78871,1367723.25196,51
1660048359.80066,1367723.2519733,70
1660048359.80066,1367723.2519869,77
1660048359.80066,1367723.88363,60
1660048359.80066,1367723.883652,81
1660048359.80066,1367723.8836617,124
1660048359.80066,1367723.8836647,112
1660048359.80066,1367723.883668,93
1660048359.80066,1367723.8836814,102
1660048359.80066,1367723.8836884,107
1660048359.80066,1367723.883691,88
1660048359.80066,1367723.8836931,44
1660048359.80066,1367723.8836955,-4
1660048359.80066,1367723.8836977,-2
1660048359.80066,1367723.8836998,23
1660048359.80066,1367723.8837081,44
1660048359.80066,1367723.8837186,63
1660048359.80066,1367723.8837223,39
1660048359.80066,1367723.8837261,-14
1660048359.80066,1367723.8837283,-28
1660048359.80066,1367723.8837305,-4
1660048359.80066,1367723.8837327,14
1660048359.80066,1367723.8837348,16
1660048359.80066,1367723.8837369,9
1660048359.80066,1367723.8837391,4
1660048360.27311,1367723.8837411,2
1660048360.27311,1367723.8837431,16
1660048360.27311,1367723.8837451,16
1660048360.27311,1367723.8837471,18
1660048360.27311,1367723.8837491,42
1660048360.27311,1367723.8837511,32
1660048360.27311,1367723.883753,4
1660048360.27311,1367723.8837549,2
1660048360.27311,1367723.8837568,2
1660048360.27311,1367723.8837588,-4
1660048360.27311,1367723.8837607,2
1660048360.27311,1367723.8837631,21
1660048360.27311,1367723.8837728,9
1660048360.27311,1367723.8837824,-11
1660048360.27311,1367723.8837871,-11
1660048360.27311,1367723.8837891,-18
1660048360.27311,1367723.8837922,-46
1660048360.27311,1367723.8837946,-46
1660048360.27311,1367723.8838051,-11
1660048360.27311,1367723.8838132,4
1660048360.27311,1367723.8838157,4
1660048360.27311,1367723.883818,21
1660048360.27311,1367723.88382,23
1660048360.27311,1367723.8838221,7
1660048360.27311,1367723.8838241,4
1660048360.27311,1367723.8838262,11
1660048360.27311,1367723.8838284,0
1660048360.27311,1367723.8838305,-9
1660048360.27311,1367723.8838326,7
1660048360.27311,1367723.8838351,30
1660048360.27311,1367723.8838372,23
1660048360.27311,1367723.8838393,14
1660048360.27311,1367723.8838414,70
1660048360.27311,1367723.8838434,229
1660048360.27311,1367723.8838456,444
1660048360.27311,1367723.8838476,573
1660048360.27311,1367723.8838497,477
1660048360.27311,1367723.8838518,156
1660048360.27311,1367723.8838548,-98
1660048360.27311,1367723.8838568,-67
1660048360.27311,1367723.8838595,16
1660048360.27311,1367723.883869,-11
1660048360.27311,1367723.8838711,-14
1660048360.27311,1367723.8838732,18
1660048360.27311,1367723.8838753,18
1660048360.27311,1367723.8838774,0
1660048360.27311,1367723.8838795,0
1660048360.27311,1367723.8838816,37
1660048360.27311,1367723.8838836,60
1660048360.27311,1367723.8838856,49
1660048360.28608,1367723.8838878,37
1660048360.28608,1367724.3724284,28
1660048360.28608,1367724.372447,35
1660048360.28608,1367724.3724539,53
1660048360.28608,1367724.3724579,63
1660048360.28608,1367724.3724618,67
1660048360.28608,1367724.3724654,63
1660048360.28608,1367724.3724691,46
1660048360.28608,1367724.3724724,44
1660048360.28608,1367724.3724762,58
1660048360.28608,1367724.3724796,100
1660048360.28608,1367724.3724831,133
1660048360.28608,1367724.3724868,107
1660048360.28608,1367724.3724913,60
1660048360.28608,1367724.3724954,53
1660048360.28608,1367724.3724993,63
1660048360.28608,1367724.3725057,56
1660048360.28608,1367724.3725097,44
1660048360.28608,1367724.3725133,37
1660048360.28608,1367724.3725177,21
1660048360.28608,1367724.372524,9
1660048360.28608,1367724.3725285,18
1660048360.28608,1367724.3725342,32
1660048360.28608,1367724.372539,32
1660048360.75573,1367724.3725449,28
1660048360.75573,1367724.3725488,18
1660048360.75573,1367724.3725528,0
1660048360.75573,1367724.3725575,-4
1660048360.75573,1367724.3725642,-4
1660048360.75573,1367724.3725687,-14
1660048360.75573,1367724.3726098,21
1660048360.75573,1367724.372618,81
1660048360.75573,1367724.3726231,81
1660048360.75573,1367724.37263,51
1660048360.75573,1367724.372635,51
1660048360.75573,1367724.3726396,58
1660048360.75573,1367724.3726431,46
1660048360.75573,1367724.3726465,32
1660048360.75573,1367724.37265,35
1660048360.75573,1367724.3726536,37
1660048360.75573,1367724.3726598,39
1660048360.75573,1367724.3726633,44
1660048360.75573,1367724.3726683,49
1660048360.75573,1367724.3726718,51
1660048360.75573,1367724.3726768,53
1660048360.75573,1367724.3726804,58
1660048360.75573,1367724.3726862,67
1660048360.75573,1367724.3726917,65
1660048360.75573,1367724.3726989,56
1660048360.75573,1367724.372705,63
1660048360.75573,1367724.3727086,72
1660048360.75573,1367724.3727125,67
1660048360.75573,1367724.3727171,74
1660048360.75573,1367724.3727239,86
1660048360.75573,1367724.3727276,86
1660048360.75573,1367724.3727332,79
1660048360.75573,1367724.3727369,77
1660048360.75573,1367724.3727434,81
1660048360.75573,1367724.3727508,86
1660048360.75573,1367724.3727612,84
1660048360.75573,1367724.3727731,81
1660048360.75573,1367724.3727798,107
1660048360.75573,1367724.3727835,149
1660048360.75573,1367724.372787,154
1660048360.75573,1367724.3727908,166
1660048360.75573,1367724.372798,294
1660048360.75573,1367724.3728036,510
1660048360.75573,1367724.3728101,641
1660048360.75573,1367724.3728136,519
1660048360.75573,1367724.3728171,173
1660048360.75573,1367724.3728207,-58
1660048360.75573,1367724.3728243,14
1660048360.75573,1367724.372829,98
1660048360.75573,1367724.3728344,42
1660048360.7667,1367724.8583092,37
1660048360.7667,1367724.8583207,84
1660048360.7667,1367724.8583233,81
1660048360.7667,1367724.8583255,77
1660048360.7667,1367724.8583276,98
1660048360.7667,1367724.8583297,102
1660048360.7667,1367724.8583318,100
1660048360.7667,1367724.8583339,121
1660048360.7667,1367724.858336,145
1660048360.7667,1367724.858338,154
1660048360.7667,1367724.8583401,154
1660048360.7667,1367724.8583421,159
1660048360.7667,1367724.8583442,173
1660048360.7667,1367724.8583462,177
1660048360.7667,1367724.8583482,163
1660048360.7667,1367724.8583502,142
1660048360.7667,1367724.8583523,138
1660048360.7667,1367724.8583543,152
1660048360.7667,1367724.8583564,166
1660048360.7667,1367724.8583585,170
1660048360.7667,1367724.8583605,173
1660048360.7667,1367724.8583626,173
1660048360.7667,1367724.8583645,159
1660048360.7667,1367724.8583666,140
1660048361.34324,1367724.8583687,133
1660048361.34324,1367724.8583706,138
1660048361.34324,1367724.8583725,133
1660048361.34324,1367724.8583744,107
1660048361.34324,1367724.8583763,77
1660048361.34324,1367724.8583781,77
1660048361.34324,1367724.8583801,95
1660048361.34324,1367724.8583819,107
1660048361.34324,1367724.8583838,105
1660048361.34324,1367724.8583856,105
1660048361.34324,1367724.8583875,102
1660048361.34324,1367724.8583893,100
1660048361.34324,1367724.8583912,116
1660048361.34324,1367724.858393,133
1660048361.34324,1367724.8583949,152
1660048361.34324,1367724.858397,170
1660048361.34324,1367724.8583991,168
1660048361.34324,1367724.8584012,154
1660048361.34324,1367724.8584032,152
1660048361.34324,1367724.8584053,156
1660048361.34324,1367724.8584074,159
1660048361.34324,1367724.8584093,163
1660048361.34324,1367724.8584113,163
1660048361.34324,1367724.8584133,149
1660048361.34324,1367724.8584153,135
1660048361.34324,1367724.8584174,133
1660048361.34324,1367724.8584194,140
1660048361.34324,1367724.8584214,156
1660048361.34324,1367724.8584235,159
1660048361.34324,1367724.8584255,147
1660048361.34324,1367724.8584276,133
1660048361.34324,1367724.8584296,114
1660048361.34324,1367724.8584317,112
1660048361.34324,1367724.8584337,149
1660048361.34324,1367724.8584357,170
1660048361.34324,1367724.8584378,154
1660048361.34324,1367724.8584403,152
1660048361.34324,1367724.8584423,142
1660048361.34324,1367724.8584443,107
1660048361.34324,1367724.8584464,91
1660048361.34324,1367724.8584485,95
1660048361.34324,1367724.8584506,91
1660048361.34324,1367724.8584526,93
1660048361.34324,1367724.8584547,105
1660048361.34324,1367724.8584568,107
1660048361.34324,1367724.8584588,112
1660048361.34324,1367724.8584609,116
1660048361.34324,1367724.8584629,121
1660048361.34324,1367724.8584649,210
1660048361.34324,1367725.443829,414
1660048361.35552,1367725.4438495,615
1660048361.35552,1367725.4438567,636
1660048361.35552,1367725.4438635,386
1660048361.35552,1367725.4438702,46
1660048361.35552,1367725.4438771,-39
1660048361.35552,1367725.4438824,79
1660048361.35552,1367725.4438863,98
1660048361.35552,1367725.4438891,51
1660048361.35552,1367725.4438925,70
1660048361.35552,1367725.4438966,79
1660048361.35552,1367725.443901,39
1660048361.35552,1367725.4439058,35
1660048361.35552,1367725.443912,77
1660048361.35552,1367725.4439162,91
1660048361.35552,1367725.4439202,79
1660048361.35552,1367725.4439239,93
1660048361.35552,1367725.4439274,100
1660048361.35552,1367725.4439318,91
1660048361.35552,1367725.4439369,95
1660048361.35552,1367725.4439405,109
1660048361.35552,1367725.4439467,102
1660048361.35552,1367725.4439505,102
1660048361.35552,1367725.4439541,142
1660048361.35552,1367725.4439588,184
1660048361.93197,1367725.4439633,196
1660048361.93197,1367725.4439681,208
1660048361.93197,1367725.4439739,222
1660048361.93197,1367725.443979,210
1660048361.93197,1367725.4439829,201
1660048361.93197,1367725.4439884,203
1660048361.93197,1367725.4439951,198
1660048361.93197,1367725.4440012,191
1660048361.93197,1367725.4440073,187
1660048361.93197,1367725.4440136,182
1660048361.93197,1367725.4440186,177
1660048361.93197,1367725.4440255,177
1660048361.93197,1367725.4440337,184
1660048361.93197,1367725.4440395,184
1660048361.93197,1367725.4440442,182
1660048361.93197,1367725.4440494,180
1660048361.93197,1367725.4440532,189
1660048361.93197,1367725.4440583,201
1660048361.93197,1367725.4440642,208
1660048361.93197,1367725.4440713,215
1660048361.93197,1367725.4440767,215
1660048361.93197,1367725.4440823,208
1660048361.93197,1367725.4440861,203
1660048361.93197,1367725.4440917,208
1660048361.93197,1367725.4440977,210
1660048361.93197,1367725.4441038,210
1660048361.93197,1367725.4441099,215
1660048361.93197,1367725.4441161,215
1660048361.93197,1367725.4441223,191
1660048361.93197,1367725.4441286,166
1660048361.93197,1367725.4441352,163
1660048361.93197,1367725.4441422,170
1660048361.93197,1367725.4441517,168
1660048361.93197,1367725.4441579,173
1660048361.93197,1367725.4441623,177
1660048361.93197,1367725.4441665,177
1660048361.93197,1367725.4441712,175
1660048361.93197,1367725.4441756,177
1660048361.93197,1367725.4441802,180
1660048361.93197,1367725.4441848,180
1660048361.93197,1367725.4441922,184
1660048361.93197,1367725.4441984,198
1660048361.93197,1367725.4442075,205
1660048361.93197,1367725.4442143,196
1660048361.93197,1367725.4442211,187
1660048361.93197,1367725.4442304,187
1660048361.93197,1367725.4442394,173
1660048361.93197,1367725.444247,161
1660048361.93197,1367726.0278309,168
1660048361.93197,1367726.0278513,180
1660048361.94294,1367726.0278666,203
1660048361.94294,1367726.0278812,219
1660048361.94294,1367726.0278948,210
1660048361.94294,1367726.0279079,191
1660048361.94294,1367726.0279212,184
1660048361.94294,1367726.0279345,189
1660048361.94294,1367726.0279476,231
1660048361.94294,1367726.0279609,364
1660048361.94294,1367726.0279742,577
1660048361.94294,1367726.0279875,699
1660048361.94294,1367726.0280017,563
1660048361.94294,1367726.0280149,233
1660048361.94294,1367726.0280282,11
1660048361.94294,1367726.0280423,51
1660048361.94294,1367726.0280555,116
1660048361.94294,1367726.0280687,86
1660048361.94294,1367726.0280835,88
1660048361.94294,1367726.0280966,124
1660048361.94294,1367726.0281101,119
1660048361.94294,1367726.0281245,107
1660048361.94294,1367726.0281376,116
1660048361.94294,1367726.0281499,133
1660048361.94294,1367726.0281581,142
1660048361.94294,1367726.0281625,154
1660048362.46391,1367726.0281705,168
1660048362.46391,1367726.0281771,173
1660048362.46391,1367726.0281822,175
1660048362.46391,1367726.0281859,177
1660048362.46391,1367726.0281908,177
1660048362.46391,1367726.0281994,198
1660048362.46391,1367726.0282116,224
1660048362.46391,1367726.0282188,240
1660048362.46391,1367726.0282293,259
1660048362.46391,1367726.0282434,280
1660048362.46391,1367726.028251,278
1660048362.46391,1367726.0282535,257
1660048362.46391,1367726.0282556,233
1660048362.46391,1367726.0282578,224
1660048362.46391,1367726.0282599,226
1660048362.46391,1367726.0282621,226
1660048362.46391,1367726.0282641,231
1660048362.46391,1367726.0282662,217
1660048362.46391,1367726.0282683,184
1660048362.46391,1367726.0282703,173
1660048362.46391,1367726.0282724,166
1660048362.46391,1367726.0282745,163
1660048362.46391,1367726.0282766,184
1660048362.46391,1367726.0282788,191
1660048362.46391,1367726.0282808,175
1660048362.46391,1367726.0282828,170
1660048362.46391,1367726.0282849,180
1660048362.46391,1367726.028287,182
1660048362.46391,1367726.028289,177
1660048362.46391,1367726.028291,175
1660048362.46391,1367726.0282931,184
1660048362.46391,1367726.0282951,198
1660048362.46391,1367726.0282978,196
1660048362.46391,1367726.0282999,189
1660048362.46391,1367726.0283026,194
1660048362.46391,1367726.0283049,198
1660048362.46391,1367726.0283069,194
1660048362.46391,1367726.028309,189
1660048362.46391,1367726.0283111,198
1660048362.46391,1367726.0283131,210
1660048362.46391,1367726.0283152,198
1660048362.46391,1367726.0283173,182
1660048362.46391,1367726.0283193,182
1660048362.46391,1367726.0283213,184
1660048362.46391,1367726.0283234,182
1660048362.46391,1367726.0283254,175
1660048362.46391,1367726.0283275,166
1660048362.46391,1367726.5655203,161
1660048362.46391,1367726.5655607,170
1660048362.46391,1367726.5655769,180
1660048362.47488,1367726.5655815,182
1660048362.47488,1367726.5655861,170
1660048362.47488,1367726.5655906,152
1660048362.47488,1367726.5655958,145
1660048362.47488,1367726.5655995,145
1660048362.47488,1367726.5656038,140
1660048362.47488,1367726.5656071,140
1660048362.47488,1367726.5656105,142
1660048362.47488,1367726.5656136,128
1660048362.47488,1367726.565617,116
1660048362.47488,1367726.5656219,114
1660048362.47488,1367726.5656258,109
1660048362.47488,1367726.5656331,135
1660048362.47488,1367726.5656398,250
1660048362.47488,1367726.565647,456
1660048362.47488,1367726.5656521,620
1660048362.47488,1367726.5656561,582
1660048362.47488,1367726.5656601,308
1660048362.47488,1367726.5656652,-2
1660048362.47488,1367726.5656689,-42
1660048362.47488,1367726.5656721,84
1660048362.47488,1367726.5656753,74
1660048362.47488,1367726.5656785,18
1660048362.47488,1367726.5656817,46
1660048363.05529,1367726.5656851,63
1660048363.05529,1367726.5656884,44

1660048363.05529,1367726.5656917,60
1660048363.05529,1367726.5656948,100
1660048363.05529,1367726.565698,100
1660048363.05529,1367726.5657013,91
1660048363.05529,1367726.5657045,98
1660048363.05529,1367726.5657079,98
1660048363.05529,1367726.5657114,102
1660048363.05529,1367726.5657149,128
1660048363.05529,1367726.5657185,138
1660048363.05529,1367726.5657224,138
1660048363.05529,1367726.5657261,154
1660048363.05529,1367726.5657297,159
1660048363.05529,1367726.5657332,154
1660048363.05529,1367726.5657369,166
1660048363.05529,1367726.5657405,163
1660048363.05529,1367726.5657438,156
1660048363.05529,1367726.565747,163
1660048363.05529,1367726.5657513,170
1660048363.05529,1367726.5657546,152
1660048363.05529,1367726.5657579,145
1660048363.05529,1367726.5657624,156
1660048363.05529,1367726.5657658,149
1660048363.05529,1367726.5657692,147
1660048363.05529,1367726.5657755,149
1660048363.05529,1367726.5657814,135
1660048363.05529,1367726.5657849,128
1660048363.05529,1367726.5657883,128
1660048363.05529,1367726.5657915,112
1660048363.05529,1367726.5657952,114
1660048363.05529,1367726.5658,140
1660048363.05529,1367726.5658042,147
1660048363.05529,1367726.5658078,138
1660048363.05529,1367726.5658111,128
1660048363.05529,1367726.5658161,128
1660048363.05529,1367726.5658216,138
1660048363.05529,1367726.5658281,152
1660048363.05529,1367726.5658342,159
1660048363.05529,1367726.5658387,161
1660048363.05529,1367726.5658421,156
1660048363.05529,1367726.5658455,147
1660048363.05529,1367726.565849,133
1660048363.05529,1367726.5658522,133
1660048363.05529,1367726.5658552,149
1660048363.05529,1367726.5658583,159
1660048363.05529,1367727.150434,149
1660048363.05529,1367727.1504467,140
1660048363.05529,1367727.1504517,142
1660048363.05529,1367727.1504558,145
1660048363.06527,1367727.1504582,142
1660048363.06527,1367727.1504606,140
1660048363.06527,1367727.1504632,149
1660048363.06527,1367727.1504655,154
1660048363.06527,1367727.1504679,145
1660048363.06527,1367727.1504703,121
1660048363.06527,1367727.1504727,109
1660048363.06527,1367727.150475,121
1660048363.06527,1367727.1504774,124
1660048363.06527,1367727.1504799,114
1660048363.06527,1367727.1504822,100
1660048363.06527,1367727.1504846,72
1660048363.06527,1367727.150487,44
1660048363.06527,1367727.1504894,49
1660048363.06527,1367727.1504918,67
1660048363.06527,1367727.1504942,58
1660048363.06527,1367727.1504965,49
1660048363.06527,1367727.1504988,51
1660048363.06527,1367727.1505011,49
1660048363.06527,1367727.1505035,53
1660048363.06527,1367727.1505058,77
1660048363.06527,1367727.1505081,154
1660048363.06527,1367727.1505105,339
1660048363.06527,1367727.1505129,559
1660048363.63112,1367727.1505153,622
1660048363.63112,1367727.1505175,397
1660048363.63112,1367727.1505196,46
1660048363.63112,1367727.1505218,-86
1660048363.63112,1367727.150524,14
1660048363.63112,1367727.1505261,49
1660048363.63112,1367727.1505282,4
1660048363.63112,1367727.1505303,18
1660048363.63112,1367727.1505325,37
1660048363.63112,1367727.1505347,25
1660048363.63112,1367727.1505369,35
1660048363.63112,1367727.150539,53
1660048363.63112,1367727.1505411,51
1660048363.63112,1367727.1505433,58
1660048363.63112,1367727.1505454,79
1660048363.63112,1367727.1505475,98
1660048363.63112,1367727.1505507,114
1660048363.63112,1367727.1505623,124
1660048363.63112,1367727.1505698,124
1660048363.63112,1367727.1505723,124
1660048363.63112,1367727.1505744,135
1660048363.63112,1367727.1505766,145
1660048363.63112,1367727.1505787,147
1660048363.63112,1367727.1505807,152
1660048363.63112,1367727.1505827,159
1660048363.63112,1367727.1505848,156
1660048363.63112,1367727.1505869,149
1660048363.63112,1367727.150589,152
1660048363.63112,1367727.1505911,149
1660048363.63112,1367727.1505931,138
1660048363.63112,1367727.1505952,142
1660048363.63112,1367727.1505972,145
1660048363.63112,1367727.1505993,124
1660048363.63112,1367727.1506014,105
1660048363.63112,1367727.1506034,107
1660048363.63112,1367727.150606,128
1660048363.63112,1367727.1506081,156
1660048363.63112,1367727.1506101,152
1660048363.63112,1367727.1506122,126
1660048363.63112,1367727.1506144,128
1660048363.63112,1367727.1506164,140
1660048363.63112,1367727.1506185,140
1660048363.63112,1367727.1506206,138
1660048363.63112,1367727.1506226,140
1660048363.63112,1367727.1506247,149
1660048363.63112,1367727.7348717,152
1660048363.63112,1367727.7348891,147
1660048363.63112,1367727.7348954,152
1660048363.63112,1367727.7349052,163
1660048363.63112,1367727.734909,163
1660048363.64309,1367727.7349142,161
1660048363.64309,1367727.7349176,166
1660048363.64309,1367727.7349211,154
1660048363.64309,1367727.734926,142
1660048363.64309,1367727.73493,156
1660048363.64309,1367727.7349346,163
1660048363.64309,1367727.7349487,138
1660048363.64309,1367727.734964,105
1660048363.64309,1367727.7349721,95
1660048363.64309,1367727.7349747,100
1660048363.64309,1367727.7349769,112
1660048363.64309,1367727.7349791,131
1660048363.64309,1367727.7349812,124
1660048363.64309,1367727.7349834,86
1660048363.64309,1367727.7349854,72
1660048363.64309,1367727.7349875,91
1660048363.64309,1367727.7349896,93
1660048363.64309,1367727.7349918,81
1660048363.64309,1367727.7349943,74
1660048363.64309,1367727.7349964,56
1660048363.64309,1367727.7349985,28
1660048363.64309,1367727.7350005,21
1660048363.64309,1367727.7350026,21
1660048363.64309,1367727.7350048,21
1660048364.13069,1367727.7350069,37
1660048364.13069,1367727.7350089,49
1660048364.13069,1367727.7350108,46
1660048364.13069,1367727.7350128,56
1660048364.13069,1367727.7350148,60
1660048364.13069,1367727.7350167,86
1660048364.13069,1367727.7350186,208
1660048364.13069,1367727.7350206,421
1660048364.13069,1367727.7350226,582
1660048364.13069,1367727.7350246,524
1660048364.13069,1367727.7350266,217
1660048364.13069,1367727.7350286,-70
1660048364.13069,1367727.7350305,-49
1660048364.13069,1367727.7350325,72
1660048364.13069,1367727.7350345,28
1660048364.13069,1367727.7350373,-9
1660048364.13069,1367727.7350473,49
1660048364.13069,1367727.7350562,63
1660048364.13069,1367727.7350608,49
1660048364.13069,1367727.735064,65
1660048364.13069,1367727.7350693,74
1660048364.13069,1367727.7350806,65
1660048364.13069,1367727.7350858,70
1660048364.13069,1367727.7350879,91
1660048364.13069,1367727.73509,102
1660048364.13069,1367727.7350921,109
1660048364.13069,1367727.7350952,119
1660048364.13069,1367727.735108,121
1660048364.13069,1367727.7351135,126
1660048364.13069,1367727.7351164,140
1660048364.13069,1367727.7351186,149
1660048364.13069,1367727.7351211,156
1660048364.13069,1367727.7351311,166
1660048364.13069,1367727.7351396,170
1660048364.13069,1367727.7351422,170
1660048364.13069,1367727.7351516,166
1660048364.13069,1367727.7351537,156
1660048364.13069,1367727.7351557,159
1660048364.13069,1367727.7351578,170
1660048364.13069,1367727.7351599,170
1660048364.13069,1367727.735162,156
1660048364.13069,1367727.735164,147
1660048364.13069,1367727.7351663,138
1660048364.13069,1367727.7351684,126
1660048364.13069,1367728.2223191,124
1660048364.13069,1367728.2223471,121
1660048364.13069,1367728.2223621,105
1660048364.13069,1367728.2223759,100
1660048364.13069,1367728.2223896,114
1660048364.13069,1367728.2224031,124
1660048364.14363,1367728.2224164,119
1660048364.14363,1367728.2224299,121
1660048364.14363,1367728.2224428,126
1660048364.14363,1367728.2224514,116
1660048364.14363,1367728.222461,109
1660048364.14363,1367728.2224739,131
1660048364.14363,1367728.222483,145
1660048364.14363,1367728.2224934,138
1660048364.14363,1367728.2225043,124
1660048364.14363,1367728.2225133,109
1660048364.14363,1367728.2225236,102
1660048364.14363,1367728.2225345,95
1660048364.14363,1367728.2225437,79
1660048364.14363,1367728.2225536,65
1660048364.14363,1367728.2225642,53
1660048364.14363,1367728.2225733,42
1660048364.14363,1367728.2225788,39
1660048364.14363,1367728.2225833,46
1660048364.14363,1367728.2225975,49
1660048364.14363,1367728.2226108,53
1660048364.14363,1367728.2226243,63
1660048364.14363,1367728.2226375,67
1660048364.14363,1367728.2226507,58
1660048364.14363,1367728.2226649,63
1660048364.14363,1367728.2226774,81
1660048364.14363,1367728.222686,88
1660048364.14363,1367728.2226936,86
1660048364.14363,1367728.2227003,79
1660048364.14363,1367728.2227113,56
1660048364.14363,1367728.2227236,56
1660048364.14363,1367728.2227353,81
1660048364.14363,1367728.2227499,81
1660048364.14363,1367728.2227639,63
1660048364.14363,1367728.2227769,56
1660048364.14363,1367728.2227904,56
1660048364.7087,1367728.2228043,60
1660048364.7087,1367728.222813,60
1660048364.7087,1367728.2228192,60
1660048364.7087,1367728.222828,109
1660048364.7087,1367728.2228366,252
1660048364.7087,1367728.2228451,449
1660048364.7087,1367728.2228591,563
1660048364.7087,1367728.2228726,451
1660048364.7087,1367728.2228864,147
1660048364.7087,1367728.2228997,-53
1660048364.7087,1367728.2229131,14
1660048364.7087,1367728.2229262,86
1660048364.7087,1367728.2229407,21
1660048364.7087,1367728.222954,9
1660048364.7087,1367728.222967,58
1660048364.7087,1367728.2229814,63
1660048364.7087,1367728.2229947,56
1660048364.7087,1367728.2230086,70
1660048364.7087,1367728.2230232,74
1660048364.7087,1367728.2230365,72
1660048364.7087,1367728.2230494,84
1660048364.7087,1367728.2230635,93
1660048364.7087,1367728.2230766,95
1660048364.7087,1367728.2230897,107
1660048364.7087,1367728.223104,114
1660048364.7087,1367728.2231187,102
1660048364.7087,1367728.2231304,102
1660048364.7087,1367728.2231445,126
1660048364.7087,1367728.2231579,152
1660048364.7087,1367728.223172,173
1660048364.7087,1367728.2231798,184
1660048364.7087,1367728.2231864,182
1660048364.7087,1367728.8070184,177
1660048364.7087,1367728.8070432,173
1660048364.7087,1367728.8070506,168
1660048364.7087,1367728.8070573,166
1660048364.7087,1367728.8070635,154
1660048364.7087,1367728.8070682,124
1660048364.7087,1367728.8070728,98
1660048364.7087,1367728.8070785,91
1660048364.7087,1367728.8070861,91
1660048364.7087,1367728.807091,81
1660048364.7087,1367728.8070956,56
1660048364.7087,1367728.8071008,32
1660048364.7087,1367728.807108,30
1660048364.7087,1367728.8071144,39
1660048364.7087,1367728.8071194,46
1660048364.7087,1367728.8071254,44
1660048364.7087,1367728.8071323,46
1660048364.7087,1367728.8071367,56
1660048364.71868,1367728.8071413,72
1660048364.71868,1367728.8071475,88
1660048364.71868,1367728.8071528,95
1660048364.71868,1367728.807177,91
1660048364.71868,1367728.8071817,91
1660048364.71868,1367728.8071858,91
1660048364.71868,1367728.8071902,91
1660048364.71868,1367728.8071953,88
1660048364.71868,1367728.8071999,84
1660048364.71868,1367728.8072053,70
1660048364.71868,1367728.8072104,58
1660048364.71868,1367728.807217,77
1660048364.71868,1367728.8072248,102
1660048365.34144,1367728.8072328,93
1660048365.34144,1367728.8072391,81
1660048365.34144,1367728.8072459,79
1660048365.34144,1367728.8072526,79
1660048365.34144,1367728.8072594,93
1660048365.34144,1367728.8072664,116
1660048365.34144,1367728.8072714,107
1660048365.34144,1367728.8072764,95
1660048365.34144,1367728.8072802,114
1660048365.34144,1367728.807284,126
1660048365.34144,1367728.8072879,114
1660048365.34144,1367728.8072919,107
1660048365.34144,1367728.807296,109
1660048365.34144,1367728.8073001,100
1660048365.34144,1367728.8073043,74
1660048365.34144,1367728.8073083,56
1660048365.34144,1367728.8073135,60
1660048365.34144,1367728.8073197,67
1660048365.34144,1367728.8073233,67
1660048365.34144,1367728.8073294,65
1660048365.34144,1367728.8073343,53
1660048365.34144,1367728.807338,44
1660048365.34144,1367728.8073412,67
1660048365.34144,1367728.8073469,102
1660048365.34144,1367728.8073546,201
1660048365.34144,1367728.8073582,411
1660048365.34144,1367728.8073642,598
1660048365.34144,1367728.8073691,554
1660048365.34144,1367728.807372,264
1660048365.34144,1367728.8073755,-28
1660048365.34144,1367728.8073807,-58
1660048365.34144,1367728.8073857,39
1660048365.34144,1367728.8073894,30
1660048365.34144,1367728.8073943,0
1660048365.34144,1367728.8074033,35
1660048365.34144,1367728.8074122,49
1660048365.34144,1367728.8074216,23
1660048365.34144,1367728.8074307,23
1660048365.34144,1367728.8074344,49
1660048365.34144,1367728.8074404,56
1660048365.34144,1367728.8074445,51
1660048365.34144,1367728.8074501,53
1660048365.34144,1367729.441787,58
1660048365.34144,1367729.4418029,67
1660048365.34144,1367729.4418075,70
1660048365.34144,1367729.441813,51
1660048365.34144,1367729.4418173,44
1660048365.34144,1367729.4418226,53
1660048365.34144,1367729.4418264,51
1660048365.34144,1367729.4418315,60
1660048365.35141,1367729.4418353,77
1660048365.35141,1367729.4418404,70
1660048365.35141,1367729.441844,65
1660048365.35141,1367729.4418492,70
1660048365.35141,1367729.4418529,63
1660048365.35141,1367729.4418581,58
1660048365.35141,1367729.4418617,44
1660048365.35141,1367729.4418654,0
1660048365.35141,1367729.4418708,-32
1660048365.35141,1367729.4418744,-32
1660048365.35141,1367729.4418796,-28
1660048365.35141,1367729.4418854,-30
1660048365.35141,1367729.4419482,-37
1660048365.35141,1367729.4419676,-51
1660048365.35141,1367729.4419974,-56
1660048365.35141,1367729.4420454,-44
1660048365.35141,1367729.4420546,-37
1660048365.35141,1367729.4420593,-37
1660048365.35141,1367729.4420633,-35
1660048365.35141,1367729.4420672,-37
1660048365.35141,1367729.4420707,-35
1660048365.35141,1367729.4420743,-25
1660048365.35141,1367729.4420778,-14
1660048365.35141,1367729.4420812,-4
1660048365.88443,1367729.4420877,-2
1660048365.88443,1367729.4420941,-11
1660048365.88443,1367729.4420986,-11
1660048365.88443,1367729.4421024,-4
1660048365.88443,1367729.4421059,-14
1660048365.88443,1367729.4421128,-21
1660048365.88443,1367729.4421197,-16
1660048365.88443,1367729.4421258,-16
1660048365.88443,1367729.4421317,-25
1660048365.88443,1367729.4421376,-25
1660048365.88443,1367729.4421439,-18
1660048365.88443,1367729.44215,-18
1660048365.88443,1367729.4421563,-16
1660048365.88443,1367729.4421775,-4
1660048365.88443,1367729.4421851,-4
1660048365.88443,1367729.4421917,-18
1660048365.88443,1367729.4421966,-25
1660048365.88443,1367729.4422003,-16
1660048365.88443,1367729.4422042,-14
1660048365.88443,1367729.4422079,-28
1660048365.88443,1367729.4422137,-37
1660048365.88443,1367729.4422173,-49
1660048365.88443,1367729.4422225,-51
1660048365.88443,1367729.442226,-37
1660048365.88443,1367729.4422297,-32
1660048365.88443,1367729.4422349,-49
1660048365.88443,1367729.4422393,-56
1660048365.88443,1367729.4422451,-60
1660048365.88443,1367729.442251,-70
1660048365.88443,1367729.4422562,-23
1660048365.88443,1367729.4422608,152
1660048365.88443,1367729.4422671,388
1660048365.88443,1367729.4422717,514
1660048365.88443,1367729.4422784,418
1660048365.88443,1367729.4422819,119
1660048365.88443,1367729.442286,-159
1660048365.88443,1367729.4422931,-173
1660048365.88443,1367729.4422966,-98
1660048365.88443,1367729.4423039,-133
1660048365.88443,1367729.4423081,-154
1660048365.88443,1367729.4423143,-119
1660048365.88443,1367729.9793169,-114
1660048365.88443,1367729.97933,-128
1660048365.88443,1367729.9793331,-124
1660048365.88443,1367729.9793357,-107
1660048365.88443,1367729.9793382,-95
1660048365.88443,1367729.9793408,-88
1660048365.88443,1367729.9793472,-93
1660048365.88443,1367729.979357,-107
1660048365.88443,1367729.9793612,-107
1660048365.8964,1367729.9793752,-84
1660048365.8964,1367729.9793814,-72
1660048365.8964,1367729.9793846,-93
1660048365.8964,1367729.9793869,-109
1660048365.8964,1367729.9793891,-79
1660048365.8964,1367729.9793912,-49
1660048365.8964,1367729.9793934,-49
1660048365.8964,1367729.9793955,-44
1660048365.8964,1367729.9793976,-49
1660048365.8964,1367729.9793997,-86
1660048365.8964,1367729.9794018,-107
1660048365.8964,1367729.979404,-93
1660048365.8964,1367729.9794061,-84
1660048365.8964,1367729.9794083,-93
1660048365.8964,1367729.9794103,-98
1660048365.8964,1367729.9794124,-107
1660048365.8964,1367729.9794145,-121
1660048365.8964,1367729.9794169,-121
1660048365.8964,1367729.979419,-114
1660048365.8964,1367729.9794211,-112
1660048365.8964,1367729.9794232,-116
1660048365.8964,1367729.9794253,-119
1660048365.8964,1367729.9794274,-116
1660048365.8964,1367729.9794296,-109
1660048366.41683,1367729.9794318,-105
1660048366.41683,1367729.9794339,-95
1660048366.41683,1367729.9794358,-88
1660048366.41683,1367729.9794378,-84
1660048366.41683,1367729.9794397,-81
1660048366.41683,1367729.9794417,-84
1660048366.41683,1367729.9794437,-86
1660048366.41683,1367729.9794457,-95
1660048366.41683,1367729.9794477,-93
1660048366.41683,1367729.9794497,-70
1660048366.41683,1367729.9794517,-67
1660048366.41683,1367729.9794536,-86
1660048366.41683,1367729.9794555,-91
1660048366.41683,1367729.9794574,-88
1660048366.41683,1367729.9794593,-88
1660048366.41683,1367729.9794647,-91
1660048366.41683,1367729.9794753,-98
1660048366.41683,1367729.9794807,-95
1660048366.41683,1367729.9794831,-70
1660048366.41683,1367729.9794853,-56
1660048366.41683,1367729.9794908,-60
1660048366.41683,1367729.9795022,-63
1660048366.41683,1367729.9795076,-56
1660048366.41683,1367729.9795098,-53
1660048366.41683,1367729.9795119,-46
1660048366.41683,1367729.9795147,-39
1660048366.41683,1367729.9795252,-42
1660048366.41683,1367729.9795329,-44
1660048366.41683,1367729.9795354,-58
1660048366.41683,1367729.9795376,-84
1660048366.41683,1367729.9795397,-93
1660048366.41683,1367729.979542,-84
1660048366.41683,1367729.9795441,-88
1660048366.41683,1367729.9795461,-93
1660048366.41683,1367729.9795485,-84
1660048366.41683,1367729.9795566,-60
1660048366.41683,1367729.979568,18
1660048366.41683,1367729.9795733,210
1660048366.41683,1367729.9795756,421
1660048366.41683,1367729.9795777,451
1660048366.41683,1367730.5136468,203
1660048366.41683,1367730.5136668,-145
1660048366.41683,1367730.5136748,-238
1660048366.41683,1367730.5136792,-112
1660048366.41683,1367730.5136827,-93
1660048366.41683,1367730.5136895,-138
1660048366.41683,1367730.5136938,-105
1660048366.41683,1367730.5136969,-91
1660048366.41683,1367730.5137006,-116
1660048366.41683,1367730.5137078,-121
1660048366.42581,1367730.5137155,-105
1660048366.42581,1367730.5137288,-93
1660048366.42581,1367730.5137367,-93
1660048366.42581,1367730.5137434,-93
1660048366.42581,1367730.5137486,-86
1660048366.42581,1367730.513753,-74
1660048366.42581,1367730.5137664,-67
1660048366.42581,1367730.513776,-56
1660048366.42581,1367730.5137836,-32
1660048366.42581,1367730.513792,-16
1660048366.42581,1367730.5137975,-21
1660048366.42581,1367730.5138083,-21
1660048366.42581,1367730.5138135,4
1660048366.42581,1367730.5138157,25
1660048366.42581,1367730.5138231,21
1660048366.42581,1367730.513838,16
1660048366.42581,1367730.513849,28
1660048366.42581,1367730.5138574,11
1660048366.42581,1367730.5138698,-18
1660048366.42581,1367730.513881,-16
1660048366.42581,1367730.5138895,-14
1660048366.42581,1367730.5138973,-32
1660048366.42581,1367730.5139061,-39
1660048366.42581,1367730.5139129,-39
1660048366.42581,1367730.5139211,-53
1660048366.42581,1367730.5139268,-44
1660048366.42581,1367730.5139302,-23
1660048366.42581,1367730.5139372,-28
1660048366.42581,1367730.5139434,-37
1660048366.42581,1367730.5139476,-18
1660048366.42581,1367730.5139522,9
1660048366.42581,1367730.5139575,21
1660048366.42581,1367730.5139651,18
1660048366.42581,1367730.5139781,4
1660048366.42581,1367730.5139918,0
1660048366.42581,1367730.5140051,7
1660048366.42581,1367730.5140187,16
1660048366.42581,1367730.514032,28
1660048366.42581,1367730.5140453,35
1660048366.42581,1367730.5140584,35
1660048366.42581,1367730.5140716,39
1660048366.42581,1367730.5140847,44
1660048366.42581,1367730.5140979,42
1660048366.42581,1367730.5141111,42
1660048366.42581,1367730.5141243,25
1660048366.42581,1367730.5141375,4
1660048366.42581,1367730.5141506,9
1660048366.42581,1367730.5141638,14
1660048366.42581,1367730.5141771,2
1660048366.42581,1367730.5141903,2
1660048366.43678,1367730.5142036,4
1660048366.43678,1367730.5142169,-2
1660048366.43678,1367730.5142302,-4
1660048366.43678,1367730.5142433,9
1660048366.43678,1367730.5142573,25
1660048366.43678,1367730.5142705,28
1660048366.43678,1367730.5142837,37
1660048367.00146,1367730.5143026,49
1660048367.00146,1367730.5143112,32
1660048367.00146,1367730.5143171,9
1660048367.00146,1367730.5143238,7
1660048367.00146,1367730.5143299,18
1660048367.00146,1367730.5143362,9
1660048367.00146,1367731.0993068,2
1660048367.00146,1367731.0993227,11
1660048367.00146,1367731.0993311,9
1660048367.00146,1367731.0993382,0
1660048367.00146,1367731.0993421,18
1660048367.00146,1367731.0993458,107
1660048367.00146,1367731.0993509,292
1660048367.00146,1367731.0993581,505
1660048367.00146,1367731.099365,547
1660048367.00146,1367731.0993674,308
1660048367.00146,1367731.0993697,-28
1660048367.00146,1367731.0993718,-135
1660048367.00146,1367731.099374,-37
1660048367.00146,1367731.099376,-28
1660048367.00146,1367731.0993781,-74
1660048367.00146,1367731.0993802,-39
1660048367.00146,1367731.0993829,-9
1660048367.00146,1367731.099385,-35
1660048367.00146,1367731.0993871,-58
1660048367.00146,1367731.0993892,-53
1660048367.00146,1367731.0993912,-42
1660048367.00146,1367731.0993932,-37
1660048367.00146,1367731.0993953,-25
1660048367.00146,1367731.0993974,-14
1660048367.00146,1367731.0993994,-16
1660048367.00146,1367731.0994015,-11
1660048367.00146,1367731.0994036,14
1660048367.00146,1367731.0994057,37
1660048367.00146,1367731.0994085,39
1660048367.00146,1367731.0994106,39
1660048367.00146,1367731.0994133,46
1660048367.00146,1367731.0994155,63
1660048367.00146,1367731.0994176,93
1660048367.00146,1367731.0994198,105
1660048367.00146,1367731.099422,88
1660048367.54116,1367731.0994241,74
1660048367.54116,1367731.0994261,95
1660048367.54116,1367731.0994279,109
1660048367.54116,1367731.0994299,81
1660048367.54116,1367731.0994318,60
1660048367.54116,1367731.0994337,67
1660048367.54116,1367731.0994356,72
1660048367.54116,1367731.0994375,70
1660048367.54116,1367731.0994394,74
1660048367.54116,1367731.0994413,79
1660048367.54116,1367731.0994432,74
1660048367.54116,1367731.0994451,60
1660048367.54116,1367731.099447,49
1660048367.54116,1367731.0994489,60
1660048367.54116,1367731.0994508,67
1660048367.54116,1367731.0994527,56
1660048367.54116,1367731.0994546,67
1660048367.54116,1367731.0994565,84
1660048367.54116,1367731.0994584,77
1660048367.54116,1367731.0994603,81
1660048367.54116,1367731.0994622,88
1660048367.54116,1367731.0994641,77
1660048367.54116,1367731.099466,77
1660048367.54116,1367731.0994679,84
1660048367.54116,1367731.099475,86
1660048367.54116,1367731.0994842,93
1660048367.54116,1367731.0994969,107
1660048367.54116,1367731.0995059,116
1660048367.54116,1367731.0995085,105
1660048367.54116,1367731.0995109,93
1660048367.54116,1367731.099513,98
1660048367.54116,1367731.0995151,88
1660048367.54116,1367731.0995172,88
1660048367.54116,1367731.0995192,107
1660048367.54116,1367731.0995212,109
1660048367.54116,1367731.0995233,109
1660048367.54116,1367731.0995261,114
1660048367.54116,1367731.0995282,116
1660048367.54116,1367731.634438,135
1660048367.54116,1367731.6344577,149
1660048367.54116,1367731.6344645,140
1660048367.54116,1367731.6344688,133
1660048367.54116,1367731.6344742,142
1660048367.54116,1367731.6344784,142
1660048367.54116,1367731.6344846,138
1660048367.54116,1367731.6344885,128
1660048367.54116,1367731.634494,102
1660048367.54116,1367731.6344981,72
1660048367.54116,1367731.6345038,70
1660048367.54116,1367731.6345077,70
1660048367.55113,1367731.6345133,63
1660048367.55113,1367731.6345175,74
1660048367.55113,1367731.634523,81
1660048367.55113,1367731.6345278,72
1660048367.55113,1367731.6345332,65
1660048367.55113,1367731.6345377,67
1660048367.55113,1367731.6345433,121
1660048367.55113,1367731.634547,283
1660048367.55113,1367731.6345526,496
1660048367.55113,1367731.6345579,577
1660048367.55113,1367731.6345623,425
1660048367.55113,1367731.6345672,112
1660048367.55113,1367731.6345705,-77
1660048367.55113,1367731.6345742,4
1660048367.55113,1367731.6345803,91
1660048367.55113,1367731.6345857,42
1660048367.55113,1367731.6345893,30
1660048367.55113,1367731.6345941,58
1660048367.55113,1367731.6345996,51
1660048367.55113,1367731.6346047,51
1660048367.55113,1367731.6346085,79
1660048367.55113,1367731.6346138,98
1660048367.55113,1367731.6346178,93
1660048367.55113,1367731.6346232,88
1660048368.07406,1367731.6346268,95
1660048368.07406,1367731.6346303,102
1660048368.07406,1367731.634634,124
1660048368.07406,1367731.6346376,152
1660048368.07406,1367731.6346411,145
1660048368.07406,1367731.6346442,116
1660048368.07406,1367731.6346476,124
1660048368.07406,1367731.6346514,138
1660048368.07406,1367731.6346546,142
1660048368.07406,1367731.6346581,163
1660048368.07406,1367731.6346614,177
1660048368.07406,1367731.6346648,159
1660048368.07406,1367731.6346683,156
1660048368.07406,1367731.634672,175
1660048368.07406,1367731.6346759,170
1660048368.07406,1367731.6346829,159
1660048368.07406,1367731.6346871,159
1660048368.07406,1367731.6346912,142
1660048368.07406,1367731.6346953,121
1660048368.07406,1367731.6347012,135
1660048368.07406,1367731.6347062,147
1660048368.07406,1367731.6347119,124
1660048368.07406,1367731.6347161,114
1660048368.07406,1367731.6347219,128
1660048368.07406,1367731.6347259,133
1660048368.07406,1367731.6347302,138
1660048368.07406,1367731.6347359,145
1660048368.07406,1367731.63474,147
1660048368.07406,1367731.6347442,154
1660048368.07406,1367731.6347567,159
1660048368.07406,1367731.634762,159
1660048368.07406,1367731.6347679,168
1660048368.07406,1367731.634772,180
1660048368.07406,1367731.6347763,180
1660048368.07406,1367731.6347822,173
1660048368.07406,1367731.634787,168
1660048368.07406,1367731.6347937,168
1660048368.07406,1367732.1709517,170
1660048368.07406,1367732.1709649,173
1660048368.07406,1367732.1709683,166
1660048368.07406,1367732.1709723,145
1660048368.07406,1367732.1709745,116
1660048368.07406,1367732.1709769,100
1660048368.07406,1367732.1709792,109
1660048368.07406,1367732.1709816,126
1660048368.07406,1367732.170984,135
1660048368.07406,1367732.1709863,142
1660048368.07406,1367732.1709886,128
1660048368.07406,1367732.1709909,95
1660048368.07406,1367732.1709932,81
1660048368.08503,1367732.1709955,88
1660048368.08503,1367732.1709977,95
1660048368.08503,1367732.171,91
1660048368.08503,1367732.1710024,77
1660048368.08503,1367732.1710047,65
1660048368.08503,1367732.171007,56
1660048368.08503,1367732.1710092,49
1660048368.08503,1367732.1710114,51
1660048368.08503,1367732.1710136,60
1660048368.08503,1367732.1710158,70
1660048368.08503,1367732.1710181,67
1660048368.08503,1367732.1710207,53
1660048368.08503,1367732.171023,51
1660048368.08503,1367732.1710252,46
1660048368.08503,1367732.1710275,46
1660048368.08503,1367732.1710298,70
1660048368.08503,1367732.1710321,95
1660048368.08503,1367732.1710343,84
1660048368.08503,1367732.1710366,63
1660048368.08503,1367732.1710389,74
1660048368.08503,1367732.1710412,154
1660048368.08503,1367732.1710435,320
1660048368.08503,1367732.1710458,503
1660048368.08503,1367732.1710481,531
1660048368.95111,1367732.1710503,306
1660048368.95111,1367732.1710525,-4
1660048368.95111,1367732.1710545,-84
1660048368.95111,1367732.1710566,42
1660048368.95111,1367732.1710586,70
1660048368.95111,1367732.1710607,18
1660048368.95111,1367732.1710628,37
1660048368.95111,1367732.1710648,60
1660048368.95111,1367732.1710668,51
1660048368.95111,1367732.1710689,53
1660048368.95111,1367732.1710709,67
1660048368.95111,1367732.1710729,79
1660048368.95111,1367732.171075,86
1660048368.95111,1367732.1710772,88
1660048368.95111,1367732.1710791,105
1660048368.95111,1367732.1710812,119
1660048368.95111,1367732.1710834,114
1660048368.95111,1367732.1710855,112
1660048368.95111,1367732.1710876,133
1660048368.95111,1367732.1710899,152
1660048368.95111,1367732.1710921,156
1660048368.95111,1367732.1710943,161
1660048368.95111,1367732.1710965,175
1660048368.95111,1367732.1710987,184
1660048368.95111,1367732.171101,184
1660048368.95111,1367732.1711032,184
1660048368.95111,1367732.1711055,189
1660048368.95111,1367732.1711077,187
1660048368.95111,1367732.1711099,180
1660048368.95111,1367732.1711122,175
1660048368.95111,1367732.1711144,161
1660048368.95111,1367732.1711166,135
1660048368.95111,1367732.1711188,128
1660048368.95111,1367732.171121,131
1660048368.95111,1367732.1711232,126
1660048368.95111,1367732.1711255,133
1660048368.95111,1367733.0488764,142
1660048368.95111,1367733.0488933,140
1660048368.95111,1367733.048901,133
1660048368.95111,1367733.0489061,133
1660048368.95111,1367733.0489128,138
1660048368.95111,1367733.0489168,145
1660048368.95111,1367733.0489236,152
1660048368.95111,1367733.0489278,145
1660048368.95111,1367733.048933,114
1660048368.95111,1367733.0489366,91
1660048368.95111,1367733.0489421,100
1660048368.95111,1367733.0489458,116
1660048368.95111,1367733.0489509,116
1660048368.95111,1367733.0489547,114
1660048368.96108,1367733.0489602,98
1660048368.96108,1367733.0489639,74
1660048368.96108,1367733.0489689,77
1660048368.96108,1367733.0489725,86
1660048368.96108,1367733.0489777,84
1660048368.96108,1367733.0489814,88
1660048368.96108,1367733.0489863,93
1660048368.96108,1367733.0489901,77
1660048368.96108,1367733.0489951,67
1660048368.96108,1367733.0489997,81
1660048368.96108,1367733.0490048,88
1660048368.96108,1367733.0490085,70
1660048368.96108,1367733.0490138,53
1660048368.96108,1367733.0490175,53
1660048368.96108,1367733.0490226,46
1660048368.96108,1367733.0490259,44
1660048368.96108,1367733.0490303,51
1660048368.96108,1367733.0490357,51
1660048368.96108,1367733.049039,56
1660048368.96108,1367733.0490424,67
1660048368.96108,1367733.0490472,58
1660048368.96108,1367733.0490506,56
1660048368.96108,1367733.0490554,91
1660048368.96108,1367733.0490589,109
1660048369.29199,1367733.0490626,95
1660048369.29199,1367733.0490661,91
1660048369.29199,1367733.0490694,93
1660048369.29199,1367733.0490727,93
1660048369.29199,1367733.049076,95
1660048369.29199,1367733.0490794,105
1660048369.29199,1367733.0490828,105
1660048369.29199,1367733.0490864,98
1660048369.29199,1367733.0490898,102
1660048369.29199,1367733.0490933,170
1660048369.29199,1367733.0490966,336
1660048369.29199,1367733.0491015,540
1660048369.29199,1367733.0491067,631
1660048369.29199,1367733.0491112,484
1660048369.29199,1367733.0491147,166
1660048369.29199,1367733.0491196,-21
1660048369.29199,1367733.0491231,60
1660048369.29199,1367733.0491266,135
1660048369.29199,1367733.0491314,81
1660048369.29199,1367733.0491348,72
1660048369.29199,1367733.0491399,105
1660048369.29199,1367733.0491435,95
1660048369.29199,1367733.0491483,91
1660048369.29199,1367733.049153,109
1660048369.29199,1367733.0491581,112
1660048369.29199,1367733.0491619,98
1660048369.29199,1367733.0491667,91
1660048369.29199,1367733.0491704,107
1660048369.29199,1367733.0491755,142
1660048369.29199,1367733.049179,156
1660048369.29199,1367733.0491826,149
1660048369.29199,1367733.0491877,140
1660048369.29199,1367733.0491909,140
1660048369.29199,1367733.0491945,159
1660048369.29199,1367733.0491996,180
1660048369.29199,1367733.3917663,184
1660048369.29199,1367733.3917842,182
1660048369.29199,1367733.3917886,177
1660048369.29199,1367733.3917974,175
1660048369.29199,1367733.3918042,175
1660048369.29199,1367733.3918131,175
1660048369.29199,1367733.3918192,168
1660048369.29199,1367733.3918257,166
1660048369.29199,1367733.3918317,161
1660048369.29199,1367733.3918409,152
1660048369.29199,1367733.3918475,145
1660048369.29199,1367733.3918531,131
1660048369.29199,1367733.3918594,112
1660048369.29199,1367733.3918687,112
1660048369.29199,1367733.3918802,114
1660048369.30296,1367733.3918931,105
1660048369.30296,1367733.3919009,105
1660048369.30296,1367733.3919035,107
1660048369.30296,1367733.3919093,86
1660048369.30296,1367733.3919223,70
1660048369.30296,1367733.391934,79
1660048369.30296,1367733.3919476,86
1660048369.30296,1367733.3919607,88
1660048369.30296,1367733.3919717,93
1660048369.30296,1367733.391981,95
1660048369.30296,1367733.3919874,91
1660048369.30296,1367733.3919958,91
1660048369.30296,1367733.3920038,95
1660048369.30296,1367733.3920118,100
1660048369.30296,1367733.3920147,98
1660048369.30296,1367733.3920222,84
1660048369.30296,1367733.392035,72
1660048369.30296,1367733.3920482,72
1660048369.30296,1367733.3920606,65
1660048369.30296,1367733.392073,58
1660048369.30296,1367733.3920821,56
1660048369.30296,1367733.3920914,49
1660048369.30296,1367733.3920992,35
1660048369.30296,1367733.392113,37
1660048369.77416,1367733.3921286,53
1660048369.77416,1367733.3921368,53
1660048369.77416,1367733.3921412,46
1660048369.77416,1367733.392145,44
1660048369.77416,1367733.3921491,30
1660048369.77416,1367733.3921536,14
1660048369.77416,1367733.392159,25
1660048369.77416,1367733.3921639,49
1660048369.77416,1367733.3921719,37
1660048369.77416,1367733.3921755,14
1660048369.77416,1367733.3921889,18
1660048369.77416,1367733.3922017,32
1660048369.77416,1367733.3922114,42
1660048369.77416,1367733.3922197,65
1660048369.77416,1367733.3922275,84
1660048369.77416,1367733.392234,74
1660048369.77416,1367733.3922436,56
1660048369.77416,1367733.3922504,37
1660048369.77416,1367733.3922632,35
1660048369.77416,1367733.3922739,107
1660048369.77416,1367733.3922827,283
1660048369.77416,1367733.3922901,503
1660048369.77416,1367733.3923019,591
1660048369.77416,1367733.3923133,404
1660048369.77416,1367733.3923222,58
1660048369.77416,1367733.3923303,-102
1660048369.77416,1367733.3923432,-18
1660048369.77416,1367733.3923528,30
1660048369.77416,1367733.3923579,-14
1660048369.77416,1367733.3923684,-2
1660048369.77416,1367733.3923795,35
1660048369.77416,1367733.3923887,49
1660048369.77416,1367733.3923968,63
1660048369.77416,1367733.392405,77
1660048369.77416,1367733.8770713,74
1660048369.77416,1367733.8770908,70
1660048369.77416,1367733.8770964,63
1660048369.77416,1367733.8771033,65
1660048369.77416,1367733.8771086,84
1660048369.77416,1367733.8771151,105
1660048369.77416,1367733.8771201,107
1660048369.77416,1367733.877127,86
1660048369.77416,1367733.8771319,81
1660048369.77416,1367733.8771383,102
1660048369.77416,1367733.877143,112
1660048369.77416,1367733.8771495,102
1660048369.77416,1367733.8771543,119
1660048369.77416,1367733.8771607,135
1660048369.77416,1367733.8771649,116
1660048369.77416,1367733.8771709,91
1660048369.78354,1367733.8771751,88
1660048369.78354,1367733.8771814,93
1660048369.78354,1367733.8771862,84
1660048369.78354,1367733.8771907,70
1660048369.78354,1367733.8771968,49
1660048369.78354,1367733.8772009,16
1660048369.78354,1367733.8772066,-7
1660048369.78354,1367733.8772118,11
1660048369.78354,1367733.877218,37
1660048369.78354,1367733.8772224,39
1660048369.78354,1367733.8772291,35
1660048369.78354,1367733.8772337,32
1660048369.78354,1367733.8772401,23
1660048369.78354,1367733.8772456,16
1660048369.78354,1367733.8772523,23
1660048369.78354,1367733.8772563,32
1660048369.78354,1367733.8772605,32
1660048369.78354,1367733.8772666,14
1660048369.78354,1367733.8772707,-7
1660048369.78354,1367733.8772762,9
1660048369.78354,1367733.8772822,32
1660048369.78354,1367733.8772882,23
1660048369.78354,1367733.8772925,21
1660048369.78354,1367733.8772984,37
1660048370.31694,1367733.8773027,30
1660048370.31694,1367733.8773068,16
1660048370.31694,1367733.8773108,16
1660048370.31694,1367733.877315,14
1660048370.31694,1367733.877319,-2
1660048370.31694,1367733.8773227,-11
1660048370.31694,1367733.8773266,-9
1660048370.31694,1367733.8773305,-7
1660048370.31694,1367733.8773348,-11
1660048370.31694,1367733.8773397,-16
1660048370.31694,1367733.8773444,-23
1660048370.31694,1367733.8773491,-25
1660048370.31694,1367733.8773534,-25
1660048370.31694,1367733.8773579,0
1660048370.31694,1367733.8773625,53
1660048370.31694,1367733.8773695,77
1660048370.31694,1367733.877376,63
1660048370.31694,1367733.8773807,56
1660048370.31694,1367733.8773877,58
1660048370.31694,1367733.8773939,49
1660048370.31694,1367733.8774002,39
1660048370.31694,1367733.8774047,46
1660048370.31694,1367733.877411,53
1660048370.31694,1367733.8774169,56
1660048370.31694,1367733.8774215,51
1660048370.31694,1367733.8774278,56
1660048370.31694,1367733.8774328,72
1660048370.31694,1367733.8774398,107
1660048370.31694,1367733.8774447,222
1660048370.31694,1367733.8774514,435
1660048370.31694,1367733.8774576,617
1660048370.31694,1367733.8774625,580
1660048370.31694,1367733.877469,264
1660048370.31694,1367734.4150286,-56
1660048370.31694,1367734.4150404,-58
1660048370.31694,1367734.4150448,51
1660048370.31694,1367734.4150499,0
1660048370.31694,1367734.4150543,-46
1660048370.31694,1367734.4150567,-2
1660048370.31694,1367734.4150592,7

1660048370.31694,1367734.4150615,-9
1660048370.31694,1367734.4150639,9
1660048370.31694,1367734.4150663,25
1660048370.31694,1367734.4150686,25
1660048370.31694,1367734.4150709,7
1660048370.31694,1367734.4150733,-11
1660048370.31694,1367734.4150756,0
1660048370.31694,1367734.4150779,28
1660048370.31694,1367734.4150802,30
1660048370.31694,1367734.4150825,25
1660048370.32891,1367734.4150847,28
1660048370.32891,1367734.4150872,16
1660048370.32891,1367734.4150895,14
1660048370.32891,1367734.4150917,35
1660048370.32891,1367734.4150939,51
1660048370.32891,1367734.4150962,56
1660048370.32891,1367734.4150984,56
1660048370.32891,1367734.4151007,49
1660048370.32891,1367734.415103,49
1660048370.32891,1367734.4151052,56
1660048370.32891,1367734.4151075,60
1660048370.32891,1367734.4151098,58
1660048370.32891,1367734.4151121,44
1660048370.32891,1367734.4151144,16
1660048370.32891,1367734.4151167,4
1660048370.32891,1367734.415119,16
1660048370.32891,1367734.4151212,28
1660048370.32891,1367734.4151234,23
1660048370.32891,1367734.4151257,11
1660048370.32891,1367734.4151279,4
1660048370.32891,1367734.4151301,9
1660048370.32891,1367734.4151323,11
1660048370.32891,1367734.4151345,-4
1660048370.32891,1367734.4151367,-14
1660048370.85127,1367734.415139,9
1660048370.85127,1367734.4151412,53
1660048370.85127,1367734.4151433,77
1660048370.85127,1367734.4151456,60
1660048370.85127,1367734.4151476,44
1660048370.85127,1367734.4151497,51
1660048370.85127,1367734.4151519,60
1660048370.85127,1367734.415154,56
1660048370.85127,1367734.4151561,39
1660048370.85127,1367734.4151581,37
1660048370.85127,1367734.4151602,46
1660048370.85127,1367734.4151623,42
1660048370.85127,1367734.4151644,23
1660048370.85127,1367734.4151665,21
1660048370.85127,1367734.4151686,30
1660048370.85127,1367734.4151715,21
1660048370.85127,1367734.4151737,-7
1660048370.85127,1367734.4151758,-4
1660048370.85127,1367734.4151781,37
1660048370.85127,1367734.4151803,67
1660048370.85127,1367734.4151826,70
1660048370.85127,1367734.4151848,56
1660048370.85127,1367734.4151877,42
1660048370.85127,1367734.4151982,44
1660048370.85127,1367734.4152067,65
1660048370.85127,1367734.4152092,81
1660048370.85127,1367734.4152114,77
1660048370.85127,1367734.4152135,35
1660048370.85127,1367734.4152156,0
1660048370.85127,1367734.4152176,9
1660048370.85127,1367734.4152196,25
1660048370.85127,1367734.4152216,25
1660048370.85127,1367734.9496348,21
1660048370.85127,1367734.949656,25
1660048370.85127,1367734.9496708,30
1660048370.85127,1367734.9496841,49
1660048370.85127,1367734.9496966,112
1660048370.85127,1367734.9497051,245
1660048370.85127,1367734.9497099,442
1660048370.85127,1367734.9497159,575
1660048370.85127,1367734.9497202,463
1660048370.85127,1367734.9497281,131
1660048370.85127,1367734.949733,-91
1660048370.85127,1367734.9497371,-23
1660048370.85127,1367734.9497425,65
1660048370.85127,1367734.9497462,18
1660048370.85127,1367734.9497514,-14
1660048370.85127,1367734.9497555,4
1660048370.85127,1367734.9497591,7
1660048370.85127,1367734.9497631,0
1660048370.86224,1367734.9497698,11
1660048370.86224,1367734.9497762,18
1660048370.86224,1367734.9497798,14
1660048370.86224,1367734.9497831,16
1660048370.86224,1367734.9497865,21
1660048370.86224,1367734.9497899,23
1660048370.86224,1367734.9497932,30
1660048370.86224,1367734.9497968,44
1660048370.86224,1367734.9498003,56
1660048370.86224,1367734.9498055,65
1660048370.86224,1367734.9498087,70
1660048370.86224,1367734.9498118,79
1660048370.86224,1367734.9498147,91
1660048370.86224,1367734.9498175,102
1660048370.86224,1367734.9498205,112
1660048370.86224,1367734.9498234,107
1660048370.86224,1367734.9498263,95
1660048370.86224,1367734.9498292,95
1660048370.86224,1367734.9498322,107
1660048370.86224,1367734.949835,112
1660048370.86224,1367734.9498379,107
1660048370.86224,1367734.9498407,112
1660048370.86224,1367734.9498436,109
1660048370.86224,1367734.9498465,88
1660048371.43643,1367734.94985,74
1660048371.43643,1367734.9498568,67
1660048371.43643,1367734.9498637,56
1660048371.43643,1367734.9498706,46
1660048371.43643,1367734.9498769,58
1660048371.43643,1367734.9498808,79
1660048371.43643,1367734.9498854,81
1660048371.43643,1367734.949889,77
1660048371.43643,1367734.9498928,84
1660048371.43643,1367734.9498972,86
1660048371.43643,1367734.9499007,95
1660048371.43643,1367734.9499043,116
1660048371.43643,1367734.9499077,128
1660048371.43643,1367734.9499121,114
1660048371.43643,1367734.9499162,91
1660048371.43643,1367734.9499197,86
1660048371.43643,1367734.9499232,88
1660048371.43643,1367734.9499267,86
1660048371.43643,1367734.9499303,77
1660048371.43643,1367734.9499339,77
1660048371.43643,1367734.949938,74
1660048371.43643,1367734.9499417,56
1660048371.43643,1367734.9499451,32
1660048371.43643,1367734.9499483,44
1660048371.43643,1367734.9499517,77
1660048371.43643,1367734.949955,86
1660048371.43643,1367734.9499585,81
1660048371.43643,1367734.949962,93
1660048371.43643,1367734.9499654,102
1660048371.43643,1367734.9499688,93
1660048371.43643,1367734.949972,95
1660048371.43643,1367735.5363652,109
1660048371.43643,1367735.5363859,109
1660048371.43643,1367735.5363961,114
1660048371.43643,1367735.5364044,138
1660048371.43643,1367735.5364126,133
1660048371.43643,1367735.5364215,93
1660048371.43643,1367735.5364303,72
1660048371.43643,1367735.5364786,70
1660048371.43643,1367735.5364876,63
1660048371.43643,1367735.5365105,70
1660048371.43643,1367735.5365384,72
1660048371.43643,1367735.5365486,53
1660048371.43643,1367735.5365548,46
1660048371.43643,1367735.5365609,53
1660048371.43643,1367735.5365702,63
1660048371.43643,1367735.5365781,131
1660048371.43643,1367735.5365813,315
1660048371.43643,1367735.5365845,533
1660048371.43643,1367735.5365879,589
1660048371.44741,1367735.5365909,390
1660048371.44741,1367735.5365938,81
1660048371.44741,1367735.5365984,-49
1660048371.44741,1367735.5366016,30
1660048371.44741,1367735.5366044,72
1660048371.44741,1367735.5366074,28
1660048371.44741,1367735.5366102,18
1660048371.44741,1367735.5366134,46
1660048371.44741,1367735.5366162,74
1660048371.44741,1367735.536619,91
1660048371.44741,1367735.5366219,102
1660048371.44741,1367735.5366247,112
1660048371.44741,1367735.5366276,116
1660048371.44741,1367735.5366304,126
1660048371.44741,1367735.5366332,142
1660048371.44741,1367735.536636,142
1660048371.44741,1367735.5366389,145
1660048371.44741,1367735.5366418,163
1660048371.44741,1367735.5366446,173
1660048371.44741,1367735.5366477,166
1660048371.44741,1367735.5366504,154
1660048371.44741,1367735.5366533,173
1660048371.44741,1367735.5366561,231
1660048371.44741,1367735.5366589,243
1660048372.02119,1367735.5366629,222
1660048372.02119,1367735.5366699,231
1660048372.02119,1367735.5366766,229
1660048372.02119,1367735.5366834,203
1660048372.02119,1367735.5366892,196
1660048372.02119,1367735.5366933,196
1660048372.02119,1367735.5366969,177
1660048372.02119,1367735.5367022,149
1660048372.02119,1367735.5367073,147
1660048372.02119,1367735.5367106,145
1660048372.02119,1367735.5367147,100
1660048372.02119,1367735.5367208,77
1660048372.02119,1367735.5367247,98
1660048372.02119,1367735.5367276,86
1660048372.02119,1367735.5367308,74
1660048372.02119,1367735.5367342,121
1660048372.02119,1367735.5367381,147
1660048372.02119,1367735.5367428,100
1660048372.02119,1367735.5367464,88
1660048372.02119,1367735.5367527,138
1660048372.02119,1367735.5367583,142
1660048372.02119,1367735.5367619,119
1660048372.02119,1367735.5367649,116
1660048372.02119,1367735.5367873,105
1660048372.02119,1367735.536793,100
1660048372.02119,1367735.5367987,116
1660048372.02119,1367735.5368106,107
1660048372.02119,1367735.5368181,88
1660048372.02119,1367735.5368216,86
1660048372.02119,1367735.5368274,91
1660048372.02119,1367736.1194437,93
1660048372.02119,1367736.1194673,95
1660048372.02119,1367736.1194762,91
1660048372.02119,1367736.119479,79
1660048372.02119,1367736.1194812,77
1660048372.02119,1367736.1194833,81
1660048372.02119,1367736.1194853,84
1660048372.02119,1367736.1194873,74
1660048372.02119,1367736.1194894,44
1660048372.02119,1367736.1194915,28
1660048372.02119,1367736.1194936,44
1660048372.02119,1367736.1194957,58
1660048372.02119,1367736.1194977,56
1660048372.02119,1367736.1194998,44
1660048372.02119,1367736.1195019,28
1660048372.02119,1367736.119504,25
1660048372.02119,1367736.119506,35
1660048372.02119,1367736.1195085,39
1660048372.02119,1367736.1195156,42
1660048372.02119,1367736.1195275,51
1660048372.03216,1367736.119533,42
1660048372.03216,1367736.119535,7
1660048372.03216,1367736.1195371,30
1660048372.03216,1367736.1195392,156
1660048372.03216,1367736.1195413,364
1660048372.03216,1367736.1195433,554
1660048372.03216,1367736.1195486,549
1660048372.03216,1367736.1195606,273
1660048372.03216,1367736.119566,-42
1660048372.03216,1367736.1195692,-95
1660048372.03216,1367736.1195713,7
1660048372.03216,1367736.1195734,9
1660048372.03216,1367736.119576,-25
1660048372.03216,1367736.1195864,2
1660048372.03216,1367736.1195953,32
1660048372.03216,1367736.1195978,37
1660048372.03216,1367736.1196,42
1660048372.03216,1367736.1196021,37
1660048372.03216,1367736.1196043,28
1660048372.03216,1367736.1196063,32
1660048372.03216,1367736.1196083,42
1660048372.03216,1367736.1196115,49
1660048372.03216,1367736.1196248,56
1660048372.03216,1367736.1196311,65
1660048372.55675,1367736.1196333,72
1660048372.55675,1367736.1196353,58
1660048372.55675,1367736.1196372,42
1660048372.55675,1367736.1196392,53
1660048372.55675,1367736.1196412,77
1660048372.55675,1367736.1196526,93
1660048372.55675,1367736.1196601,98
1660048372.55675,1367736.1196635,95
1660048372.55675,1367736.1196672,91
1660048372.55675,1367736.1197143,84
1660048372.55675,1367736.1197221,74
1660048372.55675,1367736.1197274,70
1660048372.55675,1367736.119731,58
1660048372.55675,1367736.1197344,42
1660048372.55675,1367736.1197376,37
1660048372.55675,1367736.1197409,39
1660048372.55675,1367736.1197442,35
1660048372.55675,1367736.1197475,32
1660048372.55675,1367736.1197508,32
1660048372.55675,1367736.1197543,25
1660048372.55675,1367736.1197578,21
1660048372.55675,1367736.119761,21
1660048372.55675,1367736.1197647,21
1660048372.55675,1367736.1197681,23
1660048372.55675,1367736.1197712,30
1660048372.55675,1367736.1197745,32
1660048372.55675,1367736.1197777,30
1660048372.55675,1367736.1197811,21
1660048372.55675,1367736.1197843,23
1660048372.55675,1367736.657728,32
1660048372.55675,1367736.6577477,37
1660048372.55675,1367736.6577534,39
1660048372.55675,1367736.657759,37
1660048372.55675,1367736.6577624,32
1660048372.55675,1367736.6577656,37
1660048372.55675,1367736.6577723,39
1660048372.55675,1367736.657784,30
1660048372.55675,1367736.6577894,11
1660048372.55675,1367736.6577965,-2
1660048372.55675,1367736.6578005,-9
1660048372.55675,1367736.657806,-11
1660048372.55675,1367736.6578106,-9
1660048372.55675,1367736.6578142,-14
1660048372.55675,1367736.6578203,-21
1660048372.55675,1367736.6578239,-18
1660048372.55675,1367736.6578275,-14
1660048372.55675,1367736.6578311,-23
1660048372.55675,1367736.6578351,-37
1660048372.55675,1367736.6578385,-30
1660048372.55675,1367736.6578431,-11
1660048372.56757,1367736.6578486,-11
1660048372.56757,1367736.6578525,-18
