Time,TimeLsl,Value
1660053106.40224,1372468.5719417,86
1660053106.40224,1372468.5719636,107
1660053106.40224,1372468.5719749,91
1660053106.40224,1372468.5719891,67
1660053106.40224,1372468.5720008,91
1660053106.40224,1372468.5720095,142
1660053106.40224,1372468.5720243,142
1660053106.40224,1372468.5720349,93
1660053106.40224,1372468.5720444,74
1660053106.40224,1372468.5720542,95
1660053106.40224,1372468.5720612,100
1660053106.40224,1372468.5720674,100
1660053106.40224,1372468.5720755,114
1660053106.40224,1372468.572083,114
1660053106.40224,1372468.5720879,86
1660053106.40224,1372468.5720948,81
1660053106.40224,1372468.5721004,102
1660053106.40224,1372468.5721043,91
1660053106.40224,1372468.5721099,65
1660053106.40224,1372468.5721139,70
1660053106.40224,1372468.5721192,65
1660053106.40224,1372468.5721234,70
1660053106.40224,1372468.5721316,81
1660053106.40224,1372468.5721384,70
1660053106.40224,1372468.5721426,86
1660053106.40224,1372468.5721484,109
1660053106.40224,1372468.5721523,81
1660053106.40224,1372468.5721589,70
1660053106.40224,1372468.5721649,95
1660053106.40224,1372468.5721715,86
1660053106.40224,1372468.5721756,74
1660053106.40224,1372468.5721793,95
1660053106.40224,1372468.5721869,98
1660053106.40224,1372468.5721923,70
1660053106.40224,1372468.5721959,72
1660053106.40224,1372468.5722011,186
1660053106.40224,1372468.5722067,488
1660053106.40224,1372468.5722121,878
1660053106.40224,1372468.5722159,941
1660053106.40224,1372468.5722223,380
1660053106.40224,1372468.5722257,-366
1660053106.40224,1372468.5722301,-569
1660053106.40224,1372468.5722382,-315
1660053106.40224,1372468.572247,-123
1660053106.40224,1372468.5722556,-30
1660053106.40224,1372468.5722629,67
1660053106.40224,1372468.5722693,95
1660053106.40224,1372468.5722727,86
1660053106.40224,1372468.5722781,109
1660053106.40224,1372468.5722814,116
1660053106.51097,1372468.5722865,86
1660053106.51097,1372468.5722899,70
1660053106.51097,1372468.5722959,81
1660053106.51097,1372468.5722994,98
1660053106.51097,1372468.5723056,102
1660053106.51097,1372468.5723117,100
1660053106.51097,1372468.5723171,105
1660053106.51097,1372468.572338,126
1660053106.51097,1372468.5723435,151
1660053106.51097,1372468.5723497,165
1660053106.51097,1372468.5723536,168
1660053106.51097,1372468.5723574,172
1660053106.51097,1372468.572363,175
1660053106.51097,1372468.5723667,193
1660053106.51097,1372468.572373,245
1660053106.51097,1372468.5723768,301
1660053106.51097,1372468.5723825,301
1660053106.51097,1372468.5723861,268
1660053106.51097,1372468.5723897,259
1660053106.51097,1372468.5723961,261
1660053106.51097,1372468.5724018,233
1660053106.51097,1372468.5724054,200
1660053106.51097,1372468.5724118,168
1660053106.51097,1372469.1565951,77
1660053106.51097,1372469.1566131,-7
1660053106.51097,1372469.1566205,0
1660053106.51097,1372469.1566273,7
1660053106.51097,1372469.1566344,-30
1660053106.51097,1372469.1566397,-42
1660053106.51097,1372469.1566435,-23
1660053106.51097,1372469.1566464,-30
1660053106.51097,1372469.1566493,-35
1660053106.51097,1372469.1566536,-16
1660053106.51097,1372469.1566588,-32
1660053106.51097,1372469.1566643,-65
1660053106.51097,1372469.1566681,-44
1660053106.51097,1372469.1566716,-11
1660053106.51097,1372469.1566757,-14
1660053106.51097,1372469.1566793,-14
1660053106.51097,1372469.1566833,-11
1660053106.51097,1372469.156687,-25
1660053106.51097,1372469.1566907,-35
1660053106.51097,1372469.156695,-37
1660053106.51097,1372469.1567007,-23
1660053106.51097,1372469.1567066,0
1660053106.51097,1372469.1567104,4
1660053106.51097,1372469.1567158,-7
1660053106.51097,1372469.1567194,-14
1660053106.51097,1372469.1567247,0
1660053106.51097,1372469.1567284,-4
1660053106.54887,1372469.156734,-23
1660053106.54887,1372469.156738,7
1660053106.54887,1372469.1567435,44
1660053106.54887,1372469.1567472,30
1660053106.54887,1372469.1567508,16
1660053106.54887,1372469.1567545,35
1660053106.54887,1372469.1567602,35
1660053106.54887,1372469.1567644,25
1660053106.54887,1372469.1567706,49
1660053106.54887,1372469.1567745,56
1660053106.54887,1372469.1567799,42
1660053106.54887,1372469.1567837,49
1660053106.54887,1372469.1567891,53
1660053106.54887,1372469.1567929,51
1660053106.54887,1372469.1567983,60
1660053106.54887,1372469.1568021,58
1660053106.54887,1372469.1568074,39
1660053106.54887,1372469.1568112,46
1660053106.54887,1372469.1568167,65
1660053106.54887,1372469.1568204,70
1660053106.54887,1372469.1568238,77
1660053106.54887,1372469.1568277,84
1660053106.54887,1372469.1568332,77
1660053106.54887,1372469.1568369,72
1660053106.54887,1372469.1568424,79
1660053106.54887,1372469.1568461,88
1660053106.54887,1372469.1568497,77
1660053106.54887,1372469.1568532,49
1660053106.54887,1372469.156857,49
1660053106.54887,1372469.1568608,72
1660053106.54887,1372469.1568646,74
1660053106.54887,1372469.1568682,65
1660053106.54887,1372469.1568715,70
1660053106.54887,1372469.1568751,168
1660053106.54887,1372469.1568788,443
1660053106.54887,1372469.1568826,808
1660053106.54887,1372469.1568864,868
1660053106.54887,1372469.1568898,333
1660053106.54887,1372469.1568933,-366
1660053106.54887,1372469.156897,-551
1660053106.54887,1372469.1569005,-326
1660053106.54887,1372469.1569041,-161
1660053106.54887,1372469.1569097,-67
1660053106.54887,1372469.1569133,56
1660053106.54887,1372469.1569168,121
1660053106.54887,1372469.1569204,98
1660053106.54887,1372469.6961349,70
1660053106.54887,1372469.6961523,86
1660053106.54887,1372469.6961568,109
1660053106.54887,1372469.6961603,109
1660053106.5728,1372469.696164,105
1660053106.5728,1372469.6961674,102
1660053106.5728,1372469.6961708,88
1660053106.5728,1372469.6961742,65
1660053106.5728,1372469.6961783,58
1660053106.5728,1372469.6961817,79
1660053106.5728,1372469.6961851,100
1660053106.5728,1372469.6961886,100
1660053106.5728,1372469.6961922,107
1660053106.5728,1372469.6961956,144
1660053106.5728,1372469.6961991,175
1660053106.5728,1372469.6962026,184
1660053106.5728,1372469.696206,205
1660053106.5728,1372469.6962095,228
1660053106.5728,1372469.6962131,238
1660053106.5728,1372469.6962165,231
1660053106.5728,1372469.6962199,203
1660053106.5728,1372469.6962234,177
1660053106.5728,1372469.6962268,156
1660053106.5728,1372469.6962302,114
1660053106.5728,1372469.6962338,63
1660053106.5728,1372469.6962373,18
1660053106.5728,1372469.6962408,-25
1660053106.5728,1372469.6962443,-60
1660053106.5728,1372469.6962479,-79
1660053106.5728,1372469.6962515,-91
1660053106.5728,1372469.6962549,-98
1660053106.5728,1372469.6962583,-95
1660053106.5728,1372469.6962618,-95
1660053106.5728,1372469.6962652,-93
1660053106.5728,1372469.6962686,-84
1660053106.5728,1372469.6962722,-91
1660053106.5728,1372469.6962756,-102
1660053106.5728,1372469.6962793,-81
1660053106.5728,1372469.6962829,-56
1660053106.5728,1372469.6962863,-46
1660053106.5728,1372469.6962899,-32
1660053106.5728,1372469.6962935,-23
1660053106.5728,1372469.6962975,-23
1660053106.5728,1372469.6963012,-21
1660053106.5728,1372469.6963046,-16
1660053106.5728,1372469.6963082,-14
1660053106.5728,1372469.6963116,-9
1660053106.5728,1372469.6963152,0
1660053106.5728,1372469.696319,9
1660053106.5728,1372469.6963225,14
1660053106.5728,1372469.6963262,18
1660053106.5728,1372469.6963296,23
1660053106.5728,1372469.6963332,32
1660053106.5728,1372469.6963367,44
1660053106.58477,1372469.6963402,44
1660053106.58477,1372469.6963437,37
1660053106.58477,1372469.6963472,51
1660053106.58477,1372469.6963508,65
1660053106.58477,1372469.6963575,60
1660053106.58477,1372469.6963613,65
1660053106.58477,1372469.6963919,81
1660053106.58477,1372469.6964055,86
1660053106.58477,1372469.6964116,91
1660053106.58477,1372469.6964161,91
1660053106.58477,1372469.6964203,84
1660053106.58477,1372469.6964242,81
1660053106.58477,1372469.6964284,88
1660053106.58477,1372469.6964323,98
1660053106.58477,1372469.6964361,109
1660053106.58477,1372469.6964404,112
1660053106.58477,1372469.6964482,114
1660053106.58477,1372469.6964544,126
1660053106.58477,1372469.696461,133
1660053106.58477,1372470.2294709,130
1660053106.58477,1372470.2294875,128
1660053106.58477,1372470.2294937,128
1660053106.87788,1372470.2295014,126
1660053106.87788,1372470.2295167,121
1660053106.87788,1372470.2295343,119
1660053106.87788,1372470.2295416,121
1660053106.87788,1372470.2295484,126
1660053106.87788,1372470.2295551,121
1660053106.87788,1372470.2295784,119
1660053106.87788,1372470.2295873,193
1660053106.87788,1372470.2295927,457
1660053106.87788,1372470.2295969,875
1660053106.87788,1372470.2296007,1079
1660053106.87788,1372470.2296061,625
1660053106.87788,1372470.2296127,-214
1660053106.87788,1372470.2296209,-581
1660053106.87788,1372470.2296277,-392
1660053106.87788,1372470.2296358,-200
1660053106.87788,1372470.2296429,-93
1660053106.87788,1372470.2296502,39
1660053106.87788,1372470.2296561,95
1660053106.87788,1372470.2296629,74
1660053106.87788,1372470.2296704,65
1660053106.87788,1372470.2296751,79
1660053106.87788,1372470.229685,88
1660053106.87788,1372470.2297428,98
1660053106.87788,1372470.2297551,105
1660053106.87788,1372470.2297617,93
1660053106.87788,1372470.2297666,86
1660053106.87788,1372470.2297718,102
1660053106.87788,1372470.229775,123
1660053106.87788,1372470.2297784,135
1660053106.87788,1372470.2297819,149
1660053106.87788,1372470.2297853,158
1660053106.87788,1372470.2297891,158
1660053106.87788,1372470.2297944,170
1660053106.87788,1372470.2297991,193
1660053106.87788,1372470.2298048,212
1660053106.87788,1372470.2298084,231
1660053106.87788,1372470.2298136,254
1660053106.87788,1372470.2298173,268
1660053106.87788,1372470.2298227,263
1660053106.87788,1372470.2298264,254
1660053106.87788,1372470.2298316,242
1660053106.87788,1372470.2298354,207
1660053106.87788,1372470.2298409,165
1660053106.87788,1372470.2298446,116
1660053106.87788,1372470.2298495,53
1660053106.87788,1372470.2298531,-2
1660053106.87788,1372470.2298584,-35
1660053106.87788,1372470.2298619,-58
1660053106.87788,1372470.2298676,-79
1660053106.95069,1372470.2298714,-84
1660053106.95069,1372470.2298768,-81
1660053106.95069,1372470.2298806,-86
1660053106.95069,1372470.2298859,-84
1660053106.95069,1372470.2298902,-67
1660053106.95069,1372470.2298955,-56
1660053106.95069,1372470.2298993,-49
1660053106.95069,1372470.2299048,-37
1660053106.95069,1372470.2299087,-23
1660053106.95069,1372470.2299142,-16
1660053106.95069,1372470.2299179,-7
1660053106.95069,1372470.2299233,2
1660053106.95069,1372470.2299275,9
1660053106.95069,1372470.2299331,16
1660053106.95069,1372470.2299371,16
1660053106.95069,1372470.2299423,16
1660053106.95069,1372470.229946,25
1660053106.95069,1372470.2299519,32
1660053106.95069,1372470.2299573,30
1660053106.95069,1372470.2299614,32
1660053106.95069,1372470.8146517,42
1660053106.95069,1372470.814667,44
1660053106.95069,1372470.8146777,44
1660053106.95069,1372470.8146855,46
1660053107.29827,1372470.8146896,46
1660053107.29827,1372470.8146932,46
1660053107.29827,1372470.8146968,44
1660053107.29827,1372470.8147002,21
1660053107.29827,1372470.8147037,2
1660053107.29827,1372470.8147073,18
1660053107.29827,1372470.814711,32
1660053107.29827,1372470.8147178,32
1660053107.29827,1372470.8147226,44
1660053107.29827,1372470.8147262,42
1660053107.29827,1372470.8147301,21
1660053107.29827,1372470.8147355,16
1660053107.29827,1372470.8147473,21
1660053107.29827,1372470.8147556,18
1660053107.29827,1372470.8147618,30
1660053107.29827,1372470.8147688,39
1660053107.29827,1372470.8147737,28
1660053107.29827,1372470.8147803,11
1660053107.29827,1372470.8147881,11
1660053107.29827,1372470.8147991,7
1660053107.29827,1372470.8148081,11
1660053107.29827,1372470.8148179,151
1660053107.29827,1372470.8148244,513
1660053107.29827,1372470.8148278,945
1660053107.29827,1372470.81483,1022
1660053107.29827,1372470.814832,397
1660053107.29827,1372470.8148342,-448
1660053107.29827,1372470.8148362,-656
1660053107.29827,1372470.8148383,-362
1660053107.29827,1372470.8148404,-170
1660053107.29827,1372470.8148425,-77
1660053107.29827,1372470.8148445,37
1660053107.29827,1372470.8148465,74
1660053107.29827,1372470.8148485,67
1660053107.29827,1372470.8148506,91
1660053107.29827,1372470.8148527,105
1660053107.29827,1372470.8148547,105
1660053107.29827,1372470.8148567,123
1660053107.29827,1372470.8148588,140
1660053107.29827,1372470.8148608,144
1660053107.29827,1372470.8148628,154
1660053107.29827,1372470.8148648,163
1660053107.29827,1372470.8148668,172
1660053107.29827,1372470.8148687,196
1660053107.29827,1372470.8148708,217
1660053107.29827,1372470.8148727,233
1660053107.29827,1372470.8148747,254
1660053107.29827,1372470.8148767,266
1660053107.29827,1372470.8148787,282
1660053107.29827,1372470.8148807,308
1660053107.30924,1372470.8148827,331
1660053107.30924,1372470.8148847,350
1660053107.30924,1372470.8148867,362
1660053107.30924,1372470.8148888,355
1660053107.30924,1372470.8148907,329
1660053107.30924,1372470.8148928,294
1660053107.30924,1372470.8148948,252
1660053107.30924,1372470.8148968,186
1660053107.30924,1372470.8148987,121
1660053107.30924,1372470.8149007,63
1660053107.30924,1372470.8149027,14
1660053107.30924,1372470.8149047,-16
1660053107.30924,1372470.8149068,-30
1660053107.30924,1372470.8149088,-53
1660053107.30924,1372470.8149108,-79
1660053107.30924,1372470.8149129,-77
1660053107.30924,1372470.814915,-67
1660053107.30924,1372470.814917,-77
1660053107.30924,1372470.814919,-72
1660053107.30924,1372471.3991066,-53
1660053107.30924,1372471.3991289,-44
1660053107.30924,1372471.3991441,-42
1660053107.30924,1372471.3991588,-53
1660053107.30924,1372471.3991723,-77
1660053107.83389,1372471.3991861,-79
1660053107.83389,1372471.3991972,-63
1660053107.83389,1372471.3992037,-56
1660053107.83389,1372471.3992091,-53
1660053107.83389,1372471.3992145,-53
1660053107.83389,1372471.3992199,-67
1660053107.83389,1372471.3992249,-79
1660053107.83389,1372471.3992314,-72
1660053107.83389,1372471.3992367,-77
1660053107.83389,1372471.3992435,-95
1660053107.83389,1372471.3992493,-93
1660053107.83389,1372471.3992568,-77
1660053107.83389,1372471.3992671,-72
1660053107.83389,1372471.3992809,-70
1660053107.83389,1372471.3992965,-63
1660053107.83389,1372471.3993125,-58
1660053107.83389,1372471.3993211,-53
1660053107.83389,1372471.3993238,-49
1660053107.83389,1372471.399326,-44
1660053107.83389,1372471.3993281,-30
1660053107.83389,1372471.3993306,-21
1660053107.83389,1372471.3993403,-21
1660053107.83389,1372471.3993496,-16
1660053107.83389,1372471.3993521,-4
1660053107.83389,1372471.3993543,2
1660053107.83389,1372471.3993565,7
1660053107.83389,1372471.3993662,14
1660053107.83389,1372471.3993753,23
1660053107.83389,1372471.3993779,30
1660053107.83389,1372471.3993801,39
1660053107.83389,1372471.3993821,42
1660053107.83389,1372471.3993852,44
1660053107.83389,1372471.3993981,53
1660053107.83389,1372471.3994038,63
1660053107.83389,1372471.399406,77
1660053107.83389,1372471.3994081,93
1660053107.83389,1372471.3994102,95
1660053107.83389,1372471.3994129,81
1660053107.83389,1372471.3994237,74
1660053107.83389,1372471.3994369,79
1660053107.83389,1372471.3994508,88
1660053107.83389,1372471.3994641,93
1660053107.83389,1372471.3994775,93
1660053107.83389,1372471.3994907,102
1660053107.83389,1372471.3995039,98
1660053107.83389,1372471.3995129,67
1660053107.83389,1372471.3995235,88
1660053107.83389,1372471.399527,294
1660053107.83389,1372471.3995302,703
1660053107.83389,1372471.3995334,1072
1660053107.84585,1372471.3995368,950
1660053107.84585,1372471.39954,200
1660053107.84585,1372471.3995432,-502
1660053107.84585,1372471.399548,-513
1660053107.84585,1372471.3995516,-200
1660053107.84585,1372471.3995571,-53
1660053107.84585,1372471.3995637,18
1660053107.84585,1372471.3995682,102
1660053107.84585,1372471.3995715,114
1660053107.84585,1372471.3995747,107
1660053107.84585,1372471.3995778,133
1660053107.84585,1372471.3995818,144
1660053107.84585,1372471.3995851,140
1660053107.84585,1372471.399591,142
1660053107.84585,1372471.3995943,154
1660053107.84585,1372471.3995989,168
1660053107.84585,1372471.3996041,182
1660053107.84585,1372471.3996101,196
1660053107.84585,1372471.9359969,200
1660053107.84585,1372471.9360179,205
1660053107.84585,1372471.9360307,219
1660053107.84585,1372471.9360398,238
1660053107.84585,1372471.9360427,261
1660053107.84585,1372471.9360451,287
1660053108.71982,1372471.9360472,303
1660053108.71982,1372471.9360494,305
1660053108.71982,1372471.9360514,294
1660053108.71982,1372471.9360534,303
1660053108.71982,1372471.9360554,329
1660053108.71982,1372471.9360574,319
1660053108.71982,1372471.9360593,280
1660053108.71982,1372471.9360613,221
1660053108.71982,1372471.9360633,163
1660053108.71982,1372471.9360653,128
1660053108.71982,1372471.9360691,81
1660053108.71982,1372471.9360777,0
1660053108.71982,1372471.9360852,-56
1660053108.71982,1372471.9360916,-86
1660053108.71982,1372471.9360965,-128
1660053108.71982,1372471.9361037,-140
1660053108.71982,1372471.9361188,-123
1660053108.71982,1372471.9361265,-128
1660053108.71982,1372471.9361307,-128
1660053108.71982,1372471.9361376,-114
1660053108.71982,1372471.9361429,-123
1660053108.71982,1372471.9361563,-142
1660053108.71982,1372471.9361658,-123
1660053108.71982,1372471.9361805,-95
1660053108.71982,1372471.9361938,-98
1660053108.71982,1372471.9362034,-100
1660053108.71982,1372471.9362098,-86
1660053108.71982,1372471.9362141,-79
1660053108.71982,1372471.936221,-74
1660053108.71982,1372471.9362252,-63
1660053108.71982,1372471.9362385,-56
1660053108.71982,1372471.9362467,-49
1660053108.71982,1372471.9362513,-35
1660053108.71982,1372471.936257,-42
1660053108.71982,1372471.9362612,-65
1660053108.71982,1372471.9362653,-63
1660053108.71982,1372471.9362706,-44
1660053108.71982,1372471.9362749,-42
1660053108.71982,1372471.9362789,-46
1660053108.71982,1372471.9362839,-42
1660053108.71982,1372471.9362879,-30
1660053108.71982,1372471.9362916,-21
1660053108.71982,1372471.9362956,-14
1660053108.71982,1372471.9362998,-14
1660053108.71982,1372471.9363041,-14
1660053108.71982,1372471.9363096,-11
1660053108.71982,1372471.9363146,-4
1660053108.71982,1372471.9363204,7
1660053108.71982,1372471.9363272,9
1660053108.71982,1372471.9363307,0
1660053108.73976,1372471.936344,0
1660053108.73976,1372471.9363571,9
1660053108.73976,1372471.9363691,7
1660053108.73976,1372471.9363774,14
1660053108.73976,1372471.9363904,44
1660053108.73976,1372471.9363987,56
1660053108.73976,1372471.9364134,37
1660053108.73976,1372471.9364264,32
1660053108.73976,1372471.9364396,53
1660053108.73976,1372471.9364518,65
1660053108.73976,1372471.9364612,67
1660053108.73976,1372471.9364728,81
1660053108.73976,1372471.9364761,95
1660053108.73976,1372471.9364791,98
1660053108.73976,1372471.936482,91
1660053108.73976,1372471.9364848,79
1660053108.73976,1372471.9364878,72
1660053108.73976,1372472.8130206,70
1660053108.73976,1372472.8130405,67
1660053108.73976,1372472.8130486,77
1660053108.73976,1372472.8130521,81
1660053108.73976,1372472.8130675,72
1660053108.73976,1372472.813077,72
1660053108.73976,1372472.8130826,144
1660053108.96304,1372472.8130879,385
1660053108.96304,1372472.8130933,770
1660053108.96304,1372472.8130986,1006
1660053108.96304,1372472.8131038,656
1660053108.96304,1372472.8131092,-161
1660053108.96304,1372472.8131142,-618
1660053108.96304,1372472.8131195,-427
1660053108.96304,1372472.8131245,-165
1660053108.96304,1372472.8131297,-88
1660053108.96304,1372472.8131351,-28
1660053108.96304,1372472.8131402,16
1660053108.96304,1372472.8131453,11
1660053108.96304,1372472.8131754,25
1660053108.96304,1372472.8131879,51
1660053108.96304,1372472.8131932,53
1660053108.96304,1372472.8131974,53
1660053108.96304,1372472.8132013,72
1660053108.96304,1372472.8132051,88
1660053108.96304,1372472.8132088,93
1660053108.96304,1372472.8132121,95
1660053108.96304,1372472.8132218,107
1660053108.96304,1372472.8132253,123
1660053108.96304,1372472.813229,144
1660053108.96304,1372472.8132326,158
1660053108.96304,1372472.8132363,161
1660053108.96304,1372472.8132401,182
1660053108.96304,1372472.8132443,221
1660053108.96304,1372472.8132481,245
1660053108.96304,1372472.8132518,256
1660053108.96304,1372472.8132571,277
1660053108.96304,1372472.8132607,298
1660053108.96304,1372472.8132645,301
1660053108.96304,1372472.8132682,291
1660053108.96304,1372472.8132717,282
1660053108.96304,1372472.8132752,259
1660053108.96304,1372472.8132789,212
1660053108.96304,1372472.8132831,154
1660053108.96304,1372472.8132865,95
1660053108.96304,1372472.8132899,42
1660053108.96304,1372472.8132942,-11
1660053108.96304,1372472.8132982,-46
1660053108.96304,1372472.8133013,-56
1660053108.96304,1372472.8133065,-63
1660053108.96304,1372472.8133111,-79
1660053108.96304,1372472.8133144,-81
1660053108.96304,1372472.8133193,-70
1660053108.96304,1372472.8133228,-70
1660053108.96304,1372472.8133262,-74
1660053108.96304,1372472.8133304,-74
1660053108.96304,1372472.8133335,-65
1660053108.97501,1372472.8133368,-53
1660053108.97501,1372472.8133398,-39
1660053108.97501,1372472.813343,-25
1660053108.97501,1372472.8133462,-37
1660053108.97501,1372472.8133495,-56
1660053108.97501,1372472.8133529,-44
1660053108.97501,1372472.8133562,-42
1660053108.97501,1372472.8133601,-74
1660053108.97501,1372472.8133634,-91
1660053108.97501,1372472.8133669,-95
1660053108.97501,1372472.8133701,-100
1660053108.97501,1372472.8133734,-93
1660053108.97501,1372472.8133765,-93
1660053108.97501,1372472.8133796,-98
1660053108.97501,1372472.8133828,-74
1660053108.97501,1372472.813386,-58
1660053108.97501,1372473.0566448,-70
1660053108.97501,1372473.0566613,-81
1660053108.97501,1372473.056666,-77
1660053108.97501,1372473.0566777,-65
1660053108.97501,1372473.0566836,-58
1660053108.97501,1372473.0566877,-49
1660053108.97501,1372473.0566899,-51
1660053108.97501,1372473.056692,-79
1660053109.49368,1372473.056694,-93
1660053109.49368,1372473.056696,-74
1660053109.49368,1372473.056698,-67
1660053109.49368,1372473.0566999,-79
1660053109.49368,1372473.0567018,-84
1660053109.49368,1372473.0567037,-98
1660053109.49368,1372473.0567056,-105
1660053109.49368,1372473.0567082,-74
1660053109.49368,1372473.0567163,-58
1660053109.49368,1372473.0567246,-77
1660053109.49368,1372473.0567322,-60
1660053109.49368,1372473.0567396,-21
1660053109.49368,1372473.0567475,-21
1660053109.49368,1372473.0567513,-44
1660053109.49368,1372473.0567628,-46
1660053109.49368,1372473.0567749,-35
1660053109.49368,1372473.056786,-25
1660053109.49368,1372473.0567916,-21
1660053109.49368,1372473.0567944,-9
1660053109.49368,1372473.0567966,9
1660053109.49368,1372473.0568037,18
1660053109.49368,1372473.0568146,9
1660053109.49368,1372473.0568195,18
1660053109.49368,1372473.0568216,156
1660053109.49368,1372473.0568237,492
1660053109.49368,1372473.0568262,901
1660053109.49368,1372473.0568362,987
1660053109.49368,1372473.0568447,413
1660053109.49368,1372473.0568472,-364
1660053109.49368,1372473.0568494,-576
1660053109.49368,1372473.0568515,-376
1660053109.49368,1372473.0568542,-245
1660053109.49368,1372473.0568649,-107
1660053109.49368,1372473.0568724,60
1660053109.49368,1372473.0568748,98
1660053109.49368,1372473.056877,81
1660053109.49368,1372473.0568791,114
1660053109.49368,1372473.0568868,130
1660053109.49368,1372473.0568974,116
1660053109.49368,1372473.0569009,128
1660053109.49368,1372473.0569039,156
1660053109.49368,1372473.0569072,170
1660053109.49368,1372473.056917,184
1660053109.49368,1372473.0569257,196
1660053109.49368,1372473.0569282,205
1660053109.49368,1372473.0569303,221
1660053109.49368,1372473.0569324,228
1660053109.49368,1372473.0569369,226
1660053109.49368,1372473.0569481,242
1660053109.49368,1372473.0569537,266
1660053109.50764,1372473.0569569,284
1660053109.50764,1372473.056959,303
1660053109.50764,1372473.0569649,322
1660053109.50764,1372473.0569759,340
1660053109.50764,1372473.0569808,357
1660053109.50764,1372473.056983,352
1660053109.50764,1372473.0569852,329
1660053109.50764,1372473.0569876,308
1660053109.50764,1372473.0569977,280
1660053109.50764,1372473.0570058,228
1660053109.50764,1372473.0570084,168
1660053109.50764,1372473.0570106,102
1660053109.50764,1372473.0570126,49
1660053109.50764,1372473.0570179,30
1660053109.50764,1372473.0570292,28
1660053109.50764,1372473.5928999,2
1660053109.50764,1372473.592942,-11
1660053109.50764,1372473.5929542,0
1660053109.50764,1372473.5929596,4
1660053109.50764,1372473.5929677,0
1660053109.50764,1372473.5929759,4
1660053109.50764,1372473.592984,14
1660053109.50764,1372473.5929922,11
1660053109.50764,1372473.5930007,21
1660053110.02851,1372473.5930064,49
1660053110.02851,1372473.5930103,44
1660053110.02851,1372473.5930132,21
1660053110.02851,1372473.5930161,30
1660053110.02851,1372473.5930191,42
1660053110.02851,1372473.5930223,30
1660053110.02851,1372473.593028,14
1660053110.02851,1372473.5930335,-9
1660053110.02851,1372473.5930389,-32
1660053110.02851,1372473.5930449,-37
1660053110.02851,1372473.5930496,-32
1660053110.02851,1372473.5930574,-25
1660053110.02851,1372473.5930671,-23
1660053110.02851,1372473.5930798,-30
1660053110.02851,1372473.5930945,-35
1660053110.02851,1372473.5931075,-23
1660053110.02851,1372473.5931203,-11
1660053110.02851,1372473.59313,-16
1660053110.02851,1372473.5931393,-16
1660053110.02851,1372473.5931466,-4
1660053110.02851,1372473.5931531,-11
1660053110.02851,1372473.5931584,-14
1660053110.02851,1372473.5931677,0
1660053110.02851,1372473.5931762,11
1660053110.02851,1372473.5931889,21
1660053110.02851,1372473.5931971,35
1660053110.02851,1372473.593205,42
1660053110.02851,1372473.5932124,42
1660053110.02851,1372473.5932214,39
1660053110.02851,1372473.5932278,42
1660053110.02851,1372473.5932329,51
1660053110.02851,1372473.5932415,51
1660053110.02851,1372473.5932528,46
1660053110.02851,1372473.5932622,49
1660053110.02851,1372473.5932689,63
1660053110.02851,1372473.5932753,67
1660053110.02851,1372473.5932824,56
1660053110.02851,1372473.593291,51
1660053110.02851,1372473.5932981,135
1660053110.02851,1372473.5933021,425
1660053110.02851,1372473.5933095,868
1660053110.02851,1372473.5933146,1111
1660053110.02851,1372473.5933191,679
1660053110.02851,1372473.5933241,-231
1660053110.02851,1372473.5933273,-672
1660053110.02851,1372473.5933323,-441
1660053110.02851,1372473.5933354,-198
1660053110.02851,1372473.5933385,-100
1660053110.02851,1372473.5933438,21
1660053110.02851,1372473.5933474,74
1660053110.04446,1372473.5933519,51
1660053110.04446,1372473.593355,67
1660053110.04446,1372473.593358,105
1660053110.04446,1372473.5933609,107
1660053110.04446,1372473.5933639,114
1660053110.04446,1372473.5933669,135
1660053110.04446,1372473.5933699,144
1660053110.04446,1372473.5933728,151
1660053110.04446,1372473.5933756,161
1660053110.04446,1372473.5933784,170
1660053110.04446,1372473.5933812,186
1660053110.04446,1372473.5933841,205
1660053110.04446,1372473.5933874,221
1660053110.04446,1372473.5933931,240
1660053110.04446,1372474.1292243,263
1660053110.04446,1372474.1292426,294
1660053110.04446,1372474.1292518,324
1660053110.04446,1372474.1292579,343
1660053110.04446,1372474.1292654,350
1660053110.04446,1372474.1292728,348
1660053110.04446,1372474.129285,336
1660053110.04446,1372474.1292964,303
1660053110.04446,1372474.1293062,263
1660053110.04446,1372474.1293132,231
1660053110.71306,1372474.1293282,186
1660053110.71306,1372474.1293347,123
1660053110.71306,1372474.129339,56
1660053110.71306,1372474.1293484,-4
1660053110.71306,1372474.1293537,-49
1660053110.71306,1372474.1293592,-70
1660053110.71306,1372474.1293652,-88
1660053110.71306,1372474.1293741,-91
1660053110.71306,1372474.1293836,-67
1660053110.71306,1372474.1293965,-53
1660053110.71306,1372474.1294069,-67
1660053110.71306,1372474.1294165,-65
1660053110.71306,1372474.1294302,-51
1660053110.71306,1372474.1294376,-42
1660053110.71306,1372474.1294479,-32
1660053110.71306,1372474.1294628,-23
1660053110.71306,1372474.1294751,-21
1660053110.71306,1372474.1294806,-18
1660053110.71306,1372474.1294828,-7
1660053110.71306,1372474.1294849,2
1660053110.71306,1372474.129487,9
1660053110.71306,1372474.1294921,16
1660053110.71306,1372474.1295036,16
1660053110.71306,1372474.1295092,21
1660053110.71306,1372474.1295114,25
1660053110.71306,1372474.129514,25
1660053110.71306,1372474.1295185,18
1660053110.71306,1372474.1295302,11
1660053110.71306,1372474.1295358,16
1660053110.71306,1372474.129538,21
1660053110.71306,1372474.1295401,11
1660053110.71306,1372474.1295421,4
1660053110.71306,1372474.12955,7
1660053110.71306,1372474.1295608,-2
1660053110.71306,1372474.1295635,-23
1660053110.71306,1372474.1295658,-42
1660053110.71306,1372474.1295678,-39
1660053110.71306,1372474.1295706,-25
1660053110.71306,1372474.1295814,-14
1660053110.71306,1372474.1295889,-14
1660053110.71306,1372474.1295913,-9
1660053110.71306,1372474.1295934,-9
1660053110.71306,1372474.1295954,-18
1660053110.71306,1372474.1296013,-16
1660053110.71306,1372474.1296125,0
1660053110.71306,1372474.1296239,4
1660053110.71306,1372474.1296386,11
1660053110.71306,1372474.129652,16
1660053110.71306,1372474.1296652,9
1660053110.71306,1372474.1296753,16
1660053110.72802,1372474.1296817,32
1660053110.72802,1372474.1296953,30
1660053110.72802,1372474.1297053,23
1660053110.72802,1372474.1297142,30
1660053110.72802,1372474.1297255,35
1660053110.72802,1372474.1297347,42
1660053110.72802,1372474.1297991,58
1660053110.72802,1372474.1298094,74
1660053110.72802,1372474.129816,79
1660053110.72802,1372474.1298218,63
1660053110.72802,1372474.1298275,51
1660053110.72802,1372474.1298323,58
1660053110.72802,1372474.1298361,63
1660053110.72802,1372474.8116654,63
1660053110.72802,1372474.8116839,70
1660053110.72802,1372474.8116953,72
1660053110.72802,1372474.8117039,49
1660053110.72802,1372474.8117112,14
1660053110.72802,1372474.811718,74
1660053110.72802,1372474.8117269,343
1660053110.72802,1372474.8117328,787
1660053110.72802,1372474.8117393,1102
1660053110.72802,1372474.8117447,805
1660053110.72802,1372474.8117519,-86
1660053111.30494,1372474.8117571,-681
1660053111.30494,1372474.8117645,-511
1660053111.30494,1372474.8117719,-196
1660053111.30494,1372474.8117797,-112
1660053111.30494,1372474.8117847,-37
1660053111.30494,1372474.8117901,35
1660053111.30494,1372474.8117943,25
1660053111.30494,1372474.8117986,32
1660053111.30494,1372474.8118029,67
1660053111.30494,1372474.8118073,74
1660053111.30494,1372474.8118116,77
1660053111.30494,1372474.8118159,93
1660053111.30494,1372474.8118201,100
1660053111.30494,1372474.8118246,109
1660053111.30494,1372474.8118307,126
1660053111.30494,1372474.8118356,140
1660053111.30494,1372474.8118415,144
1660053111.30494,1372474.8118466,149
1660053111.30494,1372474.8118546,163
1660053111.30494,1372474.8118579,189
1660053111.30494,1372474.8118709,212
1660053111.30494,1372474.8118841,235
1660053111.30494,1372474.8118972,263
1660053111.30494,1372474.8119065,289
1660053111.30494,1372474.8119141,301
1660053111.30494,1372474.8119207,308
1660053111.30494,1372474.8119299,308
1660053111.30494,1372474.8119374,291
1660053111.30494,1372474.8119519,261
1660053111.30494,1372474.8119637,242
1660053111.30494,1372474.8119772,207
1660053111.30494,1372474.8119861,147
1660053111.30494,1372474.8119906,88
1660053111.30494,1372474.8119974,39
1660053111.30494,1372474.8120009,-4
1660053111.30494,1372474.8120143,-28
1660053111.30494,1372474.8120261,-39
1660053111.30494,1372474.8120337,-58
1660053111.30494,1372474.8120383,-74
1660053111.30494,1372474.8120441,-74
1660053111.30494,1372474.8120481,-67
1660053111.30494,1372474.8120539,-58
1660053111.30494,1372474.8120634,-53
1660053111.30494,1372474.8120764,-49
1660053111.30494,1372474.8120888,-39
1660053111.30494,1372474.8120961,-28
1660053111.30494,1372474.8121009,-16
1660053111.30494,1372474.8121079,-4
1660053111.30494,1372474.8121113,-2
1660053111.30494,1372474.812118,-4
1660053111.31591,1372474.8121221,-4
1660053111.31591,1372474.8121287,7
1660053111.31591,1372474.8121321,11
1660053111.31591,1372474.812138,4
1660053111.31591,1372474.8121441,7
1660053111.31591,1372474.8121476,16
1660053111.31591,1372474.8121599,9
1660053111.31591,1372474.8121672,-7
1660053111.31591,1372474.81218,-14
1660053111.31591,1372474.812195,-9
1660053111.31591,1372474.8122081,-2
1660053111.31591,1372474.8122202,4
1660053111.31591,1372475.3984183,11
1660053111.31591,1372475.3984392,11
1660053111.31591,1372475.3984539,9
1660053111.31591,1372475.3984672,9
1660053111.31591,1372475.3984808,16
1660053111.31591,1372475.3984944,18
1660053111.31591,1372475.3985079,16
1660053111.31591,1372475.3985212,16
1660053111.31591,1372475.3985307,21
1660053111.31591,1372475.3985334,23
1660053111.31591,1372475.3985355,30
1660053111.31591,1372475.3985376,39
1660053111.82992,1372475.3985396,28
1660053111.82992,1372475.3985417,-4
1660053111.82992,1372475.3985437,-9
1660053111.82992,1372475.3985456,9
1660053111.82992,1372475.3985476,11
1660053111.82992,1372475.3985496,9
1660053111.82992,1372475.3985516,21
1660053111.82992,1372475.3985534,25
1660053111.82992,1372475.3985553,25
1660053111.82992,1372475.3985572,39
1660053111.82992,1372475.3985591,53
1660053111.82992,1372475.3985611,44
1660053111.82992,1372475.3985631,39
1660053111.82992,1372475.3985649,37
1660053111.82992,1372475.3985671,14
1660053111.82992,1372475.398569,7
1660053111.82992,1372475.3985709,32
1660053111.82992,1372475.3985733,32
1660053111.82992,1372475.3985813,0
1660053111.82992,1372475.3985888,-23
1660053111.82992,1372475.3986028,39
1660053111.82992,1372475.3986114,301
1660053111.82992,1372475.3986197,752
1660053111.82992,1372475.3986308,1079
1660053111.82992,1372475.3986421,798
1660053111.82992,1372475.3986559,-63
1660053111.82992,1372475.3986691,-658
1660053111.82992,1372475.3986826,-551
1660053111.82992,1372475.3986912,-280
1660053111.82992,1372475.3986938,-154
1660053111.82992,1372475.398696,-30
1660053111.82992,1372475.3986982,51
1660053111.82992,1372475.3987004,32
1660053111.82992,1372475.3987025,32
1660053111.82992,1372475.3987047,77
1660053111.82992,1372475.3987067,95
1660053111.82992,1372475.3987088,88
1660053111.82992,1372475.3987108,102
1660053111.82992,1372475.3987129,123
1660053111.82992,1372475.3987149,121
1660053111.82992,1372475.398717,116
1660053111.82992,1372475.3987192,137
1660053111.82992,1372475.3987213,161
1660053111.82992,1372475.3987233,170
1660053111.82992,1372475.3987254,177
1660053111.82992,1372475.3987274,200
1660053111.82992,1372475.3987295,233
1660053111.82992,1372475.3987315,254
1660053111.82992,1372475.3987342,277
1660053111.82992,1372475.3987363,305
1660053111.8738,1372475.3987383,324
1660053111.8738,1372475.3987402,322
1660053111.8738,1372475.3987423,310
1660053111.8738,1372475.3987443,303
1660053111.8738,1372475.3987464,289
1660053111.8738,1372475.3987485,249
1660053111.8738,1372475.3987505,184
1660053111.8738,1372475.3987526,123
1660053111.8738,1372475.3987548,77
1660053111.8738,1372475.3987568,39
1660053111.8738,1372475.3987589,-2
1660053111.8738,1372475.8353888,-46
1660053111.8738,1372475.8354394,-72
1660053111.8738,1372475.8355324,-63
1660053111.8738,1372475.8355401,-53
1660053111.8738,1372475.835547,-65
1660053111.8738,1372475.8355545,-74
1660053111.8738,1372475.8355584,-77
1660053111.8738,1372475.8355627,-86
1660053111.8738,1372475.8355686,-86
1660053111.8738,1372475.8355755,-67
1660053111.8738,1372475.8355825,-53
1660053111.8738,1372475.8355883,-53
1660053111.8738,1372475.8355932,-42
1660053112.32432,1372475.8355983,-30
1660053112.32432,1372475.8356015,-35
1660053112.32432,1372475.8356045,-42
1660053112.32432,1372475.8356096,-46
1660053112.32432,1372475.835613,-44
1660053112.32432,1372475.8356165,-35
1660053112.32432,1372475.8356199,-35
1660053112.32432,1372475.8356235,-32
1660053112.32432,1372475.8356268,-23
1660053112.32432,1372475.8356305,-25
1660053112.32432,1372475.8356354,-37
1660053112.32432,1372475.835639,-42
1660053112.32432,1372475.8356426,-39
1660053112.32432,1372475.8356463,-28
1660053112.32432,1372475.8356508,-14
1660053112.32432,1372475.835654,-11
1660053112.32432,1372475.8356598,-9
1660053112.32432,1372475.8356638,-4
1660053112.32432,1372475.8356687,-2
1660053112.32432,1372475.8356761,4
1660053112.32432,1372475.8356829,14
1660053112.32432,1372475.8356864,16
1660053112.32432,1372475.8356897,4
1660053112.32432,1372475.8356926,-11
1660053112.32432,1372475.8356955,-7
1660053112.32432,1372475.8356989,7
1660053112.32432,1372475.8357021,18
1660053112.32432,1372475.8357057,35
1660053112.32432,1372475.8357091,46
1660053112.32432,1372475.8357122,35
1660053112.32432,1372475.8357163,30
1660053112.32432,1372475.835722,44
1660053112.32432,1372475.8357282,46
1660053112.32432,1372475.8357334,37
1660053112.32432,1372475.8357392,42
1660053112.32432,1372475.8357425,51
1660053112.32432,1372475.8357494,56
1660053112.32432,1372475.8357562,67

1660053112.32432,1372475.8357603,81
1660053112.32432,1372475.8357637,95
1660053112.32432,1372475.8357667,105
1660053112.32432,1372475.8357699,102
1660053112.32432,1372475.8357728,86
1660053112.32432,1372475.8357758,84
1660053112.32432,1372475.8357789,93
1660053112.32432,1372475.8357819,98
1660053112.32432,1372475.8357848,109
1660053112.32432,1372475.8357879,112
1660053112.32432,1372475.8357908,105
1660053112.32432,1372475.8357937,100
1660053112.33729,1372475.8357966,84
1660053112.33729,1372475.8357995,102
1660053112.33729,1372475.8358026,310
1660053112.33729,1372475.8358055,747
1660053112.33729,1372475.8358092,1144
1660053112.33729,1372475.8358235,1030
1660053112.33729,1372475.8358275,252
1660053112.33729,1372475.8358308,-490
1660053112.33729,1372475.8358377,-502
1660053112.33729,1372475.8358438,-170
1660053112.33729,1372476.4202952,-42
1660053112.33729,1372476.4203079,11
1660053112.33729,1372476.4203124,93
1660053112.33729,1372476.4203151,107
1660053112.33729,1372476.4203175,100
1660053112.33729,1372476.4203199,123
1660053112.33729,1372476.4203222,114
1660053112.33729,1372476.4203245,79
1660053112.33729,1372476.4203268,81
1660053112.33729,1372476.4203291,109
1660053112.33729,1372476.4203315,126
1660053112.33729,1372476.4203337,133
1660053112.33729,1372476.4203358,126
1660053112.33729,1372476.4203378,109
1660053112.8582,1372476.420341,102
1660053112.8582,1372476.4203481,102
1660053112.8582,1372476.4203579,116
1660053112.8582,1372476.4203617,137
1660053112.8582,1372476.420364,158
1660053112.8582,1372476.420366,177
1660053112.8582,1372476.4203679,205
1660053112.8582,1372476.4203699,233
1660053112.8582,1372476.4203729,252
1660053112.8582,1372476.4203839,261
1660053112.8582,1372476.4203913,254
1660053112.8582,1372476.4203959,238
1660053112.8582,1372476.4203978,214
1660053112.8582,1372476.4203999,177
1660053112.8582,1372476.4204019,128
1660053112.8582,1372476.4204039,74
1660053112.8582,1372476.420406,16
1660053112.8582,1372476.4204081,-32
1660053112.8582,1372476.4204101,-72
1660053112.8582,1372476.4204121,-105
1660053112.8582,1372476.4204141,-121
1660053112.8582,1372476.4204162,-130
1660053112.8582,1372476.4204182,-130
1660053112.8582,1372476.4204203,-121
1660053112.8582,1372476.4204224,-119
1660053112.8582,1372476.4204245,-121
1660053112.8582,1372476.4204265,-114
1660053112.8582,1372476.4204285,-95
1660053112.8582,1372476.4204305,-74
1660053112.8582,1372476.4204327,-51
1660053112.8582,1372476.4204347,-32
1660053112.8582,1372476.4204367,-37
1660053112.8582,1372476.4204387,-49
1660053112.8582,1372476.4204432,-28
1660053112.8582,1372476.4204452,-11
1660053112.8582,1372476.420448,-18
1660053112.8582,1372476.4204501,-11
1660053112.8582,1372476.4204521,7
1660053112.8582,1372476.4204542,16
1660053112.8582,1372476.4204561,11
1660053112.8582,1372476.4204583,14
1660053112.8582,1372476.4204611,30
1660053112.8582,1372476.4204632,39
1660053112.8582,1372476.4204653,37
1660053112.8582,1372476.4204673,37
1660053112.8582,1372476.4204693,42
1660053112.8582,1372476.4204732,42
1660053112.8582,1372476.420479,37
1660053112.8582,1372476.420482,51
1660053112.8582,1372476.4204849,70
1660053112.86905,1372476.4204878,63
1660053112.86905,1372476.4204907,44
1660053112.86905,1372476.4204937,37
1660053112.86905,1372476.4204976,35
1660053112.86905,1372476.4204996,37
1660053112.86905,1372476.4205017,51
1660053112.86905,1372476.4205039,67
1660053112.86905,1372476.4205059,70
1660053112.86905,1372476.420508,70
1660053112.86905,1372476.9570659,72
1660053112.86905,1372476.9570788,67
1660053112.86905,1372476.9570829,60
1660053112.86905,1372476.9570851,72
1660053112.86905,1372476.9570871,88
1660053112.86905,1372476.9570892,86
1660053112.86905,1372476.9570912,77
1660053112.86905,1372476.9570932,70
1660053112.86905,1372476.9570953,63
1660053112.86905,1372476.9570974,46
1660053112.86905,1372476.9570995,35
1660053112.86905,1372476.9571015,32
1660053112.86905,1372476.9571036,35
1660053112.86905,1372476.9571056,46
1660053112.86905,1372476.9571077,56
1660053113.39747,1372476.9571098,49
1660053113.39747,1372476.9571117,32
1660053113.39747,1372476.9571137,14
1660053113.39747,1372476.9571158,16
1660053113.39747,1372476.9571177,35
1660053113.39747,1372476.9571197,46
1660053113.39747,1372476.9571217,46
1660053113.39747,1372476.9571236,32
1660053113.39747,1372476.9571255,21
1660053113.39747,1372476.9571274,123
1660053113.39747,1372476.9571294,436
1660053113.39747,1372476.9571313,840
1660053113.39747,1372476.9571332,971
1660053113.39747,1372476.9571351,488
1660053113.39747,1372476.9571371,-298
1660053113.39747,1372476.9571397,-611
1660053113.39747,1372476.9571488,-387
1660053113.39747,1372476.9571583,-163
1660053113.39747,1372476.9571616,-60
1660053113.39747,1372476.9571638,25
1660053113.39747,1372476.9571659,53
1660053113.39747,1372476.9571726,46
1660053113.39747,1372476.9571836,70
1660053113.39747,1372476.9571868,91
1660053113.39747,1372476.957189,100
1660053113.39747,1372476.9571911,109
1660053113.39747,1372476.9571932,107
1660053113.39747,1372476.9571952,105
1660053113.39747,1372476.9571974,121
1660053113.39747,1372476.9572002,133
1660053113.39747,1372476.9572108,133
1660053113.39747,1372476.9572184,135
1660053113.39747,1372476.9572209,142
1660053113.39747,1372476.9572231,156
1660053113.39747,1372476.9572257,182
1660053113.39747,1372476.9572359,205
1660053113.39747,1372476.9572442,228
1660053113.39747,1372476.9572468,256
1660053113.39747,1372476.9572489,277
1660053113.39747,1372476.957251,282
1660053113.39747,1372476.9572532,287
1660053113.39747,1372476.9572626,284
1660053113.39747,1372476.9572718,268
1660053113.39747,1372476.9572744,249
1660053113.39747,1372476.9572765,212
1660053113.39747,1372476.9572786,144
1660053113.39747,1372476.9572817,77
1660053113.39747,1372476.9572944,21
1660053113.39747,1372476.9573003,-32
1660053113.39747,1372476.9573033,-65
1660053113.41542,1372476.9573054,-88
1660053113.41542,1372476.9573076,-112
1660053113.41542,1372476.9573155,-123
1660053113.41542,1372476.957329,-121
1660053113.41542,1372476.9573435,-119
1660053113.41542,1372476.957357,-126
1660053113.41542,1372476.9573703,-133
1660053113.41542,1372476.9573836,-119
1660053113.41542,1372477.4929716,-112
1660053113.41542,1372477.4929915,-116
1660053113.41542,1372477.4929986,-105
1660053113.41542,1372477.4930056,-86
1660053113.41542,1372477.493013,-81
1660053113.41542,1372477.4930175,-77
1660053113.41542,1372477.4930207,-79
1660053113.41542,1372477.4930237,-95
1660053113.41542,1372477.4930276,-88
1660053113.41542,1372477.4930308,-70
1660053113.41542,1372477.4930354,-60
1660053113.41542,1372477.4930415,-58
1660053113.41542,1372477.493046,-60
1660053113.41542,1372477.4930515,-65
1660053113.41542,1372477.4930561,-58
1660053113.41542,1372477.4930663,-56
1660053114.02606,1372477.4930746,-72
1660053114.02606,1372477.4930815,-72
1660053114.02606,1372477.493089,-49
1660053114.02606,1372477.4930951,-39
1660053114.02606,1372477.4930986,-42
1660053114.02606,1372477.4931019,-35
1660053114.02606,1372477.4931051,-18
1660053114.02606,1372477.4931084,-11
1660053114.02606,1372477.4931118,-9
1660053114.02606,1372477.493115,2
1660053114.02606,1372477.4931224,14
1660053114.02606,1372477.4931335,28
1660053114.02606,1372477.493137,30
1660053114.02606,1372477.4931405,25
1660053114.02606,1372477.4931441,32
1660053114.02606,1372477.4931495,42
1660053114.02606,1372477.4931533,44
1660053114.02606,1372477.4931586,46
1660053114.02606,1372477.4931663,49
1660053114.02606,1372477.4931706,51
1660053114.02606,1372477.4931769,63
1660053114.02606,1372477.4931806,72
1660053114.02606,1372477.493188,79
1660053114.02606,1372477.4931913,93
1660053114.02606,1372477.4931965,105
1660053114.02606,1372477.4932046,105
1660053114.02606,1372477.493211,109
1660053114.02606,1372477.493216,112
1660053114.02606,1372477.4932212,109
1660053114.02606,1372477.4932256,107
1660053114.02606,1372477.493231,105
1660053114.02606,1372477.4932349,102
1660053114.02606,1372477.4932392,100
1660053114.02606,1372477.4932443,107
1660053114.02606,1372477.4932489,107
1660053114.02606,1372477.4932522,91
1660053114.02606,1372477.4932576,144
1660053114.02606,1372477.4932608,411
1660053114.02606,1372477.4932642,859
1660053114.02606,1372477.4932693,1156
1660053114.02606,1372477.4932726,829
1660053114.02606,1372477.4932777,-42
1660053114.02606,1372477.4932823,-574
1660053114.02606,1372477.49329,-418
1660053114.02606,1372477.493296,-168
1660053114.02606,1372477.4933012,-63
1660053114.02606,1372477.4933071,58
1660053114.02606,1372477.4933216,130
1660053114.02606,1372477.4933267,114
1660053114.02606,1372477.4933318,105
1660053114.03703,1372477.4933368,112
1660053114.03703,1372477.4933416,112
1660053114.03703,1372477.4933453,121
1660053114.03703,1372477.493349,128
1660053114.03703,1372477.4933528,123
1660053114.03703,1372477.4933597,123
1660053114.03703,1372477.4933661,135
1660053114.03703,1372478.1275838,142
1660053114.03703,1372478.1276006,151
1660053114.03703,1372478.1276068,168
1660053114.03703,1372478.1276124,172
1660053114.03703,1372478.1276171,165
1660053114.03703,1372478.1276219,191
1660053114.03703,1372478.1276257,226
1660053114.03703,1372478.1276312,238
1660053114.03703,1372478.1276349,252
1660053114.03703,1372478.1276401,268
1660053114.03703,1372478.1276437,259
1660053114.03703,1372478.1276489,249
1660053114.03703,1372478.1276526,245
1660053114.03703,1372478.1276577,231
1660053114.03703,1372478.1276614,198
1660053114.03703,1372478.127665,142
1660053114.03703,1372478.1276703,74
1660053114.56846,1372478.1276749,9
1660053114.56846,1372478.1276787,-42
1660053114.56846,1372478.1276822,-79
1660053114.56846,1372478.1276857,-102
1660053114.56846,1372478.1276891,-114
1660053114.56846,1372478.1276927,-121
1660053114.56846,1372478.1276962,-126
1660053114.56846,1372478.1276997,-123
1660053114.56846,1372478.1277032,-116
1660053114.56846,1372478.1277068,-109
1660053114.56846,1372478.1277109,-95
1660053114.56846,1372478.1277145,-86
1660053114.56846,1372478.127718,-88
1660053114.56846,1372478.127722,-79
1660053114.56846,1372478.1277268,-51
1660053114.56846,1372478.12773,-35
1660053114.56846,1372478.1277337,-32
1660053114.56846,1372478.1277373,-16
1660053114.56846,1372478.1277425,-2
1660053114.56846,1372478.1277472,0
1660053114.56846,1372478.1277527,4
1660053114.56846,1372478.1277564,7
1660053114.56846,1372478.12776,-7
1660053114.56846,1372478.1277636,-7
1660053114.56846,1372478.1277671,11
1660053114.56846,1372478.1277706,23
1660053114.56846,1372478.1277742,21
1660053114.56846,1372478.127778,21
1660053114.56846,1372478.1277815,30
1660053114.56846,1372478.127785,37
1660053114.56846,1372478.1277884,35
1660053114.56846,1372478.127792,32
1660053114.56846,1372478.1277955,42
1660053114.56846,1372478.127799,42
1660053114.56846,1372478.1278024,39
1660053114.56846,1372478.1278059,56
1660053114.56846,1372478.1278094,70
1660053114.56846,1372478.1278128,67
1660053114.56846,1372478.1278173,67
1660053114.56846,1372478.1278226,67
1660053114.56846,1372478.1278324,53
1660053114.56846,1372478.1278375,32
1660053114.56846,1372478.127842,23
1660053114.56846,1372478.1278467,30
1660053114.56846,1372478.1278591,39
1660053114.56846,1372478.1278622,51
1660053114.56846,1372478.1278644,60
1660053114.56846,1372478.1278665,70
1660053114.56846,1372478.1278687,79
1660053114.56846,1372478.1278787,79
1660053114.57943,1372478.1278944,74
1660053114.57943,1372478.1279033,72
1660053114.57943,1372478.1279059,67
1660053114.57943,1372478.1279079,63
1660053114.57943,1372478.12791,70
1660053114.57943,1372478.1279121,84
1660053114.57943,1372478.6629407,93
1660053114.57943,1372478.6629621,107
1660053114.57943,1372478.6629766,112
1660053114.57943,1372478.6629876,81
1660053114.57943,1372478.6629975,58
1660053114.57943,1372478.6630045,168
1660053114.57943,1372478.6630116,502
1660053114.57943,1372478.6630161,948
1660053114.57943,1372478.6630296,1139
1660053114.57943,1372478.6630432,674
1660053114.57943,1372478.6630545,-196
1660053114.57943,1372478.6630584,-583
1660053114.57943,1372478.6630614,-357
1660053114.57943,1372478.6630643,-151
1660053114.57943,1372478.6630676,-88
1660053114.57943,1372478.6630802,4
1660053114.57943,1372478.6630877,53
1660053114.57943,1372478.6630902,46
1660053115.10487,1372478.6630924,58
1660053115.10487,1372478.6630946,49
1660053115.10487,1372478.6630998,39
1660053115.10487,1372478.6631103,65
1660053115.10487,1372478.6631143,63
1660053115.10487,1372478.6631164,53
1660053115.10487,1372478.6631184,93
1660053115.10487,1372478.6631203,114
1660053115.10487,1372478.6631224,98
1660053115.10487,1372478.6631301,102
1660053115.10487,1372478.6631404,114
1660053115.10487,1372478.6631445,112
1660053115.10487,1372478.6631469,133
1660053115.10487,1372478.6631491,158
1660053115.10487,1372478.6631512,172
1660053115.10487,1372478.6631547,198
1660053115.10487,1372478.6631677,228
1660053115.10487,1372478.6631735,245
1660053115.10487,1372478.6631759,249
1660053115.10487,1372478.663178,245
1660053115.10487,1372478.6631815,238
1660053115.10487,1372478.6631945,228
1660053115.10487,1372478.6632001,193
1660053115.10487,1372478.6632034,133
1660053115.10487,1372478.6632055,91
1660053115.10487,1372478.6632077,46
1660053115.10487,1372478.6632138,-18
1660053115.10487,1372478.6632255,-70
1660053115.10487,1372478.6632308,-88
1660053115.10487,1372478.6632329,-98
1660053115.10487,1372478.6632352,-107
1660053115.10487,1372478.6632428,-116
1660053115.10487,1372478.6632537,-121
1660053115.10487,1372478.6632573,-121
1660053115.10487,1372478.6632668,-116
1660053115.10487,1372478.663276,-119
1660053115.10487,1372478.6632894,-119
1660053115.10487,1372478.6633036,-102
1660053115.10487,1372478.663313,-77
1660053115.10487,1372478.6633155,-60
1660053115.10487,1372478.6633176,-44
1660053115.10487,1372478.6633202,-32
1660053115.10487,1372478.6633305,-25
1660053115.10487,1372478.6633451,-21
1660053115.10487,1372478.6633593,-16
1660053115.10487,1372478.6633685,-4
1660053115.10487,1372478.6633721,9
1660053115.10487,1372478.6633742,11
1660053115.10487,1372478.6633762,18
1660053115.10487,1372478.6633782,30
1660053115.11484,1372478.6633803,37
1660053115.11484,1372478.6633833,39
1660053115.11484,1372478.6633941,39
1660053115.11484,1372478.6634019,46
1660053115.11484,1372478.6634044,56
1660053115.11484,1372479.1992152,58
1660053115.11484,1372479.1992332,63
1660053115.11484,1372479.199238,74
1660053115.11484,1372479.199245,72
1660053115.11484,1372479.1992489,60
1660053115.11484,1372479.199256,56
1660053115.11484,1372479.1992599,65
1660053115.11484,1372479.1992642,72
1660053115.11484,1372479.1992699,60
1660053115.11484,1372479.199275,46
1660053115.11484,1372479.1992803,49
1660053115.11484,1372479.1992841,72
1660053115.11484,1372479.1992879,70
1660053115.11484,1372479.1992934,39
1660053115.11484,1372479.1992975,37
1660053115.11484,1372479.1993037,53
1660053115.11484,1372479.1993093,39
1660053115.11484,1372479.1993147,9
1660053115.11484,1372479.199321,9
1660053115.69126,1372479.1993266,25
1660053115.69126,1372479.199331,37
1660053115.69126,1372479.1993347,37
1660053115.69126,1372479.1993383,39
1660053115.69126,1372479.199342,46
1660053115.69126,1372479.1993457,46
1660053115.69126,1372479.1993493,42
1660053115.69126,1372479.1993529,37
1660053115.69126,1372479.1993562,53
1660053115.69126,1372479.1993594,67
1660053115.69126,1372479.1993627,58
1660053115.69126,1372479.1993662,44
1660053115.69126,1372479.1993699,67
1660053115.69126,1372479.1993742,226
1660053115.69126,1372479.1993799,579
1660053115.69126,1372479.1993836,945
1660053115.69126,1372479.1993869,901
1660053115.69126,1372479.1994005,256
1660053115.69126,1372479.1994137,-427
1660053115.69126,1372479.1994228,-520
1660053115.69126,1372479.1994323,-273
1660053115.69126,1372479.19944,-121
1660053115.69126,1372479.1994459,-28
1660053115.69126,1372479.1994497,46
1660053115.69126,1372479.1994549,39
1660053115.69126,1372479.19946,28
1660053115.69126,1372479.1994681,56
1660053115.69126,1372479.1994736,72
1660053115.69126,1372479.1994757,72
1660053115.69126,1372479.1994778,72
1660053115.69126,1372479.1994799,79
1660053115.69126,1372479.1994819,88
1660053115.69126,1372479.199484,105
1660053115.69126,1372479.199486,100
1660053115.69126,1372479.1994889,84
1660053115.69126,1372479.1995,100
1660053115.69126,1372479.1995073,140
1660053115.69126,1372479.1995097,170
1660053115.69126,1372479.1995118,193
1660053115.69126,1372479.1995139,212
1660053115.69126,1372479.1995218,221
1660053115.69126,1372479.1995353,240
1660053115.69126,1372479.1995495,266
1660053115.69126,1372479.1995628,266
1660053115.69126,1372479.1995759,259
1660053115.69126,1372479.199589,266
1660053115.69126,1372479.199602,261
1660053115.69126,1372479.1996151,228
1660053115.69126,1372479.1996282,186
1660053115.69126,1372479.1996413,126
1660053115.70423,1372479.1996544,70
1660053115.70423,1372479.1996676,23
1660053115.70423,1372479.1996808,-28
1660053115.70423,1372479.1996938,-74
1660053115.70423,1372479.7844331,-95
1660053115.70423,1372479.7844478,-102
1660053115.70423,1372479.7844522,-116
1660053115.70423,1372479.7844545,-123
1660053115.70423,1372479.7844566,-112
1660053115.70423,1372479.7844586,-105
1660053115.70423,1372479.7844607,-126
1660053115.70423,1372479.7844628,-154
1660053115.70423,1372479.7844648,-135
1660053115.70423,1372479.7844667,-95
1660053115.70423,1372479.7844688,-86
1660053115.70423,1372479.7844709,-91
1660053115.70423,1372479.784473,-109
1660053115.70423,1372479.784475,-130
1660053115.70423,1372479.7844772,-119
1660053115.70423,1372479.7844792,-91
1660053115.70423,1372479.7844813,-91
1660053115.70423,1372479.7844833,-93
1660053115.70423,1372479.7844862,-79
1660053115.70423,1372479.7844882,-70
1660053116.22501,1372479.7844903,-74
1660053116.22501,1372479.7844923,-74
1660053116.22501,1372479.7844943,-67
1660053116.22501,1372479.7844962,-46
1660053116.22501,1372479.7844981,-18
1660053116.22501,1372479.784502,-21
1660053116.22501,1372479.784504,-32
1660053116.22501,1372479.7845059,-25
1660053116.22501,1372479.7845119,4
1660053116.22501,1372479.784524,18
1660053116.22501,1372479.7845319,11
1660053116.22501,1372479.7845365,11
1660053116.22501,1372479.7845471,14
1660053116.22501,1372479.7845551,21
1660053116.22501,1372479.784561,32
1660053116.22501,1372479.784565,16
1660053116.22501,1372479.7845727,-4
1660053116.22501,1372479.7845876,4
1660053116.22501,1372479.7845995,23
1660053116.22501,1372479.7846104,25
1660053116.22501,1372479.7846175,35
1660053116.22501,1372479.7846268,56
1660053116.22501,1372479.7846351,60
1660053116.22501,1372479.7846405,56
1660053116.22501,1372479.7846444,46
1660053116.22501,1372479.7846511,44
1660053116.22501,1372479.7846554,53
1660053116.22501,1372479.7846596,56
1660053116.22501,1372479.7846637,49
1660053116.22501,1372479.7846678,60
1660053116.22501,1372479.784674,77
1660053116.22501,1372479.7846782,77
1660053116.22501,1372479.7846841,67
1660053116.22501,1372479.7846882,88
1660053116.22501,1372479.7846939,245
1660053116.22501,1372479.7846981,607
1660053116.22501,1372479.7847037,1011
1660053116.22501,1372479.7847093,1030
1660053116.22501,1372479.7847131,383
1660053116.22501,1372479.7847183,-394
1660053116.22501,1372479.7847242,-558
1660053116.22501,1372479.7847284,-298
1660053116.22501,1372479.7847323,-128
1660053116.22501,1372479.7847363,-23
1660053116.22501,1372479.7847408,79
1660053116.22501,1372479.7847477,100
1660053116.22501,1372479.7847517,88
1660053116.22501,1372479.7847622,107
1660053116.22501,1372479.7847677,133
1660053116.22501,1372479.784778,137
1660053116.23598,1372479.7847835,130
1660053116.23598,1372479.7847888,128
1660053116.23598,1372479.7847924,135
1660053116.23598,1372480.321546,142
1660053116.23598,1372480.3215662,156
1660053116.23598,1372480.3215819,168
1660053116.23598,1372480.3215893,170
1660053116.23598,1372480.3215962,177
1660053116.23598,1372480.3216032,191
1660053116.23598,1372480.3216104,212
1660053116.23598,1372480.3216157,235
1660053116.23598,1372480.3216216,259
1660053116.23598,1372480.3216276,280
1660053116.23598,1372480.3216333,287
1660053116.23598,1372480.3216382,291
1660053116.23598,1372480.3216455,296
1660053116.23598,1372480.3216491,287
1660053116.23598,1372480.3216551,273
1660053116.23598,1372480.3216585,228
1660053116.23598,1372480.3216646,147
1660053116.23598,1372480.3216681,74
1660053116.23598,1372480.3216816,25
1660053116.23598,1372480.3216972,-25
1660053116.23598,1372480.3217063,-72
1660053116.76024,1372480.3217113,-105
1660053116.76024,1372480.3217154,-140
1660053116.76024,1372480.3217196,-158
1660053116.76024,1372480.3217239,-144
1660053116.76024,1372480.321728,-133
1660053116.76024,1372480.3217319,-135
1660053116.76024,1372480.321736,-135
1660053116.76024,1372480.3217401,-144
1660053116.76024,1372480.3217444,-154
1660053116.76024,1372480.3217486,-137
1660053116.76024,1372480.3217531,-109
1660053116.76024,1372480.3217591,-88
1660053116.76024,1372480.3217631,-74
1660053116.76024,1372480.3217667,-67
1660053116.76024,1372480.3217721,-70
1660053116.76024,1372480.3217766,-65
1660053116.76024,1372480.3217822,-44
1660053116.76024,1372480.321786,-30
1660053116.76024,1372480.3217914,-25
1660053116.76024,1372480.3217956,-21
1660053116.76024,1372480.3218009,-21
1660053116.76024,1372480.321805,-21
1660053116.76024,1372480.3218114,-7
1660053116.76024,1372480.3218216,4
1660053116.76024,1372480.3218343,7
1660053116.76024,1372480.3218504,14
1660053116.76024,1372480.3218638,9
1660053116.76024,1372480.3218757,4
1660053116.76024,1372480.3218844,18
1660053116.76024,1372480.3218911,35
1660053116.76024,1372480.3218965,30
1660053116.76024,1372480.3219022,30
1660053116.76024,1372480.3219064,39
1660053116.76024,1372480.3219103,39
1660053116.76024,1372480.3219154,42
1660053116.76024,1372480.3219194,46
1660053116.76024,1372480.3219237,51
1660053116.76024,1372480.3219277,60
1660053116.76024,1372480.3219336,67
1660053116.76024,1372480.3219376,60
1660053116.76024,1372480.3219417,51
1660053116.76024,1372480.3219474,56
1660053116.76024,1372480.3219515,70
1660053116.76024,1372480.3219568,81
1660053116.76024,1372480.3219607,91
1660053116.76024,1372480.3219644,100
1660053116.76024,1372480.3219696,105
1660053116.76024,1372480.3219736,93
1660053116.76024,1372480.3219777,81
1660053116.76024,1372480.3219838,88
1660053116.77121,1372480.321988,95
1660053116.77121,1372480.3219925,95
1660053116.77121,1372480.8576619,95
1660053116.77121,1372480.8576826,102
1660053116.77121,1372480.8576977,105
1660053116.77121,1372480.8577122,93
1660053116.77121,1372480.8577267,77
1660053116.77121,1372480.8577402,168
1660053116.77121,1372480.8577534,462
1660053116.77121,1372480.8577666,871
1660053116.77121,1372480.8577798,1044
1660053116.77121,1372480.8577922,579
1660053116.77121,1372480.8578069,-266
1660053116.77121,1372480.8578195,-621
1660053116.77121,1372480.8578274,-373
1660053116.77121,1372480.8578317,-161
1660053116.77121,1372480.8578361,-91
1660053116.77121,1372480.8578422,2
1660053116.77121,1372480.8578463,37
1660053116.77121,1372480.8578521,28
1660053116.77121,1372480.8578561,60
1660053116.77121,1372480.8578603,86
1660053116.77121,1372480.8578663,72
1660053116.77121,1372480.8578722,60
1660053117.38993,1372480.8578764,65
1660053117.38993,1372480.8578806,77
1660053117.38993,1372480.8578845,91
1660053117.38993,1372480.8578885,100
1660053117.38993,1372480.8578925,105
1660053117.38993,1372480.8578966,116
1660053117.38993,1372480.8579005,130
1660053117.38993,1372480.8579043,149
1660053117.38993,1372480.8579079,170
1660053117.38993,1372480.857912,189
1660053117.38993,1372480.8579177,205
1660053117.38993,1372480.8579214,228
1660053117.38993,1372480.8579273,247
1660053117.38993,1372480.857931,273
1660053117.38993,1372480.8579346,289
1660053117.38993,1372480.8579382,282
1660053117.38993,1372480.8579416,273
1660053117.38993,1372480.8579453,263
1660053117.38993,1372480.8579489,226
1660053117.38993,1372480.8579527,175
1660053117.38993,1372480.8579585,128
1660053117.38993,1372480.8579626,77
1660053117.38993,1372480.8579665,18
1660053117.38993,1372480.8579702,-25
1660053117.38993,1372480.8579742,-56
1660053117.38993,1372480.8579782,-77
1660053117.38993,1372480.8579839,-91
1660053117.38993,1372480.8579875,-91
1660053117.38993,1372480.8579917,-91
1660053117.38993,1372480.8579978,-95
1660053117.38993,1372480.858002,-93
1660053117.38993,1372480.8580076,-81
1660053117.38993,1372480.8580113,-67
1660053117.38993,1372480.8580172,-60
1660053117.38993,1372480.8580212,-53
1660053117.38993,1372480.8580271,-49
1660053117.38993,1372480.8580313,-53
1660053117.38993,1372480.8580367,-56
1660053117.38993,1372480.858041,-42
1660053117.38993,1372480.8580466,-30
1660053117.38993,1372480.8580507,-25
1660053117.38993,1372480.8580564,-21
1660053117.38993,1372480.8580606,-21
1660053117.38993,1372480.8580661,-18
1660053117.38993,1372480.8580701,-9
1660053117.38993,1372480.8580758,0
1660053117.38993,1372480.8580808,4
1660053117.38993,1372480.8580863,2
1660053117.38993,1372480.8580914,0
1660053117.38993,1372480.8580971,7
1660053117.40189,1372480.8581024,14
1660053117.40189,1372481.4905868,11
1660053117.40189,1372481.4906006,14
1660053117.40189,1372481.4906043,14
1660053117.40189,1372481.4906082,-11
1660053117.40189,1372481.4906104,-30
1660053117.40189,1372481.4906124,-18
1660053117.40189,1372481.4906145,-4
1660053117.40189,1372481.4906165,2
1660053117.40189,1372481.4906185,2
1660053117.40189,1372481.4906205,-21
1660053117.40189,1372481.4906226,-46
1660053117.40189,1372481.4906247,-32
1660053117.40189,1372481.4906268,-14
1660053117.40189,1372481.4906296,-21
1660053117.40189,1372481.4906359,-39
1660053117.40189,1372481.490645,-53
1660053117.40189,1372481.4906534,-49
1660053117.40189,1372481.4906636,-42
1660053117.40189,1372481.4906708,-42
1660053117.40189,1372481.4906732,-25
1660053117.40189,1372481.490676,-2
1660053117.40189,1372481.4906859,2
1660053117.40189,1372481.4906948,-7
1660053117.94193,1372481.4906973,-4
1660053117.94193,1372481.4906993,9
1660053117.94193,1372481.4907012,21
1660053117.94193,1372481.4907031,23
1660053117.94193,1372481.4907051,25
1660053117.94193,1372481.4907084,28
1660053117.94193,1372481.4907187,28
1660053117.94193,1372481.4907267,30
1660053117.94193,1372481.4907345,30
1660053117.94193,1372481.4907407,109
1660053117.94193,1372481.4907465,390
1660053117.94193,1372481.4907521,805
1660053117.94193,1372481.4907593,1015
1660053117.94193,1372481.490767,609
1660053117.94193,1372481.4907754,-212
1660053117.94193,1372481.4907885,-611
1660053117.94193,1372481.4907977,-411
1660053117.94193,1372481.4908036,-165
1660053117.94193,1372481.4908138,-67
1660053117.94193,1372481.4908199,21
1660053117.94193,1372481.4908231,67
1660053117.94193,1372481.4908254,60
1660053117.94193,1372481.4908274,79
1660053117.94193,1372481.4908295,112
1660053117.94193,1372481.4908319,114
1660053117.94193,1372481.4908399,109
1660053117.94193,1372481.4908505,119
1660053117.94193,1372481.4908538,130
1660053117.94193,1372481.4908578,133
1660053117.94193,1372481.4908604,135
1660053117.94193,1372481.49087,144
1660053117.94193,1372481.4908792,158
1660053117.94193,1372481.4908818,179
1660053117.94193,1372481.4908839,198
1660053117.94193,1372481.4908859,214
1660053117.94193,1372481.4908917,240
1660053117.94193,1372481.4909032,270
1660053117.94193,1372481.4909087,294
1660053117.94193,1372481.4909109,308
1660053117.94193,1372481.4909136,324
1660053117.94193,1372481.4909195,336
1660053117.94193,1372481.4909311,331
1660053117.94193,1372481.4909363,317
1660053117.94193,1372481.4909393,294
1660053117.94193,1372481.4909414,261
1660053117.94193,1372481.4909434,217
1660053117.94193,1372481.4909456,156
1660053117.94193,1372481.4909532,98
1660053117.94193,1372481.4909639,51
1660053117.94193,1372481.4909739,11
1660053117.96002,1372482.0267861,-23
1660053117.96002,1372482.0268082,-42
1660053117.96002,1372482.02682,-58
1660053117.96002,1372482.0268246,-63
1660053117.96002,1372482.0268335,-60
1660053117.96002,1372482.0268453,-65
1660053117.96002,1372482.0268508,-84
1660053117.96002,1372482.0268531,-107
1660053117.96002,1372482.0268552,-114
1660053117.96002,1372482.0268572,-105
1660053117.96002,1372482.0268593,-93
1660053117.96002,1372482.0268615,-86
1660053117.96002,1372482.0268635,-102
1660053117.96002,1372482.0268656,-123
1660053117.96002,1372482.0268691,-114
1660053117.96002,1372482.0268814,-93
1660053117.96002,1372482.026893,-86
1660053117.96002,1372482.0269076,-84
1660053117.96002,1372482.0269212,-88
1660053117.96002,1372482.0269349,-107
1660053117.96002,1372482.0269482,-107
1660053117.96002,1372482.026961,-93
1660053117.96002,1372482.0269705,-88
1660053117.96002,1372482.0269749,-86
1660053118.465,1372482.026977,-72
1660053118.465,1372482.026979,-70
1660053118.465,1372482.026981,-77
1660053118.465,1372482.026983,-67
1660053118.465,1372482.026985,-49
1660053118.465,1372482.0269869,-39
1660053118.465,1372482.0269887,-32
1660053118.465,1372482.0269906,-25
1660053118.465,1372482.0269926,-25
1660053118.465,1372482.0269945,-18
1660053118.465,1372482.0269964,-7
1660053118.465,1372482.0269983,-4
1660053118.465,1372482.0270003,2
1660053118.465,1372482.0270024,4
1660053118.465,1372482.027012,-2
1660053118.465,1372482.0270254,0
1660053118.465,1372482.0270341,14
1660053118.465,1372482.0270367,18
1660053118.465,1372482.0270389,25
1660053118.465,1372482.027041,42
1660053118.465,1372482.0270431,49
1660053118.465,1372482.0270452,44
1660053118.465,1372482.0270472,42
1660053118.465,1372482.0270492,46
1660053118.465,1372482.0270512,63
1660053118.465,1372482.0270532,70
1660053118.465,1372482.0270552,67
1660053118.465,1372482.0270573,67
1660053118.465,1372482.0270593,74
1660053118.465,1372482.0270613,77
1660053118.465,1372482.0270634,65
1660053118.465,1372482.0270655,109
1660053118.465,1372482.0270675,350
1660053118.465,1372482.0270696,796
1660053118.465,1372482.0270716,1144
1660053118.465,1372482.0270736,896
1660053118.465,1372482.0270757,28
1660053118.465,1372482.0270778,-588
1660053118.465,1372482.0270798,-464
1660053118.465,1372482.0270819,-177
1660053118.465,1372482.027084,-74
1660053118.465,1372482.027086,28
1660053118.465,1372482.0270881,109
1660053118.465,1372482.0270901,100
1660053118.465,1372482.0270922,100
1660053118.465,1372482.0270942,128
1660053118.465,1372482.0270963,128
1660053118.465,1372482.0270983,123
1660053118.465,1372482.0271004,116
1660053118.465,1372482.5633383,109
1660053118.47796,1372482.5633571,116
1660053118.47796,1372482.5633629,130
1660053118.47796,1372482.5633664,140
1660053118.47796,1372482.5633695,151
1660053118.47796,1372482.5633729,175
1660053118.47796,1372482.5633767,193
1660053118.47796,1372482.5633801,207
1660053118.47796,1372482.5633832,226
1660053118.47796,1372482.5633867,238
1660053118.47796,1372482.5633931,242
1660053118.47796,1372482.5633995,270
1660053118.47796,1372482.5634049,301
1660053118.47796,1372482.5634086,305
1660053118.47796,1372482.5634124,305
1660053118.47796,1372482.5634154,291
1660053118.47796,1372482.5634184,245
1660053118.47796,1372482.5634212,193
1660053118.47796,1372482.5634242,149
1660053118.47796,1372482.5634271,93
1660053118.47796,1372482.56343,30
1660053118.47796,1372482.563433,-21
1660053118.47796,1372482.5634359,-58
1660053118.47796,1372482.5634388,-84
1660053118.47796,1372482.5634417,-98
1660053119.04709,1372482.5634455,-100
1660053119.04709,1372482.5634522,-100
1660053119.04709,1372482.5634591,-95
1660053119.04709,1372482.5634658,-88
1660053119.04709,1372482.5634727,-81
1660053119.04709,1372482.563477,-77
1660053119.04709,1372482.56348,-81
1660053119.04709,1372482.5634836,-88
1660053119.04709,1372482.5634897,-84
1660053119.04709,1372482.5634965,-74
1660053119.04709,1372482.563504,-74
1660053119.04709,1372482.5635094,-81
1660053119.04709,1372482.5635132,-72
1660053119.04709,1372482.5635162,-53
1660053119.04709,1372482.5635192,-46
1660053119.04709,1372482.5635221,-49
1660053119.04709,1372482.5635251,-46
1660053119.04709,1372482.563528,-37
1660053119.04709,1372482.563531,-35
1660053119.04709,1372482.563534,-32
1660053119.04709,1372482.5635369,-23
1660053119.04709,1372482.5635399,-16
1660053119.04709,1372482.5635429,-9
1660053119.04709,1372482.5635457,-9
1660053119.04709,1372482.5635486,-11
1660053119.04709,1372482.5635514,-7
1660053119.04709,1372482.5635543,9
1660053119.04709,1372482.5635572,16
1660053119.04709,1372482.56356,16
1660053119.04709,1372482.5635629,11
1660053119.04709,1372482.5635658,11
1660053119.04709,1372482.5635687,23
1660053119.04709,1372482.5635716,37
1660053119.04709,1372482.5635745,44
1660053119.04709,1372482.5635775,46
1660053119.04709,1372482.5635805,44
1660053119.04709,1372482.5635833,44
1660053119.04709,1372482.5635861,49
1660053119.04709,1372482.5635889,46
1660053119.04709,1372482.5635918,30
1660053119.04709,1372482.5635948,28
1660053119.04709,1372482.5635976,37
1660053119.04709,1372482.5636005,35
1660053119.04709,1372482.5636034,30
1660053119.04709,1372482.5636177,42
1660053119.04709,1372482.5636311,51
1660053119.04709,1372482.5636446,56
1660053119.04709,1372482.5636579,58
1660053119.04709,1372483.1485393,56
1660053119.04709,1372483.1485587,63
1660053119.05806,1372483.1485676,81
1660053119.05806,1372483.148576,93
1660053119.05806,1372483.1485811,95
1660053119.05806,1372483.1485871,81
1660053119.05806,1372483.1485911,51
1660053119.05806,1372483.1485966,42
1660053119.05806,1372483.1486005,65
1660053119.05806,1372483.1486046,74
1660053119.05806,1372483.1486105,70
1660053119.05806,1372483.1486142,72
1660053119.05806,1372483.1486182,58
1660053119.05806,1372483.1486225,16
1660053119.05806,1372483.1486264,49
1660053119.05806,1372483.1486304,275
1660053119.05806,1372483.1486344,689
1660053119.05806,1372483.1486383,1034
1660053119.05806,1372483.1486424,852
1660053119.05806,1372483.1486462,60
1660053119.05806,1372483.1486501,-581
1660053119.05806,1372483.1486539,-502
1660053119.05806,1372483.1486579,-189
1660053119.05806,1372483.1486617,-86
1660053119.05806,1372483.1486673,-30
1660053119.05806,1372483.1486711,44
1660053119.58856,1372483.1486767,51
1660053119.58856,1372483.1486806,56
1660053119.58856,1372483.1486845,81
1660053119.58856,1372483.1486881,91
1660053119.58856,1372483.1486919,98
1660053119.58856,1372483.1486956,107
1660053119.58856,1372483.1486997,116
1660053119.58856,1372483.1487035,126
1660053119.58856,1372483.1487071,137
1660053119.58856,1372483.1487109,151
1660053119.58856,1372483.1487146,163
1660053119.58856,1372483.1487185,172
1660053119.58856,1372483.1487222,182
1660053119.58856,1372483.1487259,205
1660053119.58856,1372483.1487295,228
1660053119.58856,1372483.1487332,249
1660053119.58856,1372483.1487369,273
1660053119.58856,1372483.1487406,294
1660053119.58856,1372483.1487444,303
1660053119.58856,1372483.1487481,310
1660053119.58856,1372483.148752,319
1660053119.58856,1372483.1487559,315
1660053119.58856,1372483.1487615,294
1660053119.58856,1372483.1487653,268
1660053119.58856,1372483.1487708,228
1660053119.58856,1372483.1487756,175
1660053119.58856,1372483.1487794,119
1660053119.58856,1372483.1487859,67
1660053119.58856,1372483.14879,16
1660053119.58856,1372483.1487955,-25
1660053119.58856,1372483.1487995,-44
1660053119.58856,1372483.1488049,-63
1660053119.58856,1372483.1488089,-88
1660053119.58856,1372483.1488146,-98
1660053119.58856,1372483.1488185,-95
1660053119.58856,1372483.1488242,-93
1660053119.58856,1372483.148828,-93
1660053119.58856,1372483.1488334,-93
1660053119.58856,1372483.1488374,-88
1660053119.58856,1372483.1488431,-81
1660053119.58856,1372483.1488486,-77
1660053119.58856,1372483.1488525,-67
1660053119.58856,1372483.1488584,-51
1660053119.58856,1372483.1488622,-42
1660053119.58856,1372483.1488659,-39
1660053119.58856,1372483.1488697,-37
1660053119.58856,1372483.1488734,-30
1660053119.58856,1372483.6843472,-23
1660053119.58856,1372483.6843607,-11
1660053119.58856,1372483.6843639,-4
1660053119.59953,1372483.6843666,-2
1660053119.59953,1372483.6843692,0
1660053119.59953,1372483.6843716,7
1660053119.59953,1372483.6843739,9
1660053119.59953,1372483.6843763,14
1660053119.59953,1372483.6843786,11
1660053119.59953,1372483.6843808,-11
1660053119.59953,1372483.6843832,-35
1660053119.59953,1372483.6843854,-23
1660053119.59953,1372483.6843878,-9
1660053119.59953,1372483.6843905,-11
1660053119.59953,1372483.684396,-21
1660053119.59953,1372483.6844076,-37
1660053119.59953,1372483.6844135,-60
1660053119.59953,1372483.6844157,-60
1660053119.59953,1372483.6844178,-42
1660053119.59953,1372483.6844199,-35
1660053119.59953,1372483.6844219,-32
1660053119.59953,1372483.6844239,-21
1660053119.59953,1372483.6844301,-21
1660053119.59953,1372483.6844415,-25
1660053119.59953,1372483.6844466,-14
1660053119.59953,1372483.6844487,-2
1660053119.59953,1372483.684452,2
1660053120.16725,1372483.6844541,11
1660053120.16725,1372483.6844562,16

1660053120.16725,1372483.6844581,9
1660053120.16725,1372483.6844601,14
1660053120.16725,1372483.684462,23
1660053120.16725,1372483.6844639,23
1660053120.16725,1372483.6844672,25
1660053120.16725,1372483.6844792,30
1660053120.16725,1372483.6844893,32
1660053120.16725,1372483.6844933,39
1660053120.16725,1372483.6844962,56
1660053120.16725,1372483.6845063,67
1660053120.16725,1372483.6845147,77
1660053120.16725,1372483.6845171,81
1660053120.16725,1372483.6845192,67
1660053120.16725,1372483.6845213,60
1660053120.16725,1372483.6845235,74
1660053120.16725,1372483.6845258,81
1660053120.16725,1372483.6845336,79
1660053120.16725,1372483.6845439,74
1660053120.16725,1372483.6845475,65
1660053120.16725,1372483.6845511,56
1660053120.16725,1372483.6845566,49
1660053120.16725,1372483.6845684,98
1660053120.16725,1372483.6845738,336
1660053120.16725,1372483.684576,770
1660053120.16725,1372483.6845781,1058
1660053120.16725,1372483.6845801,724
1660053120.16725,1372483.6845824,-112
1660053120.16725,1372483.68459,-604
1660053120.16725,1372483.6846008,-439
1660053120.16725,1372483.6846052,-175
1660053120.16725,1372483.6846084,-84
1660053120.16725,1372483.6846106,2
1660053120.16725,1372483.6846126,67
1660053120.16725,1372483.6846147,60
1660053120.16725,1372483.6846168,72
1660053120.16725,1372483.684624,105
1660053120.16725,1372483.6846351,105
1660053120.16725,1372483.6846398,100
1660053120.16725,1372483.6846419,112
1660053120.16725,1372483.684645,126
1660053120.16725,1372483.6846471,137
1660053120.16725,1372483.6846662,137
1660053120.16725,1372483.6846715,140
1660053120.16725,1372483.6846737,151
1660053120.16725,1372484.2693515,163
1660053120.16725,1372484.2693689,175
1660053120.16725,1372484.2693718,200
1660053120.16725,1372484.2693739,217
1660053120.18022,1372484.269376,226
1660053120.18022,1372484.2693781,240
1660053120.18022,1372484.2693802,240
1660053120.18022,1372484.2693822,233
1660053120.18022,1372484.2693843,256
1660053120.18022,1372484.2693864,277
1660053120.18022,1372484.2693885,266
1660053120.18022,1372484.2693956,240
1660053120.18022,1372484.269407,191
1660053120.18022,1372484.2694165,116
1660053120.18022,1372484.2694245,60
1660053120.18022,1372484.2694373,9
1660053120.18022,1372484.2694436,-53
1660053120.18022,1372484.2694471,-93
1660053120.18022,1372484.2694494,-119
1660053120.18022,1372484.2694515,-147
1660053120.18022,1372484.2694535,-158
1660053120.18022,1372484.2694555,-151
1660053120.18022,1372484.2694593,-149
1660053120.18022,1372484.2694614,-149
1660053120.18022,1372484.2694636,-142
1660053120.18022,1372484.2694669,-130
1660053120.18022,1372484.2694823,-114
1660053120.18022,1372484.2694868,-95
1660053120.80209,1372484.26949,-81
1660053120.80209,1372484.2694938,-77
1660053120.80209,1372484.2694983,-65
1660053120.80209,1372484.2695024,-51
1660053120.80209,1372484.2695059,-35
1660053120.80209,1372484.269511,-28
1660053120.80209,1372484.2695142,-30
1660053120.80209,1372484.2695174,-23
1660053120.80209,1372484.2695205,-14
1660053120.80209,1372484.2695238,-14
1660053120.80209,1372484.2695272,-14
1660053120.80209,1372484.2695306,-7
1660053120.80209,1372484.269534,-9
1660053120.80209,1372484.2695374,-9
1660053120.80209,1372484.2695416,4
1660053120.80209,1372484.2695466,2
1660053120.80209,1372484.2695512,-16
1660053120.80209,1372484.269555,-16
1660053120.80209,1372484.269558,-7
1660053120.80209,1372484.2695608,-4
1660053120.80209,1372484.2695639,7
1660053120.80209,1372484.2695669,18
1660053120.80209,1372484.2695699,18
1660053120.80209,1372484.269573,16
1660053120.80209,1372484.269576,23
1660053120.80209,1372484.2695792,35
1660053120.80209,1372484.2695824,44
1660053120.80209,1372484.2695852,44
1660053120.80209,1372484.269588,49
1660053120.80209,1372484.2695909,51
1660053120.80209,1372484.2695945,51
1660053120.80209,1372484.2695977,58
1660053120.80209,1372484.2696016,67
1660053120.80209,1372484.2696073,72
1660053120.80209,1372484.2696119,72
1660053120.80209,1372484.2696152,67
1660053120.80209,1372484.2696185,67
1660053120.80209,1372484.2696218,77
1660053120.80209,1372484.2696296,88
1660053120.80209,1372484.2696399,98
1660053120.80209,1372484.2696468,100
1660053120.80209,1372484.2696526,95
1660053120.80209,1372484.2696588,86
1660053120.80209,1372484.2696647,79
1660053120.80209,1372484.2696693,81
1660053120.80209,1372484.9033936,93
1660053120.80209,1372484.9034058,100
1660053120.80209,1372484.9034086,93
1660053120.80209,1372484.9034108,91
1660053120.80209,1372484.9034129,100
1660053120.82403,1372484.903415,100
1660053120.82403,1372484.9034171,81
1660053120.82403,1372484.9034192,116
1660053120.82403,1372484.9034213,340
1660053120.82403,1372484.9034234,763
1660053120.82403,1372484.9034255,1116
1660053120.82403,1372484.9034276,941
1660053120.82403,1372484.9034296,109
1660053120.82403,1372484.9034317,-593
1660053120.82403,1372484.9034338,-532
1660053120.82403,1372484.903436,-231
1660053120.82403,1372484.903438,-147
1660053120.82403,1372484.9034401,-70
1660053120.82403,1372484.9034423,30
1660053120.82403,1372484.9034443,32
1660053120.82403,1372484.9034463,21
1660053120.82403,1372484.9034484,44
1660053120.82403,1372484.9034504,49
1660053120.82403,1372484.9034524,46
1660053120.82403,1372484.9034545,65
1660053120.82403,1372484.9034565,77
1660053120.82403,1372484.9034585,84
1660053120.82403,1372484.9034609,88
1660053120.82403,1372484.9034629,91
1660053121.38685,1372484.9034649,102
1660053121.38685,1372484.9034669,119
1660053121.38685,1372484.9034689,137
1660053121.38685,1372484.9034708,161
1660053121.38685,1372484.9034727,184
1660053121.38685,1372484.9034746,196
1660053121.38685,1372484.9034764,205
1660053121.38685,1372484.9034783,214
1660053121.38685,1372484.9034802,212
1660053121.38685,1372484.9034821,219
1660053121.38685,1372484.903484,238
1660053121.38685,1372484.903486,228
1660053121.38685,1372484.9034879,200
1660053121.38685,1372484.9034898,168
1660053121.38685,1372484.9034918,130
1660053121.38685,1372484.9034937,79
1660053121.38685,1372484.9034956,16
1660053121.38685,1372484.9035022,-30
1660053121.38685,1372484.903512,-67
1660053121.38685,1372484.9035187,-100
1660053121.38685,1372484.9035222,-112
1660053121.38685,1372484.9035249,-112
1660053121.38685,1372484.9035348,-114
1660053121.38685,1372484.9035413,-119
1660053121.38685,1372484.9035437,-114
1660053121.38685,1372484.9035458,-105
1660053121.38685,1372484.9035518,-93
1660053121.38685,1372484.9035691,-81
1660053121.38685,1372484.9035755,-72
1660053121.38685,1372484.9035785,-60
1660053121.38685,1372484.9035883,-51
1660053121.38685,1372484.9035946,-53
1660053121.38685,1372484.903598,-42
1660053121.38685,1372484.9036001,-23
1660053121.38685,1372484.9036021,-25
1660053121.38685,1372484.9036041,-23
1660053121.38685,1372484.9036062,-2
1660053121.38685,1372484.9036084,0
1660053121.38685,1372484.9036104,-2
1660053121.38685,1372484.9036125,7
1660053121.38685,1372484.9036145,11
1660053121.38685,1372484.9036166,14
1660053121.38685,1372484.9036187,18
1660053121.38685,1372484.9036207,21
1660053121.38685,1372485.4886599,25
1660053121.38685,1372485.4886832,30
1660053121.38685,1372485.4886992,25
1660053121.38685,1372485.4887095,28
1660053121.38685,1372485.4887192,37
1660053121.38685,1372485.4887265,46
1660053121.39782,1372485.4887395,46
1660053121.39782,1372485.4887496,44
1660053121.39782,1372485.4887562,44
1660053121.39782,1372485.4887609,39
1660053121.39782,1372485.4887657,46
1660053121.39782,1372485.4887727,56
1660053121.39782,1372485.4887863,39
1660053121.39782,1372485.4888009,14
1660053121.39782,1372485.4888085,7
1660053121.39782,1372485.4888109,14
1660053121.39782,1372485.4888131,23
1660053121.39782,1372485.4888167,21
1660053121.39782,1372485.48883,18
1660053121.39782,1372485.4888359,16
1660053121.39782,1372485.4888388,16
1660053121.39782,1372485.4888482,32
1660053121.39782,1372485.4888618,56
1660053121.39782,1372485.4888758,65
1660053121.39782,1372485.488887,46
1660053121.39782,1372485.4888979,4
1660053121.39782,1372485.4889092,-7
1660053121.39782,1372485.4889188,21
1660053121.39782,1372485.488928,28
1660053121.39782,1372485.4889391,14
1660053121.87777,1372485.4889476,14
1660053121.87777,1372485.4889584,16
1660053121.87777,1372485.4889675,2
1660053121.87777,1372485.4889749,-9
1660053121.87777,1372485.4889813,0
1660053121.87777,1372485.4889902,25
1660053121.87777,1372485.4889981,37
1660053121.87777,1372485.4890105,32
1660053121.87777,1372485.4890194,39
1660053121.87777,1372485.4890297,46
1660053121.87777,1372485.4890331,39
1660053121.87777,1372485.4890361,35
1660053121.87777,1372485.489039,51
1660053121.87777,1372485.4890419,184
1660053121.87777,1372485.4890457,523
1660053121.87777,1372485.4890732,908
1660053121.87777,1372485.489091,915
1660053121.87777,1372485.489099,280
1660053121.87777,1372485.4891062,-471
1660053121.87777,1372485.4891129,-588
1660053121.87777,1372485.489119,-280
1660053121.87777,1372485.4891221,-109
1660053121.87777,1372485.4891311,-51
1660053121.87777,1372485.4891451,21
1660053121.87777,1372485.4891585,32
1660053121.87777,1372485.489171,23
1660053121.87777,1372485.4891828,51
1660053121.87777,1372485.4891946,70
1660053121.87777,1372485.4892053,70
1660053121.87777,1372485.4892109,72
1660053121.87777,1372485.4892171,70
1660053121.87777,1372485.4892216,67
1660053121.87777,1372485.4892272,70
1660053121.87777,1372485.4892316,70
1660053121.87777,1372485.4892374,72
1660053121.87777,1372485.4892425,86
1660053121.87777,1372485.489248,109
1660053121.87777,1372485.489252,130
1660053121.87777,1372485.4892583,144
1660053121.87777,1372485.4892632,161
1660053121.87777,1372485.4892686,186
1660053121.87777,1372485.4892728,233
1660053121.87777,1372485.4892782,263
1660053121.87777,1372485.9773258,249
1660053121.87777,1372485.9773401,240
1660053121.87777,1372485.9773446,270
1660053121.87777,1372485.9773469,291
1660053121.87777,1372485.9773492,256
1660053121.87777,1372485.9773518,198
1660053121.87777,1372485.9773539,161
1660053121.88907,1372485.977356,126
1660053121.88907,1372485.977358,79
1660053121.88907,1372485.97736,28
1660053121.88907,1372485.9773621,-9
1660053121.88907,1372485.9773642,-28
1660053121.88907,1372485.9773663,-42
1660053121.88907,1372485.9773685,-63
1660053121.88907,1372485.9773705,-74
1660053121.88907,1372485.9773726,-70
1660053121.88907,1372485.9773746,-81
1660053121.88907,1372485.9773765,-95
1660053121.88907,1372485.9773786,-77
1660053121.88907,1372485.9773807,-60
1660053121.88907,1372485.9773828,-65
1660053121.88907,1372485.9773848,-65
1660053121.88907,1372485.977387,-63
1660053121.88907,1372485.9773935,-56
1660053121.88907,1372485.9774039,-42
1660053121.88907,1372485.9774126,-37
1660053121.88907,1372485.9774185,-32
1660053121.88907,1372485.9774232,-28
1660053121.88907,1372485.9774289,-35
1660053121.88907,1372485.9774331,-46
1660053121.88907,1372485.9774392,-35
1660053122.41379,1372485.9774438,-16
1660053122.41379,1372485.9774484,-9
1660053122.41379,1372485.9774528,-7
1660053122.41379,1372485.9774572,-9
1660053122.41379,1372485.9774629,-9
1660053122.41379,1372485.9774682,0
1660053122.41379,1372485.9774768,7
1660053122.41379,1372485.9774832,7
1660053122.41379,1372485.9774878,16
1660053122.41379,1372485.977492,25
1660053122.41379,1372485.9774961,18
1660053122.41379,1372485.9775073,7
1660053122.41379,1372485.9775132,0
1660053122.41379,1372485.9775223,7
1660053122.41379,1372485.9775329,28
1660053122.41379,1372485.9775356,42
1660053122.41379,1372485.9775378,37
1660053122.41379,1372485.9775398,37
1660053122.41379,1372485.9775423,42
1660053122.41379,1372485.9775524,42
1660053122.41379,1372485.9775608,49
1660053122.41379,1372485.9775641,58
1660053122.41379,1372485.9775761,60
1660053122.41379,1372485.9775874,58
1660053122.41379,1372485.9775928,58
1660053122.41379,1372485.977595,67
1660053122.41379,1372485.9775982,72
1660053122.41379,1372485.9776051,70
1660053122.41379,1372485.977616,63
1660053122.41379,1372485.9776208,60
1660053122.41379,1372485.9776274,70
1660053122.41379,1372485.9776377,81
1660053122.41379,1372485.9776447,93
1660053122.41379,1372485.9776502,105
1660053122.41379,1372485.9776561,112
1660053122.41379,1372485.9776606,105
1660053122.41379,1372485.9776664,95
1660053122.41379,1372485.9776706,98
1660053122.41379,1372485.9776758,100
1660053122.41379,1372485.977679,91
1660053122.41379,1372485.9776832,86
1660053122.41379,1372485.9776875,88
1660053122.41379,1372486.5124659,79
1660053122.41379,1372486.5124819,63
1660053122.41379,1372486.5124851,46
1660053122.41379,1372486.5124874,93
1660053122.41379,1372486.5124897,324
1660053122.41379,1372486.5124918,724
1660053122.41379,1372486.5124939,1013
1660053122.41379,1372486.512496,754
1660053122.42376,1372486.5124982,-32
1660053122.42376,1372486.5125004,-569
1660053122.42376,1372486.5125024,-450
1660053122.42376,1372486.5125044,-198
1660053122.42376,1372486.5125102,-126
1660053122.42376,1372486.5125193,-60
1660053122.42376,1372486.5125284,-4
1660053122.42376,1372486.5125394,-28
1660053122.42376,1372486.5125455,-25
1660053122.42376,1372486.5125513,7
1660053122.42376,1372486.5125547,-4
1660053122.42376,1372486.5125577,-25
1660053122.42376,1372486.5125614,-14
1660053122.42376,1372486.5125744,0
1660053122.42376,1372486.5125824,9
1660053122.42376,1372486.5125861,21
1660053122.42376,1372486.512589,30
1660053122.42376,1372486.5125923,32
1660053122.42376,1372486.5126026,44
1660053122.42376,1372486.5126088,72
1660053122.42376,1372486.5126144,105
1660053122.42376,1372486.5126187,123
1660053122.42376,1372486.5126207,137
1660053122.42376,1372486.5126272,172
1660053122.99811,1372486.5126384,203
1660053122.99811,1372486.5126416,217
1660053122.99811,1372486.5126437,231
1660053122.99811,1372486.5126456,254
1660053122.99811,1372486.5126475,259
1660053122.99811,1372486.5126495,228
1660053122.99811,1372486.5126514,193
1660053122.99811,1372486.5126533,165
1660053122.99811,1372486.5126553,119
1660053122.99811,1372486.5126575,53
1660053122.99811,1372486.5126595,2
1660053122.99811,1372486.5126668,-28
1660053122.99811,1372486.5126742,-53
1660053122.99811,1372486.5126792,-65
1660053122.99811,1372486.5126837,-65
1660053122.99811,1372486.5126884,-67
1660053122.99811,1372486.5126954,-81
1660053122.99811,1372486.5126997,-79
1660053122.99811,1372486.5127055,-60
1660053122.99811,1372486.5127094,-46
1660053122.99811,1372486.5127145,-35
1660053122.99811,1372486.5127187,-23
1660053122.99811,1372486.5127293,-9
1660053122.99811,1372486.5127334,7
1660053122.99811,1372486.5127355,9
1660053122.99811,1372486.5127375,7
1660053122.99811,1372486.5127405,25
1660053122.99811,1372486.5127426,53
1660053122.99811,1372486.5127449,53
1660053122.99811,1372486.5127471,49
1660053122.99811,1372486.5127493,63
1660053122.99811,1372486.5127514,70
1660053122.99811,1372486.5127534,63
1660053122.99811,1372486.5127555,58
1660053122.99811,1372486.5127576,56
1660053122.99811,1372486.5127598,63
1660053122.99811,1372486.5127619,72
1660053122.99811,1372486.512764,72
1660053122.99811,1372486.5127661,77
1660053122.99811,1372486.5127682,77
1660053122.99811,1372486.5127703,77
1660053122.99811,1372487.0971078,86
1660053122.99811,1372487.097129,95
1660053122.99811,1372487.0971441,100
1660053122.99811,1372487.0971574,102
1660053122.99811,1372487.0971703,95
1660053122.99811,1372487.0971834,95
1660053122.99811,1372487.0971981,105
1660053122.99811,1372487.0972111,93
1660053122.99811,1372487.0972243,58
1660053123.00809,1372487.0972373,37
1660053123.00809,1372487.0972459,37
1660053123.00809,1372487.0972513,49
1660053123.00809,1372487.0972534,65
1660053123.00809,1372487.0972555,74
1660053123.00809,1372487.0972576,77
1660053123.00809,1372487.0972597,72
1660053123.00809,1372487.0972618,53
1660053123.00809,1372487.0972638,49
1660053123.00809,1372487.0972662,63
1660053123.00809,1372487.0972682,65
1660053123.00809,1372487.0972702,53
1660053123.00809,1372487.0972722,56
1660053123.00809,1372487.0972742,72
1660053123.00809,1372487.0972762,70
1660053123.00809,1372487.0972782,39
1660053123.00809,1372487.0972803,53
1660053123.00809,1372487.0972823,249
1660053123.00809,1372487.0972844,665
1660053123.00809,1372487.0972865,1076
1660053123.00809,1372487.0972885,983
1660053123.00809,1372487.0972905,191
1660053123.00809,1372487.0972926,-548
1660053123.00809,1372487.0972946,-546
1660053123.53426,1372487.0972966,-240
1660053123.53426,1372487.0972986,-116
1660053123.53426,1372487.0973006,-28
1660053123.53426,1372487.0973026,74
1660053123.53426,1372487.0973045,81
1660053123.53426,1372487.0973069,58
1660053123.53426,1372487.0973138,77
1660053123.53426,1372487.0973203,102
1660053123.53426,1372487.0973393,105
1660053123.53426,1372487.0973469,102
1660053123.53426,1372487.0973538,123
1660053123.53426,1372487.09736,149
1660053123.53426,1372487.0973633,163
1660053123.53426,1372487.0973664,175
1660053123.53426,1372487.0973695,179
1660053123.53426,1372487.0973724,177
1660053123.53426,1372487.0973765,193
1660053123.53426,1372487.0973814,226
1660053123.53426,1372487.0973847,247
1660053123.53426,1372487.0973886,266
1660053123.53426,1372487.0973923,296
1660053123.53426,1372487.0973959,326
1660053123.53426,1372487.0974318,345
1660053123.53426,1372487.0974402,348
1660053123.53426,1372487.0974475,336
1660053123.53426,1372487.097451,324
1660053123.53426,1372487.0974543,308
1660053123.53426,1372487.0974578,261
1660053123.53426,1372487.0974613,224
1660053123.53426,1372487.0974648,198
1660053123.53426,1372487.0974688,133
1660053123.53426,1372487.0974743,60
1660053123.53426,1372487.097478,30
1660053123.53426,1372487.0974826,7
1660053123.53426,1372487.0974915,-9
1660053123.53426,1372487.0974974,2
1660053123.53426,1372487.0975031,-4
1660053123.53426,1372487.0975078,-14
1660053123.53426,1372487.0975144,18
1660053123.53426,1372487.0975183,39
1660053123.53426,1372487.63391,14
1660053123.53426,1372487.6339249,2
1660053123.53426,1372487.6339291,23
1660053123.53426,1372487.633934,39
1660053123.53426,1372487.6339375,49
1660053123.53426,1372487.6339408,35
1660053123.53426,1372487.6339457,-2
1660053123.53426,1372487.6339486,-16
1660053123.53426,1372487.6339514,7
1660053123.53426,1372487.6339541,49
1660053123.55022,1372487.6339569,79
1660053123.55022,1372487.6339597,79
1660053123.55022,1372487.6339624,53
1660053123.55022,1372487.6339652,39
1660053123.55022,1372487.6339681,46
1660053123.55022,1372487.6339711,44
1660053123.55022,1372487.6339801,30
1660053123.55022,1372487.6339939,25
1660053123.55022,1372487.6340022,25
1660053123.55022,1372487.6340052,14
1660053123.55022,1372487.6340073,16
1660053123.55022,1372487.6340094,18
1660053123.55022,1372487.6340126,7
1660053123.55022,1372487.6340256,18
1660053123.55022,1372487.6340318,39
1660053123.55022,1372487.634034,30
1660053123.55022,1372487.6340368,35
1660053123.55022,1372487.6340388,53
1660053123.55022,1372487.6340408,46
1660053123.55022,1372487.6340428,42
1660053123.55022,1372487.6340448,53
1660053123.55022,1372487.6340475,51
1660053123.55022,1372487.6340576,51
1660053123.55022,1372487.6340664,58
1660053124.11897,1372487.6340688,56
1660053124.11897,1372487.6340709,56
1660053124.11897,1372487.6340729,72
1660053124.11897,1372487.6340748,86
1660053124.11897,1372487.634081,81
1660053124.11897,1372487.6340912,77
1660053124.11897,1372487.6341035,95
1660053124.11897,1372487.6341139,109
1660053124.11897,1372487.6341257,98
1660053124.11897,1372487.634133,95
1660053124.11897,1372487.6341408,102
1660053124.11897,1372487.6341536,112
1660053124.11897,1372487.6341634,119
1660053124.11897,1372487.6341763,81
1660053124.11897,1372487.6341848,60
1660053124.11897,1372487.6341932,228
1660053124.11897,1372487.6342057,616
1660053124.11897,1372487.6342153,1015
1660053124.11897,1372487.634228,1062
1660053124.11897,1372487.6342363,462
1660053124.11897,1372487.6342462,-348
1660053124.11897,1372487.6342592,-572
1660053124.11897,1372487.6342655,-301
1660053124.11897,1372487.6342747,-95
1660053124.11897,1372487.6342869,-4
1660053124.11897,1372487.6342981,88
1660053124.11897,1372487.634311,123
1660053124.11897,1372487.6343227,119
1660053124.11897,1372487.6343361,133
1660053124.11897,1372487.6343501,151
1660053124.11897,1372487.6343632,158
1660053124.11897,1372487.6343746,149
1660053124.11897,1372487.6343891,137
1660053124.11897,1372487.6344005,140
1660053124.11897,1372487.6344139,149
1660053124.11897,1372487.6344246,154
1660053124.11897,1372487.6344281,151
1660053124.11897,1372487.6344425,149
1660053124.11897,1372487.6344494,156
1660053124.11897,1372488.220764,177
1660053124.11897,1372488.220777,203
1660053124.11897,1372488.2207799,224
1660053124.11897,1372488.2207821,245
1660053124.11897,1372488.2207844,261
1660053124.11897,1372488.2207866,266
1660053124.11897,1372488.2207888,263
1660053124.11897,1372488.2207909,280
1660053124.11897,1372488.2207929,280
1660053124.11897,1372488.2207949,245
1660053124.11897,1372488.2207969,224
1660053124.12994,1372488.220799,207
1660053124.12994,1372488.2208009,137
1660053124.12994,1372488.220803,70
1660053124.12994,1372488.220805,32
1660053124.12994,1372488.2208071,-39
1660053124.12994,1372488.2208092,-119
1660053124.12994,1372488.2208112,-123
1660053124.12994,1372488.2208134,-109
1660053124.12994,1372488.2208154,-140
1660053124.12994,1372488.2208188,-161
1660053124.12994,1372488.2208271,-128
1660053124.12994,1372488.2208379,-123
1660053124.12994,1372488.2208414,-128
1660053124.12994,1372488.2208443,-56
1660053124.12994,1372488.220848,-18
1660053124.12994,1372488.2208608,-46
1660053124.12994,1372488.2208672,-30
1660053124.12994,1372488.2208696,9
1660053124.12994,1372488.2208717,14
1660053124.12994,1372488.2208768,16
1660053124.12994,1372488.2208882,28
1660053124.12994,1372488.2208937,25
1660053124.12994,1372488.2208959,30
1660053124.12994,1372488.2209055,46
1660053124.65211,1372488.2209158,32
1660053124.65211,1372488.2209193,23
1660053124.65211,1372488.2209226,56
1660053124.65211,1372488.2209327,67
1660053124.65211,1372488.2209389,49
1660053124.65211,1372488.2209449,49
1660053124.65211,1372488.2209538,58
1660053124.65211,1372488.220963,63
1660053124.65211,1372488.2209689,72
1660053124.65211,1372488.2209818,70
1660053124.65211,1372488.2209924,63
1660053124.65211,1372488.2210002,70
1660053124.65211,1372488.22101,74
1660053124.65211,1372488.2210158,84
1660053124.65211,1372488.2210179,95
1660053124.65211,1372488.22102,93
1660053124.65211,1372488.2210225,93
1660053124.65211,1372488.2210325,100
1660053124.65211,1372488.221041,93
1660053124.65211,1372488.2210435,93
1660053124.65211,1372488.221046,112
1660053124.65211,1372488.2210558,119
1660053124.65211,1372488.2210644,109
1660053124.65211,1372488.2210669,95
1660053124.65211,1372488.221069,81
1660053124.65211,1372488.2210711,70
1660053124.65211,1372488.2210789,70
1660053124.65211,1372488.2210892,81
1660053124.65211,1372488.2210926,98
1660053124.65211,1372488.2210962,114
1660053124.65211,1372488.2211063,114
1660053124.65211,1372488.2211143,102
1660053124.65211,1372488.2211168,102
1660053124.65211,1372488.2211193,102
1660053124.65211,1372488.2211273,114
1660053124.65211,1372488.2211415,273
1660053124.65211,1372488.2211527,639
1660053124.65211,1372488.2211572,999
1660053124.65211,1372488.7545376,910
1660053124.65211,1372488.7545571,221
1660053124.65211,1372488.7545661,-446
1660053124.65211,1372488.7545745,-495
1660053124.65211,1372488.7545862,-228
1660053124.65211,1372488.7545955,-84
1660053124.65211,1372488.7546025,14
1660053124.65211,1372488.7546113,109
1660053124.65211,1372488.754618,112
1660053124.65211,1372488.7546226,95
1660053124.65211,1372488.7546292,135
1660053124.65211,1372488.7546358,158
1660053124.66408,1372488.7546436,137
1660053124.66408,1372488.754652,114
1660053124.66408,1372488.7546658,100
1660053124.66408,1372488.7546758,91
1660053124.66408,1372488.7546815,95
1660053124.66408,1372488.7546852,116
1660053124.66408,1372488.7546895,130
1660053124.66408,1372488.7546945,130
1660053124.66408,1372488.7547015,137
1660053124.66408,1372488.7547107,168
1660053124.66408,1372488.7547153,191
1660053124.66408,1372488.7547255,207
1660053124.66408,1372488.7547364,221
1660053124.66408,1372488.7547443,219
1660053124.66408,1372488.754755,214
1660053124.66408,1372488.7547661,242
1660053124.66408,1372488.7547755,266
1660053124.66408,1372488.7547832,263
1660053124.66408,1372488.7547956,242
1660053124.66408,1372488.7548063,198
1660053124.66408,1372488.7548155,137
1660053124.66408,1372488.7548214,81
1660053124.66408,1372488.7548256,25
1660053124.66408,1372488.7548277,-21
1660053125.34394,1372488.7548298,-56
1660053125.34394,1372488.7548318,-93
1660053125.34394,1372488.7548337,-119
1660053125.34394,1372488.7548356,-121
1660053125.34394,1372488.7548375,-121
1660053125.34394,1372488.7548393,-121
1660053125.34394,1372488.7548412,-116
1660053125.34394,1372488.7548431,-114
1660053125.34394,1372488.754845,-109
1660053125.34394,1372488.7548468,-102
1660053125.34394,1372488.7548487,-98
1660053125.34394,1372488.754851,-88
1660053125.34394,1372488.7548574,-74
1660053125.34394,1372488.7548652,-58
1660053125.34394,1372488.7548696,-51
1660053125.34394,1372488.7548743,-60
1660053125.34394,1372488.7548797,-65
1660053125.34394,1372488.7548875,-53
1660053125.34394,1372488.7548969,-32
1660053125.34394,1372488.7549076,-23
1660053125.34394,1372488.7549164,-21
1660053125.34394,1372488.7549296,-23
1660053125.34394,1372488.7549434,-30
1660053125.34394,1372488.7549571,-23
1660053125.34394,1372488.7549708,4
1660053125.34394,1372488.7549847,28
1660053125.34394,1372488.7549983,16
1660053125.34394,1372488.7550121,-2
1660053125.34394,1372488.7550258,-18
1660053125.34394,1372488.7550394,-16
1660053125.34394,1372488.7550528,32
1660053125.34394,1372488.7550666,70
1660053125.34394,1372488.7550789,56
1660053125.34394,1372488.755088,39
1660053125.34394,1372488.7550944,39
1660053125.34394,1372488.755101,25
1660053125.34394,1372488.755107,7
1660053125.34394,1372489.4370234,23
1660053125.34394,1372489.4370367,46
1660053125.34394,1372489.4370401,37
1660053125.34394,1372489.4370427,44
1660053125.34394,1372489.4370451,84
1660053125.34394,1372489.4370473,95
1660053125.34394,1372489.4370496,72
1660053125.34394,1372489.4370519,67
1660053125.34394,1372489.4370541,67
1660053125.34394,1372489.4370563,37
1660053125.34394,1372489.4370586,23
1660053125.34394,1372489.4370607,42
1660053125.34394,1372489.4370629,53
1660053125.35446,1372489.4370649,67
1660053125.35446,1372489.437067,72
1660053125.35446,1372489.4370691,51
1660053125.35446,1372489.4370711,32
1660053125.35446,1372489.4370732,44
1660053125.35446,1372489.4370754,51
1660053125.35446,1372489.4370775,58
1660053125.35446,1372489.4370796,207
1660053125.35446,1372489.4370816,590
1660053125.35446,1372489.4370838,971
1660053125.35446,1372489.437086,887
1660053125.35446,1372489.4370882,175
1660053125.35446,1372489.4370903,-523
1660053125.35446,1372489.4370926,-572
1660053125.35446,1372489.4370948,-280
1660053125.35446,1372489.4370971,-109
1660053125.35446,1372489.4370994,-16
1660053125.35446,1372489.4371016,60
1660053125.35446,1372489.4371037,65
1660053125.35446,1372489.4371061,70
1660053125.35446,1372489.4371082,112
1660053125.35446,1372489.4371104,121
1660053125.35446,1372489.4371126,119
1660053125.35446,1372489.4371149,135
1660053125.7748,1372489.437117,142
1660053125.7748,1372489.4371191,147
1660053125.7748,1372489.4371212,168
1660053125.7748,1372489.4371233,179
1660053125.7748,1372489.4371255,165
1660053125.7748,1372489.4371276,177
1660053125.7748,1372489.4371298,207
1660053125.7748,1372489.4371319,214
1660053125.7748,1372489.437134,219
1660053125.7748,1372489.4371384,235
1660053125.7748,1372489.4371473,247
1660053125.7748,1372489.4371516,266
1660053125.7748,1372489.4371551,282
1660053125.7748,1372489.4371601,282
1660053125.7748,1372489.437168,284
1660053125.7748,1372489.4371856,322
1660053125.7748,1372489.4371982,352
1660053125.7748,1372489.4372042,298
1660053125.7748,1372489.4372086,191
1660053125.7748,1372489.4372163,135
1660053125.7748,1372489.4372213,121
1660053125.7748,1372489.4372259,100
1660053125.7748,1372489.4372317,70
1660053125.7748,1372489.4372375,18
1660053125.7748,1372489.4372447,-30
1660053125.7748,1372489.4372519,-35
1660053125.7748,1372489.4372593,-32
1660053125.7748,1372489.4372722,-49
1660053125.7748,1372489.4372831,-58
1660053125.7748,1372489.437291,-58
1660053125.7748,1372489.4372963,-58
1660053125.7748,1372489.4373104,-46
1660053125.7748,1372489.4373235,-37
1660053125.7748,1372489.4373372,-46
1660053125.7748,1372489.43735,-35
1660053125.7748,1372489.437363,-4
1660053125.7748,1372489.8758421,14
1660053125.7748,1372489.8758638,25
1660053125.7748,1372489.8758787,35
1660053125.7748,1372489.8758934,37
1660053125.7748,1372489.8759068,53
1660053125.7748,1372489.8759201,67
1660053125.7748,1372489.8759326,60
1660053125.7748,1372489.875942,63
1660053125.7748,1372489.8759501,65
1660053125.7748,1372489.8759574,56
1660053125.7748,1372489.8759664,60
1660053125.7748,1372489.8759732,65
1660053125.7748,1372489.8759798,56
1660053125.7748,1372489.8759828,49
1660053125.7845,1372489.8759859,42
1660053125.7845,1372489.8759888,30
1660053125.7845,1372489.8759918,28
1660053125.7845,1372489.8759947,44
1660053125.7845,1372489.8759977,46
1660053125.7845,1372489.8760018,25
1660053125.7845,1372489.8760101,18
1660053125.7845,1372489.876014,37
1660053125.7845,1372489.8760198,51
1660053125.7845,1372489.8760238,56
1660053125.7845,1372489.8760273,21
1660053125.7845,1372489.8760335,-37
1660053125.7845,1372489.8760401,-44
1660053125.7845,1372489.8760431,-4
1660053125.7845,1372489.876046,9
1660053125.7845,1372489.8760489,0
1660053125.7845,1372489.8760518,0
1660053125.7845,1372489.8760547,4
1660053125.7845,1372489.8760576,-4
1660053125.7845,1372489.8760604,28
1660053125.7845,1372489.8760634,242
1660053125.7845,1372489.8760664,663
1660053125.7845,1372489.8760693,1022
1660053125.7845,1372489.8760722,861
1660053126.31929,1372489.8760765,74
1660053126.31929,1372489.8760834,-607
1660053126.31929,1372489.8760901,-583
1660053126.31929,1372489.8760967,-284
1660053126.31929,1372489.876101,-151
1660053126.31929,1372489.8761056,-67
1660053126.31929,1372489.8761096,11
1660053126.31929,1372489.8761219,28
1660053126.31929,1372489.8761321,63
1660053126.31929,1372489.8761456,105
1660053126.31929,1372489.876153,72
1660053126.31929,1372489.8761555,18
1660053126.31929,1372489.8761577,28
1660053126.31929,1372489.8761664,84
1660053126.31929,1372489.8761769,123
1660053126.31929,1372489.8761803,130
1660053126.31929,1372489.876184,109
1660053126.31929,1372489.8761861,98
1660053126.31929,1372489.8761891,123
1660053126.31929,1372489.8761916,168
1660053126.31929,1372489.8761991,219
1660053126.31929,1372489.8762128,233
1660053126.31929,1372489.8762272,200
1660053126.31929,1372489.8762376,224
1660053126.31929,1372489.87625,291
1660053126.31929,1372489.8762639,298
1660053126.31929,1372489.8762793,291
1660053126.31929,1372489.8762946,312
1660053126.31929,1372489.8763064,312
1660053126.31929,1372489.8763218,277
1660053126.31929,1372489.8763322,228
1660053126.31929,1372489.8763393,196
1660053126.31929,1372489.8763503,165
1660053126.31929,1372489.8763615,95
1660053126.31929,1372489.8763698,42
1660053126.31929,1372490.412621,18
1660053126.31929,1372490.4126491,-11
1660053126.31929,1372490.412655,-18
1660053126.31929,1372490.4126596,4
1660053126.31929,1372490.4126636,-7
1660053126.31929,1372490.4126678,-72
1660053126.31929,1372490.4126724,-98
1660053126.31929,1372490.4126765,-51
1660053126.31929,1372490.4126811,-39
1660053126.31929,1372490.4126867,-72
1660053126.31929,1372490.4126913,-63
1660053126.31929,1372490.4126957,-37
1660053126.31929,1372490.4126999,-46
1660053126.31929,1372490.4127083,-51
1660053126.31929,1372490.4127159,-39
1660053126.33524,1372490.4127228,-53
1660053126.33524,1372490.4127297,-65
1660053126.33524,1372490.4127372,-32
1660053126.33524,1372490.4127446,-4
1660053126.33524,1372490.4127508,-21
1660053126.33524,1372490.4127556,-42
1660053126.33524,1372490.4127599,-32
1660053126.33524,1372490.4127652,-18
1660053126.33524,1372490.4127721,-16
1660053126.33524,1372490.4127779,-7
1660053126.33524,1372490.4127838,4
1660053126.33524,1372490.4127907,0
1660053126.33524,1372490.4129736,-16
1660053126.33524,1372490.4129887,-32
1660053126.33524,1372490.4129968,-30
1660053126.33524,1372490.4130027,4
1660053126.33524,1372490.4130157,25
1660053126.33524,1372490.4130246,7
1660053126.33524,1372490.4130316,-23
1660053126.33524,1372490.4130427,-35
1660053126.33524,1372490.4130522,-28
1660053126.33524,1372490.4130548,-16
1660053126.33524,1372490.4130569,-2
1660053126.33524,1372490.4130592,18
1660053126.8973,1372490.4130612,16
1660053126.8973,1372490.4130632,-4
1660053126.8973,1372490.4130664,-9
1660053126.8973,1372490.413076,-7
1660053126.8973,1372490.4130883,-4
1660053126.8973,1372490.4130972,0
1660053126.8973,1372490.4131048,16
1660053126.8973,1372490.4131142,35
1660053126.8973,1372490.4131277,46
1660053126.8973,1372490.413141,39
1660053126.8973,1372490.4132404,42
1660053126.8973,1372490.4132564,46
1660053126.8973,1372490.4132667,28
1660053126.8973,1372490.4132721,2
1660053126.8973,1372490.4132827,11
1660053126.8973,1372490.413288,28
1660053126.8973,1372490.4133538,32
1660053126.8973,1372490.4133686,46
1660053126.8973,1372490.4133789,65
1660053126.8973,1372490.4133883,79
1660053126.8973,1372490.4133931,93
1660053126.8973,1372490.4133974,93
1660053126.8973,1372490.4133994,77
1660053126.8973,1372490.4134015,63
1660053126.8973,1372490.4134035,53
1660053126.8973,1372490.4134056,58
1660053126.8973,1372490.4134077,86
1660053126.8973,1372490.4134097,105
1660053126.8973,1372490.4134118,95
1660053126.8973,1372490.4134138,81
1660053126.8973,1372490.4134159,86
1660053126.8973,1372490.4134179,81
1660053126.8973,1372490.4134199,128
1660053126.8973,1372490.4134219,383
1660053126.8973,1372490.9977311,796
1660053126.8973,1372490.997753,1046
1660053126.8973,1372490.9977604,735
1660053126.8973,1372490.997767,-56
1660053126.8973,1372490.9977735,-558
1660053126.8973,1372490.9977799,-418
1660053126.8973,1372490.9977864,-177
1660053126.8973,1372490.9977927,-98
1660053126.8973,1372490.997799,-2
1660053126.8973,1372490.9978055,65
1660053126.8973,1372490.9978141,39
1660053126.8973,1372490.9978196,16
1660053126.8973,1372490.9978231,28
1660053126.8973,1372490.9978279,37
1660053126.8973,1372490.9978356,46
1660053126.8973,1372490.9978412,58
1660053126.90827,1372490.9978446,67
1660053126.90827,1372490.9978492,72
1660053126.90827,1372490.9978522,81
1660053126.90827,1372490.9978549,95
1660053126.90827,1372490.9978577,93
1660053126.90827,1372490.9978604,81
1660053126.90827,1372490.9978632,98
1660053126.90827,1372490.997866,135
1660053126.90827,1372490.9978688,161
1660053126.90827,1372490.9978716,158
1660053126.90827,1372490.9978744,163
1660053126.90827,1372490.9978782,198
1660053126.90827,1372490.9978883,235
1660053126.90827,1372490.9978978,263
1660053126.90827,1372490.9979045,280
1660053126.90827,1372490.9979132,256
1660053126.90827,1372490.9979193,219
1660053126.90827,1372490.9979239,200
1660053126.90827,1372490.9979267,179
1660053126.90827,1372490.9979296,130
1660053126.90827,1372490.9979324,74
1660053126.90827,1372490.9979353,28
1660053126.90827,1372490.9979381,4
1660053126.90827,1372490.9979409,-14
1660053127.53197,1372490.9979436,-42
1660053127.53197,1372490.9979463,-56
1660053127.53197,1372490.997949,-72
1660053127.53197,1372490.9979518,-88
1660053127.53197,1372490.9979544,-72
1660053127.53197,1372490.997957,-51
1660053127.53197,1372490.9979596,-53
1660053127.53197,1372490.9979622,-44
1660053127.53197,1372490.9979651,-25
1660053127.53197,1372490.9979704,-28
1660053127.53197,1372490.9979742,-25
1660053127.53197,1372490.9979789,-7
1660053127.53197,1372490.9979844,-2
1660053127.53197,1372490.9979877,-14
1660053127.53197,1372490.9979907,-16
1660053127.53197,1372490.9979936,0
1660053127.53197,1372490.9979965,2
1660053127.53197,1372490.9979995,-14
1660053127.53197,1372490.9980025,-32
1660053127.53197,1372490.9980055,-46
1660053127.53197,1372490.9980084,-51
1660053127.53197,1372490.9980113,-51
1660053127.53197,1372490.9980142,-60
1660053127.53197,1372490.9980172,-70
1660053127.53197,1372490.99802,-67
1660053127.53197,1372490.9980229,-60
1660053127.53197,1372490.9980258,-58
1660053127.53197,1372490.9980286,-56
1660053127.53197,1372490.9980316,-51
1660053127.53197,1372490.9980345,-58
1660053127.53197,1372490.9980374,-67
1660053127.53197,1372490.9980403,-49
1660053127.53197,1372490.9980431,-35
1660053127.53197,1372491.631073,-37
1660053127.53197,1372491.631093,-32
1660053127.53197,1372491.6311032,-25
1660053127.53197,1372491.6311139,-28
1660053127.53197,1372491.6311219,-28
1660053127.53197,1372491.6311314,-18
1660053127.53197,1372491.6311391,4

1660053127.53197,1372491.6311423,23
1660053127.53197,1372491.6311462,4
1660053127.53197,1372491.6311534,-16
1660053127.53197,1372491.6311607,9
1660053127.53197,1372491.6311731,51
1660053127.53197,1372491.6311856,60
1660053127.53197,1372491.6312284,39
1660053127.53197,1372491.6312389,21
1660053127.53197,1372491.6312594,-2
1660053127.53197,1372491.6312667,-28
1660053127.54294,1372491.6312726,-21
1660053127.54294,1372491.6312778,-9
1660053127.54294,1372491.6312828,-9
1660053127.54294,1372491.6312876,7
1660053127.54294,1372491.6312923,53
1660053127.54294,1372491.6312993,186
1660053127.54294,1372491.6313065,511
1660053127.54294,1372491.6313161,922
1660053127.54294,1372491.6313266,978
1660053127.54294,1372491.6313327,359
1660053127.54294,1372491.6313423,-422
1660053127.54294,1372491.6313506,-604
1660053127.54294,1372491.6313569,-350
1660053127.54294,1372491.6313628,-177
1660053127.54294,1372491.6313689,-63
1660053127.54294,1372491.6313777,70
1660053127.54294,1372491.6313857,114
1660053127.54294,1372491.6313941,88
1660053127.54294,1372491.6314012,91
1660053127.54294,1372491.6314081,126
1660053127.54294,1372491.6314133,140
1660053127.54294,1372491.6314189,130
1660053127.54294,1372491.6314259,133
1660053127.54294,1372491.631435,163
1660053128.01932,1372491.6314438,182
1660053128.01932,1372491.6314529,170
1660053128.01932,1372491.6314924,189
1660053128.01932,1372491.6315028,228
1660053128.01932,1372491.6315111,231
1660053128.01932,1372491.6315197,224
1660053128.01932,1372491.6315289,247
1660053128.01932,1372491.6315367,280
1660053128.01932,1372491.6315489,301
1660053128.01932,1372491.6315601,322
1660053128.01932,1372491.6315677,345
1660053128.01932,1372491.6315816,359
1660053128.01932,1372491.6315921,348
1660053128.01932,1372491.6316021,329
1660053128.01932,1372491.6316116,333
1660053128.01932,1372491.6316214,312
1660053128.01932,1372491.6316281,249
1660053128.01932,1372491.6316364,191
1660053128.01932,1372491.631643,140
1660053128.01932,1372491.6316511,84
1660053128.01932,1372491.6316579,32
1660053128.01932,1372491.6316667,-2
1660053128.01932,1372491.6316735,-23
1660053128.01932,1372491.6316819,-39
1660053128.01932,1372491.6316885,-65
1660053128.01932,1372491.631695,-86
1660053128.01932,1372491.6317014,-84
1660053128.01932,1372491.6317082,-67
1660053128.01932,1372491.6317142,-53
1660053128.01932,1372491.6317207,-37
1660053128.01932,1372491.631726,-21
1660053128.01932,1372491.6317474,-28
1660053128.01932,1372492.1191743,-39
1660053128.01932,1372492.1191966,-25
1660053128.01932,1372492.1192075,-4
1660053128.01932,1372492.1192134,4
1660053128.01932,1372492.1192181,4
1660053128.01932,1372492.1192252,-2
1660053128.01932,1372492.1192296,-14
1660053128.01932,1372492.119235,-30
1660053128.01932,1372492.1192388,-51
1660053128.01932,1372492.119245,-70
1660053128.01932,1372492.1192514,-70
1660053128.01932,1372492.1192591,-72
1660053128.01932,1372492.1192717,-95
1660053128.01932,1372492.1192828,-107
1660053128.01932,1372492.1192928,-91
1660053128.01932,1372492.1193006,-84
1660053128.01932,1372492.1193099,-93
1660053128.01932,1372492.1193169,-91
1660053128.03129,1372492.1193232,-91
1660053128.03129,1372492.1193273,-114
1660053128.03129,1372492.1193405,-112
1660053128.03129,1372492.1193549,-86
1660053128.03129,1372492.1193661,-84
1660053128.03129,1372492.1193756,-84
1660053128.03129,1372492.1193846,-65
1660053128.03129,1372492.1193944,-60
1660053128.03129,1372492.1193976,-65
1660053128.03129,1372492.1194096,-60
1660053128.03129,1372492.1194225,-53
1660053128.03129,1372492.1194349,-32
1660053128.03129,1372492.1194497,-4
1660053128.03129,1372492.1194831,0
1660053128.03129,1372492.1194952,-7
1660053128.03129,1372492.1195043,-2
1660053128.03129,1372492.1195095,4
1660053128.03129,1372492.1195134,11
1660053128.03129,1372492.1195296,28
1660053128.03129,1372492.1195663,37
1660053128.03129,1372492.1195723,30
1660053128.03129,1372492.1195773,35
1660053128.03129,1372492.1195841,49
1660053128.03129,1372492.1195919,42
1660053128.60629,1372492.119601,81
1660053128.60629,1372492.1196052,310
1660053128.60629,1372492.1196119,731
1660053128.60629,1372492.1196177,1079
1660053128.60629,1372492.1196227,894
1660053128.60629,1372492.1196274,77
1660053128.60629,1372492.1196305,-586
1660053128.60629,1372492.1196341,-495
1660053128.60629,1372492.1196373,-184
1660053128.60629,1372492.1196422,-88
1660053128.60629,1372492.1196468,4
1660053128.60629,1372492.1196522,116
1660053128.60629,1372492.1196567,112
1660053128.60629,1372492.1196597,81
1660053128.60629,1372492.1196627,116
1660053128.60629,1372492.1196656,149
1660053128.60629,1372492.1196685,161
1660053128.60629,1372492.1196714,172
1660053128.60629,1372492.1196743,170
1660053128.60629,1372492.1196771,161
1660053128.60629,1372492.1196801,165
1660053128.60629,1372492.119683,175
1660053128.60629,1372492.119686,198
1660053128.60629,1372492.119692,240
1660053128.60629,1372492.1197051,254
1660053128.60629,1372492.1197151,242
1660053128.60629,1372492.1197234,254
1660053128.60629,1372492.119729,277
1660053128.60629,1372492.1197433,303
1660053128.60629,1372492.1197511,340
1660053128.60629,1372492.1197595,352
1660053128.60629,1372492.7033202,338
1660053128.60629,1372492.7033572,317
1660053128.60629,1372492.7033697,298
1660053128.60629,1372492.7033781,308
1660053128.60629,1372492.7033839,305
1660053128.60629,1372492.7033878,238
1660053128.60629,1372492.7034007,161
1660053128.60629,1372492.7034113,119
1660053128.60629,1372492.7034189,70
1660053128.60629,1372492.703426,0
1660053128.60629,1372492.7034325,-35
1660053128.60629,1372492.7034385,-35
1660053128.60629,1372492.7034429,-42
1660053128.60629,1372492.703449,-63
1660053128.60629,1372492.7034554,-84
1660053128.60629,1372492.7034586,-98
1660053128.60629,1372492.7034616,-95
1660053128.60629,1372492.7034646,-79
1660053128.60629,1372492.7034675,-46
1660053128.61726,1372492.7034705,-35
1660053128.61726,1372492.7034733,-63
1660053128.61726,1372492.7034762,-70
1660053128.61726,1372492.7034791,-46
1660053128.61726,1372492.703482,-39
1660053128.61726,1372492.7034848,-30
1660053128.61726,1372492.7034878,-2
1660053128.61726,1372492.7034907,-4
1660053128.61726,1372492.7034938,-16
1660053128.61726,1372492.7034966,2
1660053128.61726,1372492.7034996,21
1660053128.61726,1372492.7035025,-2
1660053128.61726,1372492.7035054,-28
1660053128.61726,1372492.7035083,-16
1660053128.61726,1372492.7035114,-16
1660053128.61726,1372492.7035143,-35
1660053128.61726,1372492.7035172,-32
1660053128.61726,1372492.7035202,-21
1660053128.61726,1372492.7035233,-16
1660053128.61726,1372492.7035262,-9
1660053128.61726,1372492.7035291,0
1660053128.61726,1372492.703532,-7
1660053128.61726,1372492.703535,-18
1660053128.61726,1372492.7035378,-7
1660053129.14887,1372492.7035431,11
1660053129.14887,1372492.7035506,9
1660053129.14887,1372492.7035573,-4
1660053129.14887,1372492.7035634,-9
1660053129.14887,1372492.7035675,-4
1660053129.14887,1372492.7035712,2
1660053129.14887,1372492.7035747,11
1660053129.14887,1372492.7035782,35
1660053129.14887,1372492.7035825,46
1660053129.14887,1372492.7035858,37
1660053129.14887,1372492.7035888,35
1660053129.14887,1372492.7035918,72
1660053129.14887,1372492.7035948,88
1660053129.14887,1372492.7035977,53
1660053129.14887,1372492.7036017,49
1660053129.14887,1372492.7036072,86
1660053129.14887,1372492.7036173,81
1660053129.14887,1372492.7036286,63
1660053129.14887,1372492.7036358,95
1660053129.14887,1372492.7036434,105
1660053129.14887,1372492.7036517,39
1660053129.14887,1372492.7036599,18
1660053129.14887,1372492.7036714,172
1660053129.14887,1372492.7036803,499
1660053129.14887,1372492.7036926,857
1660053129.14887,1372492.7037032,952
1660053129.14887,1372492.7037084,464
1660053129.14887,1372492.7037219,-310
1660053129.14887,1372492.7037315,-593
1660053129.14887,1372492.7037361,-366
1660053129.14887,1372493.2402067,-156
1660053129.14887,1372493.2402264,-37
1660053129.14887,1372493.2402319,58
1660053129.14887,1372493.2402357,67
1660053129.14887,1372493.2402391,46
1660053129.14887,1372493.2402425,58
1660053129.14887,1372493.2402463,93
1660053129.14887,1372493.2402497,116
1660053129.14887,1372493.2402535,100
1660053129.14887,1372493.2402573,72
1660053129.14887,1372493.2402611,93
1660053129.14887,1372493.2402649,123
1660053129.14887,1372493.240269,100
1660053129.14887,1372493.2402734,91
1660053129.14887,1372493.240277,126
1660053129.14887,1372493.2402801,156
1660053129.14887,1372493.2402835,161
1660053129.14887,1372493.2402877,170
1660053129.14887,1372493.2402913,175
1660053129.14887,1372493.240296,163
1660053129.15685,1372493.2402998,196
1660053129.15685,1372493.2403039,245
1660053129.15685,1372493.2403072,221
1660053129.15685,1372493.2403104,205
1660053129.15685,1372493.2403136,238
1660053129.15685,1372493.2403192,214
1660053129.15685,1372493.240323,163
1660053129.15685,1372493.2403268,158
1660053129.15685,1372493.2403306,147
1660053129.15685,1372493.2403344,98
1660053129.15685,1372493.240361,21
1660053129.15685,1372493.2403698,-60
1660053129.15685,1372493.2403746,-74
1660053129.15685,1372493.2403787,-74
1660053129.15685,1372493.2403824,-109
1660053129.15685,1372493.240386,-93
1660053129.15685,1372493.2403895,-65
1660053129.15685,1372493.2403929,-112
1660053129.15685,1372493.2403965,-137
1660053129.15685,1372493.2404,-77
1660053129.15685,1372493.2404035,-65
1660053129.15685,1372493.2404075,-126
1660053129.15685,1372493.240411,-105
1660053129.15685,1372493.240415,-37
1660053129.68451,1372493.2404186,-42
1660053129.68451,1372493.240422,-63
1660053129.68451,1372493.2404255,-53
1660053129.68451,1372493.2404289,-30
1660053129.68451,1372493.2404324,-16
1660053129.68451,1372493.2404358,-32
1660053129.68451,1372493.2404394,-39
1660053129.68451,1372493.2404429,-25
1660053129.68451,1372493.2404463,-21
1660053129.68451,1372493.2404497,-28
1660053129.68451,1372493.2404531,-39
1660053129.68451,1372493.2404566,-32
1660053129.68451,1372493.24046,-37
1660053129.68451,1372493.2404634,-93
1660053129.68451,1372493.2404668,-98
1660053129.68451,1372493.2404703,-39
1660053129.68451,1372493.2404738,-11
1660053129.68451,1372493.2404772,-30
1660053129.68451,1372493.2404805,-91
1660053129.68451,1372493.2404839,-95
1660053129.68451,1372493.2404878,-32
1660053129.68451,1372493.2404913,-11
1660053129.68451,1372493.2404967,-37
1660053129.68451,1372493.2405004,-32
1660053129.68451,1372493.2405057,0
1660053129.68451,1372493.2405092,21
1660053129.68451,1372493.2405138,21
1660053129.68451,1372493.240541,-7
1660053129.68451,1372493.2405504,-23
1660053129.68451,1372493.7766949,18
1660053129.68451,1372493.776708,42
1660053129.68451,1372493.7767106,32
1660053129.68451,1372493.7767141,32
1660053129.68451,1372493.7767162,35
1660053129.68451,1372493.7767183,51
1660053129.68451,1372493.7767204,70
1660053129.68451,1372493.7767225,56
1660053129.68451,1372493.7767245,44
