Time,TimeLsl,Value
1660062070.16423,1381432.7625221,-44
1660062070.16423,1381432.7625393,-42
1660062070.16423,1381432.7625449,-37
1660062070.16423,1381432.7625513,-28
1660062070.16423,1381432.7625557,-21
1660062070.16423,1381432.7625616,-28
1660062070.16423,1381432.7625655,-42
1660062070.16423,1381432.7625694,-39
1660062070.16423,1381432.7625748,-23
1660062070.16423,1381432.7625792,-18
1660062070.16423,1381432.7625847,-18
1660062070.16423,1381432.7625896,-30
1660062070.16423,1381432.7625935,-49
1660062070.16423,1381432.7625991,-53
1660062070.16423,1381432.7626035,-42
1660062070.16423,1381432.7626076,-39
1660062070.16423,1381432.7626122,-37
1660062070.16423,1381432.7626177,-35
1660062070.16423,1381432.7626217,-35
1660062070.16423,1381432.7626255,-28
1660062070.16423,1381432.7626294,-9
1660062070.16423,1381432.7626332,2
1660062070.16423,1381432.762637,0
1660062070.16423,1381432.7626407,16
1660062070.16423,1381432.7626467,46
1660062070.16423,1381432.7626506,53
1660062070.16423,1381432.7626554,39
1660062070.16423,1381432.7626609,23
1660062070.16423,1381432.7626648,9
1660062070.16423,1381432.7626687,14
1660062070.16423,1381432.7626727,28
1660062070.16423,1381432.7626765,37
1660062070.16423,1381432.762682,35
1660062070.16423,1381432.7626859,18
1660062070.16423,1381432.7626912,98
1660062070.16423,1381432.7626952,506
1660062070.16423,1381432.7626997,1142
1660062070.16423,1381432.7627034,1490
1660062070.16423,1381432.7627088,1088
1660062070.16423,1381432.7627128,-154
1660062070.16423,1381432.7627183,-1008
1660062070.16423,1381432.7627223,-471
1660062070.16423,1381432.7627259,119
1660062070.16423,1381432.76273,-46
1660062070.16423,1381432.7627354,-84
1660062070.16423,1381432.7627393,98
1660062070.16423,1381432.7627447,81
1660062070.16423,1381432.7627487,21
1660062070.16423,1381432.7627527,60
1660062070.16423,1381432.7627568,70
1660062070.30552,1381432.7627629,65
1660062070.30552,1381432.7627669,98
1660062070.30552,1381432.7627723,126
1660062070.30552,1381432.7627764,137
1660062070.30552,1381432.7627804,163
1660062070.30552,1381432.7627844,198
1660062070.30552,1381432.7627898,214
1660062070.30552,1381432.7627938,207
1660062070.30552,1381432.7627994,219
1660062070.30552,1381432.7628034,247
1660062070.30552,1381432.7628079,263
1660062070.30552,1381432.7628145,268
1660062070.30552,1381432.7628183,273
1660062070.30552,1381432.7628245,268
1660062070.30552,1381432.7628285,247
1660062070.30552,1381432.7628323,219
1660062070.30552,1381432.7628364,184
1660062070.30552,1381432.7628404,142
1660062070.30552,1381432.7628457,100
1660062070.30552,1381432.7628497,63
1660062070.30552,1381432.7628552,37
1660062070.30552,1381432.7628592,4
1660062070.30552,1381432.7628635,-30
1660062070.30552,1381433.3475511,-49
1660062070.30552,1381433.3475709,-51
1660062070.30552,1381433.3475809,-74
1660062070.30552,1381433.3475878,-100
1660062070.30552,1381433.3475939,-86
1660062070.30552,1381433.3475994,-60
1660062070.30552,1381433.3476061,-46
1660062070.30552,1381433.3476105,-35
1660062070.30552,1381433.3476146,-37
1660062070.30552,1381433.3476212,-44
1660062070.30552,1381433.3476264,-37
1660062070.30552,1381433.3476302,-28
1660062070.30552,1381433.3476333,-21
1660062070.30552,1381433.3476365,-11
1660062070.30552,1381433.3476401,-18
1660062070.30552,1381433.3476437,-42
1660062070.30552,1381433.3476491,-49
1660062070.30552,1381433.3476527,-39
1660062070.30552,1381433.3476579,-25
1660062070.30552,1381433.3476633,-16
1660062070.30552,1381433.3476673,-42
1660062070.30552,1381433.3476703,-63
1660062070.30552,1381433.3476732,-44
1660062070.30552,1381433.347676,-25
1660062070.30552,1381433.3476789,-35
1660062070.30552,1381433.3476819,-56
1660062070.30552,1381433.3476847,-49
1660062070.3534,1381433.3476875,-30
1660062070.3534,1381433.3476903,-18
1660062070.3534,1381433.3476932,-4
1660062070.3534,1381433.347696,14
1660062070.3534,1381433.3476989,39
1660062070.3534,1381433.3477018,56
1660062070.3534,1381433.3477046,37
1660062070.3534,1381433.3477078,2
1660062070.3534,1381433.3477146,-9
1660062070.3534,1381433.3477176,7
1660062070.3534,1381433.3477205,35
1660062070.3534,1381433.3477233,42
1660062070.3534,1381433.3477262,28
1660062070.3534,1381433.347729,16
1660062070.3534,1381433.3477318,32
1660062070.3534,1381433.3477347,235
1660062070.3534,1381433.3477376,794
1660062070.3534,1381433.3477422,1394
1660062070.3534,1381433.3477453,1541
1660062070.3534,1381433.3477482,766
1660062070.3534,1381433.3477511,-579
1660062070.3534,1381433.347754,-861
1660062070.3534,1381433.3477568,-98
1660062070.3534,1381433.3477597,93
1660062070.3534,1381433.3477625,-135
1660062070.3534,1381433.3477653,-18
1660062070.3534,1381433.3477682,84
1660062070.3534,1381433.3477711,16
1660062070.3534,1381433.347774,25
1660062070.3534,1381433.3477769,65
1660062070.3534,1381433.3477798,60
1660062070.3534,1381433.3477843,79
1660062070.3534,1381433.3477872,95
1660062070.3534,1381433.3477903,91
1660062070.3534,1381433.3477932,109
1660062070.3534,1381433.347796,137
1660062070.3534,1381433.347799,151
1660062070.3534,1381433.3478018,168
1660062070.3534,1381433.3478046,189
1660062070.3534,1381433.3478075,191
1660062070.3534,1381433.3478211,200
1660062070.3534,1381433.3478336,224
1660062070.3534,1381433.3478475,231
1660062070.3534,1381433.347859,224
1660062070.3534,1381433.3478691,219
1660062070.3534,1381433.3478746,207
1660062070.3534,1381433.8853624,193
1660062070.3534,1381433.8853819,184
1660062070.65603,1381433.8853925,149
1660062070.65603,1381433.8853972,81
1660062070.65603,1381433.8854017,44
1660062070.65603,1381433.8854058,39
1660062070.65603,1381433.885411,16
1660062070.65603,1381433.885417,-16
1660062070.65603,1381433.8854209,-28
1660062070.65603,1381433.8854258,-23
1660062070.65603,1381433.8854318,-21
1660062070.65603,1381433.8854354,-32
1660062070.65603,1381433.885439,-63
1660062070.65603,1381433.8854428,-70
1660062070.65603,1381433.8854499,-44
1660062070.65603,1381433.8854538,-37
1660062070.65603,1381433.8854638,-35
1660062070.65603,1381433.8854762,-25
1660062070.65603,1381433.8854897,-30
1660062070.65603,1381433.8855004,-35
1660062070.65603,1381433.8855078,-23
1660062070.65603,1381433.8855141,-23
1660062070.65603,1381433.8855182,-30
1660062070.65603,1381433.8855269,-25
1660062070.65603,1381433.8855317,-21
1660062070.65603,1381433.8855359,-23
1660062070.65603,1381433.8855386,-18
1660062070.65603,1381433.8855469,-7
1660062070.65603,1381433.8855581,-11
1660062070.65603,1381433.8855671,-16
1660062070.65603,1381433.8855792,-7
1660062070.65603,1381433.885596,-9
1660062070.65603,1381433.8856063,-23
1660062070.65603,1381433.8856114,-25
1660062070.65603,1381433.8856195,-18
1660062070.65603,1381433.8856274,-4
1660062070.65603,1381433.8856346,16
1660062070.65603,1381433.8856408,14
1660062070.65603,1381433.8856492,-2
1660062070.65603,1381433.8856537,32
1660062070.65603,1381433.8856598,74
1660062070.65603,1381433.8856678,60
1660062070.65603,1381433.8856755,28
1660062070.65603,1381433.8856846,21
1660062070.65603,1381433.8856894,21
1660062070.65603,1381433.8856957,28
1660062070.65603,1381433.8856988,35
1660062070.65603,1381433.8857021,32
1660062070.65603,1381433.8857119,39
1660062070.65603,1381433.8857259,39
1660062070.65603,1381433.8857393,212
1660062070.65603,1381433.8857519,787
1660062070.71239,1381433.8857658,1487
1660062070.71239,1381433.8857785,1733
1660062070.71239,1381433.8857914,971
1660062070.71239,1381433.8858043,-446
1660062070.71239,1381433.8858141,-836
1660062070.71239,1381433.8858258,-107
1660062070.71239,1381433.8858351,91
1660062070.71239,1381433.8858443,-156
1660062070.71239,1381433.8858493,-46
1660062070.71239,1381433.8858577,79
1660062070.71239,1381433.8858653,14
1660062070.71239,1381433.8858723,18
1660062070.71239,1381433.8858811,67
1660062070.71239,1381433.8858876,56
1660062070.71239,1381433.8858943,63
1660062070.71239,1381433.8858996,91
1660062070.71239,1381433.8859151,84
1660062070.71239,1381433.8859469,86
1660062070.71239,1381433.8859538,114
1660062070.71239,1381433.885959,126
1660062070.71239,1381433.8859642,133
1660062070.71239,1381434.5176473,158
1660062070.71239,1381434.5176672,177
1660062070.71239,1381434.5176763,175
1660062070.91999,1381434.5176813,184
1660062070.91999,1381434.5176872,203
1660062070.91999,1381434.5176914,200
1660062070.91999,1381434.5176954,177
1660062070.91999,1381434.5176992,147
1660062070.91999,1381434.5177032,114
1660062070.91999,1381434.5177069,84
1660062070.91999,1381434.5177109,56
1660062070.91999,1381434.5177148,30
1660062070.91999,1381434.5177187,0
1660062070.91999,1381434.5177227,-30
1660062070.91999,1381434.5177267,-49
1660062070.91999,1381434.5177307,-58
1660062070.91999,1381434.5177344,-65
1660062070.91999,1381434.5177384,-86
1660062070.91999,1381434.517742,-88
1660062070.91999,1381434.5177462,-70
1660062070.91999,1381434.51775,-79
1660062070.91999,1381434.5177537,-102
1660062070.91999,1381434.5177575,-93
1660062070.91999,1381434.5177614,-65
1660062070.91999,1381434.5177673,-56
1660062070.91999,1381434.5177714,-46
1660062070.91999,1381434.5177752,-42
1660062070.91999,1381434.5177791,-63
1660062070.91999,1381434.517785,-72
1660062070.91999,1381434.5177894,-53
1660062070.91999,1381434.5177952,-30
1660062070.91999,1381434.5177996,-18
1660062070.91999,1381434.5178035,-21
1660062070.91999,1381434.5178091,-18
1660062070.91999,1381434.5178147,-2
1660062070.91999,1381434.5178204,14
1660062070.91999,1381434.5178251,4
1660062070.91999,1381434.5178308,-16
1660062070.91999,1381434.5178345,-18
1660062070.91999,1381434.5178377,-7
1660062070.91999,1381434.5178412,-4
1660062070.91999,1381434.5178445,-4
1660062070.91999,1381434.5178478,9
1660062070.91999,1381434.5178526,28
1660062070.91999,1381434.5178559,28
1660062070.91999,1381434.5178594,16
1660062070.91999,1381434.517863,14
1660062070.91999,1381434.5178663,18
1660062070.91999,1381434.5178695,25
1660062070.91999,1381434.5178729,37
1660062070.91999,1381434.5178762,56
1660062070.91999,1381434.5178798,91
1660062070.91999,1381434.5178835,107
1660062070.93296,1381434.5178895,91
1660062070.93296,1381434.5178932,77
1660062070.93296,1381434.5178967,65
1660062070.93296,1381434.5179003,53
1660062070.93296,1381434.5179038,77
1660062070.93296,1381434.5179091,95
1660062070.93296,1381434.5179127,72
1660062070.93296,1381434.5179166,58
1660062070.93296,1381434.5179237,86
1660062070.93296,1381434.5179285,338
1660062070.93296,1381434.5179343,985
1660062070.93296,1381434.5179381,1660
1660062070.93296,1381434.5179426,1721
1660062070.93296,1381434.517948,705
1660062070.93296,1381434.5179517,-623
1660062070.93296,1381434.5179564,-689
1660062070.93296,1381434.5179599,16
1660062070.93296,1381434.5179652,67
1660062070.93296,1381434.5179687,-137
1660062070.93296,1381434.5179724,-28
1660062070.93296,1381435.005493,32
1660062070.93296,1381435.0055376,-14
1660062070.93296,1381435.0055472,25
1660062070.93296,1381435.0055539,77
1660062071.49984,1381435.0055604,67
1660062071.49984,1381435.0055664,53
1660062071.49984,1381435.0055724,67
1660062071.49984,1381435.0055786,93
1660062071.49984,1381435.0055851,105
1660062071.49984,1381435.0055916,116
1660062071.49984,1381435.0056009,140
1660062071.49984,1381435.0056065,140
1660062071.49984,1381435.005611,123
1660062071.49984,1381435.0056154,151
1660062071.49984,1381435.0056202,182
1660062071.49984,1381435.0056249,168
1660062071.49984,1381435.0056298,161
1660062071.49984,1381435.0056373,165
1660062071.49984,1381435.0056452,133
1660062071.49984,1381435.0056548,98
1660062071.49984,1381435.0056636,100
1660062071.49984,1381435.0056772,100
1660062071.49984,1381435.0056893,72
1660062071.49984,1381435.0056977,30
1660062071.49984,1381435.0057059,-14
1660062071.49984,1381435.0057128,-51
1660062071.49984,1381435.0057162,-74
1660062071.49984,1381435.0057233,-86
1660062071.49984,1381435.0057302,-88
1660062071.49984,1381435.0057341,-93
1660062071.49984,1381435.0057374,-112
1660062071.49984,1381435.0057422,-112
1660062071.49984,1381435.0057548,-79
1660062071.49984,1381435.0057621,-51
1660062071.49984,1381435.0057681,-63
1660062071.49984,1381435.0057744,-70
1660062071.49984,1381435.0057778,-39
1660062071.49984,1381435.0057848,-25
1660062071.49984,1381435.0057895,-28
1660062071.49984,1381435.0057976,-11
1660062071.49984,1381435.0058102,7
1660062071.49984,1381435.0058186,16
1660062071.49984,1381435.0058243,28
1660062071.49984,1381435.0058313,30
1660062071.49984,1381435.0058374,14
1660062071.49984,1381435.0058408,0
1660062071.49984,1381435.0058464,7
1660062071.49984,1381435.0058516,16
1660062071.49984,1381435.0058551,18
1660062071.49984,1381435.0058596,25
1660062071.49984,1381435.0058657,30
1660062071.49984,1381435.0058727,28
1660062071.49984,1381435.0058791,30
1660062071.49984,1381435.0058869,46
1660062071.51181,1381435.0058963,53
1660062071.51181,1381435.0059045,35
1660062071.51181,1381435.0059116,11
1660062071.51181,1381435.0059151,23
1660062071.51181,1381435.0059242,51
1660062071.51181,1381435.005933,49
1660062071.51181,1381435.0059408,46
1660062071.51181,1381435.0059469,56
1660062071.51181,1381435.0059572,49
1660062071.51181,1381435.0059665,58
1660062071.51181,1381435.0059738,98
1660062071.51181,1381435.0059791,100
1660062071.51181,1381435.0059875,51
1660062071.51181,1381435.005996,32
1660062071.51181,1381435.0060022,53
1660062071.51181,1381435.0060081,51
1660062071.51181,1381435.0060111,49
1660062071.51181,1381435.006014,77
1660062071.51181,1381435.0060168,74
1660062071.51181,1381435.5899781,46
1660062071.51181,1381435.589998,217
1660062071.51181,1381435.5900068,784
1660062071.51181,1381435.5900115,1473
1660062071.51181,1381435.5900188,1709
1660062072.0894,1381435.5900239,936
1660062072.0894,1381435.5900275,-453
1660062072.0894,1381435.5900311,-845
1660062072.0894,1381435.5900346,-168
1660062072.0894,1381435.5900389,21
1660062072.0894,1381435.5900425,-205
1660062072.0894,1381435.590046,-105
1660062072.0894,1381435.5900494,-4
1660062072.0894,1381435.5900531,-81
1660062072.0894,1381435.5900568,-72
1660062072.0894,1381435.5900625,-14
1660062072.0894,1381435.5900668,-28
1660062072.0894,1381435.5900703,-51
1660062072.0894,1381435.5900767,-37
1660062072.0894,1381435.5900812,-7
1660062072.0894,1381435.5901007,-4
1660062072.0894,1381435.5901088,-11
1660062072.0894,1381435.5901144,4
1660062072.0894,1381435.5901194,32
1660062072.0894,1381435.5901254,63
1660062072.0894,1381435.590132,88
1660062072.0894,1381435.5901361,102
1660062072.0894,1381435.5901394,121
1660062072.0894,1381435.5901426,142
1660062072.0894,1381435.5901469,128
1660062072.0894,1381435.59015,100
1660062072.0894,1381435.5901541,100
1660062072.0894,1381435.5901581,105
1660062072.0894,1381435.5901623,86
1660062072.0894,1381435.5901702,58
1660062072.0894,1381435.5901768,21
1660062072.0894,1381435.5901834,-14
1660062072.0894,1381435.5901901,-30
1660062072.0894,1381435.5901971,-51
1660062072.0894,1381435.5902025,-74
1660062072.0894,1381435.5902071,-72
1660062072.0894,1381435.5902136,-65
1660062072.0894,1381435.59022,-77
1660062072.0894,1381435.5902269,-88
1660062072.0894,1381435.5902353,-79
1660062072.0894,1381435.5902397,-53
1660062072.0894,1381435.5902433,-49
1660062072.0894,1381435.5902467,-51
1660062072.0894,1381435.59025,-23
1660062072.0894,1381435.5902536,7
1660062072.0894,1381435.5902607,7
1660062072.0894,1381435.5902663,9
1660062072.0894,1381435.5902702,18
1660062072.0894,1381435.5902763,16
1660062072.0894,1381435.5902828,16
1660062072.10145,1381435.590289,21
1660062072.10145,1381435.5902985,21
1660062072.10145,1381435.5903041,23
1660062072.10145,1381435.59031,25
1660062072.10145,1381435.5903132,25
1660062072.10145,1381435.5903163,25
1660062072.10145,1381435.5903192,25
1660062072.10145,1381435.590322,30
1660062072.10145,1381435.5903249,39
1660062072.10145,1381435.5903277,39
1660062072.10145,1381435.5903305,32
1660062072.10145,1381435.5903334,32
1660062072.10145,1381435.5903361,42
1660062072.10145,1381435.5903389,46
1660062072.10145,1381435.5903417,44
1660062072.10145,1381435.5903446,51
1660062072.10145,1381435.5903474,63
1660062072.10145,1381435.5903502,70
1660062072.10145,1381436.1763986,77
1660062072.10145,1381436.1764172,88
1660062072.10145,1381436.1764239,102
1660062072.10145,1381436.1764317,93
1660062072.10145,1381436.176438,46
1660062072.10145,1381436.1764441,0
1660062072.61716,1381436.1764482,-4
1660062072.61716,1381436.176452,9
1660062072.61716,1381436.1764558,11
1660062072.61716,1381436.1764596,18
1660062072.61716,1381436.1764634,30
1660062072.61716,1381436.1764673,21
1660062072.61716,1381436.176471,121
1660062072.61716,1381436.1764749,576
1660062072.61716,1381436.1764786,1244
1660062072.61716,1381436.1764823,1567
1660062072.61716,1381436.1764859,1030
1660062072.61716,1381436.1764894,-329
1660062072.61716,1381436.1764928,-1069
1660062072.61716,1381436.1764961,-429
1660062072.61716,1381436.1764995,58
1660062072.61716,1381436.1765036,-149
1660062072.61716,1381436.176507,-137
1660062072.61716,1381436.1765106,25
1660062072.61716,1381436.1765161,-35
1660062072.61716,1381436.1765195,-67
1660062072.61716,1381436.1765245,9
1660062072.61716,1381436.1765279,23
1660062072.61716,1381436.176533,14
1660062072.61716,1381436.1765366,44
1660062072.61716,1381436.1765418,70
1660062072.61716,1381436.1765453,81
1660062072.61716,1381436.1765487,109
1660062072.61716,1381436.176552,137
1660062072.61716,1381436.1765556,156
1660062072.61716,1381436.1765607,184
1660062072.61716,1381436.176564,214
1660062072.61716,1381436.1765677,240
1660062072.61716,1381436.1765713,261
1660062072.61716,1381436.1765746,275
1660062072.61716,1381436.1765781,275
1660062072.61716,1381436.1765815,263
1660062072.61716,1381436.1765846,245
1660062072.61716,1381436.1765879,226
1660062072.61716,1381436.1765914,203
1660062072.61716,1381436.1765947,168
1660062072.61716,1381436.176598,121
1660062072.61716,1381436.1766013,77
1660062072.61716,1381436.1766047,39
1660062072.61716,1381436.1766081,4
1660062072.61716,1381436.1766132,-18
1660062072.61716,1381436.1766167,-30
1660062072.61716,1381436.17662,-44
1660062072.61716,1381436.1766235,-49
1660062072.61716,1381436.1766269,-35
1660062072.61716,1381436.1766304,-25
1660062072.62813,1381436.1766484,-23
1660062072.62813,1381436.1766556,-9
1660062072.62813,1381436.1766589,7
1660062072.62813,1381436.1766619,23
1660062072.62813,1381436.176665,39
1660062072.62813,1381436.1766683,51
1660062072.62813,1381436.1766715,60
1660062072.62813,1381436.1766748,67
1660062072.62813,1381436.1766782,74
1660062072.62813,1381436.1766814,79
1660062072.62813,1381436.1766846,81
1660062072.62813,1381436.1766948,81
1660062072.62813,1381436.1766981,84
1660062072.62813,1381436.1767013,74
1660062072.62813,1381436.1767061,49
1660062072.62813,1381436.1767095,35
1660062072.62813,1381436.1767138,44
1660062072.62813,1381436.7118338,53
1660062072.62813,1381436.7118484,63
1660062072.62813,1381436.7118524,60
1660062072.62813,1381436.711855,51
1660062072.62813,1381436.7118573,51
1660062072.62813,1381436.7118596,63
1660062072.62813,1381436.711862,74
1660062073.15123,1381436.7118642,79
1660062073.15123,1381436.7118664,51
1660062073.15123,1381436.7118684,23
1660062073.15123,1381436.7118705,51
1660062073.15123,1381436.7118726,70
1660062073.15123,1381436.7118746,49
1660062073.15123,1381436.7118766,30
1660062073.15123,1381436.7118786,32
1660062073.15123,1381436.7118807,35
1660062073.15123,1381436.7118832,42
1660062073.15123,1381436.7118894,51
1660062073.15123,1381436.7118964,56
1660062073.15123,1381436.7119047,49
1660062073.15123,1381436.7119132,100
1660062073.15123,1381436.7119181,453
1660062073.15123,1381436.7119237,1100
1660062073.15123,1381436.7119296,1571
1660062073.15123,1381436.7119349,1345
1660062073.15123,1381436.7119425,140
1660062073.15123,1381436.7119488,-920
1660062073.15123,1381436.7119552,-560
1660062073.15123,1381436.7119594,53
1660062073.15123,1381436.7119665,-81
1660062073.15123,1381436.71197,-161
1660062073.15123,1381436.7119755,14
1660062073.15123,1381436.7119842,9
1660062073.15123,1381436.7119954,-37
1660062073.15123,1381436.7120028,21
1660062073.15123,1381436.7120088,39
1660062073.15123,1381436.7120132,25
1660062073.15123,1381436.7120185,53
1660062073.15123,1381436.7120219,77
1660062073.15123,1381436.7120268,79
1660062073.15123,1381436.7120306,95
1660062073.15123,1381436.7120339,119
1660062073.15123,1381436.7120389,137
1660062073.15123,1381436.7120419,161
1660062073.15123,1381436.7120457,186
1660062073.15123,1381436.7120489,207
1660062073.15123,1381436.7120522,219
1660062073.15123,1381436.7120553,231
1660062073.15123,1381436.7120585,240
1660062073.15123,1381436.7120615,238
1660062073.15123,1381436.7120647,221
1660062073.15123,1381436.7120677,205
1660062073.15123,1381436.7120711,184
1660062073.15123,1381436.7120743,156
1660062073.15123,1381436.7120775,123
1660062073.15123,1381436.7120808,93
1660062073.15123,1381436.7120842,67
1660062073.1632,1381436.7120874,42
1660062073.1632,1381436.7120906,25
1660062073.1632,1381436.7120937,16
1660062073.1632,1381436.712097,7
1660062073.1632,1381436.7121021,-7
1660062073.1632,1381436.7121067,-16
1660062073.1632,1381436.7121111,-7
1660062073.1632,1381436.7121142,4
1660062073.1632,1381436.7121194,9
1660062073.1632,1381436.7121231,11
1660062073.1632,1381436.7121263,21
1660062073.1632,1381436.7121293,30
1660062073.1632,1381436.7121326,39
1660062073.1632,1381436.7121359,51
1660062073.1632,1381436.7121391,58
1660062073.1632,1381436.7121424,60
1660062073.1632,1381437.2487621,65
1660062073.1632,1381437.2487808,67
1660062073.1632,1381437.248789,67
1660062073.1632,1381437.2487953,67
1660062073.1632,1381437.2488028,67
1660062073.1632,1381437.2488126,67
1660062073.1632,1381437.248817,67
1660062073.1632,1381437.2488214,70
1660062073.73409,1381437.2488272,70
1660062073.73409,1381437.2488325,72
1660062073.73409,1381437.2488392,72
1660062073.73409,1381437.2488459,58
1660062073.73409,1381437.2488528,35
1660062073.73409,1381437.2488598,37
1660062073.73409,1381437.2488652,49
1660062073.73409,1381437.248869,46
1660062073.73409,1381437.248874,56
1660062073.73409,1381437.248877,72
1660062073.73409,1381437.24888,60
1660062073.73409,1381437.2488829,35
1660062073.73409,1381437.2488857,21
1660062073.73409,1381437.2488885,14
1660062073.73409,1381437.2488913,23
1660062073.73409,1381437.2488941,32
1660062073.73409,1381437.248897,30
1660062073.73409,1381437.2488998,28
1660062073.73409,1381437.2489027,16
1660062073.73409,1381437.2489055,18
1660062073.73409,1381437.2489083,245
1660062073.73409,1381437.2489113,836
1660062073.73409,1381437.2489142,1445
1660062073.73409,1381437.2489171,1532
1660062073.73409,1381437.24892,604
1660062073.73409,1381437.248923,-700
1660062073.73409,1381437.2489258,-780
1660062073.73409,1381437.2489286,-51
1660062073.73409,1381437.2489314,2
1660062073.73409,1381437.2489343,-203
1660062073.73409,1381437.2489372,-53
1660062073.73409,1381437.2489402,23
1660062073.73409,1381437.2489431,-42
1660062073.73409,1381437.2489459,-7
1660062073.73409,1381437.2489488,42
1660062073.73409,1381437.2489517,25
1660062073.73409,1381437.2489544,30
1660062073.73409,1381437.2489573,63
1660062073.73409,1381437.2489601,77
1660062073.73409,1381437.2489629,88
1660062073.73409,1381437.2489657,109
1660062073.73409,1381437.2489686,123
1660062073.73409,1381437.2489716,133
1660062073.73409,1381437.2489744,154
1660062073.73409,1381437.2489773,179
1660062073.73409,1381437.2489801,191
1660062073.73409,1381437.2489829,189
1660062073.73409,1381437.2489857,186
1660062073.73409,1381437.2489886,182
1660062073.73409,1381437.2489915,170
1660062073.74905,1381437.2489944,151
1660062073.74905,1381437.2489973,135
1660062073.74905,1381437.2490001,123
1660062073.74905,1381437.2490031,100
1660062073.74905,1381437.2490059,63
1660062073.74905,1381437.2490089,37
1660062073.74905,1381437.2490117,32
1660062073.74905,1381437.2490146,28
1660062073.74905,1381437.2490175,14
1660062073.74905,1381437.2490204,-7
1660062073.74905,1381437.2490233,-16
1660062073.74905,1381437.2490261,-2
1660062073.74905,1381437.2490288,7
1660062073.74905,1381437.2490316,4
1660062073.74905,1381437.2490346,11
1660062073.74905,1381437.8325626,28
1660062073.74905,1381437.8325814,37
1660062073.74905,1381437.8325908,37
1660062073.74905,1381437.8325985,32
1660062073.74905,1381437.8326076,58
1660062073.74905,1381437.8326143,95
1660062073.74905,1381437.8326461,112
1660062073.74905,1381437.8326556,102
1660062073.74905,1381437.8326633,67
1660062074.27066,1381437.832676,42
1660062074.27066,1381437.8326826,63
1660062074.27066,1381437.8326848,79
1660062074.27066,1381437.8326868,70
1660062074.27066,1381437.8326888,60
1660062074.27066,1381437.8326918,44
1660062074.27066,1381437.8326998,21
1660062074.27066,1381437.832705,11
1660062074.27066,1381437.8327087,14
1660062074.27066,1381437.8327139,2
1660062074.27066,1381437.8327191,-4
1660062074.27066,1381437.8327264,7
1660062074.27066,1381437.8327351,14
1660062074.27066,1381437.8327462,18
1660062074.27066,1381437.8327599,30
1660062074.27066,1381437.8327727,49
1660062074.27066,1381437.832786,63
1660062074.27066,1381437.8327991,51
1660062074.27066,1381437.8328122,16
1660062074.27066,1381437.8328254,0
1660062074.27066,1381437.8328373,21
1660062074.27066,1381437.8328441,39
1660062074.27066,1381437.8328502,42
1660062074.27066,1381437.8328568,49
1660062074.27066,1381437.8328631,53
1660062074.27066,1381437.8328697,51
1660062074.27066,1381437.8328761,235
1660062074.27066,1381437.8328828,780
1660062074.27066,1381437.8328894,1356
1660062074.27066,1381437.8328931,1466
1660062074.27066,1381437.8328963,672
1660062074.27066,1381437.8328994,-607
1660062074.27066,1381437.8329115,-831
1660062074.27066,1381437.8329195,-88
1660062074.27066,1381437.8329265,86
1660062074.27066,1381437.8329355,-135
1660062074.27066,1381437.8329425,-39
1660062074.27066,1381437.8329514,30
1660062074.27066,1381437.83296,-51
1660062074.27066,1381437.832966,-25
1660062074.27066,1381437.8329713,37
1660062074.27066,1381437.8329749,25
1660062074.27066,1381437.8329787,25
1660062074.27066,1381437.8329846,63
1660062074.27066,1381437.8329916,95
1660062074.27066,1381437.8330005,112
1660062074.27066,1381437.8330077,121
1660062074.27066,1381437.8330166,144
1660062074.27066,1381437.833022,168
1660062074.27066,1381437.8330273,175
1660062074.28263,1381437.8330317,191
1660062074.28263,1381437.8330352,214
1660062074.28263,1381437.8330405,224
1660062074.28263,1381437.833049,233
1660062074.28263,1381437.8330558,249
1660062074.28263,1381437.8330645,249
1660062074.28263,1381437.8330714,228
1660062074.28263,1381437.8330798,207
1660062074.28263,1381437.8330864,198
1660062074.28263,1381437.8330947,158
1660062074.28263,1381437.8331015,93
1660062074.28263,1381437.8331118,63
1660062074.28263,1381437.8331219,63
1660062074.28263,1381437.8331295,44
1660062074.28263,1381438.3687366,4
1660062074.28263,1381438.368752,-21
1660062074.28263,1381438.3687567,-11
1660062074.28263,1381438.3687633,4
1660062074.28263,1381438.3687682,0
1660062074.28263,1381438.3687719,0
1660062074.28263,1381438.3687756,11
1660062074.28263,1381438.3687792,30
1660062074.28263,1381438.3687827,39
1660062074.28263,1381438.3687863,42
1660062074.81957,1381438.36879,46
1660062074.81957,1381438.3687936,35
1660062074.81957,1381438.3687972,21
1660062074.81957,1381438.3688008,28
1660062074.81957,1381438.3688043,37
1660062074.81957,1381438.3688079,39
1660062074.81957,1381438.3688114,49
1660062074.81957,1381438.368815,39
1660062074.81957,1381438.3688187,2
1660062074.81957,1381438.368824,-4
1660062074.81957,1381438.3688276,18
1660062074.81957,1381438.3688312,18
1660062074.81957,1381438.3688362,14
1660062074.81957,1381438.3688398,23
1660062074.81957,1381438.3688433,21
1660062074.81957,1381438.3688468,9
1660062074.81957,1381438.3688517,14
1660062074.81957,1381438.3688551,21
1660062074.81957,1381438.3688608,32
1660062074.81957,1381438.3688651,46
1660062074.81957,1381438.3688735,35
1660062074.81957,1381438.3689002,39
1660062074.81957,1381438.3689154,77
1660062074.81957,1381438.3689218,70
1660062074.81957,1381438.3689278,28
1660062074.81957,1381438.3689313,28
1660062074.81957,1381438.3689349,39
1660062074.81957,1381438.3689381,30
1660062074.81957,1381438.3689413,23
1660062074.81957,1381438.3689446,30
1660062074.81957,1381438.3689479,30
1660062074.81957,1381438.3689512,32
1660062074.81957,1381438.3689544,196
1660062074.81957,1381438.3689576,660
1660062074.81957,1381438.3689608,1121
1660062074.81957,1381438.3689641,1153
1660062074.81957,1381438.3689673,460
1660062074.81957,1381438.3689707,-696
1660062074.81957,1381438.3689757,-950
1660062074.81957,1381438.3689791,-196
1660062074.81957,1381438.3689827,79
1660062074.81957,1381438.3689896,-119
1660062074.81957,1381438.3689961,-28
1660062074.81957,1381438.3690011,91
1660062074.81957,1381438.3690056,32
1660062074.81957,1381438.3690088,39
1660062074.81957,1381438.3690117,95
1660062074.81957,1381438.3690147,93
1660062074.81957,1381438.3690176,100
1660062074.81957,1381438.3690206,130
1660062074.83254,1381438.3690236,140
1660062074.83254,1381438.3690276,151
1660062074.83254,1381438.3690317,177
1660062074.83254,1381438.3690367,193
1660062074.83254,1381438.3690421,217
1660062074.83254,1381438.3690475,247
1660062074.83254,1381438.3690563,268
1660062074.83254,1381438.369063,287
1660062074.83254,1381438.3690713,303
1660062074.83254,1381438.3690763,305
1660062074.83254,1381438.3690853,303
1660062074.83254,1381438.3690929,294
1660062074.83254,1381438.3691001,266
1660062074.83254,1381438.9057723,231
1660062074.83254,1381438.9057916,203
1660062074.83254,1381438.9057997,163
1660062074.83254,1381438.9058057,121
1660062074.83254,1381438.9058129,86
1660062074.83254,1381438.9058479,56
1660062074.83254,1381438.9058545,28
1660062074.83254,1381438.9058582,4
1660062074.83254,1381438.9058615,-28
1660062074.83254,1381438.9058652,-46
1660062074.83254,1381438.9058713,-39
1660062075.44735,1381438.9058756,-32
1660062075.44735,1381438.9058821,-30
1660062075.44735,1381438.9058865,-11
1660062075.44735,1381438.9058945,-4
1660062075.44735,1381438.9059016,-14
1660062075.44735,1381438.9059065,-9
1660062075.44735,1381438.9059111,7
1660062075.44735,1381438.9059159,18
1660062075.44735,1381438.9059204,32
1660062075.44735,1381438.905925,37
1660062075.44735,1381438.9059293,37
1660062075.44735,1381438.9059338,39
1660062075.44735,1381438.9059384,46
1660062075.44735,1381438.9059431,49
1660062075.44735,1381438.9059473,49
1660062075.44735,1381438.9059516,49
1660062075.44735,1381438.9059562,44
1660062075.44735,1381438.9059614,44
1660062075.44735,1381438.9059664,42
1660062075.44735,1381438.9059708,25
1660062075.44735,1381438.9059756,7
1660062075.44735,1381438.9059798,14
1660062075.44735,1381438.9059842,23
1660062075.44735,1381438.9059888,16
1660062075.44735,1381438.9059932,11
1660062075.44735,1381438.9059996,30
1660062075.44735,1381438.9060043,56
1660062075.44735,1381438.9060089,58
1660062075.44735,1381438.9060135,39
1660062075.44735,1381438.9060182,21
1660062075.44735,1381438.9060229,14
1660062075.44735,1381438.9060275,23
1660062075.44735,1381438.9060322,37
1660062075.44735,1381438.9060369,49
1660062075.44735,1381438.9060415,58
1660062075.44735,1381438.9060463,51
1660062075.44735,1381438.9060506,105
1660062075.44735,1381438.9060552,441
1660062075.44735,1381438.9060596,983
1660062075.44735,1381438.9060639,1331
1660062075.44735,1381438.9060685,1090
1660062075.44735,1381438.9060732,-9
1660062075.44735,1381438.9060779,-929
1660062075.44735,1381438.9060825,-481
1660062075.44735,1381438.9060871,121
1660062075.44735,1381438.9060922,-39
1660062075.44735,1381438.9060968,-102
1660062075.44735,1381438.9061053,77
1660062075.44735,1381438.9061099,63
1660062075.44735,1381438.9061138,23
1660062075.45732,1381438.9061176,84
1660062075.45732,1381438.906123,86
1660062075.45732,1381438.9061278,56
1660062075.45732,1381438.906134,79
1660062075.45732,1381438.9061395,98
1660062075.45732,1381438.9061429,98
1660062075.45732,1381438.9061462,121
1660062075.45732,1381438.9061491,149
1660062075.45732,1381438.9061519,163
1660062075.45732,1381438.9061547,177
1660062075.45732,1381438.9061575,193
1660062075.45732,1381438.9061603,205
1660062075.45732,1381439.5386085,221
1660062075.45732,1381439.5386313,233
1660062075.45732,1381439.5386394,235
1660062075.45732,1381439.5386489,224
1660062075.45732,1381439.5386564,200
1660062075.45732,1381439.5386657,161
1660062075.45732,1381439.5386717,130
1660062075.45732,1381439.5386767,114
1660062075.45732,1381439.5386858,91
1660062075.45732,1381439.5386907,56
1660062075.45732,1381439.5386948,30
1660062075.45732,1381439.5386986,-2
1660062075.98486,1381439.5387047,-30
1660062075.98486,1381439.5387119,-35
1660062075.98486,1381439.5387192,-30
1660062075.98486,1381439.5387262,-30
1660062075.98486,1381439.5387332,-28
1660062075.98486,1381439.5387423,-25
1660062075.98486,1381439.5387498,-23
1660062075.98486,1381439.5387541,-11
1660062075.98486,1381439.5387581,7
1660062075.98486,1381439.5387621,14
1660062075.98486,1381439.5387661,7
1660062075.98486,1381439.53877,4
1660062075.98486,1381439.538774,11
1660062075.98486,1381439.5387779,18
1660062075.98486,1381439.5387816,25
1660062075.98486,1381439.5387851,30
1660062075.98486,1381439.5387887,30
1660062075.98486,1381439.5387926,32
1660062075.98486,1381439.5387964,35
1660062075.98486,1381439.5388002,32
1660062075.98486,1381439.5388042,37
1660062075.98486,1381439.5388079,42
1660062075.98486,1381439.5388143,44
1660062075.98486,1381439.5388215,46
1660062075.98486,1381439.5388285,49
1660062075.98486,1381439.5388379,46
1660062075.98486,1381439.538848,49
1660062075.98486,1381439.5388549,56
1660062075.98486,1381439.5388607,65
1660062075.98486,1381439.5388648,74
1660062075.98486,1381439.5388705,77
1660062075.98486,1381439.5388744,88
1660062075.98486,1381439.5388794,107
1660062075.98486,1381439.5388831,100
1660062075.98486,1381439.5388869,72
1660062075.98486,1381439.5388923,56
1660062075.98486,1381439.5388976,58
1660062075.98486,1381439.5389031,63
1660062075.98486,1381439.5389087,65
1660062075.98486,1381439.5389157,72
1660062075.98486,1381439.5389226,74
1660062075.98486,1381439.5389315,60
1660062075.98486,1381439.5389402,156
1660062075.98486,1381439.5389472,586
1660062075.98486,1381439.5389519,1214
1660062075.98486,1381439.5389579,1506
1660062075.98486,1381439.5389619,969
1660062075.98486,1381439.5389677,-280
1660062075.98486,1381439.5389715,-889
1660062075.98486,1381439.5389753,-294
1660062075.99484,1381439.538979,98
1660062075.99484,1381439.5389828,-105
1660062075.99484,1381439.5389867,-93
1660062075.99484,1381439.5389904,49
1660062075.99484,1381439.5389941,14
1660062075.99484,1381439.5389978,-4
1660062075.99484,1381439.5390046,46
1660062075.99484,1381439.5390135,53
1660062075.99484,1381439.5390205,49
1660062075.99484,1381439.5390293,74
1660062075.99484,1381439.5390365,91
1660062075.99484,1381440.0766666,102
1660062075.99484,1381440.0766788,121
1660062075.99484,1381440.0766842,137
1660062075.99484,1381440.076689,149
1660062075.99484,1381440.0766911,172
1660062075.99484,1381440.076693,198
1660062075.99484,1381440.076695,217
1660062075.99484,1381440.0766971,228
1660062075.99484,1381440.0766992,217
1660062075.99484,1381440.0767012,196
1660062075.99484,1381440.0767032,189
1660062075.99484,1381440.0767052,186
1660062075.99484,1381440.0767072,170
1660062076.61677,1381440.0767093,151
1660062076.61677,1381440.0767112,112
1660062076.61677,1381440.0767132,60
1660062076.61677,1381440.076715,25
1660062076.61677,1381440.0767169,9
1660062076.61677,1381440.076719,-9
1660062076.61677,1381440.0767209,-28
1660062076.61677,1381440.0767241,-49
1660062076.61677,1381440.0767356,-77
1660062076.61677,1381440.0767416,-81
1660062076.61677,1381440.0767495,-63
1660062076.61677,1381440.0767628,-49
1660062076.61677,1381440.0767706,-37
1660062076.61677,1381440.0767815,-21
1660062076.61677,1381440.0767944,-16
1660062076.61677,1381440.0768027,-14
1660062076.61677,1381440.0768077,4
1660062076.61677,1381440.0768128,16
1660062076.61677,1381440.0768204,23
1660062076.61677,1381440.0768276,28
1660062076.61677,1381440.0768303,30
1660062076.61677,1381440.0768397,25
1660062076.61677,1381440.0768484,32
1660062076.61677,1381440.076851,42
1660062076.61677,1381440.0768531,42
1660062076.61677,1381440.0768551,42
1660062076.61677,1381440.0768572,39
1660062076.61677,1381440.0768592,37
1660062076.61677,1381440.0768611,42
1660062076.61677,1381440.0768631,46
1660062076.61677,1381440.076865,49
1660062076.61677,1381440.076867,49
1660062076.61677,1381440.0768689,44
1660062076.61677,1381440.0768709,37
1660062076.61677,1381440.0768729,49
1660062076.61677,1381440.0768758,63
1660062076.61677,1381440.0768777,65
1660062076.61677,1381440.0768797,84

1660062076.61677,1381440.0768817,100
1660062076.61677,1381440.0768837,84
1660062076.61677,1381440.0768856,60
1660062076.61677,1381440.0768876,56
1660062076.61677,1381440.0768895,67
1660062076.61677,1381440.0768915,72
1660062076.61677,1381440.0768935,70
1660062076.61677,1381440.0768955,70
1660062076.61677,1381440.0768979,67
1660062076.61677,1381440.0769,70
1660062076.61677,1381440.0769021,270
1660062076.61677,1381440.076904,833
1660062076.62774,1381440.076906,1422
1660062076.62774,1381440.076908,1473
1660062076.62774,1381440.07691,593
1660062076.62774,1381440.0769121,-623
1660062076.62774,1381440.076914,-745
1660062076.62774,1381440.076923,-46
1660062076.62774,1381440.0769249,86
1660062076.62774,1381440.0769269,-98
1660062076.62774,1381440.0769301,14
1660062076.62774,1381440.0769321,93
1660062076.62774,1381440.7087705,25
1660062076.62774,1381440.7087832,42
1660062076.62774,1381440.7087878,86
1660062076.62774,1381440.7087907,70
1660062076.62774,1381440.7087933,67
1660062076.62774,1381440.7087958,86
1660062076.62774,1381440.7087992,91
1660062076.62774,1381440.708806,91
1660062076.62774,1381440.7088124,95
1660062076.62774,1381440.7088166,114
1660062076.62774,1381440.7088234,137
1660062076.62774,1381440.7088281,154
1660062076.62774,1381440.7088345,168
1660062076.62774,1381440.7088399,189
1660062077.10488,1381440.7088473,203
1660062077.10488,1381440.708852,207
1660062077.10488,1381440.7088562,207
1660062077.10488,1381440.7088599,186
1660062077.10488,1381440.7088633,147
1660062077.10488,1381440.7088666,126
1660062077.10488,1381440.7088699,116
1660062077.10488,1381440.7088732,91
1660062077.10488,1381440.7088766,56
1660062077.10488,1381440.7088807,23
1660062077.10488,1381440.7088855,-21
1660062077.10488,1381440.7088885,-56
1660062077.10488,1381440.7088913,-65
1660062077.10488,1381440.708894,-67
1660062077.10488,1381440.7088968,-67
1660062077.10488,1381440.7088996,-60
1660062077.10488,1381440.7089023,-51
1660062077.10488,1381440.7089051,-46
1660062077.10488,1381440.7089078,-37
1660062077.10488,1381440.7089107,-21
1660062077.10488,1381440.7089136,-7
1660062077.10488,1381440.7089165,7
1660062077.10488,1381440.7089193,14
1660062077.10488,1381440.7089222,14
1660062077.10488,1381440.708925,16
1660062077.10488,1381440.7089278,23
1660062077.10488,1381440.7089306,30
1660062077.10488,1381440.7089334,35
1660062077.10488,1381440.7089363,37
1660062077.10488,1381440.7089391,35
1660062077.10488,1381440.7089419,32
1660062077.10488,1381440.7089448,37
1660062077.10488,1381440.7089476,42
1660062077.10488,1381440.7089505,39
1660062077.10488,1381440.7089533,42
1660062077.10488,1381440.7089562,44
1660062077.10488,1381440.708959,42
1660062077.10488,1381440.7089619,42
1660062077.10488,1381440.7089647,49
1660062077.10488,1381440.7089675,60
1660062077.10488,1381440.7089704,70
1660062077.10488,1381440.7089732,67
1660062077.10488,1381440.708976,65
1660062077.10488,1381440.7089789,88
1660062077.10488,1381440.7089821,105
1660062077.10488,1381440.7089904,93
1660062077.10488,1381440.7089959,74
1660062077.10488,1381440.7090007,65
1660062077.10488,1381440.7090071,60
1660062077.10488,1381440.7090117,67
1660062077.11685,1381440.7090157,81
1660062077.11685,1381440.7090192,88
1660062077.11685,1381440.7090227,86
1660062077.11685,1381440.709026,102
1660062077.11685,1381440.7090294,352
1660062077.11685,1381440.7090327,931
1660062077.11685,1381440.7090361,1455
1660062077.11685,1381440.7090395,1401
1660062077.11685,1381440.7090437,406
1660062077.11685,1381441.1983625,-770
1660062077.11685,1381441.1983825,-707
1660062077.11685,1381441.1983892,-9
1660062077.11685,1381441.1983948,18
1660062077.11685,1381441.198399,-140
1660062077.11685,1381441.1984116,7
1660062077.11685,1381441.1984181,63
1660062077.11685,1381441.1984231,-9
1660062077.11685,1381441.1984271,4
1660062077.11685,1381441.1984322,39
1660062077.11685,1381441.1984419,32
1660062077.11685,1381441.198453,37
1660062077.11685,1381441.198464,56
1660062077.11685,1381441.1984746,63
1660062077.11685,1381441.1984881,51
1660062077.63827,1381441.1985034,46
1660062077.63827,1381441.1985107,70
1660062077.63827,1381441.1985171,102
1660062077.63827,1381441.1985234,119
1660062077.63827,1381441.19853,133
1660062077.63827,1381441.1985349,147
1660062077.63827,1381441.198541,165
1660062077.63827,1381441.198547,175
1660062077.63827,1381441.1985559,170
1660062077.63827,1381441.1985645,156
1660062077.63827,1381441.1985694,147
1660062077.63827,1381441.1985783,133
1660062077.63827,1381441.1985867,105
1660062077.63827,1381441.1986003,70
1660062077.63827,1381441.1986076,35
1660062077.63827,1381441.19861,7
1660062077.63827,1381441.198613,-18
1660062077.63827,1381441.1986283,-37
1660062077.63827,1381441.1986386,-53
1660062077.63827,1381441.1986469,-63
1660062077.63827,1381441.1986552,-60
1660062077.63827,1381441.1986619,-53
1660062077.63827,1381441.1986726,-51
1660062077.63827,1381441.1986841,-39
1660062077.63827,1381441.1986931,-28
1660062077.63827,1381441.198703,-21
1660062077.63827,1381441.1987093,-7
1660062077.63827,1381441.1987154,4
1660062077.63827,1381441.1987213,11
1660062077.63827,1381441.1987255,21
1660062077.63827,1381441.1987357,30
1660062077.63827,1381441.1987431,30
1660062077.63827,1381441.1987493,32
1660062077.63827,1381441.198753,37
1660062077.63827,1381441.1987564,39
1660062077.63827,1381441.1987598,42
1660062077.63827,1381441.1987632,42
1660062077.63827,1381441.1987666,42
1660062077.63827,1381441.1987701,42
1660062077.63827,1381441.1987735,42
1660062077.63827,1381441.1987773,37
1660062077.63827,1381441.1987812,42
1660062077.63827,1381441.1987885,53
1660062077.63827,1381441.198794,53
1660062077.63827,1381441.1987978,51
1660062077.63827,1381441.1988022,56
1660062077.63827,1381441.1988065,58
1660062077.63827,1381441.1988127,58
1660062077.63827,1381441.1988166,72
1660062077.63827,1381441.1988219,95
1660062077.64924,1381441.1988255,86
1660062077.64924,1381441.1988306,49
1660062077.64924,1381441.1988342,35
1660062077.64924,1381441.1988393,39
1660062077.64924,1381441.1988428,44
1660062077.64924,1381441.1988478,53
1660062077.64924,1381441.1988512,63
1660062077.64924,1381441.1988546,67
1660062077.64924,1381441.7323607,65
1660062077.64924,1381441.7323813,126
1660062077.64924,1381441.732396,476
1660062077.64924,1381441.7324102,1069
1660062077.64924,1381441.7324242,1427
1660062077.64924,1381441.7324385,1111
1660062077.64924,1381441.7324527,-30
1660062077.64924,1381441.7324657,-948
1660062077.64924,1381441.7324788,-525
1660062077.64924,1381441.7324932,102
1660062077.64924,1381441.7325457,-14
1660062077.64924,1381441.7325569,-93
1660062077.64924,1381441.7325635,67
1660062077.64924,1381441.7325709,72
1660062077.64924,1381441.7325764,28
1660062077.64924,1381441.7325828,81
1660062078.17887,1381441.7325892,107
1660062078.17887,1381441.7325927,86
1660062078.17887,1381441.732596,77
1660062078.17887,1381441.7326002,77
1660062078.17887,1381441.7326055,84
1660062078.17887,1381441.7326119,105
1660062078.17887,1381441.7326161,121
1660062078.17887,1381441.7326211,123
1660062078.17887,1381441.7326252,126
1660062078.17887,1381441.7326283,142
1660062078.17887,1381441.7326311,168
1660062078.17887,1381441.7326359,191
1660062078.17887,1381441.7326392,203
1660062078.17887,1381441.7326422,203
1660062078.17887,1381441.7326484,186
1660062078.17887,1381441.7326529,170
1660062078.17887,1381441.7326586,156
1660062078.17887,1381441.7326635,137
1660062078.17887,1381441.7326731,112
1660062078.17887,1381441.7326814,77
1660062078.17887,1381441.7326902,35
1660062078.17887,1381441.7326973,-2
1660062078.17887,1381441.7327098,-23
1660062078.17887,1381441.7327187,-37
1660062078.17887,1381441.7327273,-51
1660062078.17887,1381441.732738,-58
1660062078.17887,1381441.7327459,-60
1660062078.17887,1381441.7327552,-60
1660062078.17887,1381441.7327657,-49
1660062078.17887,1381441.732773,-35
1660062078.17887,1381441.7327788,-21
1660062078.17887,1381441.7327879,-9
1660062078.17887,1381441.7327949,4
1660062078.17887,1381441.732806,9
1660062078.17887,1381441.7328161,11
1660062078.17887,1381441.7328262,16
1660062078.17887,1381441.7328375,23
1660062078.17887,1381441.7328488,32
1660062078.17887,1381441.7328615,37
1660062078.17887,1381441.7328756,37
1660062078.17887,1381441.7328857,35
1660062078.17887,1381441.7328912,25
1660062078.17887,1381441.7329016,11
1660062078.17887,1381441.7329126,11
1660062078.17887,1381441.7329205,21
1660062078.17887,1381441.7329241,18
1660062078.17887,1381441.7329365,11
1660062078.17887,1381441.7329498,21
1660062078.17887,1381441.7329592,30
1660062078.17887,1381441.7329683,32
1660062078.19183,1381441.7329745,32
1660062078.19183,1381441.7329823,35
1660062078.19183,1381441.7329896,42
1660062078.19183,1381441.7329949,53
1660062078.19183,1381441.7330035,58
1660062078.19183,1381441.7330101,70
1660062078.19183,1381441.733016,93
1660062078.19183,1381442.2696641,95
1660062078.19183,1381442.2696818,74
1660062078.19183,1381442.2696918,58
1660062078.19183,1381442.2696972,58
1660062078.19183,1381442.2697037,67
1660062078.19183,1381442.2697096,72
1660062078.19183,1381442.2697178,81
1660062078.19183,1381442.2697243,84
1660062078.19183,1381442.2697347,56
1660062078.19183,1381442.2697393,93
1660062078.19183,1381442.2697414,446
1660062078.19183,1381442.2697435,1058
1660062078.19183,1381442.2697455,1469
1660062078.19183,1381442.2697475,1214
1660062078.19183,1381442.2697496,35
1660062078.19183,1381442.2697528,-973
1660062078.19183,1381442.2697635,-569
1660062078.76024,1381442.2697713,58
1660062078.76024,1381442.2697738,-84
1660062078.76024,1381442.2697758,-161
1660062078.76024,1381442.2697778,18
1660062078.76024,1381442.2697797,11
1660062078.76024,1381442.2697816,-37
1660062078.76024,1381442.2697835,23
1660062078.76024,1381442.2697853,49
1660062078.76024,1381442.2697873,39
1660062078.76024,1381442.2697892,63
1660062078.76024,1381442.2697911,79
1660062078.76024,1381442.2697929,74
1660062078.76024,1381442.2697951,86
1660062078.76024,1381442.2697971,102
1660062078.76024,1381442.2697991,116
1660062078.76024,1381442.2698011,137
1660062078.76024,1381442.2698033,158
1660062078.76024,1381442.2698108,175
1660062078.76024,1381442.2698213,189
1660062078.76024,1381442.2698258,200
1660062078.76024,1381442.2698278,205
1660062078.76024,1381442.2698299,200
1660062078.76024,1381442.2698319,186
1660062078.76024,1381442.269834,168
1660062078.76024,1381442.269836,147
1660062078.76024,1381442.2698381,119
1660062078.76024,1381442.2698401,84
1660062078.76024,1381442.2698421,56
1660062078.76024,1381442.2698442,32
1660062078.76024,1381442.2698462,7
1660062078.76024,1381442.2698483,-14
1660062078.76024,1381442.2698503,-21
1660062078.76024,1381442.2698525,-23
1660062078.76024,1381442.2698545,-35
1660062078.76024,1381442.2698571,-44
1660062078.76024,1381442.2698667,-37
1660062078.76024,1381442.2698758,-28
1660062078.76024,1381442.2698781,-18
1660062078.76024,1381442.2698802,-7
1660062078.76024,1381442.2698822,9
1660062078.76024,1381442.2698849,23
1660062078.76024,1381442.2698946,28
1660062078.76024,1381442.2699032,28
1660062078.76024,1381442.2699055,35
1660062078.76024,1381442.2699077,49
1660062078.76024,1381442.26991,53
1660062078.76024,1381442.2699175,58
1660062078.76024,1381442.2699282,58
1660062078.76024,1381442.2699317,56
1660062078.76024,1381442.2699359,53
1660062078.7722,1381442.2699378,58
1660062078.7722,1381442.2699461,60
1660062078.7722,1381442.269957,63
1660062078.7722,1381442.2699616,65
1660062078.7722,1381442.2699636,63
1660062078.7722,1381442.2699656,58
1660062078.7722,1381442.8540843,60
1660062078.7722,1381442.8540972,56
1660062078.7722,1381442.8540997,56
1660062078.7722,1381442.8541019,60
1660062078.7722,1381442.8541041,49
1660062078.7722,1381442.8541061,23
1660062078.7722,1381442.8541088,25
1660062078.7722,1381442.8541171,49
1660062078.7722,1381442.8541252,51
1660062078.7722,1381442.8541294,56
1660062078.7722,1381442.8541342,79
1660062078.7722,1381442.854142,74
1660062078.7722,1381442.8541483,46
1660062078.7722,1381442.8541546,35
1660062078.7722,1381442.8541599,35
1660062078.7722,1381442.8541633,42
1660062078.7722,1381442.8541682,46
1660062078.7722,1381442.8541715,44
1660062079.35008,1381442.8541746,42
1660062079.35008,1381442.8541781,32
1660062079.35008,1381442.8541812,58
1660062079.35008,1381442.8541844,343
1660062079.35008,1381442.8541875,971
1660062079.35008,1381442.8541905,1532
1660062079.35008,1381442.8541937,1473
1660062079.35008,1381442.8541968,413
1660062079.35008,1381442.8541999,-773
1660062079.35008,1381442.8542031,-642
1660062079.35008,1381442.8542063,35
1660062079.35008,1381442.8542105,0
1660062079.35008,1381442.8542213,-149
1660062079.35008,1381442.8542267,11
1660062079.35008,1381442.8542305,51
1660062079.35008,1381442.8542342,-18
1660062079.35008,1381442.8542376,11
1660062079.35008,1381442.8542411,46
1660062079.35008,1381442.8542446,30
1660062079.35008,1381442.854248,32
1660062079.35008,1381442.854252,58
1660062079.35008,1381442.8542555,67
1660062079.35008,1381442.8542603,74
1660062079.35008,1381442.8542665,93
1660062079.35008,1381442.8542704,112
1660062079.35008,1381442.8542771,119
1660062079.35008,1381442.8542811,123
1660062079.35008,1381442.8542848,142
1660062079.35008,1381442.8542886,163
1660062079.35008,1381442.8542938,172
1660062079.35008,1381442.8542984,179
1660062079.35008,1381442.8543043,177
1660062079.35008,1381442.8543083,168
1660062079.35008,1381442.854313,158
1660062079.35008,1381442.8543166,147
1660062079.35008,1381442.8543203,130
1660062079.35008,1381442.8543254,109
1660062079.35008,1381442.854329,79
1660062079.35008,1381442.8543324,53
1660062079.35008,1381442.8543363,37
1660062079.35008,1381442.8543415,18
1660062079.35008,1381442.854345,4
1660062079.35008,1381442.8543544,7
1660062079.35008,1381442.8543649,4
1660062079.35008,1381442.854374,2
1660062079.35008,1381442.8543793,9
1660062079.35008,1381442.8543856,14
1660062079.35008,1381442.854389,11
1660062079.35008,1381442.8543928,18
1660062079.35008,1381442.8543982,35
1660062079.36006,1381442.8544018,42
1660062079.36006,1381442.8544052,42
1660062079.36006,1381442.85441,51
1660062079.36006,1381442.854414,60
1660062079.36006,1381442.8544195,67
1660062079.36006,1381443.4390046,74
1660062079.36006,1381443.4390171,72
1660062079.36006,1381443.4390216,67
1660062079.36006,1381443.4390238,67
1660062079.36006,1381443.439026,72
1660062079.36006,1381443.439028,74
1660062079.36006,1381443.43903,77
1660062079.36006,1381443.4390319,67
1660062079.36006,1381443.4390339,46
1660062079.36006,1381443.4390358,32
1660062079.36006,1381443.4390379,39
1660062079.36006,1381443.4390399,46
1660062079.36006,1381443.4390419,49
1660062079.36006,1381443.4390439,49
1660062079.36006,1381443.4390459,32
1660062079.36006,1381443.4390479,11
1660062079.36006,1381443.4390499,16
1660062079.36006,1381443.4390525,32
1660062079.36006,1381443.4390546,44
1660062079.88272,1381443.4390567,51
1660062079.88272,1381443.4390586,53
1660062079.88272,1381443.4390605,63
1660062079.88272,1381443.4390624,79
1660062079.88272,1381443.4390643,77
1660062079.88272,1381443.4390662,49
1660062079.88272,1381443.439068,28
1660062079.88272,1381443.43907,28
1660062079.88272,1381443.4390719,32
1660062079.88272,1381443.4390737,35
1660062079.88272,1381443.4390756,44
1660062079.88272,1381443.4390782,51
1660062079.88272,1381443.4390886,46
1660062079.88272,1381443.4390979,205
1660062079.88272,1381443.4391077,735
1660062079.88272,1381443.4391116,1382
1660062079.88272,1381443.4391163,1592
1660062079.88272,1381443.4391259,850
1660062079.88272,1381443.4391332,-492
1660062079.88272,1381443.4391356,-873
1660062079.88272,1381443.4391377,-168
1660062079.88272,1381443.4391398,67
1660062079.88272,1381443.4391458,-163
1660062079.88272,1381443.4391564,-77
1660062079.88272,1381443.4391607,39
1660062079.88272,1381443.4391673,-30
1660062079.88272,1381443.4391776,-28
1660062079.88272,1381443.4391846,28
1660062079.88272,1381443.4391944,25
1660062079.88272,1381443.4392003,28
1660062079.88272,1381443.4392046,58
1660062079.88272,1381443.4392174,72
1660062079.88272,1381443.4392283,79
1660062079.88272,1381443.439235,95
1660062079.88272,1381443.4392412,112
1660062079.88272,1381443.4392492,128
1660062079.88272,1381443.439256,149
1660062079.88272,1381443.4392637,163
1660062079.88272,1381443.4392677,170
1660062079.88272,1381443.439271,182
1660062079.88272,1381443.4392744,193
1660062079.88272,1381443.439278,193
1660062079.88272,1381443.4392814,186
1660062079.88272,1381443.4392851,177
1660062079.88272,1381443.4392883,163
1660062079.88272,1381443.4392914,147
1660062079.88272,1381443.4392964,123
1660062079.88272,1381443.4393047,95
1660062079.88272,1381443.4393119,72
1660062079.88272,1381443.4393199,49
1660062079.89468,1381443.4393249,25
1660062079.89468,1381443.4393305,11
1660062079.89468,1381443.4393336,2
1660062079.89468,1381443.4393367,-4
1660062079.89468,1381443.975211,0
1660062079.89468,1381443.9752279,9
1660062079.89468,1381443.9752361,14
1660062079.89468,1381443.9752397,18
1660062079.89468,1381443.9752447,28
1660062079.89468,1381443.9752478,37
1660062079.89468,1381443.975251,46
1660062079.89468,1381443.9752545,58
1660062079.89468,1381443.975258,60
1660062079.89468,1381443.9752612,67
1660062079.89468,1381443.9752645,70
1660062079.89468,1381443.9752679,53
1660062079.89468,1381443.9752712,39
1660062079.89468,1381443.9752755,46
1660062079.89468,1381443.9752811,49
1660062079.89468,1381443.9752847,37
1660062079.89468,1381443.9752891,30
1660062079.89468,1381443.9752965,18
1660062079.89468,1381443.9753013,0
1660062079.89468,1381443.9753048,0
1660062080.46731,1381443.9753083,9
1660062080.46731,1381443.9753121,9
1660062080.46731,1381443.9753155,11
1660062080.46731,1381443.9753189,16
1660062080.46731,1381443.9753223,18
1660062080.46731,1381443.9753257,18
1660062080.46731,1381443.975329,23
1660062080.46731,1381443.9753323,25
1660062080.46731,1381443.9753357,28
1660062080.46731,1381443.975339,25
1660062080.46731,1381443.9753425,14
1660062080.46731,1381443.9753455,7
1660062080.46731,1381443.9753488,25
1660062080.46731,1381443.9753522,51
1660062080.46731,1381443.9753558,51
1660062080.46731,1381443.9753591,32
1660062080.46731,1381443.9753633,14
1660062080.46731,1381443.9753686,14
1660062080.46731,1381443.9753725,23
1660062080.46731,1381443.975376,32
1660062080.46731,1381443.9753822,44
1660062080.46731,1381443.9753868,49
1660062080.46731,1381443.9753903,42
1660062080.46731,1381443.9753937,161
1660062080.46731,1381443.9753971,635
1660062080.46731,1381443.9754008,1293
1660062080.46731,1381443.9754043,1588
1660062080.46731,1381443.9754094,978
1660062080.46731,1381443.9754127,-362
1660062080.46731,1381443.9754173,-941
1660062080.46731,1381443.9754228,-284
1660062080.46731,1381443.9754286,72
1660062080.46731,1381443.9754345,-149
1660062080.46731,1381443.975438,-105
1660062080.46731,1381443.975442,37
1660062080.46731,1381443.9754471,-21
1660062080.46731,1381443.9754516,-32
1660062080.46731,1381443.975457,32
1660062080.46731,1381443.9754611,42
1660062080.46731,1381443.9754662,39
1660062080.46731,1381443.9754695,70
1660062080.46731,1381443.9754729,86
1660062080.46731,1381443.9754779,88
1660062080.46731,1381443.9754813,105
1660062080.46731,1381443.9754861,128
1660062080.46731,1381443.9754893,149
1660062080.46731,1381443.9754929,172
1660062080.46731,1381443.9754963,191
1660062080.46731,1381443.9754998,205
1660062080.46731,1381443.9755046,214
1660062080.47927,1381443.9755082,224
1660062080.47927,1381443.9755148,231
1660062080.47927,1381443.9755187,228
1660062080.47927,1381444.5602968,212
1660062080.47927,1381444.5603128,186
1660062080.47927,1381444.5603178,163
1660062080.47927,1381444.5603234,144
1660062080.47927,1381444.5603277,119
1660062080.47927,1381444.5603328,86
1660062080.47927,1381444.560338,51
1660062080.47927,1381444.5603423,7
1660062080.47927,1381444.5603477,-30
1660062080.47927,1381444.5603532,-46
1660062080.47927,1381444.5603587,-46
1660062080.47927,1381444.5603628,-46
1660062080.47927,1381444.5603669,-44
1660062080.47927,1381444.5603724,-39
1660062080.47927,1381444.5603763,-46
1660062080.47927,1381444.5603813,-56
1660062080.47927,1381444.560385,-39
1660062080.47927,1381444.5603886,-16
1660062080.47927,1381444.5603924,-7
1660062080.47927,1381444.5603975,-2
1660062080.47927,1381444.5604011,2
1660062081.04808,1381444.5604061,2
1660062081.04808,1381444.5604096,-2
1660062081.04808,1381444.5604132,-7
1660062081.04808,1381444.5604168,-2
1660062081.04808,1381444.5604204,4
1660062081.04808,1381444.560424,0
1660062081.04808,1381444.5604276,-4
1660062081.04808,1381444.5604312,2
1660062081.04808,1381444.5604346,14
1660062081.04808,1381444.5604381,14
1660062081.04808,1381444.5604415,14
1660062081.04808,1381444.5604449,16
1660062081.04808,1381444.5604484,18
1660062081.04808,1381444.5604519,23
1660062081.04808,1381444.5604554,30
1660062081.04808,1381444.5604588,35
1660062081.04808,1381444.5604623,25
1660062081.04808,1381444.5604658,16
1660062081.04808,1381444.5604693,16
1660062081.04808,1381444.5604729,25
1660062081.04808,1381444.5604765,28
1660062081.04808,1381444.5604801,39
1660062081.04808,1381444.5604836,60
1660062081.04808,1381444.5604883,60
1660062081.04808,1381444.560492,39
1660062081.04808,1381444.5604977,23
1660062081.04808,1381444.5605014,25
1660062081.04808,1381444.560505,37
1660062081.04808,1381444.5605085,44
1660062081.04808,1381444.5605123,49
1660062081.04808,1381444.5605158,60
1660062081.04808,1381444.5605198,53
1660062081.04808,1381444.5605261,126
1660062081.04808,1381444.5605553,525
1660062081.04808,1381444.5605712,1149
1660062081.04808,1381444.5605796,1455
1660062081.04808,1381444.5605859,983
1660062081.04808,1381444.5605922,-245
1660062081.04808,1381444.5605983,-992
1660062081.04808,1381444.5606113,-441
1660062081.04808,1381444.56062,79
1660062081.04808,1381444.5606296,-84
1660062081.04808,1381444.5606361,-102
1660062081.04808,1381444.5606426,63
1660062081.04808,1381444.5606479,39
1660062081.04808,1381444.5606512,2
1660062081.04808,1381444.5606543,60
1660062081.04808,1381444.5606576,81
1660062081.04808,1381444.5607229,70
1660062081.04808,1381444.5607292,84
1660062081.05905,1381444.5607327,100
1660062081.05905,1381444.5607361,112
1660062081.05905,1381445.1454887,130
1660062081.05905,1381445.1455084,156
1660062081.05905,1381445.1455172,182
1660062081.05905,1381445.1455251,210
1660062081.05905,1381445.1455288,231
1660062081.05905,1381445.1455369,242
1660062081.05905,1381445.1455436,256
1660062081.05905,1381445.1455521,270
1660062081.05905,1381445.1455587,275
1660062081.05905,1381445.1455645,266
1660062081.05905,1381445.1455675,245
1660062081.05905,1381445.1455706,205
1660062081.05905,1381445.1455763,161
1660062081.05905,1381445.1455854,135
1660062081.05905,1381445.1455925,98
1660062081.05905,1381445.1456013,39
1660062081.05905,1381445.1456086,2
1660062081.05905,1381445.1456153,-37
1660062081.05905,1381445.1456196,-88
1660062081.05905,1381445.1456251,-105
1660062081.05905,1381445.1456281,-95
1660062081.05905,1381445.145631,-95
1660062081.59284,1381445.1456347,-93
1660062081.59284,1381445.1456396,-84
1660062081.59284,1381445.1456461,-79
1660062081.59284,1381445.145653,-65
1660062081.59284,1381445.1456597,-44
1660062081.59284,1381445.1456669,-25
1660062081.59284,1381445.1456724,-14
1660062081.59284,1381445.1456761,-9
1660062081.59284,1381445.1456791,-14
1660062081.59284,1381445.1456824,-7
1660062081.59284,1381445.1456855,9
1660062081.59284,1381445.1456908,18
1660062081.59284,1381445.1456951,18
1660062081.59284,1381445.1456999,21
1660062081.59284,1381445.1457051,18
1660062081.59284,1381445.1457094,16
1660062081.59284,1381445.1457165,21
1660062081.59284,1381445.1457217,25
1660062081.59284,1381445.1457269,28
1660062081.59284,1381445.145734,32
1660062081.59284,1381445.1457414,32
1660062081.59284,1381445.1457483,23
1660062081.59284,1381445.145757,18
1660062081.59284,1381445.1457636,23
1660062081.59284,1381445.1457764,37
1660062081.59284,1381445.1457869,44
1660062081.59284,1381445.1457934,37
1660062081.59284,1381445.1458056,42
1660062081.59284,1381445.1458188,67
1660062081.59284,1381445.1458324,70
1660062081.59284,1381445.1458453,46
1660062081.59284,1381445.1458587,35
1660062081.59284,1381445.1458722,35
1660062081.59284,1381445.1458855,37
1660062081.59284,1381445.1458992,44
1660062081.59284,1381445.1459126,56
1660062081.59284,1381445.145926,65
1660062081.59284,1381445.1459395,56
1660062081.59284,1381445.145953,116
1660062081.59284,1381445.1459665,481
1660062081.59284,1381445.1459799,1072
1660062081.59284,1381445.1459922,1403
1660062081.59284,1381445.1460076,1027
1660062081.59284,1381445.1460209,-163
1660062081.59284,1381445.1460348,-987
1660062081.59284,1381445.1460484,-469
1660062081.59284,1381445.1460633,91
1660062081.59284,1381445.1460757,-74
1660062081.59284,1381445.1460873,-112
1660062081.59284,1381445.1461015,58
1660062081.6048,1381445.146113,37
1660062081.6048,1381445.6823005,2
1660062081.6048,1381445.6823174,60
1660062081.6048,1381445.6823264,77
1660062081.6048,1381445.6823316,70
1660062081.6048,1381445.6823369,95
1660062081.6048,1381445.6823421,109
1660062081.6048,1381445.6823505,109
1660062081.6048,1381445.6823557,105
1660062081.6048,1381445.6823609,100
1660062081.6048,1381445.682366,114
1660062081.6048,1381445.6823711,140
1660062081.6048,1381445.6823761,161
1660062081.6048,1381445.6823813,182
1660062081.6048,1381445.6824107,203
1660062081.6048,1381445.6824194,198
1660062081.6048,1381445.682423,179
1660062081.6048,1381445.682426,177
1660062081.6048,1381445.6824291,168
1660062081.6048,1381445.682433,149
1660062081.6048,1381445.682436,133
1660062081.6048,1381445.6824389,105
1660062081.6048,1381445.6824419,60
1660062081.6048,1381445.6824456,25
1660062082.12668,1381445.6824494,2
1660062082.12668,1381445.6824547,-21
1660062082.12668,1381445.682461,-35
1660062082.12668,1381445.6824661,-42
1660062082.12668,1381445.6824703,-53
1660062082.12668,1381445.6824766,-56
1660062082.12668,1381445.6824818,-49
1660062082.12668,1381445.6824864,-39
1660062082.12668,1381445.6824929,-25
1660062082.12668,1381445.6824964,-11
1660062082.12668,1381445.6825015,-2
1660062082.12668,1381445.6825075,7
1660062082.12668,1381445.682512,18
1660062082.12668,1381445.6825186,30
1660062082.12668,1381445.6825224,42
1660062082.12668,1381445.6825266,51
1660062082.12668,1381445.6825312,51
1660062082.12668,1381445.682537,51
1660062082.12668,1381445.6825408,56
1660062082.12668,1381445.6825457,58
1660062082.12668,1381445.6825527,60
1660062082.12668,1381445.6825597,63
1660062082.12668,1381445.6825696,63
1660062082.12668,1381445.6825753,56
1660062082.12668,1381445.6825796,53
1660062082.12668,1381445.6825904,58
1660062082.12668,1381445.6825965,63
1660062082.12668,1381445.6826004,63
1660062082.12668,1381445.6826045,56
1660062082.12668,1381445.6826089,44
1660062082.12668,1381445.6826325,42
1660062082.12668,1381445.682652,51
1660062082.12668,1381445.6826603,56
1660062082.12668,1381445.6826656,60
1660062082.12668,1381445.682671,86
1660062082.12668,1381445.6826763,93
1660062082.12668,1381445.6826815,67
1660062082.12668,1381445.682686,46
1660062082.12668,1381445.6826912,46
1660062082.12668,1381445.682696,53
1660062082.12668,1381445.6827009,63
1660062082.12668,1381445.6827053,67
1660062082.12668,1381445.6827103,67
1660062082.12668,1381445.6827149,60
1660062082.12668,1381445.6827198,70
1660062082.12668,1381445.6827245,312
1660062082.12668,1381445.6827285,901
1660062082.12668,1381445.6827332,1452
1660062082.12668,1381445.6827375,1448
1660062082.12668,1381445.6827419,462
1660062082.13718,1381446.2177778,-770
1660062082.13718,1381446.2177896,-717
1660062082.13718,1381446.2177934,0
1660062082.13718,1381446.217796,-2
1660062082.13718,1381446.2177984,-193
1660062082.13718,1381446.2178008,-51
1660062082.13718,1381446.2178032,2
1660062082.13718,1381446.2178055,-56
1660062082.13718,1381446.2178077,-14
1660062082.13718,1381446.21781,28
1660062082.13718,1381446.2178124,14
1660062082.13718,1381446.2178147,23
1660062082.13718,1381446.2178168,44
1660062082.13718,1381446.217819,51
1660062082.13718,1381446.2178212,72
1660062082.13718,1381446.2178234,93
1660062082.13718,1381446.2178256,100
1660062082.13718,1381446.2178277,98
1660062082.13718,1381446.2178299,102
1660062082.13718,1381446.217832,126
1660062082.13718,1381446.2178342,149
1660062082.13718,1381446.2178369,161
1660062082.13718,1381446.2178426,168
1660062082.13718,1381446.2178539,158
1660062082.71054,1381446.2178598,135
1660062082.71054,1381446.217862,121
1660062082.71054,1381446.2178639,116
1660062082.71054,1381446.2178659,100
1660062082.71054,1381446.2178677,72
1660062082.71054,1381446.2178703,44
1660062082.71054,1381446.2178796,23
1660062082.71054,1381446.2178867,2
1660062082.71054,1381446.2178893,-11
1660062082.71054,1381446.2178913,-21
1660062082.71054,1381446.2178932,-25
1660062082.71054,1381446.2178951,-25
1660062082.71054,1381446.2178969,-21
1660062082.71054,1381446.2179129,-11
1660062082.71054,1381446.2179254,-2
1660062082.71054,1381446.2179301,9
1660062082.71054,1381446.2179356,16
1660062082.71054,1381446.2179421,28
1660062082.71054,1381446.2179473,39
1660062082.71054,1381446.2179533,44
1660062082.71054,1381446.2179614,44
1660062082.71054,1381446.2179685,49
1660062082.71054,1381446.2179726,53
1660062082.71054,1381446.2179758,58
1660062082.71054,1381446.217979,63
1660062082.71054,1381446.2179824,63
1660062082.71054,1381446.2179859,63
1660062082.71054,1381446.2179908,65
1660062082.71054,1381446.2180014,65
1660062082.71054,1381446.2180063,65
1660062082.71054,1381446.2180085,67
1660062082.71054,1381446.2180163,67
1660062082.71054,1381446.2180267,65
1660062082.71054,1381446.2180306,67
1660062082.71054,1381446.2180327,63
1660062082.71054,1381446.2180355,58
1660062082.71054,1381446.2180377,58
1660062082.71054,1381446.2180444,58
1660062082.71054,1381446.2180553,58
1660062082.71054,1381446.2180599,67
1660062082.71054,1381446.218062,67
1660062082.71054,1381446.2180647,58
1660062082.71054,1381446.2180709,67
1660062082.71054,1381446.2180818,84
1660062082.71054,1381446.2180879,70
1660062082.71054,1381446.2180978,42
1660062082.71054,1381446.2181095,35
1660062082.71054,1381446.2181223,46
1660062082.71054,1381446.2181359,53
1660062082.71054,1381446.8033627,53
1660062082.72351,1381446.803375,53
1660062082.72351,1381446.8033777,39
1660062082.72351,1381446.80338,21
1660062082.72351,1381446.8033822,219
1660062082.72351,1381446.8033844,805
1660062082.72351,1381446.8033866,1434
1660062082.72351,1381446.8033887,1522
1660062082.72351,1381446.8033908,593
1660062082.72351,1381446.803393,-714
1660062082.72351,1381446.8033951,-817
1660062082.72351,1381446.8033972,-86
1660062082.72351,1381446.8033993,0
1660062082.72351,1381446.8034014,-210
1660062082.72351,1381446.8034034,-93
1660062082.72351,1381446.8034054,-28
1660062082.72351,1381446.8034074,-86
1660062082.72351,1381446.8034094,-46
1660062082.72351,1381446.8034115,2
1660062082.72351,1381446.8034135,-4
1660062082.72351,1381446.8034155,2
1660062082.72351,1381446.8034175,23
1660062082.72351,1381446.8034195,37
1660062082.72351,1381446.8034215,56
1660062082.72351,1381446.8034235,79
1660062083.24706,1381446.8034254,98
1660062083.24706,1381446.8034273,114
1660062083.24706,1381446.8034292,126
1660062083.24706,1381446.8034311,147
1660062083.24706,1381446.8034329,170
1660062083.24706,1381446.8034348,186
1660062083.24706,1381446.8034366,196
1660062083.24706,1381446.8034385,196
1660062083.24706,1381446.8034405,182
1660062083.24706,1381446.8034424,163
1660062083.24706,1381446.8034442,147
1660062083.24706,1381446.8034464,133
1660062083.24706,1381446.8034484,116
1660062083.24706,1381446.8034502,86
1660062083.24706,1381446.8034521,53
1660062083.24706,1381446.8034542,32
1660062083.24706,1381446.8034598,21
1660062083.24706,1381446.803469,11
1660062083.24706,1381446.8034761,4
1660062083.24706,1381446.8034855,2
1660062083.24706,1381446.8034926,2
1660062083.24706,1381446.8034957,2
1660062083.24706,1381446.8035259,11
1660062083.24706,1381446.8035371,28
1660062083.24706,1381446.8035459,39
1660062083.24706,1381446.8035503,49
1660062083.24706,1381446.8035533,56
1660062083.24706,1381446.8035561,60
1660062083.24706,1381446.8035589,67
1660062083.24706,1381446.8035617,77
1660062083.24706,1381446.8035645,84
1660062083.24706,1381446.8035714,84
1660062083.24706,1381446.8035817,72
1660062083.24706,1381446.8035916,56
1660062083.24706,1381446.8036019,51
1660062083.24706,1381446.8036055,60
1660062083.24706,1381446.8036095,63
1660062083.24706,1381446.8036115,63
1660062083.24706,1381446.8036135,63
1660062083.24706,1381446.8036156,60
1660062083.24706,1381446.8036176,58
1660062083.24706,1381446.8036204,49
1660062083.24706,1381446.8036225,37
1660062083.24706,1381446.8036249,35
1660062083.24706,1381446.8036269,39
1660062083.24706,1381446.8036338,39
1660062083.24706,1381446.8036439,39
1660062083.24706,1381446.803648,42
1660062083.24706,1381447.338707,46
1660062083.24706,1381447.3387242,46
1660062083.25903,1381447.3387314,46
1660062083.25903,1381447.3387368,53
1660062083.25903,1381447.3387419,63
1660062083.25903,1381447.3387473,65
1660062083.25903,1381447.338754,72
1660062083.25903,1381447.338761,98
1660062083.25903,1381447.3387661,102
1660062083.25903,1381447.3387703,77
1660062083.25903,1381447.3387766,44
1660062083.25903,1381447.3387834,21
1660062083.25903,1381447.3387922,16
1660062083.25903,1381447.3388013,25
1660062083.25903,1381447.3388083,30
1660062083.25903,1381447.3388121,32
1660062083.25903,1381447.3388187,23
1660062083.25903,1381447.3388247,28
1660062083.25903,1381447.3388386,294
1660062083.25903,1381447.3388513,931
1660062083.25903,1381447.3388596,1483
1660062083.25903,1381447.3388725,1356
1660062083.25903,1381447.3388853,259
1660062083.25903,1381447.338895,-864
1660062083.25903,1381447.3389014,-679
1660062083.25903,1381447.3389056,-16
1660062083.82584,1381447.3389178,-60
1660062083.82584,1381447.3389244,-196
1660062083.82584,1381447.3389325,-30
1660062083.82584,1381447.3389422,4
1660062083.82584,1381447.3389482,-56
1660062083.82584,1381447.3389606,-7
1660062083.82584,1381447.3389739,35
1660062083.82584,1381447.3389814,25
1660062083.82584,1381447.3389879,44
1660062083.82584,1381447.3389913,74
1660062083.82584,1381447.3390026,79
1660062083.82584,1381447.339012,91
1660062083.82584,1381447.3390256,112
1660062083.82584,1381447.3390391,130
1660062083.82584,1381447.3390517,151
1660062083.82584,1381447.3390661,175
1660062083.82584,1381447.3390786,191
1660062083.82584,1381447.3390883,203
1660062083.82584,1381447.3390936,214
1660062083.82584,1381447.3391075,221
1660062083.82584,1381447.3391178,221
1660062083.82584,1381447.3391232,217
1660062083.82584,1381447.3391356,207
1660062083.82584,1381447.3391422,186
1660062083.82584,1381447.3391504,156
1660062083.82584,1381447.3391569,121
1660062083.82584,1381447.3391628,98
1660062083.82584,1381447.3391668,77
1660062083.82584,1381447.3391709,53
1660062083.82584,1381447.3391789,30
1660062083.82584,1381447.3391832,9
1660062083.82584,1381447.3391888,0
1660062083.82584,1381447.3391931,-7
1660062083.82584,1381447.339199,-9
1660062083.82584,1381447.3392042,2
1660062083.82584,1381447.3392105,9
1660062083.82584,1381447.3392158,9
1660062083.82584,1381447.3392217,18
1660062083.82584,1381447.3392261,35
1660062083.82584,1381447.339232,46
1660062083.82584,1381447.3392375,58
1660062083.82584,1381447.3392431,65
1660062083.82584,1381447.3392482,63
1660062083.82584,1381447.3392555,63
1660062083.82584,1381447.3392613,72
1660062083.82584,1381447.3392697,77
1660062083.82584,1381447.3392792,79
1660062083.82584,1381447.9236384,81
1660062083.82584,1381447.9236507,77
1660062083.82584,1381447.923655,72
1660062083.83496,1381447.923658,72
1660062083.83496,1381447.9236607,70
1660062083.83496,1381447.9236632,63
1660062083.83496,1381447.9236657,60
1660062083.83496,1381447.9236682,44
1660062083.83496,1381447.9236706,16
1660062083.83496,1381447.9236731,11
1660062083.83496,1381447.9236756,30
1660062083.83496,1381447.9236782,35
1660062083.83496,1381447.9236845,32
1660062083.83496,1381447.9236957,23
1660062083.83496,1381447.9236991,4
1660062083.83496,1381447.9237013,0
1660062083.83496,1381447.9237033,11
1660062083.83496,1381447.9237053,9
1660062083.83496,1381447.9237074,2
1660062083.83496,1381447.9237094,16
1660062083.83496,1381447.9237115,35
1660062083.83496,1381447.9237191,25
1660062083.83496,1381447.9237297,2
1660062083.83496,1381447.9237334,-14
1660062083.83496,1381447.923741,-14
1660062083.83496,1381447.9237509,-4
1660062083.83496,1381447.9237637,-2
1660062084.36957,1381447.9237769,2
1660062084.36957,1381447.9237847,11

1660062084.36957,1381447.9237918,9
1660062084.36957,1381447.923799,126
1660062084.36957,1381447.9238064,597
1660062084.36957,1381447.9238137,1244
1660062084.36957,1381447.9238204,1499
1660062084.36957,1381447.9238298,875
1660062084.36957,1381447.9238359,-411
1660062084.36957,1381447.923846,-938
1660062084.36957,1381447.9238533,-287
1660062084.36957,1381447.9238623,81
1660062084.36957,1381447.9238709,-121
1660062084.36957,1381447.9238794,-81
1660062084.36957,1381447.9238859,63
1660062084.36957,1381447.9238943,16
1660062084.36957,1381447.9239007,-7
1660062084.36957,1381447.9239089,39
1660062084.36957,1381447.9239162,44
1660062084.36957,1381447.9239248,44
1660062084.36957,1381447.9239308,72
1660062084.36957,1381447.923939,93
1660062084.36957,1381447.9239452,93
1660062084.36957,1381447.9239536,105
1660062084.36957,1381447.92396,130
1660062084.36957,1381447.9239678,151
1660062084.36957,1381447.923971,172
1660062084.36957,1381447.9239744,196
1660062084.36957,1381447.923979,212
1660062084.36957,1381447.9239849,224
1660062084.36957,1381447.9239882,240
1660062084.36957,1381447.9239922,242
1660062084.36957,1381447.923997,228
1660062084.36957,1381447.9240003,214
1660062084.36957,1381447.9240039,200
1660062084.36957,1381447.9240089,184
1660062084.36957,1381447.9240137,165
1660062084.36957,1381447.9240179,130
1660062084.36957,1381447.9240219,93
1660062084.36957,1381447.9240259,67
1660062084.36957,1381447.9240306,46
1660062084.36957,1381447.9240345,23
1660062084.36957,1381447.9240384,9
1660062084.36957,1381447.9240633,0
1660062084.36957,1381447.9240702,-2
1660062084.36957,1381447.9240754,0
1660062084.36957,1381448.4605703,7
1660062084.36957,1381448.4605855,9
1660062084.36957,1381448.4605902,21
1660062084.36957,1381448.4605969,37
1660062084.38054,1381448.4606,46
1660062084.38054,1381448.4606039,51
1660062084.38054,1381448.4606073,56
1660062084.38054,1381448.4606109,65
1660062084.38054,1381448.4606141,65
1660062084.38054,1381448.4606635,56
1660062084.38054,1381448.4606769,49
1660062084.38054,1381448.4606849,32
1660062084.38054,1381448.460688,21
1660062084.38054,1381448.4606968,25
1660062084.38054,1381448.4607091,30
1660062084.38054,1381448.4607208,25
1660062084.38054,1381448.4607296,14
1660062084.38054,1381448.4607369,-9
1660062084.38054,1381448.4607466,-30
1660062084.38054,1381448.4607518,-23
1660062084.38054,1381448.4607653,-9
1660062084.38054,1381448.460777,-9
1660062084.38054,1381448.4607864,-11
1660062084.38054,1381448.4608226,-9
1660062084.38054,1381448.4608454,-14
1660062084.38054,1381448.4608529,-7
1660062084.38054,1381448.4608588,9
1660062084.38054,1381448.4608641,18
1660062084.90353,1381448.4608711,23
1660062084.90353,1381448.4608774,32
1660062084.90353,1381448.4608839,46
1660062084.90353,1381448.4608874,46
1660062084.90353,1381448.4608906,23
1660062084.90353,1381448.4608935,4
1660062084.90353,1381448.4608968,0
1660062084.90353,1381448.4609001,-4
1660062084.90353,1381448.4609031,-16
1660062084.90353,1381448.4609068,-16
1660062084.90353,1381448.4609103,2
1660062084.90353,1381448.4609188,2
1660062084.90353,1381448.4609248,51
1660062084.90353,1381448.4609323,404
1660062084.90353,1381448.4609412,1015
1660062084.90353,1381448.4609481,1371
1660062084.90353,1381448.4609581,999
1660062084.90353,1381448.4609699,-175
1660062084.90353,1381448.4609829,-1027
1660062084.90353,1381448.4609936,-558
1660062084.90353,1381448.4610069,42
1660062084.90353,1381448.4610203,-77
1660062084.90353,1381448.4610338,-128
1660062084.90353,1381448.4610471,39
1660062084.90353,1381448.4610604,42
1660062084.90353,1381448.4610744,4
1660062084.90353,1381448.4610878,53
1660062084.90353,1381448.4611013,65
1660062084.90353,1381448.4611147,35
1660062084.90353,1381448.4611281,21
1660062084.90353,1381448.4611417,32
1660062084.90353,1381448.4611551,77
1660062084.90353,1381448.4611686,140
1660062084.90353,1381448.461182,179
1660062084.90353,1381448.4611953,210
1660062084.90353,1381448.4612086,256
1660062084.90353,1381448.4612224,268
1660062084.90353,1381448.4612356,275
1660062084.90353,1381448.4612489,296
1660062084.90353,1381448.4612623,289
1660062084.90353,1381448.4612757,280
1660062084.90353,1381448.4612892,282
1660062084.90353,1381448.4613025,282
1660062084.90353,1381448.4613159,282
1660062084.90353,1381448.4613291,242
1660062084.90353,1381448.9966006,179
1660062084.90353,1381448.996617,147
1660062084.90353,1381448.9966226,130
1660062084.90353,1381448.9966294,98
1660062084.90353,1381448.9966355,63
1660062084.9125,1381448.9966411,42
1660062084.9125,1381448.996646,21
1660062084.9125,1381448.9966524,-11
1660062084.9125,1381448.9966569,-42
1660062084.9125,1381448.9966616,-30
1660062084.9125,1381448.9966682,-14
1660062084.9125,1381448.9966741,-16
1660062084.9125,1381448.996678,-7
1660062084.9125,1381448.9966818,0
1660062084.9125,1381448.996687,-9
1660062084.9125,1381448.9966919,-11
1660062084.9125,1381448.9966978,7
1660062084.9125,1381448.9967018,18
1660062084.9125,1381448.9967087,23
1660062084.9125,1381448.9967124,37
1660062084.9125,1381448.9967163,39
1660062084.9125,1381448.9967262,30
1660062084.9125,1381448.9967395,28
1660062084.9125,1381448.9967482,30
1660062084.9125,1381448.9967537,32
1660062084.9125,1381448.9967616,35
1660062084.9125,1381448.9967689,35
1660062084.9125,1381448.9967724,23
1660062084.9125,1381448.9967757,9
1660062085.59169,1381448.996779,-2
1660062085.59169,1381448.9967821,-9
1660062085.59169,1381448.9967865,-11
1660062085.59169,1381448.9967897,-18
1660062085.59169,1381448.9967932,-23
1660062085.59169,1381448.9967972,-11
1660062085.59169,1381448.9968009,9
1660062085.59169,1381448.9968044,18
1660062085.59169,1381448.9968079,25
1660062085.59169,1381448.9968113,42
1660062085.59169,1381448.9968152,51
1660062085.59169,1381448.9968187,32
1660062085.59169,1381448.9968224,7
1660062085.59169,1381448.9968261,-2
1660062085.59169,1381448.9968298,7
1660062085.59169,1381448.9968334,14
1660062085.59169,1381448.9968372,14
1660062085.59169,1381448.9968408,11
1660062085.59169,1381448.9968445,7
1660062085.59169,1381448.9968481,30
1660062085.59169,1381448.9968519,303
1660062085.59169,1381448.9968555,889
1660062085.59169,1381448.996859,1363
1660062085.59169,1381448.9968625,1233
1660062085.59169,1381448.9968659,200
1660062085.59169,1381448.9968692,-873
1660062085.59169,1381448.9968728,-651
1660062085.59169,1381448.9968763,39
1660062085.59169,1381448.99688,-4
1660062085.59169,1381448.9968838,-154
1660062085.59169,1381448.9968876,7
1660062085.59169,1381448.9968914,58
1660062085.59169,1381448.9969218,7
1660062085.59169,1381448.9969265,44
1660062085.59169,1381448.9969302,74
1660062085.59169,1381448.9969338,58
1660062085.59169,1381448.9969374,70
1660062085.59169,1381448.9969415,91
1660062085.59169,1381448.9969452,100
1660062085.59169,1381448.9969493,119
1660062085.59169,1381448.996953,147
1660062085.59169,1381448.9969574,168
1660062085.59169,1381448.9969611,172
1660062085.59169,1381448.9969647,177
1660062085.59169,1381449.6788493,198
1660062085.59169,1381449.6788622,242
1660062085.59169,1381449.6788649,273
1660062085.59169,1381449.6788672,266
1660062085.59169,1381449.6788694,235
1660062085.59169,1381449.6788715,203
1660062085.60267,1381449.6788736,184
1660062085.60267,1381449.6788757,175
1660062085.60267,1381449.6788778,151
1660062085.60267,1381449.6788798,112
1660062085.60267,1381449.6788819,65
1660062085.60267,1381449.6788839,18
1660062085.60267,1381449.678886,-9
1660062085.60267,1381449.6788879,-18
1660062085.60267,1381449.6788899,-28
1660062085.60267,1381449.6788919,-37
1660062085.60267,1381449.6788943,-44
1660062085.60267,1381449.6788962,-44
1660062085.60267,1381449.6788983,-39
1660062085.60267,1381449.6789003,-23
1660062085.60267,1381449.6789023,-7
1660062085.60267,1381449.6789043,0
1660062085.60267,1381449.6789063,-7
1660062085.60267,1381449.6789083,-11
1660062085.60267,1381449.6789102,0
1660062085.60267,1381449.6789122,16
1660062085.60267,1381449.6789142,21
1660062085.60267,1381449.6789161,28
1660062085.60267,1381449.6789181,44
1660062085.60267,1381449.6789201,49
1660062086.07761,1381449.6789221,39
1660062086.07761,1381449.6789263,44
1660062086.07761,1381449.6789282,53
1660062086.07761,1381449.6789309,51
1660062086.07761,1381449.678939,49
1660062086.07761,1381449.678947,46
1660062086.07761,1381449.6789509,44
1660062086.07761,1381449.6789555,39
1660062086.07761,1381449.6789597,35
1660062086.07761,1381449.6789634,37
1660062086.07761,1381449.6789701,42
1660062086.07761,1381449.6789743,49
1660062086.07761,1381449.678979,56
1660062086.07761,1381449.6789832,51
1660062086.07761,1381449.6789881,63
1660062086.07761,1381449.6789967,86
1660062086.07761,1381449.679006,91
1660062086.07761,1381449.679015,67
1660062086.07761,1381449.6790194,44
1660062086.07761,1381449.6790235,42
1660062086.07761,1381449.6790338,56
1660062086.07761,1381449.6790474,63
1660062086.07761,1381449.679054,67
1660062086.07761,1381449.6790562,74
1660062086.07761,1381449.6790582,46
1660062086.07761,1381449.6790602,32
1660062086.07761,1381449.6790623,308
1660062086.07761,1381449.6790653,962
1660062086.07761,1381449.6790758,1555
1660062086.07761,1381449.6790828,1492
1660062086.07761,1381449.6790851,385
1660062086.07761,1381449.6790874,-798
1660062086.07761,1381449.6790947,-621
1660062086.07761,1381449.6791056,37
1660062086.07761,1381449.6791091,-44
1660062086.07761,1381449.6791128,-182
1660062086.07761,1381449.6791149,-9
1660062086.07761,1381449.6791169,18
1660062086.07761,1381449.6791226,-39
1660062086.07761,1381449.6791335,18
1660062086.07761,1381449.6791385,58
1660062086.07761,1381449.6791405,37
1660062086.07761,1381449.6791435,42
1660062086.07761,1381450.1668398,63
1660062086.07761,1381450.1668629,70
1660062086.07761,1381450.1668787,86
1660062086.07761,1381450.1668941,105
1660062086.07761,1381450.1669077,116
1660062086.07761,1381450.166922,133
1660062086.07761,1381450.1669367,161
1660062086.08759,1381450.1669503,177
1660062086.08759,1381450.1669638,182
1660062086.08759,1381450.1669704,186
1660062086.08759,1381450.1669727,189
1660062086.08759,1381450.1669747,191
1660062086.08759,1381450.1669768,186
1660062086.08759,1381450.1669787,165
1660062086.08759,1381450.1669819,133
1660062086.08759,1381450.1669945,100
1660062086.08759,1381450.1670007,77
1660062086.08759,1381450.1670028,53
1660062086.08759,1381450.167005,30
1660062086.08759,1381450.167007,14
1660062086.08759,1381450.1670091,-21
1660062086.08759,1381450.1670123,-56
1660062086.08759,1381450.1670249,-56
1660062086.08759,1381450.1670309,-46
1660062086.08759,1381450.1670331,-42
1660062086.08759,1381450.1670351,-35
1660062086.08759,1381450.1670372,-39
1660062086.08759,1381450.1670432,-51
1660062086.08759,1381450.1670546,-42
1660062086.08759,1381450.1670598,-25
1660062086.08759,1381450.1670619,-18
1660062086.61278,1381450.1670639,-7
1660062086.61278,1381450.167066,0
1660062086.61278,1381450.1670679,-2
1660062086.61278,1381450.1670698,4
1660062086.61278,1381450.1670724,21
1660062086.61278,1381450.1670742,30
1660062086.61278,1381450.1670761,35
1660062086.61278,1381450.1670779,42
1660062086.61278,1381450.1670798,37
1660062086.61278,1381450.1670817,32
1660062086.61278,1381450.1670857,37
1660062086.61278,1381450.1670944,44
1660062086.61278,1381450.167099,49
1660062086.61278,1381450.1671027,44
1660062086.61278,1381450.1671074,39
1660062086.61278,1381450.1671125,37
1660062086.61278,1381450.1671174,39
1660062086.61278,1381450.1671241,44
1660062086.61278,1381450.1671293,53
1660062086.61278,1381450.1671366,77
1660062086.61278,1381450.1671461,91
1660062086.61278,1381450.167156,72
1660062086.61278,1381450.1671666,44
1660062086.61278,1381450.167174,39
1660062086.61278,1381450.1671828,49
1660062086.61278,1381450.167188,56
1660062086.61278,1381450.167192,56
1660062086.61278,1381450.1671939,60
1660062086.61278,1381450.1671959,56
1660062086.61278,1381450.1671979,25
1660062086.61278,1381450.1671999,177
1660062086.61278,1381450.1672031,766
1660062086.61278,1381450.1672161,1506
1660062086.61278,1381450.1672276,1737
1660062086.61278,1381450.1672407,894
1660062086.61278,1381450.1672492,-478
1660062086.61278,1381450.1672566,-768
1660062086.61278,1381450.1672591,-91
1660062086.61278,1381450.1672611,42
1660062086.61278,1381450.1672631,-184
1660062086.61278,1381450.1672652,-70
1660062086.61278,1381450.1672677,28
1660062086.61278,1381450.7051237,-37
1660062086.61278,1381450.7051414,-16
1660062086.61278,1381450.7051709,37
1660062086.61278,1381450.7051796,30
1660062086.61278,1381450.7051841,30
1660062086.61278,1381450.705187,53
1660062086.61278,1381450.7051899,63
1660062086.61278,1381450.7051927,65
1660062086.62375,1381450.7051962,70
1660062086.62375,1381450.7052092,88
1660062086.62375,1381450.7052168,105
1660062086.62375,1381450.70522,102
1660062086.62375,1381450.705222,116
1660062086.62375,1381450.705224,147
1660062086.62375,1381450.7052259,165
1660062086.62375,1381450.7052287,168
1660062086.62375,1381450.705239,158
1660062086.62375,1381450.7052525,142
1660062086.62375,1381450.7052666,121
1660062086.62375,1381450.7052801,102
1660062086.62375,1381450.705289,81
1660062086.62375,1381450.7052915,56
1660062086.62375,1381450.7052935,25
1660062086.62375,1381450.7052956,-9
1660062086.62375,1381450.7052977,-37
1660062086.62375,1381450.7052997,-53
1660062086.62375,1381450.7053017,-72
1660062086.62375,1381450.7053037,-81
1660062086.62375,1381450.7053056,-74
1660062086.62375,1381450.7053077,-72
1660062086.62375,1381450.7053097,-74
1660062086.62375,1381450.7053116,-65
1660062087.20297,1381450.7053137,-49
1660062087.20297,1381450.7053156,-35
1660062087.20297,1381450.7053175,-21
1660062087.20297,1381450.7053194,-11
1660062087.20297,1381450.7053213,-4
1660062087.20297,1381450.7053232,2
1660062087.20297,1381450.7053252,14
1660062087.20297,1381450.7053307,18
1660062087.20297,1381450.7053382,18
1660062087.20297,1381450.7053446,28
1660062087.20297,1381450.7053496,37
1660062087.20297,1381450.7053565,35
1660062087.20297,1381450.705363,37
1660062087.20297,1381450.7053699,42
1660062087.20297,1381450.7053733,42
1660062087.20297,1381450.7053863,49
1660062087.20297,1381450.7053999,51
1660062087.20297,1381450.7054089,44
1660062087.20297,1381450.7054121,39
1660062087.20297,1381450.7054142,42
1660062087.20297,1381450.7054161,46
1660062087.20297,1381450.7054183,56
1660062087.20297,1381450.7054202,60
1660062087.20297,1381450.7054222,72
1660062087.20297,1381450.7054243,91
1660062087.20297,1381450.7054262,84
1660062087.20297,1381450.7054282,60
1660062087.20297,1381450.7054302,51
1660062087.20297,1381450.7054339,58
1660062087.20297,1381450.705447,53
1660062087.20297,1381450.7054525,58
1660062087.20297,1381450.7054547,72
1660062087.20297,1381450.7054567,79
1660062087.20297,1381450.7054587,67
1660062087.20297,1381450.7054607,158
1660062087.20297,1381450.7054672,616
1660062087.20297,1381450.7054782,1291
1660062087.20297,1381450.7054831,1609
1660062087.20297,1381450.7054851,1027
1660062087.20297,1381450.7054872,-324
1660062087.20297,1381450.7054893,-955
1660062087.20297,1381451.2879377,-303
1660062087.20297,1381451.2879568,67
1660062087.20297,1381451.2879623,-165
1660062087.20297,1381451.2879685,-116
1660062087.20297,1381451.2879729,39
1660062087.20297,1381451.2879815,-11
1660062087.20297,1381451.2879937,-21
1660062087.20297,1381451.287999,28
1660062087.20297,1381451.288007,4
1660062087.21295,1381451.2880129,0
1660062087.21295,1381451.2880261,49
1660062087.21295,1381451.288038,65
1660062087.21295,1381451.2880449,70
1660062087.21295,1381451.2880495,95
1660062087.21295,1381451.2880569,119
1660062087.21295,1381451.2880694,137
1660062087.21295,1381451.2880756,170
1660062087.21295,1381451.2880779,212
1660062087.21295,1381451.2880848,245
1660062087.21295,1381451.2880973,254
1660062087.21295,1381451.2881044,238
1660062087.21295,1381451.2881069,228
1660062087.21295,1381451.2881123,224
1660062087.21295,1381451.2881249,207
1660062087.21295,1381451.2881329,186
1660062087.21295,1381451.2881353,163
1660062087.21295,1381451.2881387,126
1660062087.21295,1381451.288151,77
1660062087.21295,1381451.2881598,30
1660062087.21295,1381451.2881645,-9
1660062087.21295,1381451.2881701,-39
1660062087.21295,1381451.2881828,-63
1660062087.21295,1381451.2881891,-79
1660062087.72987,1381451.2881992,-84
1660062087.72987,1381451.2882119,-86
1660062087.72987,1381451.2882181,-77
1660062087.72987,1381451.2882273,-65
1660062087.72987,1381451.2882342,-56
1660062087.72987,1381451.2882379,-44
1660062087.72987,1381451.2882418,-25
1660062087.72987,1381451.2882457,-14
1660062087.72987,1381451.2882495,0
1660062087.72987,1381451.2882532,16
1660062087.72987,1381451.2882566,28
1660062087.72987,1381451.2882599,37
1660062087.72987,1381451.2882632,37
1660062087.72987,1381451.2882665,37
1660062087.72987,1381451.2882701,49
1660062087.72987,1381451.2882752,53
1660062087.72987,1381451.2882789,46
1660062087.72987,1381451.2882824,49
1660062087.72987,1381451.2882859,49
1660062087.72987,1381451.2882902,37
1660062087.72987,1381451.2882934,42
1660062087.72987,1381451.2882965,56
1660062087.72987,1381451.2882996,63
1660062087.72987,1381451.2883029,67
1660062087.72987,1381451.2883062,70
1660062087.72987,1381451.2883094,84
1660062087.72987,1381451.2883138,84
1660062087.72987,1381451.2883172,53
1660062087.72987,1381451.2883207,25
1660062087.72987,1381451.2883248,23
1660062087.72987,1381451.2883284,30
1660062087.72987,1381451.288333,32
1660062087.72987,1381451.2883384,37
1660062087.72987,1381451.28835,32
1660062087.72987,1381451.2883563,21
1660062087.72987,1381451.2883605,25
1660062087.72987,1381451.288367,175
1660062087.72987,1381451.2883777,644
1660062087.72987,1381451.2883894,1214
1660062087.72987,1381451.2884031,1371
1660062087.72987,1381451.8243361,684
1660062087.72987,1381451.8243533,-597
1660062087.72987,1381451.824358,-997
1660062087.72987,1381451.8243647,-252
1660062087.72987,1381451.8243688,77
1660062087.72987,1381451.8243751,-128
1660062087.72987,1381451.8243792,-53
1660062087.72987,1381451.8243831,72
1660062087.72987,1381451.8243882,21
1660062087.72987,1381451.8243928,21
1660062087.74085,1381451.8243979,63
1660062087.74085,1381451.8244023,37
1660062087.74085,1381451.8244062,35
1660062087.74085,1381451.82441,77
1660062087.74085,1381451.8244154,93
1660062087.74085,1381451.8244194,102
1660062087.74085,1381451.8244247,123
1660062087.74085,1381451.8244285,123
1660062087.74085,1381451.8244338,123
1660062087.74085,1381451.8244373,154
1660062087.74085,1381451.824443,186
1660062087.74085,1381451.8244486,203
1660062087.74085,1381451.8244532,219
1660062087.74085,1381451.8244586,235
1660062087.74085,1381451.8244631,242
1660062087.74085,1381451.8244666,245
1660062087.74085,1381451.8244704,231
1660062087.74085,1381451.8244757,200
1660062087.74085,1381451.8244819,175
1660062087.74085,1381451.8244871,130
1660062087.74085,1381451.8244912,63
1660062087.74085,1381451.8244964,16
1660062087.74085,1381451.8244999,0
1660062087.74085,1381451.8245057,-18
1660062088.26749,1381451.8245092,-42
1660062088.26749,1381451.8245126,-58
1660062088.26749,1381451.824516,-65
1660062088.26749,1381451.8245194,-58
1660062088.26749,1381451.8245229,-46
1660062088.26749,1381451.8245262,-42
1660062088.26749,1381451.8245298,-28
1660062088.26749,1381451.8245335,-9
1660062088.26749,1381451.8245371,4
1660062088.26749,1381451.8245409,25
1660062088.26749,1381451.8245446,42
1660062088.26749,1381451.8245486,53
1660062088.26749,1381451.8245522,70
1660062088.26749,1381451.8245559,86
1660062088.26749,1381451.8245611,88
1660062088.26749,1381451.8245661,86
1660062088.26749,1381451.824572,88
1660062088.26749,1381451.8245759,86
1660062088.26749,1381451.8245819,77
1660062088.26749,1381451.8245855,74
1660062088.26749,1381451.824589,74
1660062088.26749,1381451.8245927,67
1660062088.26749,1381451.8245982,70
1660062088.26749,1381451.8246042,79
1660062088.26749,1381451.8246081,79
1660062088.26749,1381451.8246118,79
1660062088.26749,1381451.8246156,77
1660062088.26749,1381451.8246211,84
1660062088.26749,1381451.8246248,102
1660062088.26749,1381451.8246285,100
1660062088.26749,1381451.824632,81
1660062088.26749,1381451.8246356,74
1660062088.26749,1381451.8246392,79
1660062088.26749,1381451.8246432,81
1660062088.26749,1381451.8246468,86
1660062088.26749,1381451.8246504,98
1660062088.26749,1381451.8246546,102
1660062088.26749,1381451.8246676,79
1660062088.26749,1381451.8246721,163
1660062088.26749,1381452.3600897,632
1660062088.26749,1381452.3601088,1368
1660062088.26749,1381452.3601239,1835
1660062088.26749,1381452.3601373,1445
1660062088.26749,1381452.3601462,109
1660062088.26749,1381452.360149,-731
1660062088.26749,1381452.3601514,-240
1660062088.26749,1381452.3601535,107
1660062088.26749,1381452.3601555,-170
1660062088.26749,1381452.3601576,-158
1660062088.26749,1381452.3601596,2
1660062088.28151,1381452.3601616,-58
1660062088.28151,1381452.3601637,-77
1660062088.28151,1381452.3601658,-21
1660062088.28151,1381452.3601679,-46
1660062088.28151,1381452.3601699,-65
1660062088.28151,1381452.3601719,-32
1660062088.28151,1381452.360174,-25
1660062088.28151,1381452.3601761,-28
1660062088.28151,1381452.3601781,-7
1660062088.28151,1381452.3601801,2
1660062088.28151,1381452.360182,9
1660062088.28151,1381452.3601841,32
1660062088.28151,1381452.3601873,58
1660062088.28151,1381452.3601965,81
1660062088.28151,1381452.3602055,102
1660062088.28151,1381452.3602128,107
1660062088.28151,1381452.360217,102
1660062088.28151,1381452.3602208,105
1660062088.28151,1381452.3602256,102
1660062088.28151,1381452.3602308,93
1660062088.28151,1381452.3602355,86
1660062088.28151,1381452.3602391,74
1660062088.28151,1381452.3602428,42
1660062088.28151,1381452.3602485,16
1660062088.85524,1381452.3602536,0
1660062088.85524,1381452.3602578,-18
1660062088.85524,1381452.3602614,-28
1660062088.85524,1381452.3602652,-28
1660062088.85524,1381452.3602687,-25
1660062088.85524,1381452.3602721,-25
1660062088.85524,1381452.3602755,-30
1660062088.85524,1381452.3602793,-30
1660062088.85524,1381452.3602831,-25
1660062088.85524,1381452.3602891,-21
1660062088.85524,1381452.360293,-18
1660062088.85524,1381452.3602985,-16
1660062088.85524,1381452.360302,-14
1660062088.85524,1381452.3603073,-2
1660062088.85524,1381452.3603139,11
1660062088.85524,1381452.3603174,16
1660062088.85524,1381452.3603207,16
1660062088.85524,1381452.3603258,14
1660062088.85524,1381452.3603291,0
1660062088.85524,1381452.3603323,-7
1660062088.85524,1381452.3603356,2
1660062088.85524,1381452.3603404,9
1660062088.85524,1381452.3603452,7
1660062088.85524,1381452.3603487,-2
1660062088.85524,1381452.3603524,-9
1660062088.85524,1381452.3603576,0
1660062088.85524,1381452.3603616,11
1660062088.85524,1381452.3603667,21
1660062088.85524,1381452.3603713,28
1660062088.85524,1381452.3603748,39
1660062088.85524,1381452.36038,46
1660062088.85524,1381452.3603851,44
1660062088.85524,1381452.3603887,35
1660062088.85524,1381452.3603921,23
1660062088.85524,1381452.3603971,32
1660062088.85524,1381452.3604019,53
1660062088.85524,1381452.3604072,51
1660062088.85524,1381452.3604125,37
1660062088.85524,1381452.9452168,44
1660062088.85524,1381452.9452297,30
1660062088.85524,1381452.9452339,100
1660062088.85524,1381452.9452364,534
1660062088.85524,1381452.9452387,1191
1660062088.85524,1381452.945241,1599
1660062088.85524,1381452.9452431,1319
1660062088.85524,1381452.9452453,93
1660062088.85524,1381452.9452476,-847
1660062088.85524,1381452.9452499,-392
1660062088.85524,1381452.945252,74
1660062088.85524,1381452.9452542,-184
1660062088.86721,1381452.9452565,-205
1660062088.86721,1381452.9452587,4
1660062088.86721,1381452.9452609,-32
1660062088.86721,1381452.9452631,-81
1660062088.86721,1381452.9452653,-11
1660062088.86721,1381452.9452674,2
1660062088.86721,1381452.9452697,-16
1660062088.86721,1381452.9452719,16
1660062088.86721,1381452.945274,44
1660062088.86721,1381452.9452762,42
1660062088.86721,1381452.9452783,32
1660062088.86721,1381452.9452804,44
1660062088.86721,1381452.9452827,95
1660062088.86721,1381452.9452849,140
1660062088.86721,1381452.945287,130
1660062088.86721,1381452.9452898,114
1660062088.86721,1381452.9452976,144
1660062088.86721,1381452.9453084,179
1660062088.86721,1381452.9453111,177
1660062088.86721,1381452.9453132,170
1660062088.86721,1381452.9453152,161
1660062088.86721,1381452.9453173,130
1660062088.86721,1381452.9453193,114
1660062088.86721,1381452.9453213,100
1660062089.43267,1381452.9453233,46
1660062089.43267,1381452.9453253,0
1660062089.43267,1381452.9453325,7
1660062089.43267,1381452.9453415,7
1660062089.43267,1381452.9453446,-25
1660062089.43267,1381452.9453465,-23
1660062089.43267,1381452.9453484,-2
1660062089.43267,1381452.9453503,-11
1660062089.43267,1381452.9453528,-18
1660062089.43267,1381452.9453606,-11
1660062089.43267,1381452.9453684,-30
1660062089.43267,1381452.9453787,-39
1660062089.43267,1381452.945382,-30
1660062089.43267,1381452.9453855,-35
1660062089.43267,1381452.9453875,-25
1660062089.43267,1381452.9453905,21
1660062089.43267,1381452.9453925,56
1660062089.43267,1381452.9453945,46
1660062089.43267,1381452.9453964,11
1660062089.43267,1381452.9453985,-14
1660062089.43267,1381452.9454005,0
1660062089.43267,1381452.9454025,39
1660062089.43267,1381452.9454045,67
1660062089.43267,1381452.9454065,70
1660062089.43267,1381452.9454085,86
1660062089.43267,1381452.9454106,98
1660062089.43267,1381452.9454125,37
1660062089.43267,1381452.9454146,-25
1660062089.43267,1381452.9454165,42
1660062089.43267,1381452.9454185,135
1660062089.43267,1381452.9454205,88
1660062089.43267,1381452.9454225,32
1660062089.43267,1381452.9454245,93
1660062089.43267,1381452.9454265,126
1660062089.43267,1381452.9454284,86
1660062089.43267,1381452.9454304,53
1660062089.43267,1381452.9454324,63
1660062089.43267,1381453.530274,84
1660062089.43267,1381453.5302855,88
1660062089.43267,1381453.5302909,98
1660062089.43267,1381453.530296,102
1660062089.43267,1381453.5302981,95
1660062089.43267,1381453.5303001,102
1660062089.43267,1381453.5303021,98
1660062089.43267,1381453.530304,30
1660062089.43267,1381453.530306,79
1660062089.43267,1381453.530308,588
1660062089.43267,1381453.5303101,1385
1660062089.43267,1381453.530312,1863
1660062089.43267,1381453.530314,1417
1660062089.44464,1381453.5303159,7
1660062089.44464,1381453.5303223,-829
1660062089.44464,1381453.5303316,-291
1660062089.44464,1381453.5303388,91
1660062089.44464,1381453.5303492,-144
1660062089.44464,1381453.530355,-135
1660062089.44464,1381453.5303573,0
1660062089.44464,1381453.5303603,-67
1660062089.44464,1381453.5303677,-112
1660062089.44464,1381453.5303781,-28
1660062089.44464,1381453.5303885,25
1660062089.44464,1381453.5303928,-18
1660062089.44464,1381453.5303949,-58
1660062089.44464,1381453.530397,-23
1660062089.44464,1381453.5303992,32
1660062089.44464,1381453.5304012,23
1660062089.44464,1381453.5304033,9
1660062089.44464,1381453.5304053,58
1660062089.44464,1381453.5304085,91
1660062089.44464,1381453.5304203,65
1660062089.44464,1381453.5304234,35
1660062089.44464,1381453.5304311,105
1660062089.44464,1381453.5304438,198
1660062089.44464,1381453.5304506,165
1660062089.97752,1381453.5304529,109
1660062089.97752,1381453.5304549,123
1660062089.97752,1381453.5304568,105
1660062089.97752,1381453.5304587,58
1660062089.97752,1381453.5304606,84
1660062089.97752,1381453.5304625,93
1660062089.97752,1381453.5304643,21
1660062089.97752,1381453.5304662,-21
1660062089.97752,1381453.5304681,-23
1660062089.97752,1381453.5304701,-46
1660062089.97752,1381453.530472,-56
1660062089.97752,1381453.5304749,-46
1660062089.97752,1381453.5304835,-60
1660062089.97752,1381453.530488,-67
1660062089.97752,1381453.5304918,-42
1660062089.97752,1381453.5304955,-21
1660062089.97752,1381453.5304992,-23
1660062089.97752,1381453.5305455,-25
1660062089.97752,1381453.5305527,-21
1660062089.97752,1381453.530556,-30
1660062089.97752,1381453.5305581,-37
1660062089.97752,1381453.5305601,-25
1660062089.97752,1381453.5305621,-14
1660062089.97752,1381453.5305643,-14
1660062089.97752,1381453.530573,-9
1660062089.97752,1381453.5305856,0
1660062089.97752,1381453.5306003,4
1660062089.97752,1381453.5306139,2
1660062089.97752,1381453.5306268,0
1660062089.97752,1381453.5306322,0
1660062089.97752,1381453.530637,11
1660062089.97752,1381453.5306419,18
1660062089.97752,1381453.5306494,7
1660062089.97752,1381453.530658,-7
1660062089.97752,1381453.5306708,-9
1660062089.97752,1381453.5306802,2
1660062089.97752,1381454.0687989,11
1660062089.97752,1381454.0688105,7
1660062089.97752,1381454.0688139,-4
1660062089.97752,1381454.068818,-2
1660062089.97752,1381454.0688202,4
1660062089.97752,1381454.0688237,14
1660062089.97752,1381454.068826,30
1660062089.97752,1381454.0688282,49
1660062089.97752,1381454.0688304,56
1660062089.97752,1381454.0688326,37
1660062089.97752,1381454.0688349,-2
1660062089.97752,1381454.0688371,-23
1660062089.97752,1381454.0688393,-14
1660062089.97752,1381454.0688415,-9
1660062089.98749,1381454.0688437,-7
1660062089.98749,1381454.0688458,-2
1660062089.98749,1381454.068848,-21
1660062089.98749,1381454.0688502,-42
1660062089.98749,1381454.0688525,170
1660062089.98749,1381454.0688548,763
1660062089.98749,1381454.068857,1352
1660062089.98749,1381454.0688592,1443
1660062089.98749,1381454.0688613,646
1660062089.98749,1381454.0688634,-653
1660062089.98749,1381454.0688657,-941
1660062089.98749,1381454.0688679,-219
1660062089.98749,1381454.0688702,0
1660062089.98749,1381454.0688724,-193
1660062089.98749,1381454.0688746,-98
1660062089.98749,1381454.0688768,-2
1660062089.98749,1381454.068879,-56
1660062089.98749,1381454.0688811,-35
1660062089.98749,1381454.0688833,0
1660062089.98749,1381454.0688854,-28
1660062089.98749,1381454.0688876,-30
1660062089.98749,1381454.0688899,0
1660062089.98749,1381454.0688921,16
1660062089.98749,1381454.0688944,25
1660062090.65104,1381454.0688965,39
1660062090.65104,1381454.0688987,60
1660062090.65104,1381454.0689008,91
1660062090.65104,1381454.0689029,112
1660062090.65104,1381454.068905,128
1660062090.65104,1381454.0689075,156
1660062090.65104,1381454.0689097,179
1660062090.65104,1381454.0689118,186
1660062090.65104,1381454.0689138,198
1660062090.65104,1381454.0689159,196
1660062090.65104,1381454.068918,154
1660062090.65104,1381454.0689202,121
1660062090.65104,1381454.0689224,123
1660062090.65104,1381454.0689244,102
1660062090.65104,1381454.0689265,49
1660062090.65104,1381454.0689285,16
1660062090.65104,1381454.0689315,0
1660062090.65104,1381454.068936,-30
1660062090.65104,1381454.068941,-58
1660062090.65104,1381454.0689458,-58
1660062090.65104,1381454.068953,-58
1660062090.65104,1381454.0689576,-70
1660062090.65104,1381454.0689612,-63
1660062090.65104,1381454.0689646,-44
1660062090.65104,1381454.0689667,-49
1660062090.65104,1381454.0689687,-53
1660062090.65104,1381454.0689708,-25
1660062090.65104,1381454.0689728,11
1660062090.65104,1381454.0689748,35
1660062090.65104,1381454.0689768,32
1660062090.65104,1381454.0689788,14
1660062090.65104,1381454.0689808,11
1660062090.65104,1381454.0689828,23
1660062090.65104,1381454.0689848,37
1660062090.65104,1381454.0689868,58
1660062090.65104,1381454.7491871,79
1660062090.65104,1381454.7492047,84
1660062090.65104,1381454.7492146,63
1660062090.65104,1381454.7492256,49
1660062090.65104,1381454.7492369,72
1660062090.65104,1381454.7492446,93
1660062090.65104,1381454.7492481,70
1660062090.65104,1381454.7492538,28
1660062090.65104,1381454.7492579,7
1660062090.65104,1381454.7492625,23
1660062090.65104,1381454.7492678,49
1660062090.65104,1381454.7492711,51
1660062090.65104,1381454.7492743,42
1660062090.65104,1381454.7492776,32
1660062090.65104,1381454.7492808,28
1660062090.66201,1381454.7492871,44
1660062090.66201,1381454.7492907,70
1660062090.66201,1381454.749294,77
1660062090.66201,1381454.7492974,79
1660062090.66201,1381454.7493007,79
1660062090.66201,1381454.749305,56
1660062090.66201,1381454.7493101,39
1660062090.66201,1381454.7493135,46
1660062090.66201,1381454.7493182,56
1660062090.66201,1381454.7493215,53
1660062090.66201,1381454.7493249,46
1660062090.66201,1381454.74933,32
1660062090.66201,1381454.749334,16
1660062090.66201,1381454.7493389,16
1660062090.66201,1381454.7493423,263
1660062090.66201,1381454.7493457,927
1660062090.66201,1381454.7493504,1574
1660062090.66201,1381454.7493538,1581
1660062090.66201,1381454.7493572,597
1660062090.66201,1381454.7493698,-672
1660062090.66201,1381454.7493899,-749
1660062090.66201,1381454.7493997,-51
1660062090.66201,1381454.7494063,44
1660062090.66201,1381454.7494102,-128
1660062091.14417,1381454.7494159,-11
1660062091.14417,1381454.7494198,44
1660062091.14417,1381454.7494236,-4
1660062091.14417,1381454.7494272,49
1660062091.14417,1381454.7494305,88
1660062091.14417,1381454.7494336,56
1660062091.14417,1381454.749437,67
1660062091.14417,1381454.7494402,105
1660062091.14417,1381454.7494434,109
1660062091.14417,1381454.7494467,121
1660062091.14417,1381454.7494499,161
1660062091.14417,1381454.7494533,193
1660062091.14417,1381454.7494565,196
1660062091.14417,1381454.7494597,196
1660062091.14417,1381454.7494628,235
1660062091.14417,1381454.7494659,298
1660062091.14417,1381454.7494689,310
1660062091.14417,1381454.749472,280
1660062091.14417,1381454.749475,263
1660062091.14417,1381454.749478,252
1660062091.14417,1381454.749481,226
1660062091.14417,1381454.7494842,212
1660062091.14417,1381454.7494874,198
1660062091.14417,1381454.7494905,156
1660062091.14417,1381454.7494938,128
1660062091.14417,1381454.7494969,107
1660062091.14417,1381454.7495001,56
1660062091.14417,1381454.7495032,7
1660062091.14417,1381454.7495064,-18
1660062091.14417,1381454.7495096,-37
1660062091.14417,1381454.7495126,-42
1660062091.14417,1381454.7495157,-32
1660062091.14417,1381454.7495187,-28
1660062091.14417,1381454.7495218,-21
1660062091.14417,1381455.2363614,-2
1660062091.14417,1381455.2363732,-2
1660062091.14417,1381455.2363773,2
1660062091.14417,1381455.2363812,44
1660062091.14417,1381455.2363842,53
1660062091.14417,1381455.2363887,28
1660062091.14417,1381455.2363933,32
1660062091.14417,1381455.2364008,37
1660062091.14417,1381455.2364064,23
1660062091.14417,1381455.236413,39
1660062091.14417,1381455.2364197,42
1660062091.14417,1381455.2364286,9
1660062091.14417,1381455.2364327,16
1660062091.14417,1381455.2364364,60
1660062091.14417,1381455.2364402,63
1660062091.14417,1381455.2364441,53
1660062091.15514,1381455.2364503,77
1660062091.15514,1381455.2364572,72
1660062091.15514,1381455.2364708,-18
1660062091.15514,1381455.2364816,-114
1660062091.15514,1381455.236485,-42
1660062091.15514,1381455.2364889,135
1660062091.15514,1381455.236491,147
1660062091.15514,1381455.2364939,28
1660062091.15514,1381455.2364967,35
1660062091.15514,1381455.2365033,105
1660062091.15514,1381455.2365141,49
1660062091.15514,1381455.236519,-23
1660062091.15514,1381455.2365215,46
1660062091.15514,1381455.2365257,107
1660062091.15514,1381455.236536,39
1660062091.15514,1381455.2365466,7
1660062091.15514,1381455.2365499,70
1660062091.15514,1381455.2365528,93
1660062091.15514,1381455.2365557,114
1660062091.15514,1381455.2365624,154
1660062091.15514,1381455.2365732,317
1660062091.15514,1381455.2365779,882
1660062091.15514,1381455.23658,1478
1660062091.15514,1381455.236582,1427
1660062091.63887,1381455.2365844,492
1660062091.63887,1381455.2365919,-674
1660062091.63887,1381455.2366033,-768
1660062091.63887,1381455.2366104,-95
1660062091.63887,1381455.2366146,91
1660062091.63887,1381455.2366184,-25
1660062091.63887,1381455.236623,44
1660062091.63887,1381455.236628,121
1660062091.63887,1381455.2366322,98
1660062091.63887,1381455.2366412,79
1660062091.63887,1381455.236647,77
1660062091.63887,1381455.2366493,84
1660062091.63887,1381455.2366514,158
1660062091.63887,1381455.2366539,228
1660062091.63887,1381455.2366559,191
1660062091.63887,1381455.2366578,151
1660062091.63887,1381455.2366599,226
1660062091.63887,1381455.2366619,284
1660062091.63887,1381455.2366638,238
1660062091.63887,1381455.2366658,259
1660062091.63887,1381455.2366678,352
1660062091.63887,1381455.2366742,340
1660062091.63887,1381455.2366854,319
1660062091.63887,1381455.2366888,408
1660062091.63887,1381455.2366909,420
1660062091.63887,1381455.2366929,308
1660062091.63887,1381455.2366948,249
1660062091.63887,1381455.2366968,266
1660062091.63887,1381455.2366996,254
1660062091.63887,1381455.2367098,175
1660062091.63887,1381455.2367218,107
1660062091.63887,1381455.2367368,93
1660062091.63887,1381455.2367507,46
1660062091.63887,1381455.7269087,7
1660062091.63887,1381455.7269297,23
1660062091.63887,1381455.7269442,0
1660062091.63887,1381455.7269536,-56
1660062091.63887,1381455.7269622,-37
1660062091.63887,1381455.7269707,21
1660062091.63887,1381455.7269756,0

1660062091.63887,1381455.7269885,-51
1660062091.63887,1381455.7270025,-44
1660062091.63887,1381455.7270161,-23
1660062091.63887,1381455.7270295,2
1660062091.63887,1381455.7270432,14
1660062091.63887,1381455.7270567,7
1660062091.63887,1381455.7270701,-9
1660062091.63887,1381455.7270839,-28
1660062091.63887,1381455.7270993,-9
1660062091.63887,1381455.7271096,9
1660062091.64984,1381455.7273628,-14
1660062091.64984,1381455.7273679,-18
1660062091.64984,1381455.7273732,-21
1660062091.64984,1381455.7273793,-28
1660062091.64984,1381455.7273828,-2
1660062091.64984,1381455.7273863,23
1660062091.64984,1381455.7273897,7
1660062091.64984,1381455.7273929,-11
1660062091.64984,1381455.7273961,21
1660062091.64984,1381455.7273991,42
1660062091.64984,1381455.7274022,21
1660062091.64984,1381455.7274052,23
1660062091.64984,1381455.7274085,46
1660062091.64984,1381455.7274118,35
1660062091.64984,1381455.7274152,2
1660062091.64984,1381455.7274184,28
1660062091.64984,1381455.7274216,105
1660062091.64984,1381455.7274248,95
1660062091.64984,1381455.7274281,25
1660062091.64984,1381455.7274332,39
1660062091.64984,1381455.7274377,70
1660062091.64984,1381455.7274413,18
1660062091.64984,1381455.7274461,-2
1660062091.64984,1381455.7274495,135
1660062092.22079,1381455.7274527,532
1660062092.22079,1381455.7274557,1116
1660062092.22079,1381455.727459,1548
1660062092.22079,1381455.7274621,1385
1660062092.22079,1381455.7274657,261
1660062092.22079,1381455.7274689,-847
1660062092.22079,1381455.7274722,-565
1660062092.22079,1381455.7274756,102
1660062092.22079,1381455.7274792,18
1660062092.22079,1381455.7274825,-102
1660062092.22079,1381455.7274856,35
1660062092.22079,1381455.7274888,46
1660062092.22079,1381455.7274918,39
1660062092.22079,1381455.7274947,95
1660062092.22079,1381455.7274978,56
1660062092.22079,1381455.7275013,32
1660062092.22079,1381455.7275054,123
1660062092.22079,1381455.72751,140
1660062092.22079,1381455.7275134,70
1660062092.22079,1381455.7275215,95
1660062092.22079,1381455.7275333,196
1660062092.22079,1381455.7275452,212
1660062092.22079,1381455.7275546,163
1660062092.22079,1381455.7275618,203
1660062092.22079,1381455.727568,287
1660062092.22079,1381455.7275746,273
1660062092.22079,1381455.7275828,247
1660062092.22079,1381455.7275918,284
1660062092.22079,1381455.727598,287
1660062092.22079,1381455.7276002,217
1660062092.22079,1381455.7276029,165
1660062092.22079,1381455.7276241,207
1660062092.22079,1381456.309732,228
1660062092.22079,1381456.3097458,130
1660062092.22079,1381456.3097495,32
1660062092.22079,1381456.3097527,4
1660062092.22079,1381456.309756,-51
1660062092.22079,1381456.3097591,-147
1660062092.22079,1381456.3097622,-133
1660062092.22079,1381456.3097653,-30
1660062092.22079,1381456.3097684,-30
1660062092.22079,1381456.3097715,-100
1660062092.22079,1381456.3097746,-109
1660062092.22079,1381456.309778,-91
1660062092.22079,1381456.3097908,-84
1660062092.22079,1381456.3098,-70
1660062092.22079,1381456.3098026,-60
1660062092.22079,1381456.3098047,-58
1660062092.22079,1381456.3098068,-81
1660062092.22079,1381456.3098094,-133
1660062092.23276,1381456.3098201,-107
1660062092.23276,1381456.3098281,-7
1660062092.23276,1381456.3098313,11
1660062092.23276,1381456.3098334,-49
1660062092.23276,1381456.3098355,-63
1660062092.23276,1381456.3098376,-28
1660062092.23276,1381456.3098397,-32
1660062092.23276,1381456.3098417,-86
1660062092.23276,1381456.3098437,-72
1660062092.23276,1381456.3098457,30
1660062092.23276,1381456.3098477,30
1660062092.23276,1381456.3098496,-67
1660062092.23276,1381456.3098516,-42
1660062092.23276,1381456.3098536,44
1660062092.23276,1381456.3098556,30
1660062092.23276,1381456.3098576,-14
1660062092.23276,1381456.3098596,4
1660062092.23276,1381456.3098616,58
1660062092.23276,1381456.3098636,81
1660062092.23276,1381456.3098656,44
1660062092.23276,1381456.3098676,9
1660062092.23276,1381456.3098696,21
1660062092.23276,1381456.3098715,30
1660062092.23276,1381456.3098737,14
1660062092.79942,1381456.3098757,14
1660062092.79942,1381456.3098777,63
1660062092.79942,1381456.3098796,79
1660062092.79942,1381456.3098815,49
1660062092.79942,1381456.3098834,245
1660062092.79942,1381456.3098854,824
1660062092.79942,1381456.3098874,1401
1660062092.79942,1381456.3098894,1508
1660062092.79942,1381456.3098913,766
1660062092.79942,1381456.3098932,-485
1660062092.79942,1381456.3098951,-789
1660062092.79942,1381456.309897,-137
1660062092.79942,1381456.3098989,18
1660062092.79942,1381456.3099019,-186
1660062092.79942,1381456.3099039,-37
1660062092.79942,1381456.3099058,93
1660062092.79942,1381456.3099083,-9
1660062092.79942,1381456.3099176,-28
1660062092.79942,1381456.3099314,35
1660062092.79942,1381456.3099415,21
1660062092.79942,1381456.3099505,11
1660062092.79942,1381456.3099556,67
1660062092.79942,1381456.3099583,109
1660062092.79942,1381456.3099701,98
1660062092.79942,1381456.3099771,95
1660062092.79942,1381456.3099795,114
1660062092.79942,1381456.3099825,119
1660062092.79942,1381456.3099897,126
1660062092.79942,1381456.3100004,142
1660062092.79942,1381456.310004,130
1660062092.79942,1381456.3100069,135
1660062092.79942,1381456.8948671,182
1660062092.79942,1381456.894886,212
1660062092.79942,1381456.8948989,203
1660062092.79942,1381456.8949084,165
1660062092.79942,1381456.894911,126
1660062092.79942,1381456.8949131,114
1660062092.79942,1381456.8949151,93
1660062092.79942,1381456.8949173,0
1660062092.79942,1381456.8949207,-81
1660062092.79942,1381456.8949328,-46
1660062092.79942,1381456.8949429,-11
1660062092.79942,1381456.8949544,-53
1660062092.79942,1381456.8949651,-70
1660062092.79942,1381456.8949685,-79
1660062092.79942,1381456.8949714,-140
1660062092.79942,1381456.8949749,-163
1660062092.79942,1381456.8949876,-91
1660062092.79942,1381456.8949943,-37
1660062092.79942,1381456.8949967,-84
1660062092.81039,1381456.8949987,-107
1660062092.81039,1381456.895001,-53
1660062092.81039,1381456.8950106,-30
1660062092.81039,1381456.8950194,-51
1660062092.81039,1381456.895022,-65
1660062092.81039,1381456.8950241,-46
1660062092.81039,1381456.8950301,0
1660062092.81039,1381456.8950413,4
1660062092.81039,1381456.8950465,-30
1660062092.81039,1381456.8950487,-16
1660062092.81039,1381456.8950508,37
1660062092.81039,1381456.8950585,35
1660062092.81039,1381456.8950689,-23
1660062092.81039,1381456.8950724,-28
1660062092.81039,1381456.8950754,49
1660062092.81039,1381456.895085,60
1660062092.81039,1381456.895094,-11
1660062092.81039,1381456.8950966,4
1660062092.81039,1381456.895099,70
1660062092.81039,1381456.895106,44
1660062092.81039,1381456.8951163,28
1660062092.81039,1381456.8951246,98
1660062092.81039,1381456.8951346,102
1660062092.81039,1381456.8951452,25
1660062093.33847,1381456.8951573,11
1660062093.33847,1381456.8951645,56
1660062093.33847,1381456.8951719,72
1660062093.33847,1381456.8951799,53
1660062093.33847,1381456.8951877,51
1660062093.33847,1381456.8951964,86
1660062093.33847,1381456.8952041,88
1660062093.33847,1381456.8952109,112
1660062093.33847,1381456.8952211,457
1660062093.33847,1381456.8952265,1116
1660062093.33847,1381456.8952321,1616
1660062093.33847,1381456.8952372,1445
1660062093.33847,1381456.8952428,289
1660062093.33847,1381456.895248,-796
1660062093.33847,1381456.895253,-497
1660062093.33847,1381456.8952583,112
1660062093.33847,1381456.8952684,-25
1660062093.33847,1381456.8952776,-154
1660062093.33847,1381456.8952871,-4
1660062093.33847,1381456.8952968,35
1660062093.33847,1381456.8953061,11
1660062093.33847,1381456.8953125,30
1660062093.33847,1381456.8953187,28
1660062093.33847,1381456.8953255,16
1660062093.33847,1381456.8953319,37
1660062093.33847,1381456.895339,74
1660062093.33847,1381456.8953468,72
1660062093.33847,1381456.8953546,60
1660062093.33847,1381456.8953612,100
1660062093.33847,1381456.895365,137
1660062093.33847,1381457.430179,126
1660062093.33847,1381457.4301914,123
1660062093.33847,1381457.4301957,140
1660062093.33847,1381457.4301984,151
1660062093.33847,1381457.4302008,179
1660062093.33847,1381457.4302031,207
1660062093.33847,1381457.4302055,207
1660062093.33847,1381457.4302078,205
1660062093.33847,1381457.4302102,189
1660062093.33847,1381457.4302124,154
1660062093.33847,1381457.4302147,107
1660062093.33847,1381457.430217,58
1660062093.33847,1381457.4302193,16
1660062093.33847,1381457.4302215,-25
1660062093.33847,1381457.4302239,-32
1660062093.33847,1381457.4302262,0
1660062093.33847,1381457.4302285,-14
1660062093.33847,1381457.4302307,-74
1660062093.33847,1381457.4302332,-86
1660062093.33847,1381457.4302355,-72
1660062093.35044,1381457.4302377,-86
1660062093.35044,1381457.4302401,-70
1660062093.35044,1381457.4302424,-39
1660062093.35044,1381457.4302446,-65
1660062093.35044,1381457.4302468,-44
1660062093.35044,1381457.4302491,42
1660062093.35044,1381457.4302514,21
1660062093.35044,1381457.4302537,-44
1660062093.35044,1381457.4302561,-30
1660062093.35044,1381457.4302584,0
1660062093.35044,1381457.4302606,9
1660062093.35044,1381457.4302628,-9
1660062093.35044,1381457.4302651,-32
1660062093.35044,1381457.4302673,21
1660062093.35044,1381457.4302695,72
1660062093.35044,1381457.4302718,25
1660062093.35044,1381457.430274,4
1660062093.35044,1381457.4302762,56
1660062093.35044,1381457.4302783,60
1660062093.35044,1381457.4302805,11
1660062093.35044,1381457.4302827,0
1660062093.35044,1381457.4302848,44
1660062093.35044,1381457.4302869,77
1660062093.35044,1381457.4302891,72
1660062093.92702,1381457.4302912,74
1660062093.92702,1381457.4302933,95
1660062093.92702,1381457.4302953,102
1660062093.92702,1381457.4302973,86
1660062093.92702,1381457.4302993,72
1660062093.92702,1381457.4303015,67
1660062093.92702,1381457.4303036,51
1660062093.92702,1381457.4303056,49
1660062093.92702,1381457.4303076,77
1660062093.92702,1381457.4303096,88
1660062093.92702,1381457.4303117,70
1660062093.92702,1381457.4303138,107
1660062093.92702,1381457.4303162,397
1660062093.92702,1381457.430319,1004
1660062093.92702,1381457.4303212,1557
1660062093.92702,1381457.4303231,1492
1660062093.92702,1381457.4303252,411
1660062093.92702,1381457.4303272,-777
1660062093.92702,1381457.4303293,-649
1660062093.92702,1381457.4303313,11
1660062093.92702,1381457.4303335,-32
1660062093.92702,1381457.4303356,-170
1660062093.92702,1381457.4303379,-4
1660062093.92702,1381457.43034,-4
1660062093.92702,1381457.4303422,-93
1660062093.92702,1381457.4303444,16
1660062093.92702,1381457.4303466,105
1660062093.92702,1381457.4303486,37
1660062093.92702,1381457.4303508,25
1660062093.92702,1381458.01568,93
1660062093.92702,1381458.0157015,88
1660062093.92702,1381458.0157079,44
1660062093.92702,1381458.0157104,56
1660062093.92702,1381458.0157125,107
1660062093.92702,1381458.0157146,130
1660062093.92702,1381458.0157203,137
1660062093.92702,1381458.015728,154
1660062093.92702,1381458.0157327,170
1660062093.92702,1381458.0157417,158
1660062093.92702,1381458.0157468,149
1660062093.92702,1381458.015751,175
1660062093.92702,1381458.0157553,165
1660062093.92702,1381458.015761,105
1660062093.92702,1381458.0157651,86
1660062093.92702,1381458.0157703,100
1660062093.92702,1381458.0157752,58
1660062093.92702,1381458.0157836,-18
1660062093.92702,1381458.0157956,-39
1660062093.92702,1381458.015809,-21
