Time,TimeLsl,Value
1660064580.96962,1383943.3174054,193
1660064580.96962,1383943.3174232,210
1660064580.96962,1383943.3174302,228
1660064580.96962,1383943.3174395,263
1660064580.96962,1383943.3174446,291
1660064580.96962,1383943.3174534,310
1660064580.96962,1383943.3174629,329
1660064580.96962,1383943.3174708,326
1660064580.96962,1383943.3174793,303
1660064580.96962,1383943.3174818,273
1660064580.96962,1383943.3174841,219
1660064580.96962,1383943.3174861,161
1660064580.96962,1383943.3174894,119
1660064580.96962,1383943.3174964,63
1660064580.96962,1383943.3175048,-2
1660064580.96962,1383943.3175102,-42
1660064580.96962,1383943.3175184,-86
1660064580.96962,1383943.3175252,-133
1660064580.96962,1383943.3175345,-137
1660064580.96962,1383943.3175427,-126
1660064580.96962,1383943.3175491,-130
1660064580.96962,1383943.3175547,-114
1660064580.96962,1383943.3175656,-91
1660064580.96962,1383943.3175784,-84
1660064580.96962,1383943.3175938,-65
1660064580.96962,1383943.3176077,-35
1660064580.96962,1383943.317621,-14
1660064580.96962,1383943.3176335,-2
1660064580.96962,1383943.317644,0
1660064580.96962,1383943.3176535,2
1660064580.96962,1383943.3176933,7
1660064580.96962,1383943.3177034,14
1660064580.96962,1383943.3177092,16
1660064580.96962,1383943.3177131,0
1660064580.96962,1383943.3177185,-11
1660064580.96962,1383943.317722,4
1660064580.96962,1383943.3177291,16
1660064580.96962,1383943.3177352,23
1660064580.96962,1383943.3177432,37
1660064580.96962,1383943.3177514,53
1660064580.96962,1383943.3177586,65
1660064580.96962,1383943.3177634,53
1660064580.96962,1383943.3177675,16
1660064580.96962,1383943.3177733,-2
1660064580.96962,1383943.3177778,21
1660064580.96962,1383943.3177858,42
1660064580.96962,1383943.3177919,35
1660064580.96962,1383943.3177968,30
1660064580.96962,1383943.3178052,42
1660064580.96962,1383943.3178142,65
1660064581.09728,1383943.3178204,224
1660064581.09728,1383943.3178237,611
1660064581.09728,1383943.3178284,962
1660064581.09728,1383943.3178313,994
1660064581.09728,1383943.3178344,418
1660064581.09728,1383943.3178396,-642
1660064581.09728,1383943.3178433,-857
1660064581.09728,1383943.3178495,-88
1660064581.09728,1383943.3178554,170
1660064581.09728,1383943.317862,-49
1660064581.09728,1383943.3178675,32
1660064581.09728,1383943.3178714,137
1660064581.09728,1383943.3178756,77
1660064581.09728,1383943.3178791,86
1660064581.09728,1383943.3178853,121
1660064581.09728,1383943.3178891,91
1660064581.09728,1383943.317894,95
1660064581.09728,1383943.3178979,142
1660064581.09728,1383943.3179031,158
1660064581.09728,1383943.3179064,172
1660064581.09728,1383943.3179117,203
1660064581.09728,1383943.3179153,226
1660064581.09728,1383943.3179212,245
1660064581.09728,1383943.8568058,275
1660064581.09728,1383943.856831,296
1660064581.09728,1383943.856837,291
1660064581.09728,1383943.8568413,296
1660064581.09728,1383943.8568461,303
1660064581.09728,1383943.8568546,282
1660064581.09728,1383943.8568604,245
1660064581.09728,1383943.856865,203
1660064581.09728,1383943.8568689,151
1660064581.09728,1383943.8568752,88
1660064581.09728,1383943.8568811,30
1660064581.09728,1383943.8568902,-7
1660064581.09728,1383943.8568969,-37
1660064581.09728,1383943.8569018,-88
1660064581.09728,1383943.856907,-123
1660064581.09728,1383943.8569119,-121
1660064581.09728,1383943.8569166,-116
1660064581.09728,1383943.856927,-114
1660064581.09728,1383943.8569324,-98
1660064581.09728,1383943.8569392,-79
1660064581.09728,1383943.856946,-60
1660064581.09728,1383943.856953,-42
1660064581.09728,1383943.8569587,-32
1660064581.09728,1383943.8569628,-18
1660064581.09728,1383943.856966,-2
1660064581.09728,1383943.856969,7
1660064581.09728,1383943.8569744,0
1660064581.16431,1383943.8569796,-2
1660064581.16431,1383943.8569829,14
1660064581.16431,1383943.8569891,28
1660064581.16431,1383943.856996,28
1660064581.16431,1383943.8570028,32
1660064581.16431,1383943.8570085,35
1660064581.16431,1383943.857012,30
1660064581.16431,1383943.8570162,39
1660064581.16431,1383943.8570198,51
1660064581.16431,1383943.8570234,67
1660064581.16431,1383943.8570275,81
1660064581.16431,1383943.857031,63
1660064581.16431,1383943.8570341,37
1660064581.16431,1383943.8570377,32
1660064581.16431,1383943.8570411,42
1660064581.16431,1383943.8570447,42
1660064581.16431,1383943.8570479,46
1660064581.16431,1383943.857052,60
1660064581.16431,1383943.8570556,74
1660064581.16431,1383943.8570597,130
1660064581.16431,1383943.8570634,364
1660064581.16431,1383943.8570671,749
1660064581.16431,1383943.8570702,929
1660064581.16431,1383943.8570736,686
1660064581.16431,1383943.8570793,-72
1660064581.16431,1383943.8570863,-831
1660064581.16431,1383943.8570934,-616
1660064581.16431,1383943.8571003,23
1660064581.16431,1383943.8571072,91
1660064581.16431,1383943.8571144,-9
1660064581.16431,1383943.8571214,98
1660064581.16431,1383943.857126,128
1660064581.16431,1383943.8571305,77
1660064581.16431,1383943.8571344,109
1660064581.16431,1383943.8571382,147
1660064581.16431,1383943.8571415,142
1660064581.16431,1383943.8571452,151
1660064581.16431,1383943.8571493,168
1660064581.16431,1383943.8571529,182
1660064581.16431,1383943.8571567,214
1660064581.16431,1383943.8571603,249
1660064581.16431,1383943.857164,268
1660064581.16431,1383943.8571677,291
1660064581.16431,1383943.8571718,329
1660064581.16431,1383943.8571754,362
1660064581.16431,1383943.8571817,378
1660064581.16431,1383944.4409352,385
1660064581.16431,1383944.4409709,378
1660064581.16431,1383944.4409814,340
1660064581.16431,1383944.4409853,296
1660064581.19024,1383944.4409887,252
1660064581.19024,1383944.4409919,193
1660064581.19024,1383944.4409952,137
1660064581.19024,1383944.4409984,81
1660064581.19024,1383944.4410016,23
1660064581.19024,1383944.4410049,-23
1660064581.19024,1383944.4410082,-65
1660064581.19024,1383944.4410114,-95
1660064581.19024,1383944.4410151,-98
1660064581.19024,1383944.4410184,-93
1660064581.19024,1383944.4410216,-100
1660064581.19024,1383944.4410248,-109
1660064581.19024,1383944.4410281,-119
1660064581.19024,1383944.4410313,-112
1660064581.19024,1383944.4410346,-84
1660064581.19024,1383944.4410378,-60
1660064581.19024,1383944.4410411,-49
1660064581.19024,1383944.4410443,-39
1660064581.19024,1383944.4410475,-42
1660064581.19024,1383944.4410507,-32
1660064581.19024,1383944.441054,-7
1660064581.19024,1383944.4410573,-9
1660064581.19024,1383944.4410605,-21
1660064581.19024,1383944.4410639,0
1660064581.19024,1383944.4410671,25
1660064581.19024,1383944.4410703,16
1660064581.19024,1383944.4410735,9
1660064581.19024,1383944.4410768,21
1660064581.19024,1383944.44108,30
1660064581.19024,1383944.4410832,30
1660064581.19024,1383944.4410864,25
1660064581.19024,1383944.4410897,14
1660064581.19024,1383944.4410931,-2
1660064581.19024,1383944.4410963,-4
1660064581.19024,1383944.4410996,11
1660064581.19024,1383944.4411029,30
1660064581.19024,1383944.4411061,37
1660064581.19024,1383944.4411093,44
1660064581.19024,1383944.4411126,112
1660064581.19024,1383944.4411159,362
1660064581.19024,1383944.4411193,707
1660064581.19024,1383944.4411225,791
1660064581.19024,1383944.4411258,443
1660064581.19024,1383944.4411291,-322
1660064581.19024,1383944.4411325,-894
1660064581.19024,1383944.4411357,-548
1660064581.19024,1383944.441139,9
1660064581.19024,1383944.4411423,35
1660064581.19024,1383944.4411456,-7
1660064581.19024,1383944.4411488,112
1660064581.20221,1383944.441152,128
1660064581.20221,1383944.4411553,86
1660064581.20221,1383944.4411587,121
1660064581.20221,1383944.441162,154
1660064581.20221,1383944.4411654,147
1660064581.20221,1383944.4411687,156
1660064581.20221,1383944.4411719,182
1660064581.20221,1383944.4411752,191
1660064581.20221,1383944.4411784,205
1660064581.20221,1383944.4411816,245
1660064581.20221,1383944.441185,282
1660064581.20221,1383944.4411882,308
1660064581.20221,1383944.4411914,340
1660064581.20221,1383944.4411946,383
1660064581.20221,1383944.441198,415
1660064581.20221,1383944.4412012,418
1660064581.20221,1383944.4412045,387
1660064581.20221,1383944.4412078,364
1660064581.20221,1383944.4412112,336
1660064581.20221,1383945.173424,275
1660064581.20221,1383945.1734478,191
1660064581.20221,1383945.1734592,123
1660064581.51725,1383945.1734667,70
1660064581.51725,1383945.1734743,9
1660064581.51725,1383945.1734823,-42
1660064581.51725,1383945.1734884,-72
1660064581.51725,1383945.1734956,-98
1660064581.51725,1383945.1735025,-105
1660064581.51725,1383945.1735087,-98
1660064581.51725,1383945.1735148,-91
1660064581.51725,1383945.1735213,-79
1660064581.51725,1383945.1735276,-65
1660064581.51725,1383945.1735346,-65
1660064581.51725,1383945.1735426,-56
1660064581.51725,1383945.1735915,-21
1660064581.51725,1383945.1736018,0
1660064581.51725,1383945.1736103,-2
1660064581.51725,1383945.1736207,9
1660064581.51725,1383945.1736308,23
1660064581.51725,1383945.1736404,4
1660064581.51725,1383945.1736493,-14
1660064581.51725,1383945.1736581,-9
1660064581.51725,1383945.1736672,2
1660064581.51725,1383945.1736771,11
1660064581.51725,1383945.173686,-2
1660064581.51725,1383945.1736944,-14
1660064581.51725,1383945.1737033,2
1660064581.51725,1383945.1737122,16
1660064581.51725,1383945.1737215,18
1660064581.51725,1383945.1737298,18
1660064581.51725,1383945.1737384,18
1660064581.51725,1383945.1737474,-7
1660064581.51725,1383945.1737562,-30
1660064581.51725,1383945.1737648,-7
1660064581.51725,1383945.1737743,16
1660064581.51725,1383945.1737833,16
1660064581.51725,1383945.1737923,16
1660064581.51725,1383945.173801,18
1660064581.51725,1383945.1738098,58
1660064581.51725,1383945.1738188,287
1660064581.51725,1383945.1738279,663
1660064581.51725,1383945.1738894,796
1660064581.51725,1383945.1738982,441
1660064581.51725,1383945.1739017,-322
1660064581.51725,1383945.173905,-782
1660064581.51725,1383945.1739082,-399
1660064581.51725,1383945.1739115,51
1660064581.51725,1383945.1739148,42
1660064581.51725,1383945.1739181,23
1660064581.51725,1383945.1739214,109
1660064581.51725,1383945.1739245,116
1660064581.51725,1383945.1739278,102
1660064581.5407,1383945.173931,128
1660064581.5407,1383945.1739342,126
1660064581.5407,1383945.1739374,126
1660064581.5407,1383945.1739407,161
1660064581.5407,1383945.1740206,175
1660064581.5407,1383945.1740295,175
1660064581.5407,1383945.1740369,196
1660064581.5407,1383945.1740439,217
1660064581.5407,1383945.1740507,242
1660064581.5407,1383945.1740577,280
1660064581.5407,1383945.1740643,301
1660064581.5407,1383945.1740713,326
1660064581.5407,1383945.1740783,366
1660064581.5407,1383945.1740855,359
1660064581.5407,1383945.1740926,333
1660064581.5407,1383945.1740993,326
1660064581.5407,1383945.1741061,289
1660064581.5407,1383945.1741124,228
1660064581.5407,1383945.1741194,175
1660064581.5407,1383945.1741264,105
1660064581.5407,1383945.5602826,32
1660064581.5407,1383945.5603045,-14
1660064581.5407,1383945.5603135,-37
1660064581.5407,1383945.5603206,-49
1660064582.04795,1383945.5603244,-56
1660064582.04795,1383945.5603278,-56
1660064582.04795,1383945.5603308,-65
1660064582.04795,1383945.5603337,-63
1660064582.04795,1383945.5603368,-44
1660064582.04795,1383945.5603399,-49
1660064582.04795,1383945.5603432,-53
1660064582.04795,1383945.5603466,-37
1660064582.04795,1383945.5603496,-32
1660064582.04795,1383945.5603528,-21
1660064582.04795,1383945.5603565,7
1660064582.04795,1383945.5603606,11
1660064582.04795,1383945.5603652,11
1660064582.04795,1383945.5603686,25
1660064582.04795,1383945.5603725,35
1660064582.04795,1383945.5603762,42
1660064582.04795,1383945.5603796,51
1660064582.04795,1383945.5603831,60
1660064582.04795,1383945.560388,51
1660064582.04795,1383945.5603928,28
1660064582.04795,1383945.560398,14
1660064582.04795,1383945.5604045,25
1660064582.04795,1383945.5604102,44
1660064582.04795,1383945.560415,49
1660064582.04795,1383945.56042,32
1660064582.04795,1383945.5604241,7
1660064582.04795,1383945.5604278,-9
1660064582.04795,1383945.5604315,-11
1660064582.04795,1383945.560438,-9
1660064582.04795,1383945.5604436,-4
1660064582.04795,1383945.5604475,7
1660064582.04795,1383945.5604526,7
1660064582.04795,1383945.5604562,42
1660064582.04795,1383945.5604616,275
1660064582.04795,1383945.5604673,635
1660064582.04795,1383945.5604744,763
1660064582.04795,1383945.5604801,432
1660064582.04795,1383945.5604855,-329
1660064582.04795,1383945.5604892,-794
1660064582.04795,1383945.5604951,-380
1660064582.04795,1383945.5604988,67
1660064582.04795,1383945.560504,4
1660064582.04795,1383945.5605077,-18
1660064582.04795,1383945.5605154,93
1660064582.04795,1383945.5605191,79
1660064582.04795,1383945.5605243,53
1660064582.04795,1383945.5605283,93
1660064582.04795,1383945.5605353,107
1660064582.04795,1383945.5605394,114
1660064582.04795,1383945.5605486,130
1660064582.05991,1383945.5605571,133
1660064582.05991,1383945.560564,140
1660064582.05991,1383945.5605711,161
1660064582.05991,1383945.5605777,184
1660064582.05991,1383945.560584,221
1660064582.05991,1383945.5605924,256
1660064582.05991,1383945.5605976,280
1660064582.05991,1383945.5606035,305
1660064582.05991,1383945.5606071,326
1660064582.05991,1383945.5606113,329
1660064582.05991,1383945.560618,319
1660064582.05991,1383945.5606241,301
1660064582.05991,1383945.5606315,263
1660064582.05991,1383945.5606401,205
1660064582.05991,1383945.5606467,142
1660064582.05991,1383945.560653,84
1660064582.05991,1383945.5606595,32
1660064582.05991,1383945.5606648,-7
1660064582.05991,1383945.5606735,-32
1660064582.05991,1383946.1449333,-49
1660064582.05991,1383946.1449512,-60
1660064582.05991,1383946.1449604,-53
1660064582.05991,1383946.1449709,-44
1660064582.05991,1383946.1449848,-46
1660064582.54664,1383946.1449985,-44
1660064582.54664,1383946.1450059,-49
1660064582.54664,1383946.1450128,-63
1660064582.54664,1383946.1450199,-53
1660064582.54664,1383946.1450255,-32
1660064582.54664,1383946.1450294,-25
1660064582.54664,1383946.1450334,-14
1660064582.54664,1383946.1450401,-9
1660064582.54664,1383946.1450433,-23
1660064582.54664,1383946.1450464,-23
1660064582.54664,1383946.1450493,-4
1660064582.54664,1383946.1450523,4
1660064582.54664,1383946.1450553,4
1660064582.54664,1383946.1450584,9
1660064582.54664,1383946.1450613,14
1660064582.54664,1383946.1450643,7
1660064582.54664,1383946.1450673,2
1660064582.54664,1383946.145079,14
1660064582.54664,1383946.145086,18
1660064582.54664,1383946.1450907,11
1660064582.54664,1383946.1450992,14
1660064582.54664,1383946.1451094,32
1660064582.54664,1383946.1451197,39
1660064582.54664,1383946.1451346,28
1660064582.54664,1383946.145147,9
1660064582.54664,1383946.145158,2
1660064582.54664,1383946.1451622,14
1660064582.54664,1383946.1451671,23
1660064582.54664,1383946.1451704,30
1660064582.54664,1383946.1451739,44
1660064582.54664,1383946.1451771,53
1660064582.54664,1383946.1451805,67
1660064582.54664,1383946.1451838,238
1660064582.54664,1383946.1451872,621
1660064582.54664,1383946.1451922,931
1660064582.54664,1383946.1451971,831
1660064582.54664,1383946.1452005,133
1660064582.54664,1383946.145204,-649
1660064582.54664,1383946.1452076,-532
1660064582.54664,1383946.1452131,37
1660064582.54664,1383946.1452182,93
1660064582.54664,1383946.1452228,-16
1660064582.54664,1383946.1452279,95
1660064582.54664,1383946.145233,133
1660064582.54664,1383946.1452364,74
1660064582.54664,1383946.1452422,102
1660064582.54664,1383946.1452492,135
1660064582.54664,1383946.1452535,116
1660064582.54664,1383946.1452601,116
1660064582.54664,1383946.145263,140
1660064582.56658,1383946.1452659,149
1660064582.56658,1383946.1452688,151
1660064582.56658,1383946.1452717,170
1660064582.56658,1383946.1452745,193
1660064582.56658,1383946.1452774,212
1660064582.56658,1383946.1452803,231
1660064582.56658,1383946.1452832,261
1660064582.56658,1383946.145286,289
1660064582.56658,1383946.1452888,303
1660064582.56658,1383946.1452916,287
1660064582.56658,1383946.1452944,254
1660064582.56658,1383946.1452972,231
1660064582.56658,1383946.1453,210
1660064582.56658,1383946.1453029,172
1660064582.56658,1383946.1453057,119
1660064582.56658,1383946.1453085,70
1660064582.56658,1383946.1453113,30
1660064582.56658,1383946.1453141,9
1660064582.56658,1383946.6330633,-2
1660064582.56658,1383946.6330843,-14
1660064582.56658,1383946.6330947,-14
1660064582.56658,1383946.633104,-16
1660064582.56658,1383946.6331125,-18
1660064582.56658,1383946.6331204,-16
1660064583.12055,1383946.6331283,-9
1660064583.12055,1383946.6331346,-2
1660064583.12055,1383946.6331408,4
1660064583.12055,1383946.6331472,2
1660064583.12055,1383946.6331532,-16
1660064583.12055,1383946.6331574,-25
1660064583.12055,1383946.633164,-14
1660064583.12055,1383946.6331711,-2
1660064583.12055,1383946.6331757,9
1660064583.12055,1383946.6331801,25
1660064583.12055,1383946.6331854,18
1660064583.12055,1383946.6331895,-9
1660064583.12055,1383946.6331962,-4
1660064583.12055,1383946.6332007,16
1660064583.12055,1383946.6332048,21
1660064583.12055,1383946.6332079,18
1660064583.12055,1383946.6332117,7
1660064583.12055,1383946.6332155,-9
1660064583.12055,1383946.6332209,-2
1660064583.12055,1383946.6332242,16
1660064583.12055,1383946.6332273,16
1660064583.12055,1383946.6332307,16
1660064583.12055,1383946.6332344,28
1660064583.12055,1383946.6332376,32
1660064583.12055,1383946.6332412,39
1660064583.12055,1383946.6332447,58
1660064583.12055,1383946.6332481,72
1660064583.12055,1383946.6332515,67
1660064583.12055,1383946.6332549,42
1660064583.12055,1383946.6332586,25
1660064583.12055,1383946.6332622,35
1660064583.12055,1383946.6332656,53
1660064583.12055,1383946.6332691,63
1660064583.12055,1383946.6332724,67
1660064583.12055,1383946.6332759,70
1660064583.12055,1383946.6332792,70
1660064583.12055,1383946.6332825,137
1660064583.12055,1383946.6332861,418
1660064583.12055,1383946.6332895,824
1660064583.12055,1383946.6332929,1032
1660064583.12055,1383946.6332965,763
1660064583.12055,1383946.6333,-121
1660064583.12055,1383946.6333037,-780
1660064583.12055,1383946.6333072,-357
1660064583.12055,1383946.6333109,133
1660064583.12055,1383946.6333144,4
1660064583.12055,1383946.633318,-37
1660064583.12055,1383946.6333213,112
1660064583.12055,1383946.6333244,100
1660064583.12055,1383946.6333323,56
1660064583.13252,1383946.6333357,107
1660064583.13252,1383946.6333395,128
1660064583.13252,1383946.633343,105
1660064583.13252,1383946.6333465,116
1660064583.13252,1383946.6333503,144
1660064583.13252,1383946.633354,147
1660064583.13252,1383946.6333574,147
1660064583.13252,1383946.6333609,156
1660064583.13252,1383946.6333643,170
1660064583.13252,1383946.6333679,186
1660064583.13252,1383946.6333715,205
1660064583.13252,1383946.633375,219
1660064583.13252,1383946.6333784,235
1660064583.13252,1383946.633382,249
1660064583.13252,1383946.6333857,245
1660064583.13252,1383946.6333892,226
1660064583.13252,1383946.6333926,212
1660064583.13252,1383947.2178969,193
1660064583.13252,1383947.217913,151
1660064583.13252,1383947.2179374,93
1660064583.13252,1383947.2179457,44
1660064583.13252,1383947.2179502,18
1660064583.13252,1383947.2179554,2
1660064583.13252,1383947.2179597,-23
1660064583.70964,1383947.2179635,-60
1660064583.70964,1383947.2179673,-72
1660064583.70964,1383947.2179712,-72
1660064583.70964,1383947.217975,-72
1660064583.70964,1383947.2179784,-60
1660064583.70964,1383947.2179819,-65
1660064583.70964,1383947.2179853,-86
1660064583.70964,1383947.2179885,-86
1660064583.70964,1383947.2179936,-63
1660064583.70964,1383947.2179993,-46
1660064583.70964,1383947.2180033,-37
1660064583.70964,1383947.2180095,-25
1660064583.70964,1383947.2180131,-21
1660064583.70964,1383947.2180167,-21
1660064583.70964,1383947.2180236,-9
1660064583.70964,1383947.2180291,9
1660064583.70964,1383947.2180375,21
1660064583.70964,1383947.2180463,23
1660064583.70964,1383947.2180884,23
1660064583.70964,1383947.2180993,21
1660064583.70964,1383947.2181065,28
1660064583.70964,1383947.2181121,37
1660064583.70964,1383947.2181156,37
1660064583.70964,1383947.2181188,42
1660064583.70964,1383947.2181219,49
1660064583.70964,1383947.2181251,46
1660064583.70964,1383947.218137,42
1660064583.70964,1383947.2181474,44
1660064583.70964,1383947.2181552,46
1660064583.70964,1383947.2181598,49
1660064583.70964,1383947.2181662,53
1660064583.70964,1383947.2181706,63
1660064583.70964,1383947.218177,72
1660064583.70964,1383947.2181818,70
1660064583.70964,1383947.2181882,81
1660064583.70964,1383947.2181927,109
1660064583.70964,1383947.2181993,114
1660064583.70964,1383947.2182058,81
1660064583.70964,1383947.2182122,53
1660064583.70964,1383947.218217,51
1660064583.70964,1383947.2182231,65
1660064583.70964,1383947.2182278,74
1660064583.70964,1383947.218234,79
1660064583.70964,1383947.2182408,79
1660064583.70964,1383947.2182478,81
1660064583.70964,1383947.2182559,123
1660064583.70964,1383947.2182626,362
1660064583.70964,1383947.2182675,777
1660064583.70964,1383947.2182738,1076
1660064583.70964,1383947.218279,992
1660064583.72325,1383947.2182856,203
1660064583.72325,1383947.2182913,-705
1660064583.72325,1383947.2182976,-511
1660064583.72325,1383947.2183038,102
1660064583.72325,1383947.2183098,60
1660064583.72325,1383947.2183142,-63
1660064583.72325,1383947.2183201,77
1660064583.72325,1383947.2183247,98
1660064583.72325,1383947.2183306,42
1660064583.72325,1383947.2183348,74
1660064583.72325,1383947.2183409,98
1660064583.72325,1383947.2183457,81
1660064583.72325,1383947.2183518,91
1660064583.72325,1383947.2183562,105
1660064583.72325,1383947.2183624,112
1660064583.72325,1383947.218369,123
1660064583.72325,1383947.803083,137
1660064583.72325,1383947.8031043,142
1660064583.72325,1383947.8031118,147
1660064583.72325,1383947.8031166,158
1660064583.72325,1383947.8031208,182
1660064583.72325,1383947.8031247,207
1660064583.72325,1383947.8031287,221
1660064583.72325,1383947.8031323,217
1660064584.34356,1383947.8031363,207
1660064584.34356,1383947.8031402,186
1660064584.34356,1383947.8031466,149
1660064584.34356,1383947.8031507,112
1660064584.34356,1383947.8031594,84
1660064584.34356,1383947.8031656,46
1660064584.34356,1383947.8031729,9
1660064584.34356,1383947.8031781,-16
1660064584.34356,1383947.8031832,-51
1660064584.34356,1383947.8031888,-70
1660064584.34356,1383947.8031935,-58
1660064584.34356,1383947.8031972,-53
1660064584.34356,1383947.803201,-56
1660064584.34356,1383947.8032048,-49
1660064584.34356,1383947.8032089,-46
1660064584.34356,1383947.8032131,-44
1660064584.34356,1383947.8032191,-35
1660064584.34356,1383947.8032224,-28
1660064584.34356,1383947.8032274,-28
1660064584.34356,1383947.8032306,-11
1660064584.34356,1383947.803234,2
1660064584.34356,1383947.8032374,2
1660064584.34356,1383947.8032405,11
1660064584.34356,1383947.8032443,25
1660064584.34356,1383947.8032475,32
1660064584.34356,1383947.8032509,39
1660064584.34356,1383947.8032554,49
1660064584.34356,1383947.8032595,51
1660064584.34356,1383947.8032631,49
1660064584.34356,1383947.8032667,53
1660064584.34356,1383947.8032701,58
1660064584.34356,1383947.8032737,63
1660064584.34356,1383947.8032775,63
1660064584.34356,1383947.8032828,58
1660064584.34356,1383947.803286,56
1660064584.34356,1383947.8032906,58
1660064584.34356,1383947.803294,60
1660064584.34356,1383947.8032975,60
1660064584.34356,1383947.8033009,63
1660064584.34356,1383947.8033044,65
1660064584.34356,1383947.8033083,65
1660064584.34356,1383947.8033124,74
1660064584.34356,1383947.803318,86
1660064584.34356,1383947.8033226,88
1660064584.34356,1383947.8033269,91
1660064584.34356,1383947.8033309,112
1660064584.34356,1383947.8033357,123
1660064584.34356,1383947.8033393,100
1660064584.34356,1383947.8033439,72
1660064584.34356,1383947.8033484,56
1660064584.35752,1383947.8033524,53
1660064584.35752,1383947.803357,53
1660064584.35752,1383947.803361,51
1660064584.35752,1383947.8033655,49
1660064584.35752,1383947.80337,56
1660064584.35752,1383947.8033746,79
1660064584.35752,1383947.8033784,268
1660064584.35752,1383947.8033828,679
1660064584.35752,1383947.8033875,1051
1660064584.35752,1383947.8033913,1095
1660064584.35752,1383947.8033958,408
1660064584.35752,1383947.8034002,-674
1660064584.35752,1383947.8034041,-731
1660064584.35752,1383947.8034086,-9
1660064584.35752,1383947.8034126,88
1660064584.35752,1383948.4386853,-109
1660064584.35752,1383948.4387082,21
1660064584.35752,1383948.4387158,105
1660064584.35752,1383948.4387225,37
1660064584.35752,1383948.4387295,65
1660064584.35752,1383948.4387369,114
1660064584.35752,1383948.4387435,95
1660064584.35752,1383948.4387529,91
1660064584.35752,1383948.4387585,116
1660064584.78726,1383948.4387634,128
1660064584.78726,1383948.4387682,137
1660064584.78726,1383948.438772,158
1660064584.78726,1383948.4387756,168
1660064584.78726,1383948.4387801,158
1660064584.78726,1383948.4387903,165
1660064584.78726,1383948.4387977,191
1660064584.78726,1383948.4388035,210
1660064584.78726,1383948.4388084,212
1660064584.78726,1383948.4388133,207
1660064584.78726,1383948.4388179,184
1660064584.78726,1383948.4388228,149
1660064584.78726,1383948.4388275,135
1660064584.78726,1383948.4388324,121
1660064584.78726,1383948.4388408,84
1660064584.78726,1383948.4388492,44
1660064584.78726,1383948.438855,11
1660064584.78726,1383948.4388593,-14
1660064584.78726,1383948.4388657,-30
1660064584.78726,1383948.4388722,-32
1660064584.78726,1383948.4388782,-32
1660064584.78726,1383948.4388859,-37
1660064584.78726,1383948.4388965,-42
1660064584.78726,1383948.4389091,-35
1660064584.78726,1383948.4389168,-23
1660064584.78726,1383948.4389234,-11
1660064584.78726,1383948.4389284,-2
1660064584.78726,1383948.4389345,7
1660064584.78726,1383948.4389404,16
1660064584.78726,1383948.4389464,21
1660064584.78726,1383948.4389515,21
1660064584.78726,1383948.4389576,28
1660064584.78726,1383948.4389625,39
1660064584.78726,1383948.4389698,49
1660064584.78726,1383948.4389759,49
1660064584.78726,1383948.4389814,49
1660064584.78726,1383948.4389902,49
1660064584.78726,1383948.4389989,53
1660064584.78726,1383948.4390071,53
1660064584.78726,1383948.4390138,49
1660064584.78726,1383948.4390202,42
1660064584.78726,1383948.4390281,42
1660064584.78726,1383948.4390356,46
1660064584.78726,1383948.4390418,46
1660064584.78726,1383948.4390466,44
1660064584.78726,1383948.4390557,39
1660064584.78726,1383948.4390665,35
1660064584.78726,1383948.4390762,30
1660064584.78726,1383948.439081,28
1660064584.78726,1383948.4390851,30
1660064584.79823,1383948.4390914,28
1660064584.79823,1383948.4390965,16
1660064584.79823,1383948.4391003,7
1660064584.79823,1383948.4391069,16
1660064584.79823,1383948.4391133,25
1660064584.79823,1383948.4391197,23
1660064584.79823,1383948.4391253,42
1660064584.79823,1383948.4391289,72
1660064584.79823,1383948.4391336,70
1660064584.79823,1383948.4391396,44
1660064584.79823,1383948.439145,28
1660064584.79823,1383948.4391509,25
1660064584.79823,1383948.4391564,37
1660064584.79823,1383948.439162,49
1660064584.79823,1383948.8752365,56
1660064584.79823,1383948.8752541,65
1660064584.79823,1383948.8752613,77
1660064584.79823,1383948.8752698,172
1660064584.79823,1383948.8752758,511
1660064584.79823,1383948.8752839,969
1660064584.79823,1383948.8752912,1214
1660064584.79823,1383948.8753024,864
1660064584.79823,1383948.8753164,-247
1660064584.79823,1383948.8753234,-906
1660064585.46583,1383948.8753259,-305
1660064585.46583,1383948.8753282,149
1660064585.46583,1383948.8753306,-60
1660064585.46583,1383948.8753385,-53
1660064585.46583,1383948.8753452,112
1660064585.46583,1383948.8753498,74
1660064585.46583,1383948.8753539,42
1660064585.46583,1383948.8753577,98
1660064585.46583,1383948.8753617,109
1660064585.46583,1383948.8753659,100
1660064585.46583,1383948.8753723,128
1660064585.46583,1383948.8753785,144
1660064585.46583,1383948.8753851,144
1660064585.46583,1383948.8753899,154
1660064585.46583,1383948.8753931,172
1660064585.46583,1383948.8753977,186
1660064585.46583,1383948.8754073,207
1660064585.46583,1383948.8754136,228
1660064585.46583,1383948.8754246,247
1660064585.46583,1383948.8754295,254
1660064585.46583,1383948.8754334,254
1660064585.46583,1383948.8754373,247
1660064585.46583,1383948.8754409,235
1660064585.46583,1383948.8754452,219
1660064585.46583,1383948.8754519,193
1660064585.46583,1383948.8754565,147
1660064585.46583,1383948.875462,100
1660064585.46583,1383948.8754656,70
1660064585.46583,1383948.8754705,44
1660064585.46583,1383948.8754736,21
1660064585.46583,1383948.8754769,2
1660064585.46583,1383948.8754815,-14
1660064585.46583,1383948.8754849,-23
1660064585.46583,1383948.8754956,-21
1660064585.46583,1383948.8754993,-14
1660064585.46583,1383948.875504,-4
1660064585.46583,1383948.8755076,7
1660064585.46583,1383948.8755105,14
1660064585.46583,1383948.875517,16
1660064585.46583,1383948.8755201,25
1660064585.46583,1383948.8755231,32
1660064585.46583,1383948.8755263,32
1660064585.46583,1383948.8755395,35
1660064585.46583,1383948.8755485,25
1660064585.46583,1383948.8755534,2
1660064585.46583,1383948.8755637,2
1660064585.46583,1383948.8755703,14
1660064585.46583,1383948.8755747,11
1660064585.46583,1383948.8755805,14
1660064585.46583,1383948.8755862,18
1660064585.4788,1383948.8755918,14
1660064585.4788,1383948.8755954,9
1660064585.4788,1383948.875599,16
1660064585.4788,1383948.8756045,21
1660064585.4788,1383948.8756109,25
1660064585.4788,1383948.8756144,28
1660064585.4788,1383948.8756181,28
1660064585.4788,1383948.8756239,23
1660064585.4788,1383948.8756276,30
1660064585.4788,1383948.8756309,39
1660064585.4788,1383948.8756342,42
1660064585.4788,1383948.8756397,37
1660064585.4788,1383948.8756439,30
1660064585.4788,1383949.5586546,37
1660064585.4788,1383949.5586787,51
1660064585.4788,1383949.5586871,56
1660064585.4788,1383949.5586955,72
1660064585.4788,1383949.5587004,95
1660064585.4788,1383949.5587091,91
1660064585.4788,1383949.5587203,49
1660064585.4788,1383949.5587276,14
1660064585.4788,1383949.5587358,18
1660064585.4788,1383949.5587464,39
1660064585.4788,1383949.5587547,42
1660064585.95826,1383949.5587572,49
1660064585.95826,1383949.5587602,51
1660064585.95826,1383949.5587677,37
1660064585.95826,1383949.5587754,151
1660064585.95826,1383949.5587838,558
1660064585.95826,1383949.558794,1048
1660064585.95826,1383949.558802,1237
1660064585.95826,1383949.5588098,677
1660064585.95826,1383949.5588155,-511
1660064585.95826,1383949.558828,-892
1660064585.95826,1383949.5588518,-156
1660064585.95826,1383949.5588662,142
1660064585.95826,1383949.5588781,-91
1660064585.95826,1383949.5588864,-11
1660064585.95826,1383949.5588996,121
1660064585.95826,1383949.5589107,56
1660064585.95826,1383949.5589189,58
1660064585.95826,1383949.5589256,123
1660064585.95826,1383949.5589333,114
1660064585.95826,1383949.5589412,105
1660064585.95826,1383949.5589477,121
1660064585.95826,1383949.5589553,123
1660064585.95826,1383949.5589623,133
1660064585.95826,1383949.5589708,151
1660064585.95826,1383949.5589804,163
1660064585.95826,1383949.5589933,177
1660064585.95826,1383949.5590027,203
1660064585.95826,1383949.5590078,219
1660064585.95826,1383949.5590124,233
1660064585.95826,1383949.5590168,247
1660064585.95826,1383949.5590225,247
1660064585.95826,1383949.5590267,233
1660064585.95826,1383949.5590351,217
1660064585.95826,1383949.5590459,193
1660064585.95826,1383949.5590576,163
1660064585.95826,1383949.5590708,114
1660064585.95826,1383949.5590797,63
1660064585.95826,1383949.5590925,30
1660064585.95826,1383949.5591035,2
1660064585.95826,1383949.559111,-23
1660064585.95826,1383949.5591162,-39
1660064585.95826,1383949.5591246,-46
1660064585.95826,1383949.5591318,-51
1660064585.95826,1383949.5591369,-49
1660064585.95826,1383949.5591474,-37
1660064585.95826,1383949.5591531,-28
1660064585.95826,1383949.5591603,-21
1660064585.95826,1383949.5591693,-11
1660064585.95826,1383949.5591765,-2
1660064585.95826,1383949.5591843,7
1660064585.9812,1383949.5591911,18
1660064585.9812,1383949.5591968,23
1660064585.9812,1383949.5591998,21
1660064585.9812,1383949.5592028,18
1660064585.9812,1383949.5592057,23
1660064585.9812,1383949.5592086,28
1660064585.9812,1383949.5592115,30
1660064585.9812,1383949.5592143,35
1660064585.9812,1383949.5592172,37
1660064585.9812,1383949.5592199,32
1660064585.9812,1383949.5592228,25
1660064585.9812,1383949.5592257,30
1660064585.9812,1383950.0454125,39
1660064585.9812,1383950.0454325,44
1660064585.9812,1383950.0454467,44
1660064585.9812,1383950.0454587,42
1660064585.9812,1383950.0454636,44
1660064585.9812,1383950.0454715,46
1660064585.9812,1383950.0454823,49
1660064585.9812,1383950.0454878,53
1660064585.9812,1383950.0454898,65
1660064585.9812,1383950.0454919,60
1660064585.9812,1383950.045494,39
1660064585.9812,1383950.0454961,46
1660064586.49017,1383950.0454981,81
1660064586.49017,1383950.0455001,88
1660064586.49017,1383950.045502,65
1660064586.49017,1383950.0455039,42
1660064586.49017,1383950.0455057,32
1660064586.49017,1383950.0455076,42
1660064586.49017,1383950.0455095,53
1660064586.49017,1383950.0455113,65
1660064586.49017,1383950.0455132,74
1660064586.49017,1383950.045515,72
1660064586.49017,1383950.0455168,154
1660064586.49017,1383950.0455197,523
1660064586.49017,1383950.0455285,1048
1660064586.49017,1383950.0455369,1282
1660064586.49017,1383950.0455429,752
1660064586.49017,1383950.0455497,-455
1660064586.49017,1383950.0455553,-945
1660064586.49017,1383950.0455659,-235
1660064586.49017,1383950.0455699,154
1660064586.49017,1383950.0455729,-67
1660064586.49017,1383950.0455758,-21
1660064586.49017,1383950.0455787,126
1660064586.49017,1383950.0455816,63
1660064586.49017,1383950.0455844,37
1660064586.49017,1383950.0455874,95
1660064586.49017,1383950.0455902,100
1660064586.49017,1383950.0455931,84
1660064586.49017,1383950.0455961,98
1660064586.49017,1383950.0455991,112
1660064586.49017,1383950.0456019,119
1660064586.49017,1383950.0456048,135
1660064586.49017,1383950.0456077,151
1660064586.49017,1383950.0456105,165
1660064586.49017,1383950.0456134,182
1660064586.49017,1383950.0456163,198
1660064586.49017,1383950.0456191,207
1660064586.49017,1383950.045622,217
1660064586.49017,1383950.0456249,219
1660064586.49017,1383950.0456279,214
1660064586.49017,1383950.0456308,198
1660064586.49017,1383950.0456347,175
1660064586.49017,1383950.0456368,149
1660064586.49017,1383950.0456388,112
1660064586.49017,1383950.0456409,70
1660064586.49017,1383950.0456436,35
1660064586.49017,1383950.0456457,9
1660064586.49017,1383950.0456478,-14
1660064586.49017,1383950.0456498,-32
1660064586.49017,1383950.0456519,-42
1660064586.49017,1383950.045654,-44
1660064586.50014,1383950.0456561,-32
1660064586.50014,1383950.0456581,-21
1660064586.50014,1383950.0456602,-11
1660064586.50014,1383950.0456623,0
1660064586.50014,1383950.0456644,9
1660064586.50014,1383950.0456665,18
1660064586.50014,1383950.045669,28
1660064586.50014,1383950.0456711,37
1660064586.50014,1383950.0456732,39
1660064586.50014,1383950.0456752,44
1660064586.50014,1383950.0456773,51
1660064586.50014,1383950.5812502,53
1660064586.50014,1383950.5812687,51
1660064586.50014,1383950.5812849,56
1660064586.50014,1383950.5812992,56
1660064586.50014,1383950.5813124,53
1660064586.50014,1383950.5813254,56
1660064586.50014,1383950.5813387,42
1660064586.50014,1383950.5813516,21
1660064586.50014,1383950.5813646,23
1660064586.50014,1383950.5813774,32
1660064586.50014,1383950.5813904,32
1660064586.50014,1383950.5814032,35
1660064586.50014,1383950.5814165,39
1660064587.06926,1383950.5814291,42
1660064587.06926,1383950.581437,49
1660064587.06926,1383950.5814462,53
1660064587.06926,1383950.5814518,63
1660064587.06926,1383950.5814608,93
1660064587.06926,1383950.5814692,105
1660064587.06926,1383950.5814818,70
1660064587.06926,1383950.5814946,30
1660064587.06926,1383950.5815076,25
1660064587.06926,1383950.5815207,37
1660064587.06926,1383950.5815335,46
1660064587.06926,1383950.5815428,53
1660064587.06926,1383950.5815453,53
1660064587.06926,1383950.5815473,46
1660064587.06926,1383950.5815495,79
1660064587.06926,1383950.5815516,336
1660064587.06926,1383950.5815536,843
1660064587.06926,1383950.5815557,1212
1660064587.06926,1383950.5815578,952
1660064587.06926,1383950.5815599,-130
1660064587.06926,1383950.5815619,-980
1660064587.06926,1383950.5815643,-525
1660064587.06926,1383950.5815663,109
1660064587.06926,1383950.5815684,4
1660064587.06926,1383950.5815704,-67
1660064587.06926,1383950.5815725,95
1660064587.06926,1383950.5815745,95
1660064587.06926,1383950.5815766,46
1660064587.06926,1383950.5815787,98
1660064587.06926,1383950.5815808,121
1660064587.06926,1383950.5815828,109
1660064587.06926,1383950.5815849,123
1660064587.06926,1383950.5815869,135
1660064587.06926,1383950.581589,135
1660064587.06926,1383950.581591,156
1660064587.06926,1383950.581593,179
1660064587.06926,1383950.5815951,196
1660064587.06926,1383950.5815973,214

1660064587.06926,1383950.5815993,233
1660064587.06926,1383950.5816013,249
1660064587.06926,1383950.5816034,270
1660064587.06926,1383950.5816055,277
1660064587.06926,1383950.5816075,273
1660064587.06926,1383950.5816095,256
1660064587.06926,1383950.5816115,231
1660064587.06926,1383950.5816136,205
1660064587.06926,1383950.5816156,184
1660064587.06926,1383950.5816177,144
1660064587.06926,1383950.5816197,102
1660064587.06926,1383950.5816218,70
1660064587.08223,1383950.5816239,42
1660064587.08223,1383950.5816259,14
1660064587.08223,1383950.5816281,0
1660064587.08223,1383950.5816301,0
1660064587.08223,1383950.5816322,9
1660064587.08223,1383950.5816343,21
1660064587.08223,1383950.5816363,28
1660064587.08223,1383950.5816383,32
1660064587.08223,1383950.5816403,44
1660064587.08223,1383950.5816424,56
1660064587.08223,1383951.1665044,67
1660064587.08223,1383951.1665702,74
1660064587.08223,1383951.1665763,79
1660064587.08223,1383951.1665809,79
1660064587.08223,1383951.1665828,74
1660064587.08223,1383951.1665847,67
1660064587.08223,1383951.1665867,72
1660064587.08223,1383951.1665885,77
1660064587.08223,1383951.1665917,72
1660064587.08223,1383951.1666017,58
1660064587.08223,1383951.1666066,39
1660064587.08223,1383951.1666176,42
1660064587.08223,1383951.1666251,56
1660064587.08223,1383951.1666604,51
1660064587.61066,1383951.1666725,44
1660064587.61066,1383951.1666813,35
1660064587.61066,1383951.1666864,21
1660064587.61066,1383951.1666973,23
1660064587.61066,1383951.1667073,42
1660064587.61066,1383951.1667168,46
1660064587.61066,1383951.1667315,56
1660064587.61066,1383951.1667432,86
1660064587.61066,1383951.1667568,88
1660064587.61066,1383951.1667682,51
1660064587.61066,1383951.1667752,18
1660064587.61066,1383951.1667813,16
1660064587.61066,1383951.1667888,23
1660064587.61066,1383951.1667978,30
1660064587.61066,1383951.1668064,42
1660064587.61066,1383951.1668141,51
1660064587.61066,1383951.1668212,49
1660064587.61066,1383951.1668301,140
1660064587.61066,1383951.1668334,518
1660064587.61066,1383951.166845,1020
1660064587.61066,1383951.1668562,1179
1660064587.61066,1383951.1668607,558
1660064587.61066,1383951.1668628,-590
1660064587.61066,1383951.1668648,-906
1660064587.61066,1383951.1668671,-168
1660064587.61066,1383951.1668692,158
1660064587.61066,1383951.166872,-46
1660064587.61066,1383951.1668819,11
1660064587.61066,1383951.1668885,135
1660064587.61066,1383951.1669025,74
1660064587.61066,1383951.1669158,60
1660064587.61066,1383951.1669291,119
1660064587.61066,1383951.166946,123
1660064587.61066,1383951.1669589,119
1660064587.61066,1383951.166973,144
1660064587.61066,1383951.1669885,161
1660064587.61066,1383951.1670015,168
1660064587.61066,1383951.1670083,186
1660064587.61066,1383951.1670157,210
1660064587.61066,1383951.1670282,231
1660064587.61066,1383951.1670351,242
1660064587.61066,1383951.1670376,256
1660064587.61066,1383951.1670454,275
1660064587.61066,1383951.1670584,291
1660064587.61066,1383951.1670682,284
1660064587.61066,1383951.1670792,277
1660064587.61066,1383951.1670926,287
1660064587.61066,1383951.1671008,256
1660064587.61066,1383951.1671051,203
1660064587.61066,1383951.1671106,184
1660064587.62163,1383951.167114,161
1660064587.62163,1383951.1671215,116
1660064587.62163,1383951.1671282,88
1660064587.62163,1383951.1671361,65
1660064587.62163,1383951.1671423,35
1660064587.62163,1383951.1671503,23
1660064587.62163,1383951.1671587,30
1660064587.62163,1383951.1671669,39
1660064587.62163,1383951.1671729,42
1660064587.62163,1383951.7031019,49
1660064587.62163,1383951.7031218,60
1660064587.62163,1383951.7031369,72
1660064587.62163,1383951.7031512,81
1660064587.62163,1383951.7031654,91
1660064587.62163,1383951.7031795,95
1660064587.62163,1383951.703187,95
1660064587.62163,1383951.7031906,93
1660064587.62163,1383951.7031941,93
1660064587.62163,1383951.7031969,98
1660064587.62163,1383951.7032015,107
1660064587.62163,1383951.7032052,105
1660064587.62163,1383951.703209,81
1660064587.62163,1383951.7032119,56
1660064587.62163,1383951.7032157,56
1660064588.1511,1383951.7032196,58
1660064588.1511,1383951.7032247,37
1660064588.1511,1383951.7032298,25
1660064588.1511,1383951.7032348,37
1660064588.1511,1383951.7032387,25
1660064588.1511,1383951.7032422,14
1660064588.1511,1383951.7032465,25
1660064588.1511,1383951.7032497,49
1660064588.1511,1383951.703253,72
1660064588.1511,1383951.7032572,79
1660064588.1511,1383951.7032609,56
1660064588.1511,1383951.7032644,30
1660064588.1511,1383951.703269,21
1660064588.1511,1383951.7032728,25
1660064588.1511,1383951.7032763,32
1660064588.1511,1383951.7032797,46
1660064588.1511,1383951.7032831,51
1660064588.1511,1383951.7032865,32
1660064588.1511,1383951.7032899,121
1660064588.1511,1383951.7032935,530
1660064588.1511,1383951.7032971,1079
1660064588.1511,1383951.7033005,1226
1660064588.1511,1383951.7033039,546
1660064588.1511,1383951.7033073,-609
1660064588.1511,1383951.7033106,-894
1660064588.1511,1383951.7033138,-175
1660064588.1511,1383951.703318,140
1660064588.1511,1383951.7033215,-46
1660064588.1511,1383951.7033247,11
1660064588.1511,1383951.7033287,128
1660064588.1511,1383951.7033323,77
1660064588.1511,1383951.7033358,74
1660064588.1511,1383951.7033394,126
1660064588.1511,1383951.7033433,123
1660064588.1511,1383951.7033468,116
1660064588.1511,1383951.7033526,135
1660064588.1511,1383951.7033562,149
1660064588.1511,1383951.7033597,163
1660064588.1511,1383951.7033644,182
1660064588.1511,1383951.7033677,200
1660064588.1511,1383951.7033713,219
1660064588.1511,1383951.7033749,242
1660064588.1511,1383951.7033788,266
1660064588.1511,1383951.7033825,277
1660064588.1511,1383951.703386,277
1660064588.1511,1383951.7033895,268
1660064588.1511,1383951.7033929,259
1660064588.1511,1383951.7033963,247
1660064588.1511,1383951.7033999,231
1660064588.1511,1383951.7034035,207
1660064588.16805,1383951.7034069,172
1660064588.16805,1383951.7034103,128
1660064588.16805,1383951.7034141,81
1660064588.16805,1383951.7034176,49
1660064588.16805,1383951.703421,21
1660064588.16805,1383951.7034244,-4
1660064588.16805,1383951.7034283,-14
1660064588.16805,1383951.7034317,-9
1660064588.16805,1383952.2392462,-4
1660064588.16805,1383952.2392644,4
1660064588.16805,1383952.2392699,21
1660064588.16805,1383952.2392765,30
1660064588.16805,1383952.2392817,37
1660064588.16805,1383952.2392853,46
1660064588.16805,1383952.2392887,51
1660064588.16805,1383952.2392925,56
1660064588.16805,1383952.2392961,46
1660064588.16805,1383952.2392998,16
1660064588.16805,1383952.2393036,-4
1660064588.16805,1383952.2393072,2
1660064588.16805,1383952.2393108,7
1660064588.16805,1383952.2393143,4
1660064588.16805,1383952.239318,7
1660064588.16805,1383952.2393216,-2
1660064588.73187,1383952.2393253,-25
1660064588.73187,1383952.2393302,-35
1660064588.73187,1383952.2393336,-25
1660064588.73187,1383952.2393365,-18
1660064588.73187,1383952.2393392,-16
1660064588.73187,1383952.239342,-7
1660064588.73187,1383952.2393448,18
1660064588.73187,1383952.2393477,35
1660064588.73187,1383952.2393506,21
1660064588.73187,1383952.2393534,-2
1660064588.73187,1383952.2393562,-4
1660064588.73187,1383952.239359,4
1660064588.73187,1383952.2393617,14
1660064588.73187,1383952.2393645,16
1660064588.73187,1383952.2393673,23
1660064588.73187,1383952.23937,18
1660064588.73187,1383952.2393728,23
1660064588.73187,1383952.2393756,245
1660064588.73187,1383952.2393785,770
1660064588.73187,1383952.2393813,1214
1660064588.73187,1383952.2393841,1022
1660064588.73187,1383952.2393869,-23
1660064588.73187,1383952.2393896,-901
1660064588.73187,1383952.2393923,-513
1660064588.73187,1383952.2393951,116
1660064588.73187,1383952.2393979,25
1660064588.73187,1383952.2394006,-77
1660064588.73187,1383952.2394034,79
1660064588.73187,1383952.2394062,93
1660064588.73187,1383952.239409,46
1660064588.73187,1383952.2394145,95
1660064588.73187,1383952.239419,121
1660064588.73187,1383952.2394228,105
1660064588.73187,1383952.2394259,123
1660064588.73187,1383952.2394291,144
1660064588.73187,1383952.2394322,144
1660064588.73187,1383952.2394377,158
1660064588.73187,1383952.2394496,182
1660064588.73187,1383952.2394574,193
1660064588.73187,1383952.2394673,210
1660064588.73187,1383952.2394747,233
1660064588.73187,1383952.2394807,247
1660064588.73187,1383952.2394869,249
1660064588.73187,1383952.2394904,247
1660064588.73187,1383952.239494,226
1660064588.73187,1383952.2394991,203
1660064588.73187,1383952.2395024,189
1660064588.73187,1383952.2395057,168
1660064588.73187,1383952.2395113,140
1660064588.73187,1383952.2395158,105
1660064588.74284,1383952.2395222,56
1660064588.74284,1383952.2395264,21
1660064588.74284,1383952.2395292,4
1660064588.74284,1383952.2395318,-14
1660064588.74284,1383952.2395346,-30
1660064588.74284,1383952.2395376,-32
1660064588.74284,1383952.2395402,-28
1660064588.74284,1383952.8240457,-25
1660064588.74284,1383952.8240591,-28
1660064588.74284,1383952.824062,-21
1660064588.74284,1383952.8240641,-9
1660064588.74284,1383952.8240664,0
1660064588.74284,1383952.8240685,-2
1660064588.74284,1383952.8240705,-14
1660064588.74284,1383952.8240725,-21
1660064588.74284,1383952.8240745,-14
1660064588.74284,1383952.8240765,-11
1660064588.74284,1383952.8240799,-23
1660064588.74284,1383952.824089,-25
1660064588.74284,1383952.8240976,-32
1660064588.74284,1383952.8241049,-51
1660064588.74284,1383952.8241156,-53
1660064588.74284,1383952.8241245,-39
1660064588.74284,1383952.8241372,-32
1660064589.26655,1383952.8241453,-28
1660064589.26655,1383952.8241481,-28
1660064589.26655,1383952.8241509,-21
1660064589.26655,1383952.8241602,9
1660064589.26655,1383952.8241705,32
1660064589.26655,1383952.8241766,21
1660064589.26655,1383952.8241799,-7
1660064589.26655,1383952.8241821,-16
1660064589.26655,1383952.8241842,-7
1660064589.26655,1383952.8241862,2
1660064589.26655,1383952.8241883,11
1660064589.26655,1383952.8241913,23
1660064589.26655,1383952.8242004,7
1660064589.26655,1383952.824211,16
1660064589.26655,1383952.8242201,291
1660064589.26655,1383952.8242318,838
1660064589.26655,1383952.8242424,1200
1660064589.26655,1383952.8242532,843
1660064589.26655,1383952.8242615,-277
1660064589.26655,1383952.8242641,-931
1660064589.26655,1383952.8242662,-352
1660064589.26655,1383952.8242682,151
1660064589.26655,1383952.8242712,-21
1660064589.26655,1383952.8242809,-44
1660064589.26655,1383952.82429,105
1660064589.26655,1383952.8242953,72
1660064589.26655,1383952.8243022,42
1660064589.26655,1383952.8243176,100
1660064589.26655,1383952.8243314,112
1660064589.26655,1383952.8243453,105
1660064589.26655,1383952.8243594,130
1660064589.26655,1383952.8243703,149
1660064589.26655,1383952.8243819,161
1660064589.26655,1383952.8244108,179
1660064589.26655,1383952.8244203,196
1660064589.26655,1383952.8244275,207
1660064589.26655,1383952.8244342,224
1660064589.26655,1383952.8244455,242
1660064589.26655,1383952.8244543,259
1660064589.26655,1383952.8244622,266
1660064589.26655,1383952.8244698,256
1660064589.26655,1383952.8244783,242
1660064589.26655,1383952.8244843,228
1660064589.26655,1383952.8244879,210
1660064589.26655,1383952.8244913,189
1660064589.26655,1383952.8244951,161
1660064589.26655,1383952.8245011,119
1660064589.26655,1383952.8245064,77
1660064589.26655,1383952.8245652,46
1660064589.26655,1383952.8245754,21
1660064589.27652,1383952.8245805,-11
1660064589.27652,1383952.824594,-37
1660064589.27652,1383952.8246064,-44
1660064589.27652,1383952.8246178,-44
1660064589.27652,1383952.824658,-39
1660064589.27652,1383952.8246723,-32
1660064589.27652,1383953.3604632,-23
1660064589.27652,1383953.3604821,-21
1660064589.27652,1383953.3604921,-23
1660064589.27652,1383953.3605043,-23
1660064589.27652,1383953.3605102,-18
1660064589.27652,1383953.3605133,-11
1660064589.27652,1383953.3605157,-2
1660064589.27652,1383953.3605179,2
1660064589.27652,1383953.36052,-2
1660064589.27652,1383953.3605221,-23
1660064589.27652,1383953.3605242,-42
1660064589.27652,1383953.3605263,-42
1660064589.27652,1383953.3605284,-30
1660064589.27652,1383953.3605304,-18
1660064589.27652,1383953.3605325,-11
1660064589.27652,1383953.3605346,-25
1660064589.27652,1383953.3605366,-30
1660064589.27652,1383953.3605388,-9
1660064589.86314,1383953.3605432,-2
1660064589.86314,1383953.3605538,-25
1660064589.86314,1383953.3605612,-44
1660064589.86314,1383953.3605701,-37
1660064589.86314,1383953.3605748,-30
1660064589.86314,1383953.3605785,-23
1660064589.86314,1383953.3605837,-9
1660064589.86314,1383953.3605888,-4
1660064589.86314,1383953.3605939,-18
1660064589.86314,1383953.3606024,116
1660064589.86314,1383953.3606089,546
1660064589.86314,1383953.3606112,969
1660064589.86314,1383953.3606134,910
1660064589.86314,1383953.3606157,63
1660064589.86314,1383953.3606234,-913
1660064589.86314,1383953.3606338,-754
1660064589.86314,1383953.3606374,-11
1660064589.86314,1383953.3606437,67
1660064589.86314,1383953.3606563,-86
1660064589.86314,1383953.3606628,51
1660064589.86314,1383953.3606651,116
1660064589.86314,1383953.3606679,58
1660064589.86314,1383953.3606785,84
1660064589.86314,1383953.3606864,126
1660064589.86314,1383953.3606951,119
1660064589.86314,1383953.3607071,137
1660064589.86314,1383953.3607192,165
1660064589.86314,1383953.3607312,177
1660064589.86314,1383953.3607422,191
1660064589.86314,1383953.360755,212
1660064589.86314,1383953.3607658,228
1660064589.86314,1383953.3607775,252
1660064589.86314,1383953.3607925,280
1660064589.86314,1383953.3608055,298
1660064589.86314,1383953.3608187,310
1660064589.86314,1383953.360831,310
1660064589.86314,1383953.3608407,301
1660064589.86314,1383953.3608478,282
1660064589.86314,1383953.3608577,263
1660064589.86314,1383953.3608689,245
1660064589.86314,1383953.3608818,210
1660064589.86314,1383953.3608945,151
1660064589.86314,1383953.3609087,93
1660064589.86314,1383953.3609217,58
1660064589.86314,1383953.360935,37
1660064589.86314,1383953.3609486,11
1660064589.86314,1383953.3609616,-11
1660064589.86314,1383953.3609747,-30
1660064589.86314,1383953.3609879,-37
1660064589.86314,1383953.3610009,-25
1660064589.88109,1383953.361014,-11
1660064589.88109,1383953.3610272,-4
1660064589.88109,1383953.3610404,4
1660064589.88109,1383953.3610525,16
1660064589.88109,1383953.3610601,21
1660064589.88109,1383953.945688,23
1660064589.88109,1383953.9457074,30
1660064589.88109,1383953.9457155,35
1660064589.88109,1383953.9457193,35
1660064589.88109,1383953.9457282,37
1660064589.88109,1383953.9457369,35
1660064589.88109,1383953.945744,14
1660064589.88109,1383953.9457507,-11
1660064589.88109,1383953.9457552,-7
1660064589.88109,1383953.9457604,2
1660064589.88109,1383953.9457636,-4
1660064589.88109,1383953.9457678,-9
1660064589.88109,1383953.9457732,0
1660064589.88109,1383953.9457766,-7
1660064589.88109,1383953.9457797,-23
1660064589.88109,1383953.9457832,-42
1660064589.88109,1383953.9457898,-58
1660064589.88109,1383953.9457928,-51
1660064589.88109,1383953.945796,-39
1660064590.4332,1383953.9458095,-35
1660064590.4332,1383953.9458194,-28
1660064590.4332,1383953.9458259,-37
1660064590.4332,1383953.9458301,-42
1660064590.4332,1383953.9458339,168
1660064590.4332,1383953.9458379,663
1660064590.4332,1383953.9458414,1053
1660064590.4332,1383953.9458449,833
1660064590.4332,1383953.94585,-200
1660064590.4332,1383953.9458568,-1001
1660064590.4332,1383953.9458659,-525
1660064590.4332,1383953.9458751,93
1660064590.4332,1383953.9458846,-30
1660064590.4332,1383953.9458906,-105
1660064590.4332,1383953.9459033,58
1660064590.4332,1383953.9459135,60
1660064590.4332,1383953.9459203,18
1660064590.4332,1383953.9459327,77
1660064590.4332,1383953.945942,100
1660064590.4332,1383953.9459483,86
1660064590.4332,1383953.9459566,107
1660064590.4332,1383953.9459593,135
1660064590.4332,1383953.9459615,147
1660064590.4332,1383953.9459636,165
1660064590.4332,1383953.9459656,189
1660064590.4332,1383953.9459676,203
1660064590.4332,1383953.9459696,217
1660064590.4332,1383953.9459718,240
1660064590.4332,1383953.9459794,263
1660064590.4332,1383953.9459907,270
1660064590.4332,1383953.9459942,270
1660064590.4332,1383953.9460029,261
1660064590.4332,1383953.9460114,231
1660064590.4332,1383953.9460188,198
1660064590.4332,1383953.9460212,177
1660064590.4332,1383953.9460233,149
1660064590.4332,1383953.9460253,107
1660064590.4332,1383953.9460274,58
1660064590.4332,1383953.946035,23
1660064590.4332,1383953.9460457,2
1660064590.4332,1383953.9460492,-7
1660064590.4332,1383953.9460543,-14
1660064590.4332,1383953.9460625,-11
1660064590.4332,1383953.946073,-7
1660064590.4332,1383953.9460757,-2
1660064590.4332,1383953.9460778,4
1660064590.4332,1383953.9460799,18
1660064590.4332,1383953.9460819,30
1660064590.4332,1383953.946084,39
1660064590.4332,1383953.9460917,49
1660064590.44417,1383953.946102,49
1660064590.44417,1383953.9461055,49
1660064590.44417,1383953.9461091,53
1660064590.44417,1383953.9461118,60
1660064590.44417,1383954.5309046,63
1660064590.44417,1383954.530918,63
1660064590.44417,1383954.5309213,53
1660064590.44417,1383954.5309239,42
1660064590.44417,1383954.5309263,46
1660064590.44417,1383954.5309288,58
1660064590.44417,1383954.5309311,63
1660064590.44417,1383954.5309335,70
1660064590.44417,1383954.5309358,81
1660064590.44417,1383954.5309381,63
1660064590.44417,1383954.5309404,28
1660064590.44417,1383954.5309427,9
1660064590.44417,1383954.530945,7
1660064590.44417,1383954.5309475,9
1660064590.44417,1383954.5309497,9
1660064590.44417,1383954.5309521,-4
1660064590.44417,1383954.5309546,-23
1660064590.44417,1383954.5309591,-46
1660064590.44417,1383954.5309666,-9
1660064590.44417,1383954.5309754,305
1660064590.98035,1383954.5309798,840
1660064590.98035,1383954.5309865,1107
1660064590.98035,1383954.5309918,588
1660064590.98035,1383954.5309984,-555
1660064590.98035,1383954.5310046,-962
1660064590.98035,1383954.5310152,-259
1660064590.98035,1383954.531018,93
1660064590.98035,1383954.5310203,-126
1660064590.98035,1383954.5310224,-81
1660064590.98035,1383954.5310246,53
1660064590.98035,1383954.5310267,7
1660064590.98035,1383954.5310289,0
1660064590.98035,1383954.531031,58
1660064590.98035,1383954.5310331,63
1660064590.98035,1383954.5310352,63
1660064590.98035,1383954.5310373,91
1660064590.98035,1383954.5310393,107
1660064590.98035,1383954.5310414,119
1660064590.98035,1383954.5310435,135
1660064590.98035,1383954.5310456,156
1660064590.98035,1383954.5310477,175
1660064590.98035,1383954.5310498,191
1660064590.98035,1383954.5310518,207
1660064590.98035,1383954.5310539,221
1660064590.98035,1383954.5310562,224
1660064590.98035,1383954.5310583,207
1660064590.98035,1383954.5310603,182
1660064590.98035,1383954.5310625,163
1660064590.98035,1383954.5310646,149
1660064590.98035,1383954.5310667,130
1660064590.98035,1383954.5310688,100
1660064590.98035,1383954.5310708,65
1660064590.98035,1383954.5310728,39
1660064590.98035,1383954.5310749,21
1660064590.98035,1383954.531077,0
1660064590.98035,1383954.5310791,-9
1660064590.98035,1383954.5310814,-11
1660064590.98035,1383954.5310835,-9
1660064590.98035,1383954.5310855,0
1660064590.98035,1383954.5310875,9
1660064590.98035,1383954.5310897,16
1660064590.98035,1383954.5310919,25
1660064590.98035,1383954.531094,35
1660064590.98035,1383954.5310961,42
1660064590.98035,1383954.5310981,53
1660064590.98035,1383954.5311002,63
1660064590.98035,1383954.5311026,63
1660064590.98035,1383954.5311046,63
1660064590.98035,1383954.5311068,65
1660064590.98035,1383954.5311089,67
1660064590.99132,1383954.5311109,65
1660064590.99132,1383954.531113,65
1660064590.99132,1383954.531115,65
1660064590.99132,1383955.0663884,67
1660064590.99132,1383955.0664105,74
1660064590.99132,1383955.0664256,81
1660064590.99132,1383955.0664356,95
1660064590.99132,1383955.0664406,114
1660064590.99132,1383955.0664429,107
1660064590.99132,1383955.0664451,74
1660064590.99132,1383955.0664472,44
1660064590.99132,1383955.0664493,46
1660064590.99132,1383955.0664514,60
1660064590.99132,1383955.0664534,60
1660064590.99132,1383955.0664554,58
1660064590.99132,1383955.0664575,37
1660064590.99132,1383955.0664596,-18
1660064590.99132,1383955.0664617,84
1660064590.99132,1383955.0664638,532
1660064590.99132,1383955.0664658,1048
1660064590.99132,1383955.0664679,1104
1660064590.99132,1383955.06647,273
1660064590.99132,1383955.066472,-822
1660064590.99132,1383955.0664741,-759
1660064591.51327,1383955.0664762,-7
1660064591.51327,1383955.0664782,63
1660064591.51327,1383955.0664801,-123
1660064591.51327,1383955.066482,16
1660064591.51327,1383955.0664838,77
1660064591.51327,1383955.0664858,-2
1660064591.51327,1383955.0664876,28
1660064591.51327,1383955.0664896,77
1660064591.51327,1383955.0664915,58
1660064591.51327,1383955.0664934,63
1660064591.51327,1383955.0664952,86
1660064591.51327,1383955.0664971,93
1660064591.51327,1383955.066499,102
1660064591.51327,1383955.0665013,128
1660064591.51327,1383955.0665031,147
1660064591.51327,1383955.066505,158
1660064591.51327,1383955.0665069,161
1660064591.51327,1383955.0665088,156
1660064591.51327,1383955.0665106,163
1660064591.51327,1383955.0665125,172
1660064591.51327,1383955.0665145,168
1660064591.51327,1383955.0665164,156
1660064591.51327,1383955.0665183,142
1660064591.51327,1383955.0665202,123
1660064591.51327,1383955.0665221,98
1660064591.51327,1383955.0665245,67
1660064591.51327,1383955.0665328,37
1660064591.51327,1383955.0665404,11
1660064591.51327,1383955.0665483,-9
1660064591.51327,1383955.0665507,-28
1660064591.51327,1383955.0665529,-35
1660064591.51327,1383955.0665549,-35
1660064591.51327,1383955.066557,-28
1660064591.51327,1383955.066559,-18
1660064591.51327,1383955.0665609,-9
1660064591.51327,1383955.066563,0
1660064591.51327,1383955.066565,11
1660064591.51327,1383955.066567,21
1660064591.51327,1383955.0665691,32
1660064591.51327,1383955.0665713,39
1660064591.51327,1383955.0665734,46
1660064591.51327,1383955.0665753,51
1660064591.51327,1383955.0665774,51
1660064591.51327,1383955.0665794,53
1660064591.51327,1383955.0665867,56
1660064591.51327,1383955.0665987,56
1660064591.51327,1383955.0666115,53
1660064591.51327,1383955.0666213,53
1660064591.51327,1383955.0666238,58
1660064591.51327,1383955.0666261,63
1660064591.52524,1383955.0666335,60
1660064591.52524,1383955.066645,72
1660064591.52524,1383955.6028322,95
1660064591.52524,1383955.6028541,98
1660064591.52524,1383955.6028584,79
1660064591.52524,1383955.6028616,56
1660064591.52524,1383955.6028644,44
1660064591.52524,1383955.6028673,51
1660064591.52524,1383955.6028704,58
1660064591.52524,1383955.6028734,65
1660064591.52524,1383955.6028768,65
1660064591.52524,1383955.6028801,21
1660064591.52524,1383955.6028832,28
1660064591.52524,1383955.6028865,352
1660064591.52524,1383955.6028896,917
1660064591.52524,1383955.6028928,1216
1660064591.52524,1383955.6028958,717
1660064591.52524,1383955.6028995,-474
1660064591.52524,1383955.6029026,-948
1660064591.52524,1383955.6029057,-245
1660064591.52524,1383955.602909,133
1660064591.52524,1383955.6029121,-100
1660064591.52524,1383955.6029152,-58
1660064591.52524,1383955.6029181,88
1660064592.14724,1383955.6029212,28
1660064592.14724,1383955.6029244,14
1660064592.14724,1383955.6029276,79
1660064592.14724,1383955.6029307,84
1660064592.14724,1383955.6029337,81
1660064592.14724,1383955.6029368,114
1660064592.14724,1383955.6029399,130
1660064592.14724,1383955.602943,126
1660064592.14724,1383955.6029467,128
1660064592.14724,1383955.6029502,140
1660064592.14724,1383955.6029539,154
1660064592.14724,1383955.6029577,170
1660064592.14724,1383955.6029628,179
1660064592.14724,1383955.6029666,182
1660064592.14724,1383955.6029699,182
1660064592.14724,1383955.6029731,179
1660064592.14724,1383955.6029761,170
1660064592.14724,1383955.6029794,156
1660064592.14724,1383955.6029834,144
1660064592.14724,1383955.6029873,119
1660064592.14724,1383955.6029904,81
1660064592.14724,1383955.6029933,49
1660064592.14724,1383955.6029966,25
1660064592.14724,1383955.603,4
1660064592.14724,1383955.6030035,-14
1660064592.14724,1383955.6030066,-28
1660064592.14724,1383955.6030097,-39
1660064592.14724,1383955.6030132,-39
1660064592.14724,1383955.6030167,-25
1660064592.14724,1383955.6030199,-11
1660064592.14724,1383955.6030232,-2
1660064592.14724,1383955.6030268,4
1660064592.14724,1383955.6030301,11
1660064592.14724,1383955.603033,18
1660064592.14724,1383955.6030362,30
1660064592.14724,1383955.6030392,39
1660064592.14724,1383955.6030425,46
1660064592.14724,1383955.6030459,51
1660064592.14724,1383955.6030492,49
1660064592.14724,1383955.6030523,44
1660064592.14724,1383955.6030553,42
1660064592.14724,1383955.6030587,44
1660064592.14724,1383955.6030623,46
1660064592.14724,1383955.6030652,42
1660064592.14724,1383955.6030683,39
1660064592.14724,1383955.6030714,49
1660064592.14724,1383955.6030746,58
1660064592.14724,1383955.6030789,60
1660064592.14724,1383955.6030826,81
1660064592.14724,1383955.6030872,100
1660064592.15921,1383955.6030909,81
1660064592.15921,1383956.2363246,49
1660064592.15921,1383956.2363374,42
1660064592.15921,1383956.23634,53
1660064592.15921,1383956.2363424,60
1660064592.15921,1383956.2363445,63
1660064592.15921,1383956.2363466,63
1660064592.15921,1383956.2363487,25
1660064592.15921,1383956.2363508,25
1660064592.15921,1383956.236353,312
1660064592.15921,1383956.2363551,873
1660064592.15921,1383956.2363571,1240
1660064592.15921,1383956.236359,861
1660064592.15921,1383956.2363612,-310
1660064592.15921,1383956.2363632,-964
1660064592.15921,1383956.2363652,-340
1660064592.15921,1383956.2363673,142
1660064592.15921,1383956.2363694,-65
1660064592.15921,1383956.2363714,-72
1660064592.15921,1383956.2363737,88
1660064592.15921,1383956.2363757,37
1660064592.15921,1383956.2363777,-4
1660064592.15921,1383956.2363796,53
1660064592.15921,1383956.2363816,58
1660064592.63511,1383956.2363836,32
1660064592.63511,1383956.2363856,56
1660064592.63511,1383956.2363875,79
1660064592.63511,1383956.2363893,84
1660064592.63511,1383956.2363912,105
1660064592.63511,1383956.2363931,130
1660064592.63511,1383956.2363969,147
1660064592.63511,1383956.2363988,161
1660064592.63511,1383956.2364006,182
1660064592.63511,1383956.2364024,193
1660064592.63511,1383956.2364043,200
1660064592.63511,1383956.2364061,198
1660064592.63511,1383956.236408,182
1660064592.63511,1383956.2364098,163
1660064592.63511,1383956.2364116,147
1660064592.63511,1383956.2364135,121
1660064592.63511,1383956.2364159,88
1660064592.63511,1383956.2364178,56
1660064592.63511,1383956.2364196,21
1660064592.63511,1383956.2364214,-2
1660064592.63511,1383956.236424,-18
1660064592.63511,1383956.2364283,-35
1660064592.63511,1383956.2364329,-44
1660064592.63511,1383956.2364377,-44
1660064592.63511,1383956.2364427,-37
1660064592.63511,1383956.236453,-28
1660064592.63511,1383956.2364649,-16
1660064592.63511,1383956.2364737,-7
1660064592.63511,1383956.2364853,0
1660064592.63511,1383956.2364962,4
1660064592.63511,1383956.2365041,4
1660064592.63511,1383956.2365411,14
1660064592.63511,1383956.2365477,25
1660064592.63511,1383956.2365499,30
1660064592.63511,1383956.2365521,30
1660064592.63511,1383956.2365542,30
1660064592.63511,1383956.2365562,30
1660064592.63511,1383956.2365582,32
1660064592.63511,1383956.2365603,37
1660064592.63511,1383956.2365622,35
1660064592.63511,1383956.2365642,28
1660064592.63511,1383956.2365671,32
1660064592.63511,1383956.2365692,44
1660064592.63511,1383956.2365713,46
1660064592.63511,1383956.2365734,49
1660064592.63511,1383956.2365754,74
1660064592.63511,1383956.2365774,93
1660064592.63511,1383956.2365795,77
1660064592.63511,1383956.2365815,46
1660064592.63511,1383956.2365836,35
1660064592.64608,1383956.7242145,44
1660064592.64608,1383956.7242313,56
1660064592.64608,1383956.7242398,63
1660064592.64608,1383956.7242504,65
1660064592.64608,1383956.7242565,44
1660064592.64608,1383956.7242587,60
1660064592.64608,1383956.7242609,338
1660064592.64608,1383956.7242629,901
1660064592.64608,1383956.7242649,1307
1660064592.64608,1383956.724267,964
1660064592.64608,1383956.7242691,-238
1660064592.64608,1383956.7242711,-966
1660064592.64608,1383956.7242732,-371
1660064592.64608,1383956.7242753,142
1660064592.64608,1383956.7242772,-56
1660064592.64608,1383956.7242793,-88
1660064592.64608,1383956.7242814,65
1660064592.64608,1383956.7242835,39
1660064592.64608,1383956.7242856,16
1660064592.64608,1383956.7242877,77
1660064592.64608,1383956.7242914,91
1660064592.64608,1383956.7243041,72
1660064592.64608,1383956.7243136,70
1660064592.64608,1383956.7243195,79
1660064593.22266,1383956.7243282,98
1660064593.22266,1383956.7243378,119
1660064593.22266,1383956.7243477,133
1660064593.22266,1383956.7243538,149
1660064593.22266,1383956.7243579,163
1660064593.22266,1383956.7243631,179
1660064593.22266,1383956.7243682,198
1660064593.22266,1383956.7243736,210
1660064593.22266,1383956.7243872,207
1660064593.22266,1383956.7243944,196
1660064593.22266,1383956.7243967,179
1660064593.22266,1383956.7243997,161
1660064593.22266,1383956.7244115,144
1660064593.22266,1383956.7244189,114
1660064593.22266,1383956.7244223,72
1660064593.22266,1383956.7244243,37
1660064593.22266,1383956.7244264,4
1660064593.22266,1383956.7244288,-23
1660064593.22266,1383956.7244382,-39
1660064593.22266,1383956.7244471,-53
1660064593.22266,1383956.7244496,-60
1660064593.22266,1383956.7244675,-58
1660064593.22266,1383956.7244752,-49
1660064593.22266,1383956.7244777,-42
1660064593.22266,1383956.7244798,-32
1660064593.22266,1383956.7244819,-16
1660064593.22266,1383956.7244842,-4
1660064593.22266,1383956.7244912,2
1660064593.22266,1383956.7245043,9
1660064593.22266,1383956.7245447,16
1660064593.22266,1383956.7245552,21
1660064593.22266,1383956.7245682,28
1660064593.22266,1383956.7245827,35
1660064593.22266,1383956.7245957,32
1660064593.22266,1383956.7246088,32
1660064593.22266,1383956.7246254,32
1660064593.22266,1383956.7246633,30
1660064593.22266,1383956.7246742,28
1660064593.22266,1383956.7246783,30
1660064593.22266,1383956.7246833,39
1660064593.22266,1383956.7246885,46
1660064593.22266,1383956.724694,46
1660064593.22266,1383956.7246977,56
1660064593.22266,1383956.7247075,79
1660064593.22266,1383956.7247217,91
1660064593.22266,1383956.7247351,67
1660064593.22266,1383956.7247485,42
1660064593.22266,1383956.7247617,39
1660064593.22266,1383956.7247754,51
1660064593.22266,1383957.3107127,56
1660064593.23363,1383957.3107302,60
1660064593.23363,1383957.3107386,56
1660064593.23363,1383957.3107451,25
1660064593.23363,1383957.3107522,154
1660064593.23363,1383957.3107576,623
1660064593.23363,1383957.3107655,1153
1660064593.23363,1383957.31077,1200
1660064593.23363,1383957.310776,319
1660064593.23363,1383957.3107807,-817
1660064593.23363,1383957.3107867,-754
1660064593.23363,1383957.3107911,-7
1660064593.23363,1383957.3107954,32
1660064593.23363,1383957.3108007,-170
1660064593.23363,1383957.3108052,-21
1660064593.23363,1383957.3108095,53
1660064593.23363,1383957.3108155,-11
1660064593.23363,1383957.3108196,25
1660064593.23363,1383957.3108252,74
1660064593.23363,1383957.3108294,58
1660064593.23363,1383957.3108337,67
1660064593.23363,1383957.3108378,95
1660064593.23363,1383957.310842,102
1660064593.23363,1383957.3108478,116
1660064593.23363,1383957.310852,137
1660064593.80791,1383957.3108578,149
1660064593.80791,1383957.310862,168
1660064593.80791,1383957.3108663,191
1660064593.80791,1383957.3108706,210
1660064593.80791,1383957.3108745,221
1660064593.80791,1383957.3108789,226
1660064593.80791,1383957.3108833,217
1660064593.80791,1383957.3108877,200
1660064593.80791,1383957.3108917,186
1660064593.80791,1383957.3108959,168
1660064593.80791,1383957.3109002,137
1660064593.80791,1383957.3109045,100
1660064593.80791,1383957.3109087,58
1660064593.80791,1383957.3109135,21
1660064593.80791,1383957.3109179,-9
1660064593.80791,1383957.3109224,-30
1660064593.80791,1383957.3109277,-39
1660064593.80791,1383957.3109323,-39
1660064593.80791,1383957.3109387,-42
1660064593.80791,1383957.3109435,-39
1660064593.80791,1383957.3109504,-30
1660064593.80791,1383957.3109551,-18
1660064593.80791,1383957.3109614,-7
1660064593.80791,1383957.3109659,4
1660064593.80791,1383957.3109739,16
1660064593.80791,1383957.3109794,23
1660064593.80791,1383957.3109859,25
1660064593.80791,1383957.310992,32
1660064593.80791,1383957.3109982,42
1660064593.80791,1383957.311003,46
1660064593.80791,1383957.3110094,49
1660064593.80791,1383957.3110149,46
1660064593.80791,1383957.3110216,42
1660064593.80791,1383957.3110264,42
1660064593.80791,1383957.3110312,42
1660064593.80791,1383957.3110358,39
1660064593.80791,1383957.3110423,39
1660064593.80791,1383957.3110468,44
1660064593.80791,1383957.3110526,46
1660064593.80791,1383957.311057,53
1660064593.80791,1383957.3110635,58
1660064593.80791,1383957.3110683,67
1660064593.80791,1383957.3110729,86
1660064593.80791,1383957.3110798,88
1660064593.80791,1383957.3110866,60
1660064593.80791,1383957.311091,35
1660064593.80791,1383957.3110969,37
1660064593.80791,1383957.3111014,49
1660064593.80791,1383957.8945763,42
1660064593.80791,1383957.8945955,37
1660064593.81988,1383957.8946026,37
1660064593.81988,1383957.8946069,30
1660064593.81988,1383957.8946115,212
1660064593.81988,1383957.8946175,724
1660064593.81988,1383957.8946221,1219
1660064593.81988,1383957.8946268,1146
1660064593.81988,1383957.894634,149
1660064593.81988,1383957.8946409,-901
1660064593.81988,1383957.8946459,-653
1660064593.81988,1383957.8946526,65
1660064593.81988,1383957.8946573,35
1660064593.81988,1383957.8946636,-102
1660064593.81988,1383957.8946685,58
1660064593.81988,1383957.894675,79
1660064593.81988,1383957.8946793,0
1660064593.81988,1383957.8946856,49
1660064593.81988,1383957.8946914,91
1660064593.81988,1383957.8946955,70
1660064593.81988,1383957.8946996,81
1660064593.81988,1383957.8947056,109
1660064593.81988,1383957.89471,112
1660064593.81988,1383957.8947159,123
1660064593.81988,1383957.8947203,151
1660064593.81988,1383957.894726,170
1660064594.34113,1383957.8947301,175
1660064594.34113,1383957.8947341,191
1660064594.34113,1383957.894738,212
1660064594.34113,1383957.8947425,221
1660064594.34113,1383957.8947466,224
1660064594.34113,1383957.8947509,221
1660064594.34113,1383957.894755,205
1660064594.34113,1383957.8947591,189
1660064594.34113,1383957.8947636,172
1660064594.34113,1383957.894768,142
1660064594.34113,1383957.8947724,105
1660064594.34113,1383957.8947767,63
1660064594.34113,1383957.8947809,28
1660064594.34113,1383957.8947879,4
1660064594.34113,1383957.894792,-11
1660064594.34113,1383957.8947964,-28
1660064594.34113,1383957.8948025,-35
1660064594.34113,1383957.8948071,-35
1660064594.34113,1383957.8948133,-28
1660064594.34113,1383957.8948183,-16
1660064594.34113,1383957.8948247,-2
1660064594.34113,1383957.8948294,11
1660064594.34113,1383957.8948364,23
1660064594.34113,1383957.8948412,35
1660064594.34113,1383957.8948479,44
1660064594.34113,1383957.8948538,51
1660064594.34113,1383957.8948607,58
1660064594.34113,1383957.8948658,65
1660064594.34113,1383957.8948725,63
1660064594.34113,1383957.8948774,60
1660064594.34113,1383957.894884,63
1660064594.34113,1383957.8948891,58
1660064594.34113,1383957.8948956,51
1660064594.34113,1383957.8949004,51
1660064594.34113,1383957.894907,49
1660064594.34113,1383957.894912,49
1660064594.34113,1383957.894917,53
1660064594.34113,1383957.8949236,65
1660064594.34113,1383957.8949308,74
1660064594.34113,1383957.8949376,74
1660064594.34113,1383957.8949426,81
1660064594.34113,1383957.8949491,86
1660064594.34113,1383957.8949542,72
1660064594.34113,1383957.8949608,51
1660064594.34113,1383957.8949675,44
1660064594.34113,1383957.894974,58
1660064594.34113,1383957.894979,65
1660064594.34113,1383958.4302337,67
1660064594.34113,1383958.430247,74
1660064594.34113,1383958.4302506,70
1660064594.35309,1383958.4302539,123
1660064594.35309,1383958.4302571,448
1660064594.35309,1383958.4302602,966
1660064594.35309,1383958.4302631,1202
1660064594.35309,1383958.430266,700
1660064594.35309,1383958.430269,-446
1660064594.35309,1383958.4302717,-948
1660064594.35309,1383958.4302744,-249
1660064594.35309,1383958.4302773,200
1660064594.35309,1383958.4302802,-14
1660064594.35309,1383958.4302829,-14
1660064594.35309,1383958.4302858,140
1660064594.35309,1383958.4302886,100
1660064594.35309,1383958.4302915,63
1660064594.35309,1383958.4302955,114
1660064594.35309,1383958.4303089,114
1660064594.35309,1383958.4303157,86
1660064594.35309,1383958.4303182,109
1660064594.35309,1383958.4303203,142
1660064594.35309,1383958.4303223,154
1660064594.35309,1383958.4303243,170
1660064594.35309,1383958.4303265,191
1660064594.35309,1383958.4303337,210
1660064594.35309,1383958.4303448,238
1660064594.87469,1383958.4303484,266
1660064594.87469,1383958.4303513,280

1660064594.87469,1383958.430354,294
1660064594.87469,1383958.4303568,294
1660064594.87469,1383958.4303595,268
1660064594.87469,1383958.4303622,238
1660064594.87469,1383958.430365,217
1660064594.87469,1383958.4303677,189
1660064594.87469,1383958.4303705,147
1660064594.87469,1383958.4303734,100
1660064594.87469,1383958.4303763,56
1660064594.87469,1383958.4303792,18
1660064594.87469,1383958.4303822,-7
1660064594.87469,1383958.4303851,-28
1660064594.87469,1383958.4303879,-37
1660064594.87469,1383958.4303908,-42
1660064594.87469,1383958.4303938,-44
1660064594.87469,1383958.4303967,-39
1660064594.87469,1383958.4303996,-23
1660064594.87469,1383958.4304025,-7
1660064594.87469,1383958.4304053,7
1660064594.87469,1383958.4304085,16
1660064594.87469,1383958.4304212,18
1660064594.87469,1383958.4304285,23
1660064594.87469,1383958.430431,35
1660064594.87469,1383958.4304331,42
1660064594.87469,1383958.4304352,44
1660064594.87469,1383958.4304372,46
1660064594.87469,1383958.4304399,49
1660064594.87469,1383958.4304498,44
1660064594.87469,1383958.4304578,42
1660064594.87469,1383958.4304603,39
1660064594.87469,1383958.4304624,30
1660064594.87469,1383958.4304645,21
1660064594.87469,1383958.4304667,23
1660064594.87469,1383958.4304737,25
1660064594.87469,1383958.4304845,35
1660064594.87469,1383958.4304894,46
1660064594.87469,1383958.4304914,53
1660064594.87469,1383958.4304934,65
1660064594.87469,1383958.4304955,86
1660064594.87469,1383958.4304975,84
1660064594.87469,1383958.4304995,58
1660064594.87469,1383958.4305015,42
1660064594.87469,1383958.4305042,44
1660064594.87469,1383958.4305063,56
1660064594.87469,1383958.9664687,63
1660064594.87469,1383958.966487,72
1660064594.87469,1383958.9664945,79
1660064594.87469,1383958.9665003,91
1660064594.88766,1383958.9665044,296
1660064594.88766,1383958.9665536,775
1660064594.88766,1383958.9665599,1153
1660064594.88766,1383958.9665647,983
1660064594.88766,1383958.9665683,-16
1660064594.88766,1383958.9665718,-1001
1660064594.88766,1383958.9665754,-681
1660064594.88766,1383958.9665792,58
1660064594.88766,1383958.9665828,32
1660064594.88766,1383958.9665862,-93
1660064594.88766,1383958.9665899,70
1660064594.88766,1383958.9665935,86
1660064594.88766,1383958.9665994,7
1660064594.88766,1383958.9666036,53
1660064594.88766,1383958.9666082,95
1660064594.88766,1383958.9666138,81
1660064594.88766,1383958.9666187,102
1660064594.88766,1383958.9666233,133
1660064594.88766,1383958.9666303,135
1660064594.88766,1383958.966654,151
1660064594.88766,1383958.9666686,182
1660064594.88766,1383958.9666795,203
1660064594.88766,1383958.9666884,224
1660064594.88766,1383958.9666967,245
1660064595.51258,1383958.9667026,261
1660064595.51258,1383958.9667077,270
1660064595.51258,1383958.9667134,270
1660064595.51258,1383958.9667178,261
1660064595.51258,1383958.9667232,247
1660064595.51258,1383958.9667293,228
1660064595.51258,1383958.9667352,203
1660064595.51258,1383958.966741,161
1660064595.51258,1383958.966747,109
1660064595.51258,1383958.9667523,65
1660064595.51258,1383958.9667574,28
1660064595.51258,1383958.9667645,-4
1660064595.51258,1383958.9667716,-37
1660064595.51258,1383958.9667775,-58
1660064595.51258,1383958.9667827,-70
1660064595.51258,1383958.9667869,-70
1660064595.51258,1383958.9667906,-56
1660064595.51258,1383958.9667969,-42
1660064595.51258,1383958.9668065,-32
1660064595.51258,1383958.9668113,-21
1660064595.51258,1383958.9668178,-11
1660064595.51258,1383958.9668237,4
1660064595.51258,1383958.9668335,16
1660064595.51258,1383958.9668439,16
1660064595.51258,1383958.9668563,7
1660064595.51258,1383958.9668651,9
1660064595.51258,1383958.9668779,11
1660064595.51258,1383958.9668869,14
1660064595.51258,1383958.9668914,18
1660064595.51258,1383958.9668979,25
1660064595.51258,1383958.9669079,25
1660064595.51258,1383958.9669152,23
1660064595.51258,1383958.9669206,16
1660064595.51258,1383958.9669267,16
1660064595.51258,1383958.9669303,30
1660064595.51258,1383958.9669427,42
1660064595.51258,1383958.9669501,42
1660064595.51258,1383958.9669583,49
1660064595.51258,1383958.9669661,72
1660064595.51258,1383958.9669752,79
1660064595.51258,1383958.9669829,60
1660064595.51258,1383958.9669916,39
1660064595.51258,1383958.9670037,37
1660064595.51258,1383958.9670105,44
1660064595.51258,1383958.9670168,39
1660064595.51258,1383959.6002158,39
1660064595.51258,1383959.6002345,49
1660064595.51258,1383959.6002409,30
1660064595.51258,1383959.6002444,121
1660064595.51258,1383959.6002482,537
1660064595.52421,1383959.6002516,1086
1660064595.52421,1383959.6002566,1277
1660064595.52421,1383959.6002616,593
1660064595.52421,1383959.6002689,-630
1660064595.52421,1383959.6002744,-861
1660064595.52421,1383959.600279,-93
1660064595.52421,1383959.6002847,102
1660064595.52421,1383959.6002884,-154
1660064595.52421,1383959.6002938,-58
1660064595.52421,1383959.6002975,63
1660064595.52421,1383959.6003039,-4
1660064595.52421,1383959.6003084,7
1660064595.52421,1383959.600314,65
1660064595.52421,1383959.6003189,58
1660064595.52421,1383959.6003239,58
1660064595.52421,1383959.6003281,91
1660064595.52421,1383959.6003329,107
1660064595.52421,1383959.6003381,109
1660064595.52421,1383959.6003424,121
1660064595.52421,1383959.6003527,135
1660064595.52421,1383959.6003589,142
1660064595.52421,1383959.6003617,158
1660064595.52421,1383959.6003699,182
1660064595.52421,1383959.6003799,196
1660064596.04157,1383959.6003883,196
1660064596.04157,1383959.6003939,191
1660064596.04157,1383959.6003997,172
1660064596.04157,1383959.6004102,151
1660064596.04157,1383959.6004173,135
1660064596.04157,1383959.6004231,116
1660064596.04157,1383959.6004335,84
1660064596.04157,1383959.6004392,46
1660064596.04157,1383959.6004461,21
1660064596.04157,1383959.60045,0
1660064596.04157,1383959.6004544,-11
1660064596.04157,1383959.6004614,-18
1660064596.04157,1383959.6004667,-25
1660064596.04157,1383959.6004731,-25
1660064596.04157,1383959.6004798,-16
1660064596.04157,1383959.6004893,-16
1660064596.04157,1383959.6005013,-23
1660064596.04157,1383959.6005134,-11
1660064596.04157,1383959.6005191,4
1660064596.04157,1383959.6005213,16
1660064596.04157,1383959.6005242,23
1660064596.04157,1383959.600533,30
1660064596.04157,1383959.6005445,37
1660064596.04157,1383959.6005497,44
1660064596.04157,1383959.6005525,46
1660064596.04157,1383959.6005614,51
1660064596.04157,1383959.600573,56
1660064596.04157,1383959.6005788,56
1660064596.04157,1383959.6005878,53
1660064596.04157,1383959.6005996,53
1660064596.04157,1383959.6006107,51
1660064596.04157,1383959.6006258,51
1660064596.04157,1383959.6006366,58
1660064596.04157,1383959.6006459,70
1660064596.04157,1383959.6006533,65
1660064596.04157,1383959.6006621,58
1660064596.04157,1383959.6006732,79
1660064596.04157,1383959.6006822,105
1660064596.04157,1383959.6006887,98
1660064596.04157,1383959.6007007,70
1660064596.04157,1383959.6007112,53
1660064596.04157,1383959.6007198,56
1660064596.04157,1383959.60073,65
1660064596.04157,1383959.60074,72
1660064596.04157,1383960.1383848,79
1660064596.04157,1383960.1384099,67
1660064596.04157,1383960.1384209,60
1660064596.04157,1383960.1384306,303
1660064596.04157,1383960.1384369,873
1660064596.04157,1383960.1384495,1359
1660064596.05354,1383960.1384599,1172
1660064596.05354,1383960.138468,28
1660064596.05354,1383960.1384752,-903
1660064596.05354,1383960.1384832,-462
1660064596.05354,1383960.1384909,121
1660064596.05354,1383960.1384934,-42
1660064596.05354,1383960.1384956,-102
1660064596.05354,1383960.1384977,77
1660064596.05354,1383960.1384998,60
1660064596.05354,1383960.1385019,-4
1660064596.05354,1383960.138504,35
1660064596.05354,1383960.1385076,53
1660064596.05354,1383960.1385139,44
1660064596.05354,1383960.1385279,63
1660064596.05354,1383960.1385396,81
1660064596.05354,1383960.1385479,79
1660064596.05354,1383960.1385555,81
1660064596.05354,1383960.1385694,95
1660064596.05354,1383960.138582,116
1660064596.05354,1383960.1385975,137
1660064596.05354,1383960.1386108,156
1660064596.05354,1383960.1386243,170
1660064596.05354,1383960.1386381,175
1660064596.05354,1383960.1386433,172
1660064596.63229,1383960.1386455,168
1660064596.63229,1383960.1386481,156
1660064596.63229,1383960.1386521,142
1660064596.63229,1383960.1386606,126
1660064596.63229,1383960.1386675,95
1660064596.63229,1383960.1386727,60
1660064596.63229,1383960.1386797,32
1660064596.63229,1383960.1386869,2
1660064596.63229,1383960.1386934,-28
1660064596.63229,1383960.1387008,-44
1660064596.63229,1383960.1387123,-49
1660064596.63229,1383960.1387214,-53
1660064596.63229,1383960.1387273,-49
1660064596.63229,1383960.1387365,-35
1660064596.63229,1383960.1387425,-23
1660064596.63229,1383960.138753,-14
1660064596.63229,1383960.138759,-7
1660064596.63229,1383960.1387678,0
1660064596.63229,1383960.1387737,14
1660064596.63229,1383960.1387828,28
1660064596.63229,1383960.1387887,39
1660064596.63229,1383960.1387994,42
1660064596.63229,1383960.1388058,46
1660064596.63229,1383960.1388146,49
1660064596.63229,1383960.138821,44
1660064596.63229,1383960.1388298,44
1660064596.63229,1383960.1388357,49
1660064596.63229,1383960.1388441,51
1660064596.63229,1383960.1388505,46
1660064596.63229,1383960.1388766,44
1660064596.63229,1383960.1388854,42
1660064596.63229,1383960.1388941,49
1660064596.63229,1383960.1389002,60
1660064596.63229,1383960.1389088,63
1660064596.63229,1383960.1389146,67
1660064596.63229,1383960.1389276,91
1660064596.63229,1383960.1389371,105
1660064596.63229,1383960.1389429,86
1660064596.63229,1383960.1389516,63
1660064596.63229,1383960.1389584,56
1660064596.63229,1383960.1389665,63
1660064596.63229,1383960.1389727,65
1660064596.63229,1383960.1389816,63
1660064596.63229,1383960.721686,63
1660064596.63229,1383960.7217062,46
1660064596.63229,1383960.7217206,93
1660064596.63229,1383960.7217339,443
1660064596.63229,1383960.7217432,1039
1660064596.63229,1383960.7217495,1382
1660064596.63229,1383960.7217538,866
1660064596.64426,1383960.7217593,-406
1660064596.64426,1383960.7217653,-931
1660064596.64426,1383960.7217745,-228
1660064596.64426,1383960.7217791,144
1660064596.64426,1383960.7217894,-88
1660064596.64426,1383960.7217976,-44
1660064596.64426,1383960.7218032,93
1660064596.64426,1383960.7218109,25
1660064596.64426,1383960.7218149,9
1660064596.64426,1383960.7218196,70
1660064596.64426,1383960.721828,65
1660064596.64426,1383960.7218396,49
1660064596.64426,1383960.721845,74
1660064596.64426,1383960.7218487,93
1660064596.64426,1383960.7218524,95
1660064596.64426,1383960.7218561,112
1660064596.64426,1383960.7218622,135
1660064596.64426,1383960.7218662,142
1660064596.64426,1383960.7218718,140
1660064596.64426,1383960.7218763,151
1660064596.64426,1383960.7218821,172
1660064596.64426,1383960.7218857,179
1660064596.64426,1383960.7218893,168
1660064596.64426,1383960.7218926,144
1660064597.16951,1383960.7218964,123
1660064597.16951,1383960.7219001,112
1660064597.16951,1383960.7219036,95
1660064597.16951,1383960.721907,67
1660064597.16951,1383960.7219106,37
1660064597.16951,1383960.721914,11
1660064597.16951,1383960.7219176,-9
1660064597.16951,1383960.7219212,-28
1660064597.16951,1383960.7219247,-39
1660064597.16951,1383960.7219281,-44
1660064597.16951,1383960.7219315,-42
1660064597.16951,1383960.7219349,-35
1660064597.16951,1383960.7219382,-23
1660064597.16951,1383960.7219416,-21
1660064597.16951,1383960.7219455,-23
1660064597.16951,1383960.7219571,-11
1660064597.16951,1383960.7219609,9
1660064597.16951,1383960.7219643,21
1660064597.16951,1383960.7219685,28
1660064597.16951,1383960.721972,32
1660064597.16951,1383960.7219754,37
1660064597.16951,1383960.7219793,42
1660064597.16951,1383960.721983,49
1660064597.16951,1383960.7219865,53
1660064597.16951,1383960.721991,53
1660064597.16951,1383960.7219946,49
1660064597.16951,1383960.7219981,46
1660064597.16951,1383960.7220016,46
1660064597.16951,1383960.722005,46
1660064597.16951,1383960.7220084,49
1660064597.16951,1383960.722012,56
1660064597.16951,1383960.7220154,65
1660064597.16951,1383960.7220188,63
1660064597.16951,1383960.7220223,60
1660064597.16951,1383960.722026,86
1660064597.16951,1383960.7220296,114
1660064597.16951,1383960.722033,102
1660064597.16951,1383960.7220364,70
1660064597.16951,1383960.7220411,44
1660064597.16951,1383960.722062,46
1660064597.16951,1383960.7220679,58
1660064597.16951,1383960.7220724,65
1660064597.16951,1383961.2599459,72
1660064597.16951,1383961.2599604,60
1660064597.16951,1383961.2599656,60
1660064597.16951,1383961.2599706,317
1660064597.16951,1383961.2599738,887
1660064597.16951,1383961.2599769,1326
1660064597.16951,1383961.25998,1060
1660064597.16951,1383961.2599831,-93
1660064597.18248,1383961.2599875,-948
1660064597.18248,1383961.2599905,-464
1660064597.18248,1383961.2599937,112
1660064597.18248,1383961.2599987,-49
1660064597.18248,1383961.2600016,-112
1660064597.18248,1383961.2600046,51
1660064597.18248,1383961.2600077,28
1660064597.18248,1383961.2600112,-39
1660064597.18248,1383961.2600159,4
1660064597.18248,1383961.2600188,32
1660064597.18248,1383961.2600221,25
1660064597.18248,1383961.2600279,44
1660064597.18248,1383961.2600308,70
1660064597.18248,1383961.2600583,72
1660064597.18248,1383961.260063,74
1660064597.18248,1383961.2600657,88
1660064597.18248,1383961.2600686,114
1660064597.18248,1383961.2600713,137
1660064597.18248,1383961.2600766,151
1660064597.18248,1383961.2600814,168
1660064597.18248,1383961.260088,177
1660064597.18248,1383961.2600937,179
1660064597.18248,1383961.2600981,172
1660064597.18248,1383961.2601008,163
1660064597.70093,1383961.2601037,151
1660064597.70093,1383961.2601066,135
1660064597.70093,1383961.2601094,107
1660064597.70093,1383961.2601138,72
1660064597.70093,1383961.2601197,32
1660064597.70093,1383961.2601256,2
1660064597.70093,1383961.2601575,-16
1660064597.70093,1383961.260214,-28
1660064597.70093,1383961.2602225,-37
1660064597.70093,1383961.260228,-44
1660064597.70093,1383961.2602333,-37
1660064597.70093,1383961.2602379,-28
1660064597.70093,1383961.2602427,-18
1660064597.70093,1383961.2602478,-4
1660064597.70093,1383961.2602527,9
1660064597.70093,1383961.2602575,16
1660064597.70093,1383961.2602675,25
1660064597.70093,1383961.2602736,39
1660064597.70093,1383961.2602794,46
1660064597.70093,1383961.2602857,51
1660064597.70093,1383961.260293,58
1660064597.70093,1383961.2603003,58
1660064597.70093,1383961.2603057,60
1660064597.70093,1383961.2603149,63
1660064597.70093,1383961.2603223,60
1660064597.70093,1383961.2603247,58
1660064597.70093,1383961.2603269,58
1660064597.70093,1383961.2603289,56
1660064597.70093,1383961.260331,53
1660064597.70093,1383961.260333,63
1660064597.70093,1383961.260335,74
1660064597.70093,1383961.260337,72
1660064597.70093,1383961.260339,77
1660064597.70093,1383961.260341,102
1660064597.70093,1383961.260343,112
1660064597.70093,1383961.260345,79
1660064597.70093,1383961.260347,39
1660064597.70093,1383961.260349,28
1660064597.70093,1383961.260351,39
1660064597.70093,1383961.2603531,46
1660064597.70093,1383961.2603552,49
1660064597.70093,1383961.7947277,51
1660064597.70093,1383961.7947484,30
1660064597.70093,1383961.794753,93
1660064597.70093,1383961.7947579,467
1660064597.70093,1383961.7947615,1027
1660064597.70093,1383961.7947659,1279
1660064597.70093,1383961.79477,698
1660064597.70093,1383961.7947743,-506
1660064597.70093,1383961.7947788,-887
1660064597.71988,1383961.7947825,-165
1660064597.71988,1383961.7947863,147
1660064597.71988,1383961.7947907,-86
1660064597.71988,1383961.7947949,-42
1660064597.71988,1383961.7947987,65
1660064597.71988,1383961.794803,2
1660064597.71988,1383961.794807,-7
1660064597.71988,1383961.7948118,44
1660064597.71988,1383961.7948161,49
1660064597.71988,1383961.7948205,42
1660064597.71988,1383961.7948254,60
1660064597.71988,1383961.7948303,79
1660064597.71988,1383961.7948345,95
1660064597.71988,1383961.7948389,119
1660064597.71988,1383961.7948426,142
1660064597.71988,1383961.7948458,149
1660064597.71988,1383961.794849,149
1660064597.71988,1383961.7948522,161
1660064597.71988,1383961.7948565,179
1660064597.71988,1383961.7948599,182
1660064597.71988,1383961.7948635,175
1660064597.71988,1383961.7948676,168
1660064597.71988,1383961.7948719,151
1660064597.71988,1383961.7948756,135
1660064598.23785,1383961.7948798,121
1660064598.23785,1383961.7948845,98
1660064598.23785,1383961.7948896,58
1660064598.23785,1383961.7948945,25
1660064598.23785,1383961.7948975,2
1660064598.23785,1383961.7949032,-18
1660064598.23785,1383961.7949083,-30
1660064598.23785,1383961.7949137,-35
1660064598.23785,1383961.7949204,-35
1660064598.23785,1383961.7949273,-32
1660064598.23785,1383961.794934,-25
1660064598.23785,1383961.7949409,-16
1660064598.23785,1383961.7949461,0
1660064598.23785,1383961.79495,18
1660064598.23785,1383961.7949528,28
1660064598.23785,1383961.7949555,32
1660064598.23785,1383961.7949607,42
1660064598.23785,1383961.7949659,46
1660064598.23785,1383961.7949705,53
1660064598.23785,1383961.7949793,63
1660064598.23785,1383961.7949866,70
1660064598.23785,1383961.7949946,67
1660064598.23785,1383961.7950053,60
1660064598.23785,1383961.7950161,56
1660064598.23785,1383961.795025,58
1660064598.23785,1383961.7950313,58
1660064598.23785,1383961.7950354,51
1660064598.23785,1383961.7950375,51
1660064598.23785,1383961.7950396,60
1660064598.23785,1383961.7950417,65
1660064598.23785,1383961.7950437,72
1660064598.23785,1383961.7950458,93
1660064598.23785,1383961.7950479,91
1660064598.23785,1383961.7950499,56
1660064598.23785,1383961.795052,32
1660064598.23785,1383961.7950589,35
1660064598.23785,1383961.7950709,39
1660064598.23785,1383961.7950765,42
1660064598.23785,1383961.7950807,53
1660064598.23785,1383961.7950827,63
1660064598.23785,1383962.3322226,56
1660064598.23785,1383962.3322376,184
1660064598.23785,1383962.3322428,609
1660064598.23785,1383962.3322502,1055
1660064598.23785,1383962.3322567,1034
1660064598.23785,1383962.3322626,212
1660064598.23785,1383962.3322689,-861
1660064598.23785,1383962.3322735,-857
1660064598.23785,1383962.3322789,-93
1660064598.23785,1383962.332281,63
1660064598.2538,1383962.3322832,-119
1660064598.2538,1383962.3322865,-4
1660064598.2538,1383962.3322996,79
1660064598.2538,1383962.3323063,25
1660064598.2538,1383962.3323088,44
1660064598.2538,1383962.3323109,67
1660064598.2538,1383962.332313,39
1660064598.2538,1383962.332315,56
1660064598.2538,1383962.3323171,88
1660064598.2538,1383962.3323242,91
1660064598.2538,1383962.3323355,107
1660064598.2538,1383962.3323404,142
1660064598.2538,1383962.3323425,163
1660064598.2538,1383962.3323479,189
1660064598.2538,1383962.3323502,224
1660064598.2538,1383962.3323523,254
1660064598.2538,1383962.3323544,275
1660064598.2538,1383962.3323565,282
1660064598.2538,1383962.3323586,275
1660064598.2538,1383962.3323609,259
1660064598.2538,1383962.3323675,240
1660064598.2538,1383962.3323739,221
1660064598.2538,1383962.3323779,191
1660064598.2538,1383962.3323817,142
1660064598.82367,1383962.3323866,88
1660064598.82367,1383962.3323917,44
1660064598.82367,1383962.3323962,9
1660064598.82367,1383962.3324001,-16
1660064598.82367,1383962.3324039,-28
1660064598.82367,1383962.3324074,-39
1660064598.82367,1383962.332411,-44
1660064598.82367,1383962.3324145,-44
1660064598.82367,1383962.3324182,-37
1660064598.82367,1383962.3324219,-21
1660064598.82367,1383962.3324258,-2
1660064598.82367,1383962.3324295,16
1660064598.82367,1383962.3324332,23
1660064598.82367,1383962.3324381,28
1660064598.82367,1383962.3324436,37
1660064598.82367,1383962.3324474,44
1660064598.82367,1383962.3324527,44
1660064598.82367,1383962.332456,44
1660064598.82367,1383962.3324597,49
1660064598.82367,1383962.332463,49
1660064598.82367,1383962.3324669,39
1660064598.82367,1383962.3324704,42
1660064598.82367,1383962.3324785,51
1660064598.82367,1383962.3324899,51
1660064598.82367,1383962.3325009,53
1660064598.82367,1383962.3325054,65
1660064598.82367,1383962.3325074,65
1660064598.82367,1383962.3325096,63
1660064598.82367,1383962.3325131,81
1660064598.82367,1383962.3325258,100
1660064598.82367,1383962.3325317,86
1660064598.82367,1383962.3325338,51
1660064598.82367,1383962.3325358,28
1660064598.82367,1383962.3325378,30
1660064598.82367,1383962.3325398,42
1660064598.82367,1383962.3325432,49
1660064598.82367,1383962.3325558,60
1660064598.82367,1383962.3325616,60
1660064598.82367,1383962.3325639,81
1660064598.82367,1383962.916429,329
1660064598.82367,1383962.9164462,780
1660064598.82367,1383962.9164544,1030
1660064598.82367,1383962.9164591,726
1660064598.82367,1383962.9164654,-289
1660064598.82367,1383962.9164698,-1041
1660064598.82367,1383962.9164741,-504
1660064598.82367,1383962.91648,130
1660064598.82367,1383962.9164851,-2
1660064598.82367,1383962.9164912,-70
1660064598.82367,1383962.9164951,86
1660064598.83464,1383962.916501,58
1660064598.83464,1383962.9165066,-7
1660064598.83464,1383962.9165123,37
1660064598.83464,1383962.9165166,63
1660064598.83464,1383962.9165221,56
1660064598.83464,1383962.9165264,79
1660064598.83464,1383962.9165319,102
1660064598.83464,1383962.9165362,98
1660064598.83464,1383962.9165419,98
1660064598.83464,1383962.916546,123
1660064598.83464,1383962.9165514,156
1660064598.83464,1383962.9165555,184
1660064598.83464,1383962.9165608,210
1660064598.83464,1383962.916565,231
1660064598.83464,1383962.9165694,240
1660064598.83464,1383962.9165747,247
1660064598.83464,1383962.9165786,245
1660064598.83464,1383962.9165826,226
1660064598.83464,1383962.9165881,203
1660064598.83464,1383962.9165922,182
1660064598.83464,1383962.9165974,147
1660064598.83464,1383962.9166013,98
1660064598.83464,1383962.9166055,58
1660064598.83464,1383962.916611,30
1660064599.41068,1383962.9166285,-2
1660064599.41068,1383962.9166321,-23
1660064599.41068,1383962.9166356,-28
1660064599.41068,1383962.9166543,-37
1660064599.41068,1383962.916658,-42
1660064599.41068,1383962.9166616,-30
1660064599.41068,1383962.9166655,-21
1660064599.41068,1383962.9166693,-18
1660064599.41068,1383962.916673,-9
1660064599.41068,1383962.9166766,2
1660064599.41068,1383962.9166804,14
1660064599.41068,1383962.9166841,23
1660064599.41068,1383962.9166895,32
1660064599.41068,1383962.9166932,42
1660064599.41068,1383962.916697,49
1660064599.41068,1383962.9167031,53
1660064599.41068,1383962.916707,51
1660064599.41068,1383962.9167108,51
1660064599.41068,1383962.9167158,49
1660064599.41068,1383962.9167206,49
1660064599.41068,1383962.9167243,51
1660064599.41068,1383962.9167283,58
1660064599.41068,1383962.9167321,63
1660064599.41068,1383962.916736,63
1660064599.41068,1383962.9167397,65
1660064599.41068,1383962.9167436,86
1660064599.41068,1383962.9167494,105
1660064599.41068,1383962.9167532,86
1660064599.41068,1383962.916757,56
1660064599.41068,1383962.9167623,42
1660064599.41068,1383962.9167662,39
1660064599.41068,1383962.9167702,37
1660064599.41068,1383962.916774,32
1660064599.41068,1383962.9167778,32
1660064599.41068,1383962.9167829,23
1660064599.41068,1383962.9167873,42
1660064599.41068,1383962.9167912,296
1660064599.41068,1383962.9167967,782
1660064599.41068,1383963.50064,1116
1660064599.41068,1383963.5006561,857
1660064599.41068,1383963.5006608,-200
1660064599.41068,1383963.5006647,-957
1660064599.41068,1383963.5006672,-406
1660064599.41068,1383963.5006753,163
1660064599.41068,1383963.5006825,-28
1660064599.41068,1383963.5006908,-81
1660064599.41068,1383963.5006951,86
1660064599.41068,1383963.500699,39
1660064599.41068,1383963.5007037,-21
1660064599.41068,1383963.5007091,44
1660064599.42663,1383963.5007136,70
1660064599.42663,1383963.5007192,53
1660064599.42663,1383963.5007246,72
1660064599.42663,1383963.5007324,72
1660064599.42663,1383963.500739,53
1660064599.42663,1383963.5007476,77
1660064599.42663,1383963.5007545,112
1660064599.42663,1383963.5007621,123
1660064599.42663,1383963.5007657,142
1660064599.42663,1383963.5007792,163
1660064599.42663,1383963.5007916,170
1660064599.42663,1383963.5008015,177
1660064599.42663,1383963.500809,184
1660064599.42663,1383963.5008192,172
1660064599.42663,1383963.5008301,161
1660064599.42663,1383963.500839,149
1660064599.42663,1383963.50085,123
1660064599.42663,1383963.5008607,93
1660064599.42663,1383963.5008686,63
1660064599.42663,1383963.5008798,32
1660064599.42663,1383963.5008901,4
1660064599.42663,1383963.5008984,-18
1660064599.42663,1383963.5009083,-37
1660064599.42663,1383963.5009192,-44
1660064599.99363,1383963.500927,-42
1660064599.99363,1383963.5009384,-37
1660064599.99363,1383963.5009462,-28
1660064599.99363,1383963.5009536,-16
1660064599.99363,1383963.5009635,-7
1660064599.99363,1383963.5009716,4
1660064599.99363,1383963.5009779,18
1660064599.99363,1383963.5009917,28
1660064599.99363,1383963.5010014,35
1660064599.99363,1383963.5010129,44
1660064599.99363,1383963.5010236,46
1660064599.99363,1383963.5010326,46
1660064599.99363,1383963.5010431,53
1660064599.99363,1383963.5010539,60
1660064599.99363,1383963.5010624,65
1660064599.99363,1383963.501073,67
1660064599.99363,1383963.5010836,63
1660064599.99363,1383963.5010911,60
1660064599.99363,1383963.5011022,65
1660064599.99363,1383963.501113,70
1660064599.99363,1383963.5011223,67
1660064599.99363,1383963.5011321,81
1660064599.99363,1383963.5011428,100
1660064599.99363,1383963.5011505,86
1660064599.99363,1383963.5011619,49
1660064599.99363,1383963.5011727,32
1660064599.99363,1383963.5011804,37
1660064599.99363,1383963.5011916,46
1660064599.99363,1383963.5012025,44
1660064599.99363,1383963.5012093,37
1660064599.99363,1383963.5012194,35
1660064599.99363,1383963.5012304,16
1660064599.99363,1383963.5012386,98
1660064599.99363,1383963.5012436,478
1660064599.99363,1383963.5012496,985
1660064599.99363,1383963.5012574,1174
1660064599.99363,1383963.50127,572
1660064599.99363,1383964.0856995,-607
1660064599.99363,1383964.0857173,-885
1660064599.99363,1383964.0857264,-98
1660064599.99363,1383964.0857319,170
1660064599.99363,1383964.0857391,-72
1660064599.99363,1383964.0857437,18
1660064599.99363,1383964.0857483,140
1660064599.99363,1383964.0857544,63
1660064599.99363,1383964.0857591,60
1660064599.99363,1383964.0857654,112
1660064599.99363,1383964.0857701,102
1660064599.99363,1383964.0857757,93
1660064599.99363,1383964.0857801,100
1660064600.0056,1383964.0857855,95
1660064600.0056,1383964.0857909,107
1660064600.0056,1383964.0857964,128
1660064600.0056,1383964.0858012,144
1660064600.0056,1383964.0858065,161
1660064600.0056,1383964.0858111,165
1660064600.0056,1383964.0858166,165
1660064600.0056,1383964.0858216,182
1660064600.0056,1383964.0858276,196
1660064600.0056,1383964.0858316,186
1660064600.0056,1383964.0858356,168
1660064600.0056,1383964.0858397,147
1660064600.0056,1383964.0858479,128
1660064600.0056,1383964.085858,109
1660064600.0056,1383964.0858689,79
1660064600.0056,1383964.0858731,37
1660064600.0056,1383964.0858753,11
1660064600.0056,1383964.0858775,-4
1660064600.0056,1383964.0858817,-25
1660064600.0056,1383964.0858948,-37
1660064600.0056,1383964.0859058,-35
1660064600.0056,1383964.0859203,-32
1660064600.0056,1383964.0859325,-25
1660064600.0056,1383964.0859456,-9
1660064600.5289,1383964.0859518,-4
1660064600.5289,1383964.0859565,-7
1660064600.5289,1383964.085961,9
1660064600.5289,1383964.0859663,25
1660064600.5289,1383964.0859708,37
1660064600.5289,1383964.085975,51
1660064600.5289,1383964.0859795,58
1660064600.5289,1383964.0859836,53
1660064600.5289,1383964.0859902,56
1660064600.5289,1383964.0859949,63
1660064600.5289,1383964.0860006,70
1660064600.5289,1383964.0860066,70
1660064600.5289,1383964.0860107,72
1660064600.5289,1383964.0860144,67
1660064600.5289,1383964.0860203,51
1660064600.5289,1383964.0860236,42
1660064600.5289,1383964.0860272,56
1660064600.5289,1383964.0860306,67
1660064600.5289,1383964.0860339,63
1660064600.5289,1383964.0860374,72
1660064600.5289,1383964.086041,79
1660064600.5289,1383964.0860444,60
1660064600.5289,1383964.0860476,35
1660064600.5289,1383964.0860509,32
1660064600.5289,1383964.0860542,46
1660064600.5289,1383964.0860584,56
1660064600.5289,1383964.086062,51
1660064600.5289,1383964.0860654,53
1660064600.5289,1383964.0860687,46
1660064600.5289,1383964.086072,95
1660064600.5289,1383964.0860754,415
1660064600.5289,1383964.0860787,922
1660064600.5289,1383964.0860823,1151
1660064600.5289,1383964.0860858,696
1660064600.5289,1383964.0860901,-432
1660064600.5289,1383964.0860935,-1027
1660064600.5289,1383964.6217495,-362
1660064600.5289,1383964.6217678,172
1660064600.5289,1383964.6217785,-4
1660064600.5289,1383964.6217857,-16
1660064600.5289,1383964.6217943,144
1660064600.5289,1383964.6218014,116
1660064600.5289,1383964.6218079,88
1660064600.5289,1383964.621813,140
1660064600.5289,1383964.6218208,130
1660064600.5289,1383964.6218279,95
1660064600.5289,1383964.6218331,114
1660064600.5289,1383964.621839,142
1660064600.5289,1383964.6218468,149
1660064600.5289,1383964.621851,168
1660064600.53987,1383964.6218542,196
1660064600.53987,1383964.6218637,207
1660064600.53987,1383964.621877,228
1660064600.53987,1383964.6218902,266
1660064600.53987,1383964.621897,289
1660064600.53987,1383964.6219027,289
1660064600.53987,1383964.6219133,282
1660064600.53987,1383964.6219218,259
1660064600.53987,1383964.6219339,221
1660064600.53987,1383964.621946,203
1660064600.53987,1383964.6219577,184
1660064600.53987,1383964.6219711,135
1660064600.53987,1383964.621986,84
1660064600.53987,1383964.6219995,42
1660064600.53987,1383964.6220078,0
1660064600.53987,1383964.6220104,-28
1660064600.53987,1383964.6220127,-39
1660064600.53987,1383964.6220148,-53
1660064600.53987,1383964.6220177,-65
1660064600.53987,1383964.6220278,-63
1660064600.53987,1383964.6220356,-56
1660064600.53987,1383964.6220381,-46
1660064600.53987,1383964.6220402,-30
1660064600.53987,1383964.6220422,-11
1660064601.06848,1383964.6220485,0
1660064601.06848,1383964.622058,11
1660064601.06848,1383964.6220619,23
1660064601.06848,1383964.6220642,32
1660064601.06848,1383964.6220715,42
1660064601.06848,1383964.6220833,46
1660064601.06848,1383964.6220916,25
1660064601.06848,1383964.6221029,16
1660064601.06848,1383964.622116,23
1660064601.06848,1383964.6221275,16
1660064601.06848,1383964.6221298,4
1660064601.06848,1383964.6221319,16
1660064601.06848,1383964.6221353,28
1660064601.06848,1383964.6221474,35
1660064601.06848,1383964.6221614,51
1660064601.06848,1383964.6221753,56
1660064601.06848,1383964.6221884,53
1660064601.06848,1383964.6222026,70
1660064601.06848,1383964.6222145,84
1660064601.06848,1383964.6222284,72
1660064601.06848,1383964.6222374,46
1660064601.06848,1383964.6222479,32
1660064601.06848,1383964.6222586,32
1660064601.06848,1383964.6222667,44
1660064601.06848,1383964.622271,53
1660064601.06848,1383964.6222837,60
1660064601.06848,1383964.6222958,65
1660064601.06848,1383964.6223074,77
1660064601.06848,1383964.6223218,256
1660064601.06848,1383964.6223284,710
1660064601.06848,1383964.6223307,1116
1660064601.06848,1383964.6223328,1076
1660064601.06848,1383964.6223348,226
1660064601.06848,1383964.6223378,-901
1660064601.06848,1383964.6223486,-812
1660064601.06848,1383965.1581692,21
1660064601.06848,1383965.1581855,112
1660064601.06848,1383965.1581902,-77
1660064601.06848,1383965.1581957,81
1660064601.06848,1383965.1581996,156
1660064601.06848,1383965.1582044,77
1660064601.06848,1383965.1582079,93
1660064601.06848,1383965.1582115,126
1660064601.06848,1383965.1582164,109
1660064601.06848,1383965.1582207,116
1660064601.06848,1383965.1582257,142
1660064601.06848,1383965.1582304,142
1660064601.06848,1383965.158235,126
1660064601.06848,1383965.1582387,130
1660064601.06848,1383965.1582434,156
1660064601.08045,1383965.1582468,186
1660064601.08045,1383965.1582505,212
1660064601.08045,1383965.158254,238
1660064601.08045,1383965.1582576,242
1660064601.08045,1383965.1582611,226
1660064601.08045,1383965.1582646,214
1660064601.08045,1383965.158268,212
1660064601.08045,1383965.1582729,196
1660064601.08045,1383965.1582763,172
1660064601.08045,1383965.1582812,137
1660064601.08045,1383965.1582846,86
1660064601.08045,1383965.1582881,37
1660064601.08045,1383965.1582916,4
1660064601.08045,1383965.1582951,-18
1660064601.08045,1383965.1582987,-35
1660064601.08045,1383965.1583034,-46
1660064601.08045,1383965.1583068,-58
1660064601.08045,1383965.1583125,-63
1660064601.08045,1383965.1583159,-53
1660064601.08045,1383965.1583194,-39
1660064601.08045,1383965.1583229,-25
1660064601.08045,1383965.1583264,-23
1660064601.08045,1383965.1583312,-37
1660064601.08045,1383965.1583347,-32
1660064601.60107,1383965.1583395,-11
1660064601.60107,1383965.1583436,2
1660064601.60107,1383965.1583469,14
1660064601.60107,1383965.1583503,25
1660064601.60107,1383965.1583537,28
1660064601.60107,1383965.1583571,21
1660064601.60107,1383965.1583604,23
1660064601.60107,1383965.1583639,28
1660064601.60107,1383965.1583672,32
1660064601.60107,1383965.1583705,37
1660064601.60107,1383965.1583739,32
1660064601.60107,1383965.1583779,23
1660064601.60107,1383965.1583818,25
1660064601.60107,1383965.1583855,37
1660064601.60107,1383965.1583888,49
1660064601.60107,1383965.1583921,46
1660064601.60107,1383965.1583955,56
1660064601.60107,1383965.158399,79
1660064601.60107,1383965.158404,86
1660064601.60107,1383965.1584073,67
1660064601.60107,1383965.1584116,51
1660064601.60107,1383965.1584165,53
1660064601.60107,1383965.1584199,56
1660064601.60107,1383965.1584246,44
1660064601.60107,1383965.1584289,44
1660064601.60107,1383965.1584325,51
1660064601.60107,1383965.158436,35
1660064601.60107,1383965.1584399,95
1660064601.60107,1383965.1584448,429
1660064601.60107,1383965.1584487,948
1660064601.60107,1383965.1584535,1282
1660064601.60107,1383965.1584591,861
1660064601.60107,1383965.1584643,-383
1660064601.60107,1383965.1584674,-941
1660064601.60107,1383965.6941349,-207
1660064601.60107,1383965.6941526,170
1660064601.60107,1383965.6941616,-98
1660064601.60107,1383965.6941666,-44
1660064601.60107,1383965.6941727,114
1660064601.60107,1383965.6941769,53
1660064601.60107,1383965.6941817,35
1660064601.60107,1383965.6941881,81
1660064601.60107,1383965.6941923,67
1660064601.60107,1383965.6941978,46
1660064601.60107,1383965.6942019,72
1660064601.60107,1383965.6942076,88
1660064601.60107,1383965.6942119,86
1660064601.60107,1383965.6942175,98
1660064601.60107,1383965.6942278,116
1660064601.60107,1383965.6942383,114
1660064601.62101,1383965.6942451,119
1660064601.62101,1383965.6942497,144
1660064601.62101,1383965.6942542,161
1660064601.62101,1383965.6942599,163
1660064601.62101,1383965.6942642,163
1660064601.62101,1383965.6942699,156
1660064601.62101,1383965.6942742,140
1660064601.62101,1383965.6942799,126
1660064601.62101,1383965.6942841,112
1660064601.62101,1383965.6942897,86
1660064601.62101,1383965.6942956,58
1660064601.62101,1383965.6942998,35
1660064601.62101,1383965.6943054,11
1660064601.62101,1383965.6943129,-18
1660064601.62101,1383965.694318,-42
1660064601.62101,1383965.6943223,-42
1660064601.62101,1383965.6943262,-30
1660064601.62101,1383965.6943304,-28
1660064601.62101,1383965.694336,-25
1660064601.62101,1383965.6943402,-18
1660064601.62101,1383965.6943442,-9
1660064601.62101,1383965.6943499,-2
1660064601.62101,1383965.6943536,16
1660064601.62101,1383965.6943572,35
1660064602.1837,1383965.6943628,39
1660064602.1837,1383965.6943663,42
1660064602.1837,1383965.6943697,51
1660064602.1837,1383965.694373,56
1660064602.1837,1383965.6943765,56
1660064602.1837,1383965.6943799,58
1660064602.1837,1383965.6943832,60
1660064602.1837,1383965.6943866,60
1660064602.1837,1383965.6943899,60
1660064602.1837,1383965.6943934,60
1660064602.1837,1383965.6943971,65
1660064602.1837,1383965.6944007,67
1660064602.1837,1383965.6944041,65
1660064602.1837,1383965.6944075,67
1660064602.1837,1383965.6944111,74
1660064602.1837,1383965.6944164,81
1660064602.1837,1383965.69442,84
1660064602.1837,1383965.6944248,100
1660064602.1837,1383965.6944297,123
1660064602.1837,1383965.694433,112
1660064602.1837,1383965.6944369,70
1660064602.1837,1383965.694442,49
1660064602.1837,1383965.6944453,53
1660064602.1837,1383965.6944486,58
1660064602.1837,1383965.6944519,58
1660064602.1837,1383965.6944575,63
1660064602.1837,1383965.6944659,53
1660064602.1837,1383965.6944772,60
1660064602.1837,1383965.6944903,291
1660064602.1837,1383965.6945028,850
1660064602.1837,1383965.6945168,1310
1660064602.1837,1383965.6945296,1130
1660064602.1837,1383965.6945427,58
1660064602.1837,1383966.2793924,-997
1660064602.1837,1383966.2794097,-719
1660064602.1837,1383966.2794183,49
1660064602.1837,1383966.2794224,58
1660064602.1837,1383966.2794286,-77
1660064602.1837,1383966.2794346,65
1660064602.1837,1383966.2794434,72

1660064602.1837,1383966.279448,2
1660064602.1837,1383966.2794524,53
1660064602.1837,1383966.2794559,88
1660064602.1837,1383966.27946,67
1660064602.1837,1383966.2794657,67
1660064602.1837,1383966.2794729,70
1660064602.1837,1383966.2794793,74
1660064602.1837,1383966.2794832,109
1660064602.1837,1383966.279488,135
1660064602.1837,1383966.2794922,147
1660064602.19567,1383966.2794965,170
1660064602.19567,1383966.2794995,205
1660064602.19567,1383966.2795023,238
1660064602.19567,1383966.2795053,254
1660064602.19567,1383966.279508,240
1660064602.19567,1383966.2795108,217
1660064602.19567,1383966.2795136,207
1660064602.19567,1383966.2795166,193
1660064602.19567,1383966.2795194,170
1660064602.19567,1383966.2795223,140
1660064602.19567,1383966.2795251,93
1660064602.19567,1383966.279528,42
1660064602.19567,1383966.2795309,7
1660064602.19567,1383966.279534,-25
1660064602.19567,1383966.2795368,-51
1660064602.19567,1383966.2795397,-56
1660064602.19567,1383966.2795426,-65
1660064602.19567,1383966.2795454,-79
1660064602.19567,1383966.2795482,-72
1660064602.19567,1383966.2795511,-53
1660064602.19567,1383966.2795539,-51
1660064602.19567,1383966.2795568,-44
1660064602.19567,1383966.2795598,-21
1660064602.19567,1383966.2795627,0
1660064602.7268,1383966.2795668,9
1660064602.7268,1383966.2795737,23
1660064602.7268,1383966.2795804,39
1660064602.7268,1383966.2795871,44
1660064602.7268,1383966.2795943,44
1660064602.7268,1383966.2796,44
1660064602.7268,1383966.2796041,44
1660064602.7268,1383966.2796084,44
1660064602.7268,1383966.2796113,46
1660064602.7268,1383966.2796142,42
1660064602.7268,1383966.2796171,35
1660064602.7268,1383966.27962,28
1660064602.7268,1383966.2796228,18
1660064602.7268,1383966.2796255,23
1660064602.7268,1383966.2796283,35
1660064602.7268,1383966.2796311,42
1660064602.7268,1383966.2796339,46
1660064602.7268,1383966.2796366,49
1660064602.7268,1383966.2796394,53
1660064602.7268,1383966.2796422,81
1660064602.7268,1383966.2796451,98
1660064602.7268,1383966.2796482,72
1660064602.7268,1383966.2796509,39
1660064602.7268,1383966.2796538,37
1660064602.7268,1383966.2796569,39
1660064602.7268,1383966.2796598,37
1660064602.7268,1383966.2796626,51
1660064602.7268,1383966.2796654,65
1660064602.7268,1383966.2796681,56
1660064602.7268,1383966.2796709,147
1660064602.7268,1383966.2796738,590
1660064602.7268,1383966.2796766,1221
1660064602.7268,1383966.8160841,1434
1660064602.7268,1383966.8161053,742
1660064602.7268,1383966.8161141,-527
1660064602.7268,1383966.8161237,-955
1660064602.7268,1383966.8161329,-252
1660064602.7268,1383966.8161459,119
1660064602.7268,1383966.8161551,-70
1660064602.7268,1383966.8161577,-32
1660064602.7268,1383966.8161599,84
1660064602.7268,1383966.8161619,21
1660064602.7268,1383966.816164,2
1660064602.7268,1383966.8161661,51
1660064602.7268,1383966.816168,51
1660064602.7268,1383966.81617,49
1660064602.7268,1383966.816172,60
1660064602.7268,1383966.8161741,46
1660064602.7268,1383966.816176,53
1660064602.7268,1383966.816178,95
1660064602.73778,1383966.8161801,128
1660064602.73778,1383966.8161822,151
1660064602.73778,1383966.8161842,186
1660064602.73778,1383966.8161862,221
1660064602.73778,1383966.8161882,240
1660064602.73778,1383966.8161903,256
1660064602.73778,1383966.8161923,275
1660064602.73778,1383966.8161943,268
1660064602.73778,1383966.8161963,245
1660064602.73778,1383966.8161983,226
1660064602.73778,1383966.8162002,200
1660064602.73778,1383966.8162022,156
1660064602.73778,1383966.8162042,105
1660064602.73778,1383966.8162062,58
1660064602.73778,1383966.8162081,21
1660064602.73778,1383966.8162101,-21
1660064602.73778,1383966.8162121,-58
1660064602.73778,1383966.8162141,-70
1660064602.73778,1383966.8162161,-56
1660064602.73778,1383966.8162181,-35
1660064602.73778,1383966.8162201,-21
1660064602.73778,1383966.816222,-14
1660064602.73778,1383966.816224,-9
1660064602.73778,1383966.816226,2
1660064603.31179,1383966.8162282,11
1660064603.31179,1383966.8162301,16
1660064603.31179,1383966.816232,18
1660064603.31179,1383966.816234,21
1660064603.31179,1383966.8162358,23
1660064603.31179,1383966.8162376,28
1660064603.31179,1383966.8162395,37
1660064603.31179,1383966.8162413,39
1660064603.31179,1383966.8162432,39
1660064603.31179,1383966.816245,44
1660064603.31179,1383966.8162468,39
1660064603.31179,1383966.8162486,28
1660064603.31179,1383966.8162505,32
1660064603.31179,1383966.8162524,44
1660064603.31179,1383966.8162544,42
1660064603.31179,1383966.8162563,35
1660064603.31179,1383966.8162592,42
1660064603.31179,1383966.8162672,49
1660064603.31179,1383966.8162726,60
1660064603.31179,1383966.8162766,67
1660064603.31179,1383966.8162803,70
1660064603.31179,1383966.8162841,74
1660064603.31179,1383966.8162878,70
1660064603.31179,1383966.8162915,46
1660064603.31179,1383966.8162973,25
1660064603.31179,1383966.8163011,25
1660064603.31179,1383966.816306,30
1660064603.31179,1383966.8163097,35
1660064603.31179,1383966.8163147,46
1660064603.31179,1383966.8163183,51
1660064603.31179,1383966.8163299,60
1660064603.31179,1383967.4011998,233
1660064603.31179,1383967.4012174,745
1660064603.31179,1383967.4012236,1286
1660064603.31179,1383967.4012325,1307
1660064603.31179,1383967.4012372,474
1660064603.31179,1383967.4012426,-826
1660064603.31179,1383967.4012465,-1146
1660064603.31179,1383967.4012518,-350
1660064603.31179,1383967.4012563,-2
1660064603.31179,1383967.4012636,-179
1660064603.31179,1383967.4012678,-88
1660064603.31179,1383967.4012729,28
1660064603.31179,1383967.4012762,-44
1660064603.31179,1383967.4012816,-42
1660064603.31179,1383967.4012886,25
1660064603.31179,1383967.4013011,23
1660064603.31179,1383967.4013052,28
1660064603.31179,1383967.401308,72
1660064603.31179,1383967.4013162,93
1660064603.33032,1383967.4013452,109
1660064603.33032,1383967.4013582,158
1660064603.33032,1383967.4013641,203
1660064603.33032,1383967.4013676,226
1660064603.33032,1383967.4013711,263
1660064603.33032,1383967.4013746,301
1660064603.33032,1383967.401378,331
1660064603.33032,1383967.4013814,350
1660064603.33032,1383967.4013847,348
1660064603.33032,1383967.4013881,329
1660064603.33032,1383967.4013915,317
1660064603.33032,1383967.401395,303
1660064603.33032,1383967.4014003,256
1660064603.33032,1383967.4014037,193
1660064603.33032,1383967.4014071,130
1660064603.33032,1383967.4014107,67
1660064603.33032,1383967.4014141,14
1660064603.33032,1383967.4014176,-28
1660064603.33032,1383967.4014209,-65
1660064603.33032,1383967.4014243,-88
1660064603.33032,1383967.4014277,-93
1660064603.33032,1383967.4014317,-91
1660064603.33032,1383967.4014367,-84
1660064603.33032,1383967.4014402,-70
1660064603.99262,1383967.4014436,-46
1660064603.99262,1383967.4014469,-30
1660064603.99262,1383967.4014504,-21
1660064603.99262,1383967.4014538,0
1660064603.99262,1383967.4014572,23
1660064603.99262,1383967.4014606,37
1660064603.99262,1383967.4014639,37
1660064603.99262,1383967.4014676,37
1660064603.99262,1383967.401471,37
1660064603.99262,1383967.4014744,37
1660064603.99262,1383967.4014777,42
1660064603.99262,1383967.401481,42
1660064603.99262,1383967.4014844,44
1660064603.99262,1383967.4014878,42
1660064603.99262,1383967.4014912,35
1660064603.99262,1383967.4014945,37
1660064603.99262,1383967.4014979,49
1660064603.99262,1383967.4015013,49
1660064603.99262,1383967.4015049,42
1660064603.99262,1383967.4015083,44
1660064603.99262,1383967.4015116,58
1660064603.99262,1383967.401515,67
1660064603.99262,1383967.4015183,56
1660064603.99262,1383967.4015217,30
1660064603.99262,1383967.4015251,9
1660064603.99262,1383967.4015284,7
1660064603.99262,1383967.4015322,14
1660064603.99262,1383967.4015356,21
1660064603.99262,1383967.4015389,30
1660064603.99262,1383967.4015423,32
1660064603.99262,1383968.0842439,32
1660064603.99262,1383968.0842648,168
1660064603.99262,1383968.0842772,621
1660064603.99262,1383968.0842862,1146
1660064603.99262,1383968.0842985,1268
1660064603.99262,1383968.0843041,689
1660064603.99262,1383968.0843072,-539
1660064603.99262,1383968.0843095,-1146
1660064603.99262,1383968.0843175,-453
1660064603.99262,1383968.0843272,42
1660064603.99262,1383968.084337,-147
1660064603.99262,1383968.0843445,-119
1660064603.99262,1383968.0843524,44
1660064603.99262,1383968.0843574,7
1660064603.99262,1383968.08437,-21
1660064603.99262,1383968.0843807,18
1660064603.99262,1383968.0843891,23
1660064603.99262,1383968.0843981,28
1660064603.99262,1383968.0844091,60
1660064603.99262,1383968.0844174,81
1660064604.00359,1383968.0844264,98
1660064604.00359,1383968.0844372,128
1660064604.00359,1383968.084445,165
1660064604.00359,1383968.0844557,193
1660064604.00359,1383968.0844662,224
1660064604.00359,1383968.0844747,266
1660064604.00359,1383968.084487,294
1660064604.00359,1383968.0844967,305
1660064604.00359,1383968.0845072,317
1660064604.00359,1383968.0845182,319
1660064604.00359,1383968.084526,298
1660064604.00359,1383968.0845371,259
1660064604.00359,1383968.0845476,221
1660064604.00359,1383968.084555,189
1660064604.00359,1383968.0845639,123
1660064604.00359,1383968.0845726,46
1660064604.00359,1383968.0845785,7
1660064604.00359,1383968.0845865,-23
1660064604.00359,1383968.084593,-53
1660064604.00359,1383968.0845997,-65
1660064604.00359,1383968.0846078,-65
1660064604.00359,1383968.084615,-67
1660064604.00359,1383968.0846212,-60
1660064604.00359,1383968.0846249,-49
1660064604.5251,1383968.0846292,-39
1660064604.5251,1383968.0846336,-30
1660064604.5251,1383968.0846376,-23
1660064604.5251,1383968.0846417,-11
1660064604.5251,1383968.0846457,9
1660064604.5251,1383968.0846499,21
1660064604.5251,1383968.0846544,23
1660064604.5251,1383968.0846582,37
1660064604.5251,1383968.0846624,51
1660064604.5251,1383968.084668,46
1660064604.5251,1383968.084673,44
1660064604.5251,1383968.084679,46
1660064604.5251,1383968.0846851,46
1660064604.5251,1383968.084691,42
1660064604.5251,1383968.0846983,30
1660064604.5251,1383968.0847036,16
1660064604.5251,1383968.0847108,18
1660064604.5251,1383968.0847158,30
1660064604.5251,1383968.0847219,35
1660064604.5251,1383968.0847261,32
1660064604.5251,1383968.0847331,49
1660064604.5251,1383968.0847394,60
1660064604.5251,1383968.0847434,42
1660064604.5251,1383968.0847474,25
1660064604.5251,1383968.084753,14
1660064604.5251,1383968.0847918,2
1660064604.5251,1383968.0848021,9
1660064604.5251,1383968.0848086,30
1660064604.5251,1383968.0848224,39
1660064604.5251,1383968.6193934,32
1660064604.5251,1383968.6194117,18
1660064604.5251,1383968.6194172,114
1660064604.5251,1383968.6194218,548
1660064604.5251,1383968.6194258,1170
1660064604.5251,1383968.6194301,1522
1660064604.5251,1383968.6194657,1191
1660064604.5251,1383968.6194766,-93
1660064604.5251,1383968.6194831,-1058
1660064604.5251,1383968.6194868,-485
1660064604.5251,1383968.6194917,116
1660064604.5251,1383968.6194949,-133
1660064604.5251,1383968.6194982,-189
1660064604.5251,1383968.6195012,11
1660064604.5251,1383968.6195045,-18
1660064604.5251,1383968.61951,-67
1660064604.5251,1383968.6195147,0
1660064604.5251,1383968.6195178,9
1660064604.5251,1383968.619521,-16
1660064604.5251,1383968.6195239,9
1660064604.5251,1383968.6195269,37
1660064604.53507,1383968.6195297,46
1660064604.53507,1383968.6195329,67
