Time,TimeLsl,Value
1660124800.9988,1444164.466647,125
1660124800.9988,1444164.4666609,123
1660124800.9988,1444164.4666662,97
1660124800.9988,1444164.4666737,71
1660124800.9988,1444164.4666804,83
1660124800.9988,1444164.4666851,95
1660124800.9988,1444164.4666886,49
1660124800.9988,1444164.4666939,-90
1660124800.9988,1444164.4666973,-166
1660124800.9988,1444164.4667014,344
1660124800.9988,1444164.4667069,1380
1660124800.9988,1444164.4667101,1708
1660124800.9988,1444164.4667136,629
1660124800.9988,1444164.4667178,-667
1660124800.9988,1444164.4667229,-824
1660124800.9988,1444164.4667277,-325
1660124800.9988,1444164.4667317,-147
1660124800.9988,1444164.4667372,-137
1660124800.9988,1444164.4667433,-38
1660124800.9988,1444164.466751,-16
1660124800.9988,1444164.4667581,-45
1660124800.9988,1444164.4667882,-16
1660124800.9988,1444164.4667989,0
1660124800.9988,1444164.466804,-7
1660124800.9988,1444164.466809,7
1660124800.9988,1444164.4668135,23
1660124800.9988,1444164.4668179,26
1660124800.9988,1444164.4668228,21
1660124800.9988,1444164.4668271,14
1660124800.9988,1444164.4668314,2
1660124800.9988,1444164.4668359,-2
1660124800.9988,1444164.4668406,4
1660124800.9988,1444164.466845,16
1660124800.9988,1444164.4668498,16
1660124800.9988,1444164.4668641,11
1660124800.9988,1444164.466869,9
1660124800.9988,1444164.4668727,14
1660124800.9988,1444164.4668765,19
1660124800.9988,1444164.4668806,14
1660124800.9988,1444164.4668842,11
1660124800.9988,1444164.4668879,19
1660124800.9988,1444164.4668916,28
1660124800.9988,1444164.4668952,38
1660124800.9988,1444164.4668989,59
1660124800.9988,1444164.4669026,83
1660124800.9988,1444164.4669063,90
1660124800.9988,1444164.4669099,87
1660124800.9988,1444164.4669135,87
1660124800.9988,1444164.4669191,85
1660124800.9988,1444164.4669228,85
1660124801.12547,1444164.4669265,92
1660124801.12547,1444164.4669301,95
1660124801.12547,1444164.4669338,85
1660124801.12547,1444164.4669376,78
1660124801.12547,1444164.4669412,83
1660124801.12547,1444164.4669449,87
1660124801.12547,1444164.4669486,92
1660124801.12547,1444164.4669524,99
1660124801.12547,1444164.466956,104
1660124801.12547,1444164.4669597,102
1660124801.12547,1444164.4669672,102
1660124801.12547,1444164.4669798,102
1660124801.12547,1444164.4669891,102
1660124801.12547,1444164.4669923,114
1660124801.12547,1444164.4669953,128
1660124801.12547,1444164.4669984,125
1660124801.12547,1444164.4670026,118
1660124801.12547,1444164.4670226,121
1660124801.12547,1444164.4670295,123
1660124801.12547,1444164.4670352,128
1660124801.12547,1444164.4670402,130
1660124801.12547,1444164.467044,125
1660124801.12547,1444164.4670478,106
1660124801.12547,1444165.1001579,99
1660124801.12547,1444165.1001774,106
1660124801.12547,1444165.1001874,106
1660124801.12547,1444165.1001945,109
1660124801.12547,1444165.1002012,128
1660124801.12547,1444165.1002081,152
1660124801.12547,1444165.1002152,142
1660124801.12547,1444165.1002203,102
1660124801.12547,1444165.1002246,85
1660124801.12547,1444165.1002277,90
1660124801.12547,1444165.1002311,71
1660124801.12547,1444165.1002371,30
1660124801.12547,1444165.1002445,19
1660124801.12547,1444165.1002496,33
1660124801.12547,1444165.1002623,49
1660124801.12547,1444165.100276,45
1660124801.12547,1444165.1002892,4
1660124801.12547,1444165.1003026,73
1660124801.12547,1444165.1003156,522
1660124801.12547,1444165.1003279,967
1660124801.12547,1444165.1003381,449
1660124801.12547,1444165.1003466,-729
1660124801.12547,1444165.1003544,-1026
1660124801.12547,1444165.1003597,-392
1660124801.12547,1444165.1003687,-38
1660124801.12547,1444165.1003743,-26
1660124801.12547,1444165.1003803,99
1660124801.17784,1444165.1003864,173
1660124801.17784,1444165.1003898,130
1660124801.17784,1444165.1004029,142
1660124801.17784,1444165.1004163,178
1660124801.17784,1444165.1004292,159
1660124801.17784,1444165.1004425,140
1660124801.17784,1444165.1004556,159
1660124801.17784,1444165.1004685,159
1660124801.17784,1444165.1004782,144
1660124801.17784,1444165.1004905,144
1660124801.17784,1444165.1004973,149
1660124801.17784,1444165.1005054,152
1660124801.17784,1444165.1005114,161
1660124801.17784,1444165.1005187,173
1660124801.17784,1444165.1005267,185
1660124801.17784,1444165.1005335,206
1660124801.17784,1444165.1005396,228
1660124801.17784,1444165.1005438,235
1660124801.17784,1444165.1005473,247
1660124801.17784,1444165.1005509,259
1660124801.17784,1444165.1005557,251
1660124801.17784,1444165.100562,228
1660124801.17784,1444165.1005679,197
1660124801.17784,1444165.1005743,180
1660124801.17784,1444165.1005797,166
1660124801.17784,1444165.1005858,142
1660124801.17784,1444165.1005907,109
1660124801.17784,1444165.1005962,90
1660124801.17784,1444165.1006,83
1660124801.17784,1444165.1006038,73
1660124801.17784,1444165.1006077,59
1660124801.17784,1444165.1006129,54
1660124801.17784,1444165.1006176,57
1660124801.17784,1444165.100623,61
1660124801.17784,1444165.1006267,64
1660124801.17784,1444165.1006318,59
1660124801.17784,1444165.1006362,52
1660124801.17784,1444165.1006414,61
1660124801.17784,1444165.1006451,73
1660124801.17784,1444165.1006488,71
1660124801.17784,1444165.1006525,73
1660124801.17784,1444165.1006564,78
1660124801.17784,1444165.1006601,78
1660124801.17784,1444165.100668,80
1660124801.17784,1444165.100672,90
1660124801.17784,1444165.100702,97
1660124801.17784,1444165.6357062,87
1660124801.17784,1444165.6357267,76
1660124801.22472,1444165.6357348,76
1660124801.22472,1444165.6357402,83
1660124801.22472,1444165.6357517,76
1660124801.22472,1444165.6357566,66
1660124801.22472,1444165.6357606,73
1660124801.22472,1444165.6357658,71
1660124801.22472,1444165.6357697,42
1660124801.22472,1444165.6357756,21
1660124801.22472,1444165.6357841,38
1660124801.22472,1444165.6357911,64
1660124801.22472,1444165.6357962,66
1660124801.22472,1444165.6358011,80
1660124801.22472,1444165.6358061,102
1660124801.22472,1444165.6358109,85
1660124801.22472,1444165.6358163,52
1660124801.22472,1444165.6358211,59
1660124801.22472,1444165.6358259,68
1660124801.22472,1444165.635833,49
1660124801.22472,1444165.6358377,33
1660124801.22472,1444165.6358424,35
1660124801.22472,1444165.6358473,33
1660124801.22472,1444165.6358537,35
1660124801.22472,1444165.6358577,35
1660124801.22472,1444165.6358638,-7
1660124801.22472,1444165.6358678,64
1660124801.22472,1444165.6358734,537
1660124801.22472,1444165.6358775,988
1660124801.22472,1444165.6358851,389
1660124801.22472,1444165.6358891,-855
1660124801.22472,1444165.635893,-1059
1660124801.22472,1444165.6358969,-308
1660124801.22472,1444165.6359009,14
1660124801.22472,1444165.6359068,-23
1660124801.22472,1444165.6359106,116
1660124801.22472,1444165.6359146,185
1660124801.22472,1444165.6359202,118
1660124801.22472,1444165.6359243,130
1660124801.22472,1444165.6359316,166
1660124801.22472,1444165.6359371,144
1660124801.22472,1444165.6359414,140
1660124801.22472,1444165.635947,161
1660124801.22472,1444165.635951,159
1660124801.22472,1444165.6359566,149
1660124801.22472,1444165.6359605,152
1660124801.22472,1444165.6359647,147
1660124801.22472,1444165.6359687,142
1660124801.22472,1444165.6359744,156
1660124801.22472,1444165.6359785,168
1660124801.22472,1444165.6359863,168
1660124801.22472,1444165.6359917,180
1660124801.23569,1444165.6359957,201
1660124801.23569,1444165.6360012,211
1660124801.23569,1444165.6360053,209
1660124801.23569,1444165.6360109,209
1660124801.23569,1444165.6360148,209
1660124801.23569,1444165.6360205,192
1660124801.23569,1444165.6360246,168
1660124801.23569,1444165.6360321,147
1660124801.23569,1444165.6360376,123
1660124801.23569,1444165.6360417,104
1660124801.23569,1444165.6360473,92
1660124801.23569,1444165.6360513,76
1660124801.23569,1444165.6360571,57
1660124801.23569,1444165.636062,42
1660124801.23569,1444165.6360675,23
1660124801.23569,1444165.6360713,11
1660124801.23569,1444165.6360771,21
1660124801.23569,1444165.6361411,26
1660124801.23569,1444165.6361533,23
1660124801.23569,1444165.6361605,28
1660124801.23569,1444165.636174,33
1660124801.23569,1444166.1733227,28
1660124801.23569,1444166.1733409,35
1660124801.23569,1444166.1733483,47
1660124801.80878,1444166.1733517,54
1660124801.80878,1444166.1733549,57
1660124801.80878,1444166.1733579,45
1660124801.80878,1444166.173361,28
1660124801.80878,1444166.173364,35
1660124801.80878,1444166.1733671,49
1660124801.80878,1444166.1733714,47
1660124801.80878,1444166.1733753,49
1660124801.80878,1444166.173379,54
1660124801.80878,1444166.173382,47
1660124801.80878,1444166.1733854,35
1660124801.80878,1444166.1733885,35
1660124801.80878,1444166.1733932,40
1660124801.80878,1444166.173398,40
1660124801.80878,1444166.1734024,38
1660124801.80878,1444166.1734091,23
1660124801.80878,1444166.1734227,7
1660124801.80878,1444166.1734324,11
1660124801.80878,1444166.1734392,21
1660124801.80878,1444166.1734428,21
1660124801.80878,1444166.1734476,21
1660124801.80878,1444166.173454,21
1660124801.80878,1444166.1734612,26
1660124801.80878,1444166.1734677,47
1660124801.80878,1444166.1734766,71
1660124801.80878,1444166.1734842,68
1660124801.80878,1444166.1734887,59
1660124801.80878,1444166.1735025,61
1660124801.80878,1444166.1735129,49
1660124801.80878,1444166.1735203,21
1660124801.80878,1444166.1735317,7
1660124801.80878,1444166.1735417,14
1660124801.80878,1444166.1735487,26
1660124801.80878,1444166.1735609,30
1660124801.80878,1444166.1735711,11
1660124801.80878,1444166.1735766,-33
1660124801.80878,1444166.173583,128
1660124801.80878,1444166.1735864,727
1660124801.80878,1444166.1735933,1062
1660124801.80878,1444166.1735967,194
1660124801.80878,1444166.17361,-964
1660124801.80878,1444166.1736227,-874
1660124801.80878,1444166.1736359,-161
1660124801.80878,1444166.1736491,-2
1660124801.80878,1444166.1736624,-23
1660124801.80878,1444166.1736756,128
1660124801.80878,1444166.1736887,147
1660124801.80878,1444166.1737019,85
1660124801.80878,1444166.173715,111
1660124801.80878,1444166.1737283,137
1660124801.82126,1444166.1737414,123
1660124801.82126,1444166.1737546,135
1660124801.82126,1444166.1737678,149
1660124801.82126,1444166.1737809,140
1660124801.82126,1444166.1737943,137
1660124801.82126,1444166.1738075,147
1660124801.82126,1444166.1738209,140
1660124801.82126,1444166.1738267,137
1660124801.82126,1444166.1738289,149
1660124801.82126,1444166.173831,163
1660124801.82126,1444166.1738331,171
1660124801.82126,1444166.1738405,180
1660124801.82126,1444166.1738512,197
1660124801.82126,1444166.1738548,213
1660124801.82126,1444166.1738585,220
1660124801.82126,1444166.1738606,220
1660124801.82126,1444166.1738628,213
1660124801.82126,1444166.1738648,199
1660124801.82126,1444166.1738668,185
1660124801.82126,1444166.1738728,171
1660124801.82126,1444166.7578273,154
1660124801.82126,1444166.7578494,135
1660124801.82126,1444166.7578634,114
1660124801.82126,1444166.7578735,90
1660124802.35274,1444166.7578826,71
1660124802.35274,1444166.75789,64
1660124802.35274,1444166.7578947,61
1660124802.35274,1444166.7578992,59
1660124802.35274,1444166.7579024,42
1660124802.35274,1444166.7579058,16
1660124802.35274,1444166.7579089,14
1660124802.35274,1444166.757912,26
1660124802.35274,1444166.7579148,26
1660124802.35274,1444166.7579179,28
1660124802.35274,1444166.757921,30
1660124802.35274,1444166.7579241,14
1660124802.35274,1444166.7579274,14
1660124802.35274,1444166.7579304,35
1660124802.35274,1444166.7579336,45
1660124802.35274,1444166.7579375,42
1660124802.35274,1444166.757941,52
1660124802.35274,1444166.7579444,57
1660124802.35274,1444166.7579503,59
1660124802.35274,1444166.7579534,66
1660124802.35274,1444166.757957,71
1660124802.35274,1444166.7579604,71
1660124802.35274,1444166.7579642,73
1660124802.35274,1444166.7579696,68
1660124802.35274,1444166.7579757,68
1660124802.35274,1444166.7579812,78
1660124802.35274,1444166.757988,80
1660124802.35274,1444166.7579971,76
1660124802.35274,1444166.7580057,73
1660124802.35274,1444166.7580149,78
1660124802.35274,1444166.7580235,83
1660124802.35274,1444166.7580307,78
1660124802.35274,1444166.7580376,68
1660124802.35274,1444166.7580434,73
1660124802.35274,1444166.7580522,80
1660124802.35274,1444166.7580585,78
1660124802.35274,1444166.7580623,76
1660124802.35274,1444166.7580679,76
1660124802.35274,1444166.7580771,73
1660124802.35274,1444166.7581453,78
1660124802.35274,1444166.7581562,95
1660124802.35274,1444166.758162,123
1660124802.35274,1444166.7581682,135
1660124802.35274,1444166.7581714,123
1660124802.35274,1444166.7581772,111
1660124802.35274,1444166.7581835,114
1660124802.35274,1444166.758187,102
1660124802.35274,1444166.7581919,66
1660124802.35274,1444166.7581956,42
1660124802.35274,1444166.7581998,57
1660124802.37169,1444166.7582036,68
1660124802.37169,1444166.7582087,52
1660124802.37169,1444166.7582148,9
1660124802.37169,1444166.7582193,35
1660124802.37169,1444166.7582272,422
1660124802.37169,1444166.7582342,1007
1660124802.37169,1444166.758238,791
1660124802.37169,1444166.7582412,-403
1660124802.37169,1444166.7582442,-1043
1660124802.37169,1444166.758247,-513
1660124802.37169,1444166.7582499,-30
1660124802.37169,1444166.758253,-23
1660124802.37169,1444166.758256,52
1660124802.37169,1444166.758259,147
1660124802.37169,1444166.758262,95
1660124802.37169,1444166.7582666,76
1660124802.37169,1444166.7582816,121
1660124802.37169,1444166.7582925,118
1660124802.37169,1444166.7583048,102
1660124802.37169,1444167.2939181,116
1660124802.37169,1444167.293936,133
1660124802.37169,1444167.2939414,133
1660124802.37169,1444167.293947,125
1660124802.37169,1444167.2939515,121
1660124802.88337,1444167.2939894,133
1660124802.88337,1444167.2939958,147
1660124802.88337,1444167.2940023,156
1660124802.88337,1444167.2940086,171
1660124802.88337,1444167.294015,187
1660124802.88337,1444167.2940216,199
1660124802.88337,1444167.2940284,201
1660124802.88337,1444167.2940317,197
1660124802.88337,1444167.2940359,192
1660124802.88337,1444167.2940387,194
1660124802.88337,1444167.2940418,190
1660124802.88337,1444167.2940466,173
1660124802.88337,1444167.2940511,152
1660124802.88337,1444167.2940567,111
1660124802.88337,1444167.2940598,66
1660124802.88337,1444167.2940639,49
1660124802.88337,1444167.2940677,47
1660124802.88337,1444167.2940711,35
1660124802.88337,1444167.2940745,23
1660124802.88337,1444167.2941534,11
1660124802.88337,1444167.2941603,2
1660124802.88337,1444167.2941661,2
1660124802.88337,1444167.2941972,2
1660124802.88337,1444167.2942059,0
1660124802.88337,1444167.2942125,11
1660124802.88337,1444167.2942177,14
1660124802.88337,1444167.2942233,-4
1660124802.88337,1444167.294229,-7
1660124802.88337,1444167.2942348,19
1660124802.88337,1444167.2942383,38
1660124802.88337,1444167.2942418,42
1660124802.88337,1444167.2942454,45
1660124802.88337,1444167.2942492,47
1660124802.88337,1444167.294253,57
1660124802.88337,1444167.2942566,66
1660124802.88337,1444167.2942618,73
1660124802.88337,1444167.2942658,78
1660124802.88337,1444167.2942697,83
1660124802.88337,1444167.2942736,76
1660124802.88337,1444167.2942776,66
1660124802.88337,1444167.2942813,61
1660124802.88337,1444167.2942853,64
1660124802.88337,1444167.2942893,64
1660124802.88337,1444167.2942933,68
1660124802.88337,1444167.2942972,68
1660124802.88337,1444167.2943011,66
1660124802.88337,1444167.294305,73
1660124802.88337,1444167.294309,78
1660124802.88337,1444167.2943128,73
1660124802.88337,1444167.2943168,66
1660124802.90431,1444167.2943207,61
1660124802.90431,1444167.2943247,59
1660124802.90431,1444167.2943288,64
1660124802.90431,1444167.2943326,68
1660124802.90431,1444167.2943365,61
1660124802.90431,1444167.2943404,59
1660124802.90431,1444167.2943443,59
1660124802.90431,1444167.2943482,49
1660124802.90431,1444167.2943521,45
1660124802.90431,1444167.2943561,54
1660124802.90431,1444167.29436,61
1660124802.90431,1444167.2943643,66
1660124802.90431,1444167.2943689,85
1660124802.90431,1444167.2943729,106
1660124802.90431,1444167.2943768,104
1660124802.90431,1444167.2943807,92
1660124802.90431,1444167.2943846,90
1660124802.90431,1444167.2943886,78
1660124802.90431,1444167.8320082,42
1660124802.90431,1444167.8320249,21
1660124802.90431,1444167.8320329,38
1660124802.90431,1444167.8320398,54
1660124802.90431,1444167.8320449,45
1660124802.90431,1444167.8320509,7
1660124803.46701,1444167.8320574,59
1660124803.46701,1444167.8320632,477
1660124803.46701,1444167.8320687,995
1660124803.46701,1444167.8320717,617
1660124803.46701,1444167.832076,-601
1660124803.46701,1444167.8320808,-1102
1660124803.46701,1444167.8320878,-513
1660124803.46701,1444167.8320947,-71
1660124803.46701,1444167.8321016,-57
1660124803.46701,1444167.8321082,30
1660124803.46701,1444167.8321117,102
1660124803.46701,1444167.8321177,49
1660124803.46701,1444167.8321226,45
1660124803.46701,1444167.8321272,80
1660124803.46701,1444167.8321339,78
1660124803.46701,1444167.8321411,76
1660124803.46701,1444167.8321467,87
1660124803.46701,1444167.8321514,97
1660124803.46701,1444167.8321569,99
1660124803.46701,1444167.8321619,111
1660124803.46701,1444167.8321708,118
1660124803.46701,1444167.8321778,123
1660124803.46701,1444167.832182,135
1660124803.46701,1444167.8321851,156
1660124803.46701,1444167.8321881,175
1660124803.46701,1444167.8321913,185
1660124803.46701,1444167.8321973,192
1660124803.46701,1444167.8322003,211
1660124803.46701,1444167.8322033,230
1660124803.46701,1444167.8322062,237
1660124803.46701,1444167.8322092,240
1660124803.46701,1444167.832212,232
1660124803.46701,1444167.8322148,206
1660124803.46701,1444167.8322177,175
1660124803.46701,1444167.8322207,171
1660124803.46701,1444167.8322236,180
1660124803.46701,1444167.8322264,159
1660124803.46701,1444167.8322294,83
1660124803.46701,1444167.8322323,14
1660124803.46701,1444167.8322352,23
1660124803.46701,1444167.8322382,47
1660124803.46701,1444167.8322439,23
1660124803.46701,1444167.832247,11
1660124803.46701,1444167.8322499,33
1660124803.46701,1444167.8322528,30
1660124803.46701,1444167.8322558,23
1660124803.46701,1444167.8322588,35
1660124803.46701,1444167.8322617,42
1660124803.46701,1444167.8322646,40
1660124803.46701,1444167.8322675,52
1660124803.47898,1444167.8322703,66
1660124803.47898,1444167.8322731,68
1660124803.47898,1444167.8322761,76
1660124803.47898,1444167.8322789,87
1660124803.47898,1444167.8322819,90
1660124803.47898,1444167.8322847,90
1660124803.47898,1444167.8322877,92
1660124803.47898,1444167.8322906,90
1660124803.47898,1444167.8322935,80
1660124803.47898,1444167.8322965,47
1660124803.47898,1444167.8322993,-49
1660124803.47898,1444167.8323103,-102
1660124803.47898,1444167.8323182,161
1660124803.47898,1444167.8323225,774
1660124803.47898,1444167.8323259,1549
1660124803.47898,1444167.8323289,1943
1660124803.47898,1444167.8323319,1135
1660124803.47898,1444168.4152849,-418
1660124803.47898,1444168.4152983,-1107
1660124803.47898,1444168.4153025,-720
1660124803.47898,1444168.4153053,-418
1660124803.47898,1444168.4153079,-487
1660124803.47898,1444168.4153104,-480
1660124803.47898,1444168.4153129,-320
1660124804.00717,1444168.415316,-133
1660124804.00717,1444168.4153244,2
1660124804.00717,1444168.4153507,47
1660124804.00717,1444168.4153549,47
1660124804.00717,1444168.4153586,42
1660124804.00717,1444168.4153618,33
1660124804.00717,1444168.4153657,26
1660124804.00717,1444168.4153694,57
1660124804.00717,1444168.4153731,85
1660124804.00717,1444168.4153769,85
1660124804.00717,1444168.4153805,66
1660124804.00717,1444168.415385,52
1660124804.00717,1444168.4153882,61
1660124804.00717,1444168.4153912,76
1660124804.00717,1444168.4154286,85
1660124804.00717,1444168.4154332,116
1660124804.00717,1444168.4154369,171
1660124804.00717,1444168.4154404,213
1660124804.00717,1444168.4154439,249
1660124804.00717,1444168.4154475,285
1660124804.00717,1444168.4154509,316
1660124804.00717,1444168.4154544,342
1660124804.00717,1444168.4154582,356
1660124804.00717,1444168.415462,332
1660124804.00717,1444168.4154656,270
1660124804.00717,1444168.4154691,204
1660124804.00717,1444168.4154728,156
1660124804.00717,1444168.4154763,109
1660124804.00717,1444168.4154808,61
1660124804.00717,1444168.4154846,23
1660124804.00717,1444168.4154882,-11
1660124804.00717,1444168.415492,-23
1660124804.00717,1444168.4154956,-19
1660124804.00717,1444168.4155031,-16
1660124804.00717,1444168.4155075,-19
1660124804.00717,1444168.4155113,-26
1660124804.00717,1444168.4155149,-23
1660124804.00717,1444168.4155196,-11
1660124804.00717,1444168.4155234,-2
1660124804.00717,1444168.4155271,2
1660124804.00717,1444168.4155306,7
1660124804.00717,1444168.4155341,16
1660124804.00717,1444168.4155376,26
1660124804.00717,1444168.4155413,28
1660124804.00717,1444168.4155449,30
1660124804.00717,1444168.4155485,33
1660124804.00717,1444168.415552,45
1660124804.00717,1444168.4155556,57
1660124804.00717,1444168.4155592,57
1660124804.00717,1444168.4155627,49
1660124804.01914,1444168.4155662,54
1660124804.01914,1444168.4155694,61
1660124804.01914,1444168.4155744,57
1660124804.01914,1444168.4155778,61
1660124804.01914,1444168.4155817,76
1660124804.01914,1444168.4155859,87
1660124804.01914,1444168.4155896,83
1660124804.01914,1444168.4155934,68
1660124804.01914,1444168.4155972,66
1660124804.01914,1444168.4156007,87
1660124804.01914,1444168.4156067,92
1660124804.01914,1444168.4156104,73
1660124804.01914,1444168.4156143,68
1660124804.01914,1444168.4156197,76
1660124804.01914,1444168.4156232,76
1660124804.01914,1444168.4156268,80
1660124804.01914,1444168.9514357,78
1660124804.01914,1444168.9514541,64
1660124804.01914,1444168.9514605,59
1660124804.01914,1444168.9514685,61
1660124804.01914,1444168.9514744,59
1660124804.01914,1444168.9514813,68
1660124804.01914,1444168.951488,73
1660124804.01914,1444168.9514962,59
1660124804.69452,1444168.9515078,47
1660124804.69452,1444168.9515131,38
1660124804.69452,1444168.951546,35
1660124804.69452,1444168.9515548,42
1660124804.69452,1444168.9515596,45
1660124804.69452,1444168.9515663,45
1660124804.69452,1444168.9515721,38
1660124804.69452,1444168.9515773,9
1660124804.69452,1444168.9515833,-9
1660124804.69452,1444168.9515883,-9
1660124804.69452,1444168.9515934,-9
1660124804.69452,1444168.9515984,2
1660124804.69452,1444168.9516023,21
1660124804.69452,1444168.9516059,16
1660124804.69452,1444168.9516094,-4
1660124804.69452,1444168.951613,-9
1660124804.69452,1444168.9516166,-2
1660124804.69452,1444168.9516204,-2
1660124804.69452,1444168.9516244,-2
1660124804.69452,1444168.9516281,-2
1660124804.69452,1444168.951632,-4
1660124804.69452,1444168.9516363,4
1660124804.69452,1444168.9516396,19
1660124804.69452,1444168.9516427,23
1660124804.69452,1444168.9516458,21
1660124804.69452,1444168.9516486,19
1660124804.69452,1444168.951652,33
1660124804.69452,1444168.9516551,54
1660124804.69452,1444168.9516583,59
1660124804.69452,1444168.9516613,57
1660124804.69452,1444168.9516647,54
1660124804.69452,1444168.9516699,47
1660124804.69452,1444168.9516749,38
1660124804.69452,1444168.9516818,38
1660124804.69452,1444168.9516853,49
1660124804.69452,1444168.9516903,59
1660124804.69452,1444168.9516955,40
1660124804.69452,1444168.9517025,47
1660124804.69452,1444168.9517096,346
1660124804.69452,1444168.9517143,898
1660124804.69452,1444168.9517196,836
1660124804.69452,1444168.9517248,-235
1660124804.69452,1444168.9517287,-976
1660124804.69452,1444168.9517328,-541
1660124804.69452,1444168.9517382,-35
1660124804.69452,1444168.951742,-11
1660124804.69452,1444168.9517452,71
1660124804.69452,1444168.9517498,192
1660124804.69452,1444168.9517574,149
1660124804.69452,1444168.9517605,125
1660124804.70649,1444168.9517635,168
1660124804.70649,1444168.9517665,171
1660124804.70649,1444168.9517695,156
1660124804.70649,1444168.9517724,161
1660124804.70649,1444168.9517755,161
1660124804.70649,1444168.9517798,163
1660124804.70649,1444168.9517863,163
1660124804.70649,1444168.9517894,156
1660124804.70649,1444168.951796,159
1660124804.70649,1444168.9518005,175
1660124804.70649,1444168.9518041,185
1660124804.70649,1444168.9518071,185
1660124804.70649,1444168.9518101,187
1660124804.70649,1444168.951813,199
1660124804.70649,1444168.951816,213
1660124804.70649,1444169.6334031,225
1660124804.70649,1444169.6334168,230
1660124804.70649,1444169.6334211,237
1660124804.70649,1444169.6334273,242
1660124804.70649,1444169.6334295,235
1660124804.70649,1444169.6334326,216
1660124804.70649,1444169.6334346,192
1660124804.70649,1444169.6334367,182
1660124804.70649,1444169.6334387,180
1660124805.17227,1444169.6334407,163
1660124805.17227,1444169.6334427,142
1660124805.17227,1444169.6334446,111
1660124805.17227,1444169.6334465,68
1660124805.17227,1444169.6334483,47
1660124805.17227,1444169.6334502,47
1660124805.17227,1444169.6334526,30
1660124805.17227,1444169.6334568,11
1660124805.17227,1444169.633467,2
1660124805.17227,1444169.6334738,4
1660124805.17227,1444169.6334761,7
1660124805.17227,1444169.6334824,4
1660124805.17227,1444169.6334941,-4
1660124805.17227,1444169.6335046,-14
1660124805.17227,1444169.6335111,-21
1660124805.17227,1444169.6335141,-26
1660124805.17227,1444169.6335162,-26
1660124805.17227,1444169.6335182,-23
1660124805.17227,1444169.6335209,-19
1660124805.17227,1444169.6335308,-14
1660124805.17227,1444169.6335402,-7
1660124805.17227,1444169.6335428,-7
1660124805.17227,1444169.6335449,-11
1660124805.17227,1444169.6335469,-7
1660124805.17227,1444169.633549,2
1660124805.17227,1444169.6335518,14
1660124805.17227,1444169.6335619,16
1660124805.17227,1444169.6335701,9
1660124805.17227,1444169.6335726,4
1660124805.17227,1444169.6335747,14
1660124805.17227,1444169.6335769,21
1660124805.17227,1444169.633584,21
1660124805.17227,1444169.6335951,23
1660124805.17227,1444169.6335998,28
1660124805.17227,1444169.6336018,35
1660124805.17227,1444169.6336039,42
1660124805.17227,1444169.633606,52
1660124805.17227,1444169.6336081,80
1660124805.17227,1444169.6336101,99
1660124805.17227,1444169.6336122,90
1660124805.17227,1444169.6336142,85
1660124805.17227,1444169.6336169,90
1660124805.17227,1444169.633619,68
1660124805.17227,1444169.6336211,40
1660124805.17227,1444169.6336232,47
1660124805.17227,1444169.6336253,71
1660124805.17227,1444169.6336274,71
1660124805.17227,1444169.6336294,45
1660124805.17227,1444169.6336321,4
1660124805.17227,1444169.6336419,121
1660124805.18423,1444169.6336511,651
1660124805.18423,1444169.6336537,1090
1660124805.18423,1444169.6336559,430
1660124805.18423,1444169.633658,-791
1660124805.18423,1444169.6336602,-952
1660124805.18423,1444169.6336676,-266
1660124805.18423,1444169.6336783,21
1660124805.18423,1444169.6336819,16
1660124805.18423,1444169.6336855,154
1660124805.18423,1444169.6336885,199
1660124805.18423,1444169.6336991,140
1660124805.18423,1444169.6337065,159
1660124805.18423,1444169.6337089,197
1660124805.18423,1444169.633711,182
1660124805.18423,1444170.1210816,180
1660124805.18423,1444170.1210943,194
1660124805.18423,1444170.1210997,187
1660124805.18423,1444170.1211149,182
1660124805.18423,1444170.1211239,197
1660124805.18423,1444170.1211285,206
1660124805.18423,1444170.1211342,216
1660124805.18423,1444170.1211383,228
1660124805.18423,1444170.1211439,235
1660124805.18423,1444170.1211478,230
1660124805.72398,1444170.1211515,218
1660124805.72398,1444170.1211554,220
1660124805.72398,1444170.1211593,244
1660124805.72398,1444170.1211633,256
1660124805.72398,1444170.1211672,247
1660124805.72398,1444170.121171,230
1660124805.72398,1444170.1211748,216
1660124805.72398,1444170.1211786,199
1660124805.72398,1444170.1211825,175
1660124805.72398,1444170.121187,144
1660124805.72398,1444170.1211927,114
1660124805.72398,1444170.1211962,73
1660124805.72398,1444170.1211997,40
1660124805.72398,1444170.1212051,33
1660124805.72398,1444170.1212102,28
1660124805.72398,1444170.1212163,19
1660124805.72398,1444170.1212199,7
1660124805.72398,1444170.1212249,-16
1660124805.72398,1444170.1212295,-40
1660124805.72398,1444170.1212347,-47
1660124805.72398,1444170.1212382,-40
1660124805.72398,1444170.1212418,-38
1660124805.72398,1444170.1212472,-40
1660124805.72398,1444170.1212524,-40
1660124805.72398,1444170.1212576,-35
1660124805.72398,1444170.121262,-21
1660124805.72398,1444170.1212675,-9
1660124805.72398,1444170.1212718,-7
1660124805.72398,1444170.1212773,-4
1660124805.72398,1444170.1212829,2
1660124805.72398,1444170.1212887,9
1660124805.72398,1444170.1212934,9
1660124805.72398,1444170.1212979,16
1660124805.72398,1444170.1213018,26
1660124805.72398,1444170.1213078,28
1660124805.72398,1444170.1213136,30
1660124805.72398,1444170.1213199,30
1660124805.72398,1444170.1213243,28
1660124805.72398,1444170.1213309,28
1660124805.72398,1444170.1213354,38
1660124805.72398,1444170.1213419,38
1660124805.72398,1444170.1213471,40
1660124805.72398,1444170.1213524,45
1660124805.72398,1444170.1213563,45
1660124805.72398,1444170.1213596,49
1660124805.72398,1444170.1213648,57
1660124805.72398,1444170.1213686,49
1660124805.72398,1444170.1213727,47
1660124805.72398,1444170.1213762,54
1660124805.72398,1444170.1213799,64
1660124805.73794,1444170.121385,87
1660124805.73794,1444170.1213895,118
1660124805.73794,1444170.1213945,121
1660124805.73794,1444170.1213983,106
1660124805.73794,1444170.1214021,111
1660124805.73794,1444170.121406,109
1660124805.73794,1444170.1214113,87
1660124805.73794,1444170.1214156,66
1660124805.73794,1444170.121421,71
1660124805.73794,1444170.1214256,87
1660124805.73794,1444170.121429,92
1660124805.73794,1444170.1214324,71
1660124805.73794,1444170.1214376,45
1660124805.73794,1444170.6571691,251
1660124805.73794,1444170.6571913,845
1660124805.73794,1444170.657198,1066
1660124805.73794,1444170.6572022,123
1660124805.73794,1444170.6572054,-952
1660124805.73794,1444170.6572086,-793
1660124805.73794,1444170.6572117,-147
1660124805.73794,1444170.6572165,-11
1660124805.73794,1444170.6572204,11
1660124805.73794,1444170.6572243,154
1660124805.73794,1444170.6572273,159
1660124806.25728,1444170.6572303,106
1660124806.25728,1444170.6572344,111
1660124806.25728,1444170.6572399,116
1660124806.25728,1444170.6572451,114
1660124806.25728,1444170.6572495,125
1660124806.25728,1444170.6572553,135
1660124806.25728,1444170.6572619,128
1660124806.25728,1444170.6572687,106
1660124806.25728,1444170.6572756,87
1660124806.25728,1444170.6572798,99
1660124806.25728,1444170.6572848,118
1660124806.25728,1444170.6572888,125
1660124806.25728,1444170.657293,133
1660124806.25728,1444170.6572961,144
1660124806.25728,1444170.6573002,156
1660124806.25728,1444170.6573093,171
1660124806.25728,1444170.6573147,182
1660124806.25728,1444170.6573188,187
1660124806.25728,1444170.6573237,190
1660124806.25728,1444170.6573267,182
1660124806.25728,1444170.65733,166
1660124806.25728,1444170.6573332,156
1660124806.25728,1444170.6573364,149
1660124806.25728,1444170.6573398,130
1660124806.25728,1444170.6573434,102
1660124806.25728,1444170.6573488,80
1660124806.25728,1444170.6573532,59
1660124806.25728,1444170.6573564,33
1660124806.25728,1444170.6573621,14
1660124806.25728,1444170.6573892,9
1660124806.25728,1444170.6574026,7
1660124806.25728,1444170.6574071,2
1660124806.25728,1444170.6574104,2
1660124806.25728,1444170.657415,4
1660124806.25728,1444170.6574182,11
1660124806.25728,1444170.6574214,16
1660124806.25728,1444170.657425,26
1660124806.25728,1444170.6574297,30
1660124806.25728,1444170.6574339,30
1660124806.25728,1444170.6574375,30
1660124806.25728,1444170.6574407,35
1660124806.25728,1444170.6574438,42
1660124806.25728,1444170.6574478,52
1660124806.25728,1444170.6574526,61
1660124806.25728,1444170.6574561,64
1660124806.25728,1444170.6574593,59
1660124806.25728,1444170.6574624,66
1660124806.25728,1444170.6574654,71
1660124806.25728,1444170.6574701,71
1660124806.25728,1444170.6574755,76
1660124806.27224,1444170.6574809,78
1660124806.27224,1444170.6574871,68
1660124806.27224,1444170.6574905,66
1660124806.27224,1444170.6574954,76
1660124806.27224,1444170.6574984,80
1660124806.27224,1444170.6575015,76
1660124806.27224,1444170.6575047,59
1660124806.27224,1444170.6575113,42
1660124806.27224,1444170.6575145,42
1660124806.27224,1444170.6575198,52
1660124806.27224,1444170.6575251,66
1660124806.27224,1444170.6575283,92
1660124806.27224,1444171.193526,102
1660124806.27224,1444171.1935445,90
1660124806.27224,1444171.193555,90
1660124806.27224,1444171.1935639,90
1660124806.27224,1444171.1935694,68
1660124806.27224,1444171.1935774,49
1660124806.27224,1444171.1935841,57
1660124806.27224,1444171.1935975,66
1660124806.27224,1444171.193609,57
1660124806.27224,1444171.1936146,26
1660124806.27224,1444171.1936168,-7
1660124806.27224,1444171.1936197,125
1660124806.83586,1444171.1936219,651
1660124806.83586,1444171.1936239,988
1660124806.83586,1444171.1936258,185
1660124806.83586,1444171.1936278,-998
1660124806.83586,1444171.1936316,-981
1660124806.83586,1444171.1936336,-259
1660124806.83586,1444171.1936363,-33
1660124806.83586,1444171.1936441,-9
1660124806.83586,1444171.1936513,147
1660124806.83586,1444171.1936587,163
1660124806.83586,1444171.1936626,109
1660124806.83586,1444171.1936686,142
1660124806.83586,1444171.1936741,161
1660124806.83586,1444171.1936784,147
1660124806.83586,1444171.1936911,156
1660124806.83586,1444171.1936999,166
1660124806.83586,1444171.1937043,152
1660124806.83586,1444171.1937181,144
1660124806.83586,1444171.1937308,147
1660124806.83586,1444171.1937421,147
1660124806.83586,1444171.1937516,154
1660124806.83586,1444171.1937657,171
1660124806.83586,1444171.1937765,182
1660124806.83586,1444171.1937821,192
1660124806.83586,1444171.1937893,204
1660124806.83586,1444171.1937946,218
1660124806.83586,1444171.1937981,237
1660124806.83586,1444171.1938088,247
1660124806.83586,1444171.1938142,244
1660124806.83586,1444171.1938165,235
1660124806.83586,1444171.1938261,223
1660124806.83586,1444171.1938349,206
1660124806.83586,1444171.1938374,180
1660124806.83586,1444171.1938395,152
1660124806.83586,1444171.1938416,123
1660124806.83586,1444171.1938453,90
1660124806.83586,1444171.1938567,59
1660124806.83586,1444171.1938675,49
1660124806.83586,1444171.1938735,52
1660124806.83586,1444171.1938772,45
1660124806.83586,1444171.1938827,28
1660124806.83586,1444171.1938882,19
1660124806.83586,1444171.1938922,21
1660124806.83586,1444171.1938976,26
1660124806.83586,1444171.1939015,30
1660124806.83586,1444171.1939075,35
1660124806.83586,1444171.1939116,35
1660124806.83586,1444171.1939169,33
1660124806.83586,1444171.1939219,21
1660124806.83586,1444171.1939275,9
1660124806.85281,1444171.1939341,14
1660124806.85281,1444171.1939395,30
1660124806.85281,1444171.1939445,40
1660124806.85281,1444171.1939499,40
1660124806.85281,1444171.1939553,45
1660124806.85281,1444171.19401,57
1660124806.85281,1444171.1940168,61
1660124806.85281,1444171.1940218,59
1660124806.85281,1444171.1940278,61
1660124806.85281,1444171.1940327,57
1660124806.85281,1444171.1940384,47
1660124806.85281,1444171.7791249,57
1660124806.85281,1444171.7791435,71
1660124806.85281,1444171.7791492,76
1660124806.85281,1444171.7791573,73
1660124806.85281,1444171.7791629,66
1660124806.85281,1444171.7791705,42
1660124806.85281,1444171.7791753,35
1660124806.85281,1444171.7791813,61
1660124806.85281,1444171.779186,87
1660124806.85281,1444171.7791945,97
1660124806.85281,1444171.7792275,92
1660124806.85281,1444171.7792445,76
1660124806.85281,1444171.7792509,54
1660124807.43373,1444171.7792582,38
1660124807.43373,1444171.779263,23
1660124807.43373,1444171.7792672,28
1660124807.43373,1444171.7792715,42
1660124807.43373,1444171.7792764,40
1660124807.43373,1444171.7792818,30
1660124807.43373,1444171.7792854,0
1660124807.43373,1444171.7792889,73
1660124807.43373,1444171.7792926,515
1660124807.43373,1444171.7792975,933
1660124807.43373,1444171.779303,323
1660124807.43373,1444171.7793086,-891
1660124807.43373,1444171.7793157,-1050
1660124807.43373,1444171.7793216,-316
1660124807.43373,1444171.7793289,-11
1660124807.43373,1444171.779337,-14
1660124807.43373,1444171.779346,152
1660124807.43373,1444171.7793537,206
1660124807.43373,1444171.7793582,135
1660124807.43373,1444171.7793614,156
1660124807.43373,1444171.7793671,194
1660124807.43373,1444171.7793729,173
1660124807.43373,1444171.7793783,173
1660124807.43373,1444171.7793814,187
1660124807.43373,1444171.7793843,182
1660124807.43373,1444171.7793873,185
1660124807.43373,1444171.7793902,199
1660124807.43373,1444171.7793931,192
1660124807.43373,1444171.779396,182
1660124807.43373,1444171.7793989,192
1660124807.43373,1444171.7794018,206
1660124807.43373,1444171.7794047,218
1660124807.43373,1444171.7794076,228
1660124807.43373,1444171.7794105,232
1660124807.43373,1444171.7794139,240
1660124807.43373,1444171.7794167,254
1660124807.43373,1444171.7794196,256
1660124807.43373,1444171.7794225,244

1660124807.43373,1444171.7794257,235
1660124807.43373,1444171.7794285,213
1660124807.43373,1444171.7794316,173
1660124807.43373,1444171.7794344,130
1660124807.43373,1444171.7794373,102
1660124807.43373,1444171.779441,83
1660124807.43373,1444171.779447,54
1660124807.43373,1444171.7794499,30
1660124807.43373,1444171.7794529,14
1660124807.43373,1444171.7794558,7
1660124807.43373,1444171.7794587,4
1660124807.43373,1444171.7794617,7
1660124807.45567,1444171.7794646,4
1660124807.45567,1444171.7794675,4
1660124807.45567,1444171.7794704,2
1660124807.45567,1444171.7794734,4
1660124807.45567,1444171.7794764,16
1660124807.45567,1444171.7794881,21
1660124807.45567,1444171.7794932,26
1660124807.45567,1444171.7794992,30
1660124807.45567,1444171.7795045,35
1660124807.45567,1444171.7795075,35
1660124807.45567,1444172.3639891,42
1660124807.45567,1444172.3640034,49
1660124807.45567,1444172.3640076,52
1660124807.45567,1444172.3640099,54
1660124807.45567,1444172.3640121,59
1660124807.45567,1444172.3640142,64
1660124807.45567,1444172.3640162,71
1660124807.45567,1444172.3640183,68
1660124807.45567,1444172.3640203,49
1660124807.45567,1444172.3640223,28
1660124807.45567,1444172.3640244,26
1660124807.45567,1444172.3640264,26
1660124807.45567,1444172.3640284,19
1660124807.45567,1444172.3640304,21
1660124807.95758,1444172.3640324,11
1660124807.95758,1444172.3640354,-4
1660124807.95758,1444172.3640445,4
1660124807.95758,1444172.3640519,42
1660124807.95758,1444172.3640571,64
1660124807.95758,1444172.3640648,57
1660124807.95758,1444172.3640737,54
1660124807.95758,1444172.3640771,52
1660124807.95758,1444172.3640791,35
1660124807.95758,1444172.3640811,16
1660124807.95758,1444172.364083,16
1660124807.95758,1444172.3640848,35
1660124807.95758,1444172.3640877,49
1660124807.95758,1444172.3640965,42
1660124807.95758,1444172.3641064,-7
1660124807.95758,1444172.3641108,21
1660124807.95758,1444172.3641147,458
1660124807.95758,1444172.3641185,1033
1660124807.95758,1444172.3641225,655
1660124807.95758,1444172.3641267,-608
1660124807.95758,1444172.3641331,-1069
1660124807.95758,1444172.3641368,-408
1660124807.95758,1444172.364141,16
1660124807.95758,1444172.3641477,-4
1660124807.95758,1444172.364153,114
1660124807.95758,1444172.3641593,209
1660124807.95758,1444172.3641642,142
1660124807.95758,1444172.3641751,137
1660124807.95758,1444172.3641801,180
1660124807.95758,1444172.3641888,163
1660124807.95758,1444172.3641993,147
1660124807.95758,1444172.3642032,163
1660124807.95758,1444172.3642054,159
1660124807.95758,1444172.3642083,135
1660124807.95758,1444172.3642166,140
1660124807.95758,1444172.3642272,159
1660124807.95758,1444172.3642298,163
1660124807.95758,1444172.3642319,171
1660124807.95758,1444172.364234,182
1660124807.95758,1444172.364236,187
1660124807.95758,1444172.3642383,197
1660124807.95758,1444172.3642486,213
1660124807.95758,1444172.364257,228
1660124807.95758,1444172.3642596,232
1660124807.95758,1444172.3642617,228
1660124807.95758,1444172.3642637,211
1660124807.95758,1444172.3642658,197
1660124807.95758,1444172.3642682,187
1660124807.95758,1444172.3642784,171
1660124807.95758,1444172.3642869,152
1660124807.97154,1444172.3642894,133
1660124807.97154,1444172.3642915,111
1660124807.97154,1444172.3642936,95
1660124807.97154,1444172.3642967,85
1660124807.97154,1444172.3643073,78
1660124807.97154,1444172.3643127,68
1660124807.97154,1444172.3643175,64
1660124807.97154,1444172.3643209,59
1660124807.97154,1444172.3643242,52
1660124807.97154,1444172.899878,54
1660124807.97154,1444172.8998985,57
1660124807.97154,1444172.8999153,45
1660124807.97154,1444172.8999944,30
1660124807.97154,1444172.9000058,28
1660124807.97154,1444172.9000101,23
1660124807.97154,1444172.9000156,19
1660124807.97154,1444172.9000196,28
1660124807.97154,1444172.9000265,38
1660124807.97154,1444172.90003,38
1660124807.97154,1444172.9000335,35
1660124807.97154,1444172.9000371,26
1660124807.97154,1444172.9000406,9
1660124807.97154,1444172.900044,9
1660124807.97154,1444172.9000472,19
1660124808.54718,1444172.9000508,19
1660124808.54718,1444172.9000544,21
1660124808.54718,1444172.9000575,19
1660124808.54718,1444172.9000606,2
1660124808.54718,1444172.900064,-4
1660124808.54718,1444172.9000675,4
1660124808.54718,1444172.900071,2
1660124808.54718,1444172.9000752,0
1660124808.54718,1444172.9000788,4
1660124808.54718,1444172.9000832,14
1660124808.54718,1444172.9000871,30
1660124808.54718,1444172.9000915,57
1660124808.54718,1444172.9000955,68
1660124808.54718,1444172.9000999,61
1660124808.54718,1444172.9001044,64
1660124808.54718,1444172.9001081,64
1660124808.54718,1444172.9001126,11
1660124808.54718,1444172.9001162,-114
1660124808.54718,1444172.9001227,-201
1660124808.54718,1444172.9001269,28
1660124808.54718,1444172.9001309,634
1660124808.54718,1444172.9001355,1361
1660124808.54718,1444172.9001405,1682
1660124808.54718,1444172.9001447,1019
1660124808.54718,1444172.9001493,-256
1660124808.54718,1444172.9001537,-1059
1660124808.54718,1444172.9001574,-1059
1660124808.54718,1444172.9001618,-736
1660124808.54718,1444172.9001655,-437
1660124808.54718,1444172.9001699,-187
1660124808.54718,1444172.9001743,-11
1660124808.54718,1444172.9001784,59
1660124808.54718,1444172.9001828,66
1660124808.54718,1444172.9001865,78
1660124808.54718,1444172.9001909,92
1660124808.54718,1444172.9001946,92
1660124808.54718,1444172.9001991,97
1660124808.54718,1444172.9002035,109
1660124808.54718,1444172.9002072,116
1660124808.54718,1444172.9002117,128
1660124808.54718,1444172.9002161,140
1660124808.54718,1444172.9002217,140
1660124808.54718,1444172.9002284,142
1660124808.54718,1444172.9002367,159
1660124808.54718,1444172.9002402,178
1660124808.54718,1444172.9002437,194
1660124808.54718,1444172.9002472,218
1660124808.54718,1444172.9002508,242
1660124808.54718,1444172.9002541,263
1660124808.54718,1444172.9002577,294
1660124808.56868,1444172.9002617,327
1660124808.56868,1444172.9002666,342
1660124808.56868,1444172.9002723,349
1660124808.56868,1444172.9002824,351
1660124808.56868,1444172.900286,335
1660124808.56868,1444172.9002892,292
1660124808.56868,1444172.9002947,240
1660124808.56868,1444172.9003029,185
1660124808.56868,1444173.4857061,133
1660124808.56868,1444173.4857234,87
1660124808.56868,1444173.4857329,54
1660124808.56868,1444173.4857372,38
1660124808.56868,1444173.4857416,33
1660124808.56868,1444173.4857458,33
1660124808.56868,1444173.48575,28
1660124808.56868,1444173.4857544,21
1660124808.56868,1444173.4857603,-2
1660124808.56868,1444173.4857657,-23
1660124808.56868,1444173.4857703,-11
1660124808.56868,1444173.4857743,2
1660124808.56868,1444173.4857783,7
1660124808.56868,1444173.4857833,9
1660124808.56868,1444173.485789,0
1660124808.56868,1444173.4857998,-16
1660124809.12651,1444173.4858128,-11
1660124809.12651,1444173.4858215,2
1660124809.12651,1444173.4858287,4
1660124809.12651,1444173.4858342,9
1660124809.12651,1444173.4858395,11
1660124809.12651,1444173.4858507,9
1660124809.12651,1444173.4858641,14
1660124809.12651,1444173.4858776,19
1660124809.12651,1444173.485891,11
1660124809.12651,1444173.4859044,0
1660124809.12651,1444173.4859179,-11
1660124809.12651,1444173.485931,-21
1660124809.12651,1444173.4859445,-21
1660124809.12651,1444173.4859594,-14
1660124809.12651,1444173.4859685,-14
1660124809.12651,1444173.4859755,-21
1660124809.12651,1444173.4859812,-26
1660124809.12651,1444173.4859948,-38
1660124809.12651,1444173.4860084,-38
1660124809.12651,1444173.4860218,-7
1660124809.12651,1444173.4860353,28
1660124809.12651,1444173.4860484,30
1660124809.12651,1444173.4860617,19
1660124809.12651,1444173.4860748,19
1660124809.12651,1444173.4860863,19
1660124809.12651,1444173.4860915,-2
1660124809.12651,1444173.4860978,-11
1660124809.12651,1444173.4861078,4
1660124809.12651,1444173.4861209,14
1660124809.12651,1444173.4861344,14
1660124809.12651,1444173.4861477,-4
1660124809.12651,1444173.486161,-33
1660124809.12651,1444173.486174,173
1660124809.12651,1444173.486187,772
1660124809.12651,1444173.4862003,1009
1660124809.12651,1444173.4862134,90
1660124809.12651,1444173.4862271,-986
1660124809.12651,1444173.4862421,-841
1660124809.12651,1444173.4862552,-173
1660124809.12651,1444173.4862684,-9
1660124809.12651,1444173.4862828,2
1660124809.12651,1444173.4862959,133
1660124809.12651,1444173.4863093,135
1660124809.12651,1444173.4863235,87
1660124809.12651,1444173.4863369,118
1660124809.12651,1444173.48635,140
1660124809.12651,1444173.4863644,123
1660124809.12651,1444173.4863778,128
1660124809.12651,1444173.4863909,144
1660124809.12651,1444173.4864054,144
1660124809.14247,1444173.4864185,142
1660124809.14247,1444173.4864319,152
1660124809.14247,1444173.486446,156
1660124809.14247,1444173.4864593,161
1660124809.14247,1444173.4864724,173
1660124809.14247,1444173.4864871,173
1660124809.14247,1444173.4865004,175
1660124809.14247,1444174.0701086,192
1660124809.14247,1444174.0701225,206
1660124809.14247,1444174.070127,213
1660124809.14247,1444174.0701314,218
1660124809.14247,1444174.070134,220
1660124809.14247,1444174.0701366,216
1660124809.14247,1444174.0701389,206
1660124809.14247,1444174.0701412,190
1660124809.14247,1444174.0701435,171
1660124809.14247,1444174.0701458,156
1660124809.14247,1444174.0701487,137
1660124809.14247,1444174.0701568,104
1660124809.14247,1444174.0701676,64
1660124809.14247,1444174.0701718,42
1660124809.14247,1444174.0701824,38
1660124809.14247,1444174.070191,26
1660124809.14247,1444174.0701936,4
1660124809.67023,1444174.0701958,-26
1660124809.67023,1444174.0701979,-49
1660124809.67023,1444174.0701999,-49
1660124809.67023,1444174.0702018,-40
1660124809.67023,1444174.0702037,-33
1660124809.67023,1444174.0702056,-26
1660124809.67023,1444174.0702076,-19
1660124809.67023,1444174.0702094,-23
1660124809.67023,1444174.0702114,-28
1660124809.67023,1444174.0702133,-30
1660124809.67023,1444174.0702152,-30
1660124809.67023,1444174.0702171,-23
1660124809.67023,1444174.070219,-19
1660124809.67023,1444174.070221,-14
1660124809.67023,1444174.0702229,-14
1660124809.67023,1444174.0702272,-14
1660124809.67023,1444174.0702388,-4
1660124809.67023,1444174.0702503,7
1660124809.67023,1444174.0702634,16
1660124809.67023,1444174.0702789,16
1660124809.67023,1444174.0702899,14
1660124809.67023,1444174.0702926,16
1660124809.67023,1444174.0702947,21
1660124809.67023,1444174.0702968,26
1660124809.67023,1444174.0702988,33
1660124809.67023,1444174.0703009,42
1660124809.67023,1444174.0703029,57
1660124809.67023,1444174.0703049,87
1660124809.67023,1444174.0703069,111
1660124809.67023,1444174.070309,97
1660124809.67023,1444174.0703112,90
1660124809.67023,1444174.0703133,97
1660124809.67023,1444174.0703154,73
1660124809.67023,1444174.0703174,42
1660124809.67023,1444174.0703249,52
1660124809.67023,1444174.0703357,71
1660124809.67023,1444174.0703393,64
1660124809.67023,1444174.070343,57
1660124809.67023,1444174.070345,23
1660124809.67023,1444174.0703527,38
1660124809.67023,1444174.0703633,415
1660124809.67023,1444174.0703672,986
1660124809.67023,1444174.0703694,715
1660124809.67023,1444174.0703716,-515
1660124809.67023,1444174.0703794,-1095
1660124809.67023,1444174.0703928,-472
1660124809.67023,1444174.0704023,23
1660124809.67023,1444174.0704071,21
1660124809.67023,1444174.0704117,128
1660124809.67023,1444174.0704178,247
1660124809.69017,1444174.0704231,192
1660124809.69017,1444174.0704298,178
1660124809.69017,1444174.070434,216
1660124809.69017,1444174.0704383,206
1660124809.69017,1444174.0704425,201
1660124809.69017,1444174.0704468,218
1660124809.69017,1444174.606864,218
1660124809.69017,1444174.6068816,211
1660124809.69017,1444174.6068917,220
1660124809.69017,1444174.6069022,232
1660124809.69017,1444174.6069115,240
1660124809.69017,1444174.6069167,240
1660124809.69017,1444174.6069201,237
1660124809.69017,1444174.6069233,242
1660124809.69017,1444174.6069281,235
1660124809.69017,1444174.6069312,228
1660124809.69017,1444174.6069356,249
1660124809.69017,1444174.6069416,259
1660124809.69017,1444174.6069457,249
1660124809.69017,1444174.6069556,251
1660124809.69017,1444174.6069628,249
1660124809.69017,1444174.6069653,230
1660124809.69017,1444174.6069674,213
1660124809.69017,1444174.6069694,194
1660124810.25791,1444174.6069716,152
1660124810.25791,1444174.6069735,109
1660124810.25791,1444174.6069755,87
1660124810.25791,1444174.6069774,54
1660124810.25791,1444174.6069793,26
1660124810.25791,1444174.6069811,28
1660124810.25791,1444174.606983,26
1660124810.25791,1444174.6069848,19
1660124810.25791,1444174.6069867,30
1660124810.25791,1444174.6069887,33
1660124810.25791,1444174.6069926,33
1660124810.25791,1444174.6070006,47
1660124810.25791,1444174.6070075,47
1660124810.25791,1444174.6070157,40
1660124810.25791,1444174.6070242,52
1660124810.25791,1444174.6070295,61
1660124810.25791,1444174.6070358,61
1660124810.25791,1444174.6070405,73
1660124810.25791,1444174.6070472,90
1660124810.25791,1444174.6070523,87
1660124810.25791,1444174.6070585,83
1660124810.25791,1444174.6070634,87
1660124810.25791,1444174.6070685,92
1660124810.25791,1444174.6070751,87
1660124810.25791,1444174.6070802,83
1660124810.25791,1444174.6070868,92
1660124810.25791,1444174.607092,102
1660124810.25791,1444174.6070971,97
1660124810.25791,1444174.6071034,87
1660124810.25791,1444174.6071082,80
1660124810.25791,1444174.6071165,80
1660124810.25791,1444174.6071252,83
1660124810.25791,1444174.6071316,76
1660124810.25791,1444174.6071347,71
1660124810.25791,1444174.6071369,78
1660124810.25791,1444174.6071389,92
1660124810.25791,1444174.6071413,114
1660124810.25791,1444174.6071507,133
1660124810.25791,1444174.6071594,130
1660124810.25791,1444174.6071619,121
1660124810.25791,1444174.607164,121
1660124810.25791,1444174.6071661,102
1660124810.25791,1444174.6071691,73
1660124810.25791,1444174.6071799,80
1660124810.25791,1444174.6071869,97
1660124810.25791,1444174.6071891,87
1660124810.25791,1444174.6071913,68
1660124810.25791,1444174.6071933,33
1660124810.25791,1444174.6071954,76
1660124810.25791,1444174.6072034,477
1660124810.28329,1444174.6072141,936
1660124810.28329,1444174.6072169,446
1660124810.28329,1444174.6072191,-786
1660124810.28329,1444174.6072212,-1114
1660124810.28329,1444174.6072238,-408
1660124810.28329,1444175.1918395,-26
1660124810.28329,1444175.1918525,-28
1660124810.28329,1444175.1918552,121
1660124810.28329,1444175.1918575,204
1660124810.28329,1444175.1918596,128
1660124810.28329,1444175.1918616,109
1660124810.28329,1444175.1918637,125
1660124810.28329,1444175.1918657,118
1660124810.28329,1444175.1918678,125
1660124810.28329,1444175.1918699,140
1660124810.28329,1444175.1918718,135
1660124810.28329,1444175.1918738,118
1660124810.28329,1444175.1918758,111
1660124810.28329,1444175.1918778,125
1660124810.28329,1444175.1918798,140
1660124810.28329,1444175.1918819,149
1660124810.28329,1444175.1918839,163
1660124810.28329,1444175.191886,168
1660124810.28329,1444175.1918881,152
1660124810.73573,1444175.1918901,152
1660124810.73573,1444175.1918921,178
1660124810.73573,1444175.191894,194
1660124810.73573,1444175.1918959,194
1660124810.73573,1444175.1918979,187
1660124810.73573,1444175.1918997,178
1660124810.73573,1444175.1919017,163
1660124810.73573,1444175.1919035,149
1660124810.73573,1444175.1919054,130
1660124810.73573,1444175.1919073,109
1660124810.73573,1444175.1919091,87
1660124810.73573,1444175.191911,66
1660124810.73573,1444175.1919129,49
1660124810.73573,1444175.1919148,40
1660124810.73573,1444175.1919167,38
1660124810.73573,1444175.1919186,35
1660124810.73573,1444175.1919205,35
1660124810.73573,1444175.1919224,35
1660124810.73573,1444175.1919242,35
1660124810.73573,1444175.1919261,40
1660124810.73573,1444175.1919281,52
1660124810.73573,1444175.19193,57
1660124810.73573,1444175.191932,54
1660124810.73573,1444175.191934,59
1660124810.73573,1444175.191936,68
1660124810.73573,1444175.1919379,73
1660124810.73573,1444175.1919401,80
1660124810.73573,1444175.1919431,85
1660124810.73573,1444175.1919452,87
1660124810.73573,1444175.1919473,92
1660124810.73573,1444175.1919493,97
1660124810.73573,1444175.1919513,97
1660124810.73573,1444175.1919532,97
1660124810.73573,1444175.1919553,102
1660124810.73573,1444175.1919595,102
1660124810.73573,1444175.1919718,104
1660124810.73573,1444175.1919786,104
1660124810.73573,1444175.1919844,102
1660124810.73573,1444175.1919904,97
1660124810.73573,1444175.1919966,95
1660124810.73573,1444175.192001,87
1660124810.73573,1444175.1920069,78
1660124810.73573,1444175.1920113,83
1660124810.73573,1444175.1920176,90
1660124810.73573,1444175.1920221,97
1660124810.73573,1444175.192028,116
1660124810.73573,1444175.1920325,125
1660124810.73573,1444175.192039,114
1660124810.73573,1444175.1920438,106
1660124810.73573,1444175.1920499,106
1660124810.76166,1444175.1920544,80
1660124810.76166,1444175.1920607,57
1660124810.76166,1444175.1920659,68
1660124810.76166,1444175.1920723,83
1660124810.76166,1444175.6790073,80
1660124810.76166,1444175.6790276,57
1660124810.76166,1444175.6790354,7
1660124810.76166,1444175.6790431,144
1660124810.76166,1444175.6790499,696
1660124810.76166,1444175.6790556,988
1660124810.76166,1444175.6790634,109
1660124810.76166,1444175.6790711,-1028
1660124810.76166,1444175.6790784,-931
1660124810.76166,1444175.679086,-232
1660124810.76166,1444175.6790937,-59
1660124810.76166,1444175.6791002,-54
1660124810.76166,1444175.6791064,97
1660124810.76166,1444175.6791145,109
1660124810.76166,1444175.6791215,40
1660124810.76166,1444175.6791276,49
1660124810.76166,1444175.6791338,64
1660124810.76166,1444175.6791416,57
1660124810.76166,1444175.6791494,66
1660124810.76166,1444175.6791562,83
1660124811.32988,1444175.6791611,83
1660124811.32988,1444175.6791682,80
1660124811.32988,1444175.6791753,80
1660124811.32988,1444175.6791824,85
1660124811.32988,1444175.6791874,99
1660124811.32988,1444175.6791924,111
1660124811.32988,1444175.6791984,118
1660124811.32988,1444175.6792037,128
1660124811.32988,1444175.6792082,137
1660124811.32988,1444175.6792125,152
1660124811.32988,1444175.6792176,168
1660124811.32988,1444175.6792232,178
1660124811.32988,1444175.6792298,178
1660124811.32988,1444175.679239,168
1660124811.32988,1444175.6792502,152
1660124811.32988,1444175.6792633,140
1660124811.32988,1444175.6792765,130
1660124811.32988,1444175.6792897,118
1660124811.32988,1444175.6793034,104
1660124811.32988,1444175.6793152,87
1660124811.32988,1444175.6793229,73
1660124811.32988,1444175.6793311,64
1660124811.32988,1444175.6793384,59
1660124811.32988,1444175.6793462,57
1660124811.32988,1444175.6793512,59
1660124811.32988,1444175.6793573,59
1660124811.32988,1444175.6793605,57
1660124811.32988,1444175.6793634,59
1660124811.32988,1444175.6793663,64
1660124811.32988,1444175.6793692,68
1660124811.32988,1444175.6793721,73
1660124811.32988,1444175.6793751,80
1660124811.32988,1444175.6793781,80
1660124811.32988,1444175.679381,76
1660124811.32988,1444175.6793839,73
1660124811.32988,1444175.6793868,78
1660124811.32988,1444175.6793897,87
1660124811.32988,1444175.6793926,95
1660124811.32988,1444175.6793956,90
1660124811.32988,1444175.6793985,87
1660124811.32988,1444175.6794014,92
1660124811.32988,1444175.6794044,102
1660124811.32988,1444175.6794073,104
1660124811.32988,1444175.6794101,102
1660124811.32988,1444175.6794131,99
1660124811.32988,1444175.6794159,95
1660124811.32988,1444175.6794189,95
1660124811.32988,1444175.6794218,97
1660124811.32988,1444175.6794247,90
1660124811.32988,1444175.6794441,76
1660124811.34883,1444175.6794573,66
1660124811.34883,1444175.6794697,71
1660124811.34883,1444175.6794792,92
1660124811.34883,1444176.2637013,116
1660124811.34883,1444176.2637229,121
1660124811.34883,1444176.2637385,102
1660124811.34883,1444176.2637534,95
1660124811.34883,1444176.2637629,90
1660124811.34883,1444176.2637654,45
1660124811.34883,1444176.2637676,9
1660124811.34883,1444176.2637697,26
1660124811.34883,1444176.2637717,45
1660124811.34883,1444176.2637737,40
1660124811.34883,1444176.2637766,16
1660124811.34883,1444176.2637852,-42
1660124811.34883,1444176.263796,78
1660124811.34883,1444176.2638001,639
1660124811.34883,1444176.2638022,1000
1660124811.34883,1444176.2638043,201
1660124811.34883,1444176.2638098,-957
1660124811.34883,1444176.2638215,-950
1660124811.34883,1444176.2638268,-266
1660124811.34883,1444176.2638299,-57
1660124811.34883,1444176.263832,-54
1660124811.91229,1444176.2638352,78
1660124811.91229,1444176.263846,104
1660124811.91229,1444176.2638518,54
1660124811.91229,1444176.2638541,76
1660124811.91229,1444176.2638561,97
1660124811.91229,1444176.2638581,85
1660124811.91229,1444176.26386,90
1660124811.91229,1444176.2638644,104
1660124811.91229,1444176.2638753,106
1660124811.91229,1444176.2638821,104
1660124811.91229,1444176.2638864,111
1660124811.91229,1444176.2638884,121
1660124811.91229,1444176.2638915,130
1660124811.91229,1444176.2639009,137
1660124811.91229,1444176.2639108,152
1660124811.91229,1444176.2639147,163
1660124811.91229,1444176.2639167,173
1660124811.91229,1444176.2639187,185
1660124811.91229,1444176.2639251,197
1660124811.91229,1444176.2639364,204
1660124811.91229,1444176.2639415,206
1660124811.91229,1444176.2639435,201
1660124811.91229,1444176.2639464,187
1660124811.91229,1444176.2639485,168
1660124811.91229,1444176.2639506,140
1660124811.91229,1444176.2639527,118
1660124811.91229,1444176.2639596,109
1660124811.91229,1444176.2639706,97
1660124811.91229,1444176.2639735,78
1660124811.91229,1444176.2639756,64
1660124811.91229,1444176.2639776,57
1660124811.91229,1444176.2639795,57
1660124811.91229,1444176.2639814,57
1660124811.91229,1444176.2639834,59
1660124811.91229,1444176.2639853,61
1660124811.91229,1444176.2639872,59
1660124811.91229,1444176.2639891,57
1660124811.91229,1444176.263991,64
1660124811.91229,1444176.2639929,73
1660124811.91229,1444176.2639948,78
1660124811.91229,1444176.2639968,83
1660124811.91229,1444176.2639989,76
1660124811.91229,1444176.2640008,64
1660124811.91229,1444176.2640028,71
1660124811.91229,1444176.2640047,71
1660124811.91229,1444176.2640066,14
1660124811.91229,1444176.2640086,-49
1660124811.91229,1444176.2640106,135
1660124811.91229,1444176.2640124,670
1660124811.91229,1444176.2640144,1325
1660124811.92924,1444176.2640163,1687
1660124811.92924,1444176.2640184,1138
1660124811.92924,1444176.8499279,-211
1660124811.92924,1444176.8499471,-1050
1660124811.92924,1444176.8499549,-829
1660124811.92924,1444176.8499637,-470
1660124811.92924,1444176.8499707,-465
1660124811.92924,1444176.8499761,-441
1660124811.92924,1444176.8499801,-261
1660124811.92924,1444176.8499862,-80
1660124811.92924,1444176.8499904,16
1660124811.92924,1444176.849994,83
1660124811.92924,1444176.8499974,135
1660124811.92924,1444176.8500009,142
1660124811.92924,1444176.8500045,121
1660124811.92924,1444176.850008,109
1660124811.92924,1444176.8500119,99
1660124811.92924,1444176.8500164,83
1660124811.92924,1444176.8500203,83
1660124811.92924,1444176.850024,99
1660124811.92924,1444176.8500278,106
1660124811.92924,1444176.8500315,111
1660124811.92924,1444176.8500352,121
1660124811.92924,1444176.8500395,135
1660124812.44696,1444176.850044,159
1660124812.44696,1444176.8500476,192
1660124812.44696,1444176.8500513,225
1660124812.44696,1444176.8500551,261
1660124812.44696,1444176.8500588,294
1660124812.44696,1444176.8500629,320
1660124812.44696,1444176.8500667,339
1660124812.44696,1444176.8500704,354
1660124812.44696,1444176.8500742,344
1660124812.44696,1444176.8500778,301
1660124812.44696,1444176.8500816,237
1660124812.44696,1444176.8500853,175
1660124812.44696,1444176.8500894,118
1660124812.44696,1444176.8500931,64
1660124812.44696,1444176.8500967,19
1660124812.44696,1444176.8501005,-14
1660124812.44696,1444176.8501042,-30
1660124812.44696,1444176.8501087,-35
1660124812.44696,1444176.8501124,-38
1660124812.44696,1444176.8501161,-33
1660124812.44696,1444176.8501199,-26
1660124812.44696,1444176.8501235,-21
1660124812.44696,1444176.8501271,-21
1660124812.44696,1444176.8501308,-11
1660124812.44696,1444176.8501346,-2
1660124812.44696,1444176.8501383,2
1660124812.44696,1444176.8501419,9
1660124812.44696,1444176.8501455,14
1660124812.44696,1444176.8501492,16
1660124812.44696,1444176.8501528,23
1660124812.44696,1444176.8501566,28
1660124812.44696,1444176.8501602,33
1660124812.44696,1444176.8501638,33
1660124812.44696,1444176.8501674,28
1660124812.44696,1444176.850171,16
1660124812.44696,1444176.8501746,19
1660124812.44696,1444176.8501783,26
1660124812.44696,1444176.850182,28
1660124812.44696,1444176.8501857,33
1660124812.44696,1444176.8501893,40
1660124812.44696,1444176.850193,38
1660124812.44696,1444176.8501966,42
1660124812.44696,1444176.8502003,59
1660124812.44696,1444176.8502039,66
1660124812.44696,1444176.8502075,64
1660124812.44696,1444176.8502111,66
1660124812.44696,1444176.8502147,59
1660124812.44696,1444176.8502184,52
1660124812.44696,1444176.850222,61
1660124812.44696,1444176.8502257,68
1660124812.47189,1444176.8502294,68
1660124812.47189,1444177.3855779,68
1660124812.47189,1444177.3855995,76
1660124812.47189,1444177.3856077,83
1660124812.47189,1444177.3856153,87
1660124812.47189,1444177.3856218,85
1660124812.47189,1444177.3856266,87
1660124812.47189,1444177.3856307,95
1660124812.47189,1444177.3856361,97
1660124812.47189,1444177.3856427,92
1660124812.47189,1444177.3856485,99
1660124812.47189,1444177.3856559,104
1660124812.47189,1444177.3856592,87
1660124812.47189,1444177.3856657,64
1660124812.47189,1444177.3856691,66
1660124812.47189,1444177.3856753,76
1660124812.47189,1444177.3856806,78
1660124812.47189,1444177.3856836,80
1660124812.47189,1444177.3856865,90
1660124812.47189,1444177.3856895,104
1660124812.47189,1444177.3856924,118
1660124812.47189,1444177.3856953,118
1660124812.47189,1444177.3856983,106
1660124812.47189,1444177.3857011,99
1660124813.02081,1444177.385705,78
1660124813.02081,1444177.3857118,42
1660124813.02081,1444177.3857187,30
1660124813.02081,1444177.3857255,52
1660124813.02081,1444177.3857307,54
1660124813.02081,1444177.3857368,23
1660124813.02081,1444177.3857405,-14
1660124813.02081,1444177.3857441,142
1660124813.02081,1444177.3857477,679
1660124813.02081,1444177.385752,998
1660124813.02081,1444177.3857556,220
1660124813.02081,1444177.3857593,-881
1660124813.02081,1444177.3857643,-860
1660124813.02081,1444177.3857698,-228
1660124813.02081,1444177.3857756,-40
1660124813.02081,1444177.3857862,-14
1660124813.02081,1444177.3857898,133
1660124813.02081,1444177.3858008,149
1660124813.02081,1444177.3858139,95
1660124813.02081,1444177.3858282,121
1660124813.02081,1444177.3858416,133
1660124813.02081,1444177.3858504,111
1660124813.02081,1444177.3858597,121
1660124813.02081,1444177.3858717,137
1660124813.02081,1444177.3858839,130
1660124813.02081,1444177.3858959,114
1660124813.02081,1444177.3859083,109
1660124813.02081,1444177.38592,123
1660124813.02081,1444177.3859312,128
1660124813.02081,1444177.3859443,128
1660124813.02081,1444177.3859772,144
1660124813.02081,1444177.3859838,161
1660124813.02081,1444177.385989,163
1660124813.02081,1444177.3859938,171
1660124813.02081,1444177.3859984,192
1660124813.02081,1444177.3860029,204
1660124813.02081,1444177.3860074,194
1660124813.02081,1444177.3860162,185
1660124813.02081,1444177.3860287,194
1660124813.02081,1444177.3860426,201
1660124813.02081,1444177.3860559,190
1660124813.02081,1444177.3860708,190
1660124813.02081,1444177.386112,194
1660124813.02081,1444177.3861247,182
1660124813.02081,1444177.3861296,154
1660124813.02081,1444177.3861341,130
1660124813.02081,1444177.3861405,116
1660124813.02081,1444177.3861453,109
1660124813.02081,1444177.3861512,99
1660124813.02081,1444177.3861559,97
1660124813.04075,1444177.9703836,92
1660124813.04075,1444177.9703986,85
1660124813.04075,1444177.9704046,92
1660124813.04075,1444177.9704105,97
1660124813.04075,1444177.970415,80
1660124813.04075,1444177.9704202,76
1660124813.04075,1444177.970424,92
1660124813.04075,1444177.9704279,87
1660124813.04075,1444177.9704335,61
1660124813.04075,1444177.9704372,52
1660124813.04075,1444177.970441,64
1660124813.04075,1444177.9704466,66
1660124813.04075,1444177.9704516,61
1660124813.04075,1444177.9704551,64
1660124813.04075,1444177.9704589,54
1660124813.04075,1444177.9704627,28
1660124813.04075,1444177.9704665,28
1660124813.04075,1444177.9704702,42
1660124813.04075,1444177.9704738,28
1660124813.04075,1444177.9704775,14
1660124813.04075,1444177.9704811,21
1660124813.04075,1444177.9704867,30
1660124813.04075,1444177.9704904,40
1660124813.04075,1444177.970494,66
1660124813.57058,1444177.970499,83
1660124813.57058,1444177.9705025,85
1660124813.57058,1444177.9705059,83
1660124813.57058,1444177.9705093,78
1660124813.57058,1444177.9705127,61
1660124813.57058,1444177.9705161,40
1660124813.57058,1444177.9705195,35
1660124813.57058,1444177.9705229,45
1660124813.57058,1444177.9705263,52
1660124813.57058,1444177.97053,40
1660124813.57058,1444177.9705335,-7
1660124813.57058,1444177.9705369,19
1660124813.57058,1444177.9705404,399
1660124813.57058,1444177.9705439,874
1660124813.57058,1444177.9705473,441
1660124813.57058,1444177.9705508,-755
1660124813.57058,1444177.9705543,-1100
1660124813.57058,1444177.9705578,-422
1660124813.57058,1444177.9705614,-45
1660124813.57058,1444177.9705664,-38
1660124813.57058,1444177.9705714,121
1660124813.57058,1444177.9705747,204
1660124813.57058,1444177.9705782,135
1660124813.57058,1444177.9705816,135
1660124813.57058,1444177.9705851,166
1660124813.57058,1444177.9705902,149
1660124813.57058,1444177.9705936,133
1660124813.57058,1444177.9705983,133
1660124813.57058,1444177.9706019,133
1660124813.57058,1444177.9706054,135
1660124813.57058,1444177.9706089,135
1660124813.57058,1444177.9706123,140
1660124813.57058,1444177.9706158,149
1660124813.57058,1444177.9706208,163
1660124813.57058,1444177.9706246,173
1660124813.57058,1444177.9706281,178
1660124813.57058,1444177.9706317,185
1660124813.57058,1444177.9706367,204
1660124813.57058,1444177.9706402,220
1660124813.57058,1444177.9706451,232
1660124813.57058,1444177.9706486,232
1660124813.57058,1444177.9706521,220
1660124813.57058,1444177.9706555,204
1660124813.57058,1444177.970659,190
1660124813.57058,1444177.9706625,171
1660124813.57058,1444177.9706672,147
1660124813.57058,1444177.9706707,121
1660124813.57058,1444177.9706756,92
1660124813.57058,1444177.9706791,68
1660124813.57058,1444178.5062412,61
1660124813.59552,1444178.5062588,57
1660124813.59552,1444178.5062645,54
1660124813.59552,1444178.5062707,54
1660124813.59552,1444178.5062752,54
1660124813.59552,1444178.5062795,47
1660124813.59552,1444178.5062838,47
1660124813.59552,1444178.5062879,57
1660124813.59552,1444178.5062921,59
1660124813.59552,1444178.5062963,54
1660124813.59552,1444178.5063003,49
1660124813.59552,1444178.5063043,30
1660124813.59552,1444178.5063084,14
1660124813.59552,1444178.5063124,28
1660124813.59552,1444178.5063158,42
1660124813.59552,1444178.5063209,40
1660124813.59552,1444178.5063238,42
1660124813.59552,1444178.5063274,35
1660124813.59552,1444178.5063305,16
1660124813.59552,1444178.5063334,19
1660124813.59552,1444178.5063364,35
1660124813.59552,1444178.5063394,40
1660124813.59552,1444178.5063422,42
1660124813.59552,1444178.5063452,42
1660124813.59552,1444178.5063482,40
1660124814.10309,1444178.5063512,38
1660124814.10309,1444178.5063541,42
1660124814.10309,1444178.506357,47
1660124814.10309,1444178.5063599,54
1660124814.10309,1444178.5063627,66
1660124814.10309,1444178.5063655,85
1660124814.10309,1444178.5063683,104
1660124814.10309,1444178.5063712,109
1660124814.10309,1444178.506374,90
1660124814.10309,1444178.5063767,73
1660124814.10309,1444178.5063794,64
1660124814.10309,1444178.5063823,40
1660124814.10309,1444178.506385,21
1660124814.10309,1444178.5063878,33
1660124814.10309,1444178.5063905,49
1660124814.10309,1444178.5063941,40
1660124814.10309,1444178.5064028,-7
1660124814.10309,1444178.5064129,-38
1660124814.10309,1444178.5064251,261
1660124814.10309,1444178.5064334,867
1660124814.10309,1444178.5064359,810
1660124814.10309,1444178.5064382,-311
1660124814.10309,1444178.5064402,-1059
1660124814.10309,1444178.5064423,-586
1660124814.10309,1444178.5064444,-49
1660124814.10309,1444178.5064465,-23
1660124814.10309,1444178.5064486,52
1660124814.10309,1444178.5064508,173
1660124814.10309,1444178.5064529,128
1660124814.10309,1444178.506455,97
1660124814.10309,1444178.5064571,133
1660124814.10309,1444178.5064592,125
1660124814.10309,1444178.5064612,111
1660124814.10309,1444178.5064632,125
1660124814.10309,1444178.5064653,128
1660124814.10309,1444178.5064674,123
1660124814.10309,1444178.5064694,130
1660124814.10309,1444178.5064715,130
1660124814.10309,1444178.5064735,130
1660124814.10309,1444178.5064756,142
1660124814.10309,1444178.5064776,152
1660124814.10309,1444178.5064796,156
1660124814.10309,1444178.5064816,168
1660124814.10309,1444178.5064837,175
1660124814.10309,1444178.5064857,180
1660124814.10309,1444178.5064878,185
1660124814.10309,1444178.5064897,185
1660124814.10309,1444178.5064919,180
1660124814.10309,1444179.0432027,173
1660124814.10309,1444179.0432205,149
1660124814.12202,1444179.0432308,128
1660124814.12202,1444179.0432356,121
1660124814.12202,1444179.0432407,111
1660124814.12202,1444179.0432429,97
1660124814.12202,1444179.043245,92
1660124814.12202,1444179.0432471,76
1660124814.12202,1444179.0432492,40
1660124814.12202,1444179.0432513,19
1660124814.12202,1444179.0432534,23
1660124814.12202,1444179.0432554,30
1660124814.12202,1444179.0432575,33
1660124814.12202,1444179.0432595,28
1660124814.12202,1444179.0432615,14
1660124814.12202,1444179.0432636,2
1660124814.12202,1444179.0432656,9
1660124814.12202,1444179.0432677,21
1660124814.12202,1444179.0432698,26
1660124814.12202,1444179.0432729,33
1660124814.12202,1444179.0432863,40
1660124814.12202,1444179.0432934,38
1660124814.12202,1444179.0432958,40
1660124814.12202,1444179.0432979,47
1660124814.12202,1444179.0432998,57
1660124814.12202,1444179.0433018,59
1660124814.78954,1444179.0433038,52
1660124814.78954,1444179.0433068,38
1660124814.78954,1444179.0433178,35
1660124814.78954,1444179.0433232,42
1660124814.78954,1444179.0433255,42
1660124814.78954,1444179.0433275,42
1660124814.78954,1444179.0433302,42
1660124814.78954,1444179.0433412,35
1660124814.78954,1444179.0433484,35
1660124814.78954,1444179.0433528,64
1660124814.78954,1444179.0433549,92
1660124814.78954,1444179.0433579,97
1660124814.78954,1444179.0433599,90
1660124814.78954,1444179.0433676,87
1660124814.78954,1444179.0433784,80
1660124814.78954,1444179.0433811,59
1660124814.78954,1444179.0433832,47
1660124814.78954,1444179.0433853,59
1660124814.78954,1444179.0433876,78
1660124814.78954,1444179.0433976,73
1660124814.78954,1444179.0434064,33
1660124814.78954,1444179.0434099,-16
1660124814.78954,1444179.0434121,216
1660124814.78954,1444179.0434193,831
1660124814.78954,1444179.0434287,957
1660124814.78954,1444179.0434333,-73
1660124814.78954,1444179.0434391,-1017
1660124814.78954,1444179.0434431,-696
1660124814.78954,1444179.0434472,-85
1660124814.78954,1444179.0434513,0
1660124814.78954,1444179.0434552,57
1660124814.78954,1444179.043459,192
1660124814.78954,1444179.0434628,166
1660124814.78954,1444179.043468,125
1660124814.78954,1444179.0434776,166
1660124814.78954,1444179.043483,178
1660124814.78954,1444179.0434851,161
1660124814.78954,1444179.0434909,173
1660124814.78954,1444179.0434992,175
1660124814.78954,1444179.0435091,159
1660124814.78954,1444179.0435173,152
1660124814.78954,1444179.0435252,159
1660124814.78954,1444179.0435355,159
1660124814.78954,1444179.0435447,156
1660124814.78954,1444179.0435513,161
1660124814.78954,1444179.0435604,168
1660124814.78954,1444179.0435672,175
1660124814.78954,1444179.7252975,187
1660124814.78954,1444179.7253184,199
1660124814.78954,1444179.7253307,204
1660124814.80749,1444179.7253456,197
1660124814.80749,1444179.7253563,182
1660124814.80749,1444179.7253662,152
1660124814.80749,1444179.7253744,125
1660124814.80749,1444179.7253822,118
1660124814.80749,1444179.7253956,106
1660124814.80749,1444179.7254036,87
1660124814.80749,1444179.7254088,64
1660124814.80749,1444179.7254154,33
1660124814.80749,1444179.7254201,4
1660124814.80749,1444179.7254263,0
1660124814.80749,1444179.7254307,0
1660124814.80749,1444179.7254352,-4
1660124814.80749,1444179.7254414,-2
1660124814.80749,1444179.7254461,2
1660124814.80749,1444179.7254522,-4
1660124814.80749,1444179.7254654,-14
1660124814.80749,1444179.7254703,-19
1660124814.80749,1444179.725477,-14
1660124814.80749,1444179.7254819,-2
1660124814.80749,1444179.7254865,4
1660124814.80749,1444179.7254912,4
1660124814.80749,1444179.7254961,11
1660124814.80749,1444179.7255019,21
1660124815.26845,1444179.7255066,26
1660124815.26845,1444179.7255104,35

1660124815.26845,1444179.7255142,45
1660124815.26845,1444179.7255183,47
1660124815.26845,1444179.7255225,47
1660124815.26845,1444179.7255268,54
1660124815.26845,1444179.7255308,59
1660124815.26845,1444179.7255349,57
1660124815.26845,1444179.7255389,59
1660124815.26845,1444179.7255426,59
1660124815.26845,1444179.7255457,54
1660124815.26845,1444179.7255486,59
1660124815.26845,1444179.7255516,66
1660124815.26845,1444179.7255546,83
1660124815.26845,1444179.7255577,114
1660124815.26845,1444179.7255607,130
1660124815.26845,1444179.7255635,121
1660124815.26845,1444179.7255665,111
1660124815.26845,1444179.7255693,114
1660124815.26845,1444179.7255722,102
1660124815.26845,1444179.7255766,78
1660124815.26845,1444179.7255797,78
1660124815.26845,1444179.7255825,90
1660124815.26845,1444179.7255855,90
1660124815.26845,1444179.7255883,78
1660124815.26845,1444179.7255911,28
1660124815.26845,1444179.7255939,49
1660124815.26845,1444179.7255969,484
1660124815.26845,1444179.7255997,1057
1660124815.26845,1444179.7256026,672
1660124815.26845,1444179.7256057,-567
1660124815.26845,1444179.7256085,-1000
1660124815.26845,1444179.7256114,-377
1660124815.26845,1444179.7256141,16
1660124815.26845,1444179.7256169,9
1660124815.26845,1444179.725622,116
1660124815.26845,1444179.7256369,192
1660124815.26845,1444179.7256499,142
1660124815.26845,1444179.7256631,144
1660124815.26845,1444179.7256756,180
1660124815.26845,1444179.7256879,168
1660124815.26845,1444179.7257005,156
1660124815.26845,1444179.7257142,163
1660124815.26845,1444179.7257328,168
1660124815.26845,1444179.7257478,173
1660124815.26845,1444179.7257608,182
1660124815.26845,1444180.2129419,190
1660124815.26845,1444180.2129988,180
1660124815.26845,1444180.2130099,166
1660124815.26845,1444180.2130178,171
1660124815.28839,1444180.2130227,180
1660124815.28839,1444180.2130331,187
1660124815.28839,1444180.213043,197
1660124815.28839,1444180.2130575,201
1660124815.28839,1444180.2130683,199
1660124815.28839,1444180.2130772,192
1660124815.28839,1444180.2130859,185
1660124815.28839,1444180.2130948,173
1660124815.28839,1444180.213104,147
1660124815.28839,1444180.2131104,116
1660124815.28839,1444180.2131177,95
1660124815.28839,1444180.2131255,80
1660124815.28839,1444180.2131345,61
1660124815.28839,1444180.2131382,47
1660124815.28839,1444180.2131402,42
1660124815.28839,1444180.2131423,35
1660124815.28839,1444180.2131444,14
1660124815.28839,1444180.2131465,-11
1660124815.28839,1444180.2131493,-9
1660124815.28839,1444180.2131514,4
1660124815.28839,1444180.2131534,7
1660124815.28839,1444180.2131555,9
1660124815.28839,1444180.2131578,9
1660124815.28839,1444180.2131599,-7
1660124815.81468,1444180.213162,-16
1660124815.81468,1444180.2131641,-4
1660124815.81468,1444180.213166,4
1660124815.81468,1444180.2131679,11
1660124815.81468,1444180.2131699,21
1660124815.81468,1444180.2131718,23
1660124815.81468,1444180.2131738,30
1660124815.81468,1444180.2131809,38
1660124815.81468,1444180.2131879,47
1660124815.81468,1444180.2131918,52
1660124815.81468,1444180.2131953,54
1660124815.81468,1444180.2131986,59
1660124815.81468,1444180.213202,57
1660124815.81468,1444180.2132054,54
1660124815.81468,1444180.2132094,59
1660124815.81468,1444180.2132128,61
1660124815.81468,1444180.2132184,61
1660124815.81468,1444180.2132217,68
1660124815.81468,1444180.2132251,83
1660124815.81468,1444180.2132303,99
1660124815.81468,1444180.2132332,114
1660124815.81468,1444180.2132368,111
1660124815.81468,1444180.2132403,102
1660124815.81468,1444180.2132456,104
1660124815.81468,1444180.2132489,92
1660124815.81468,1444180.2132521,64
1660124815.81468,1444180.2132565,64
1660124815.81468,1444180.2132637,85
1660124815.81468,1444180.213271,92
1660124815.81468,1444180.2132803,78
1660124815.81468,1444180.2132869,19
1660124815.81468,1444180.2132924,30
1660124815.81468,1444180.2132962,446
1660124815.81468,1444180.2132992,1007
1660124815.81468,1444180.2133022,646
1660124815.81468,1444180.2133051,-582
1660124815.81468,1444180.213308,-1038
1660124815.81468,1444180.213311,-401
1660124815.81468,1444180.2133139,21
1660124815.81468,1444180.2133168,26
1660124815.81468,1444180.2133197,142
1660124815.81468,1444180.2133228,228
1660124815.81468,1444180.2133258,171
1660124815.81468,1444180.2133288,163
1660124815.81468,1444180.2133317,187
1660124815.81468,1444180.7492792,175
1660124815.81468,1444180.7492989,178
1660124815.81468,1444180.749304,190
1660124815.81468,1444180.7493079,190
1660124815.81468,1444180.7493116,187
1660124815.83662,1444180.749315,178
1660124815.83662,1444180.7493181,161
1660124815.83662,1444180.7493216,166
1660124815.83662,1444180.7493274,182
1660124815.83662,1444180.7493305,187
1660124815.83662,1444180.7493335,187
1660124815.83662,1444180.7493369,173
1660124815.83662,1444180.7493406,163
1660124815.83662,1444180.7493441,185
1660124815.83662,1444180.7493474,192
1660124815.83662,1444180.7493505,173
1660124815.83662,1444180.7493542,163
1660124815.83662,1444180.7493577,144
1660124815.83662,1444180.7493611,102
1660124815.83662,1444180.7493646,80
1660124815.83662,1444180.749368,80
1660124815.83662,1444180.7493714,57
1660124815.83662,1444180.7493749,30
1660124815.83662,1444180.7493787,16
1660124815.83662,1444180.7493824,4
1660124815.83662,1444180.749386,-9
1660124815.83662,1444180.7493895,-11
1660124815.83662,1444180.749393,-9
1660124815.83662,1444180.7493964,-7
1660124816.40006,1444180.7494,4
1660124816.40006,1444180.7494035,7
1660124816.40006,1444180.749407,-9
1660124816.40006,1444180.7494104,-4
1660124816.40006,1444180.7494138,14
1660124816.40006,1444180.7494175,23
1660124816.40006,1444180.7494212,30
1660124816.40006,1444180.7494251,38
1660124816.40006,1444180.749429,33
1660124816.40006,1444180.7494326,26
1660124816.40006,1444180.7494364,35
1660124816.40006,1444180.7494401,47
1660124816.40006,1444180.7494436,52
1660124816.40006,1444180.7494509,54
1660124816.40006,1444180.7494542,54
1660124816.40006,1444180.7494577,59
1660124816.40006,1444180.7494613,71
1660124816.40006,1444180.7494651,78
1660124816.40006,1444180.7494686,73
1660124816.40006,1444180.7494724,61
1660124816.40006,1444180.749476,54
1660124816.40006,1444180.74948,64
1660124816.40006,1444180.7494835,76
1660124816.40006,1444180.7494876,85
1660124816.40006,1444180.7494915,109
1660124816.40006,1444180.7494952,130
1660124816.40006,1444180.7494988,121
1660124816.40006,1444180.7495023,109
1660124816.40006,1444180.7495059,111
1660124816.40006,1444180.7495095,99
1660124816.40006,1444180.749513,76
1660124816.40006,1444180.7495161,76
1660124816.40006,1444180.749519,90
1660124816.40006,1444180.749522,87
1660124816.40006,1444180.7495249,80
1660124816.40006,1444180.7495287,57
1660124816.40006,1444180.7495336,76
1660124816.40006,1444180.7495367,427
1660124816.40006,1444180.7495399,917
1660124816.40006,1444180.749544,563
1660124816.40006,1444180.7495477,-636
1660124816.40006,1444180.7495521,-1102
1660124816.40006,1444180.7495559,-451
1660124816.40006,1444180.7495601,-4
1660124816.40006,1444181.3345545,-7
1660124816.40006,1444181.3345746,121
1660124816.40006,1444181.3345865,223
1660124816.40006,1444181.3346001,163
1660124816.40006,1444181.3346047,154
1660124816.40006,1444181.3346089,178
1660124816.41769,1444181.334611,166
1660124816.41769,1444181.3346131,154
1660124816.41769,1444181.3346151,140
1660124816.41769,1444181.3346172,125
1660124816.41769,1444181.3346192,135
1660124816.41769,1444181.3346213,144
1660124816.41769,1444181.3346234,144
1660124816.41769,1444181.3346255,147
1660124816.41769,1444181.3346276,140
1660124816.41769,1444181.3346296,128
1660124816.41769,1444181.3346317,142
1660124816.41769,1444181.3346338,163
1660124816.41769,1444181.334636,171
1660124816.41769,1444181.3346381,180
1660124816.41769,1444181.3346402,187
1660124816.41769,1444181.3346422,182
1660124816.41769,1444181.3346444,173
1660124816.41769,1444181.3346464,154
1660124816.41769,1444181.3346485,130
1660124816.41769,1444181.3346506,114
1660124816.41769,1444181.3346526,95
1660124816.41769,1444181.3346547,68
1660124816.41769,1444181.3346567,45
1660124816.41769,1444181.3346587,21
1660124816.98022,1444181.3346609,-2
1660124816.98022,1444181.3346629,-4
1660124816.98022,1444181.3346649,0
1660124816.98022,1444181.3346669,-7
1660124816.98022,1444181.3346689,-7
1660124816.98022,1444181.3346708,-7
1660124816.98022,1444181.3346728,-7
1660124816.98022,1444181.3346747,0
1660124816.98022,1444181.3346766,11
1660124816.98022,1444181.3346785,14
1660124816.98022,1444181.3346804,16
1660124816.98022,1444181.3346823,23
1660124816.98022,1444181.3346849,23
1660124816.98022,1444181.3346869,28
1660124816.98022,1444181.3346889,42
1660124816.98022,1444181.3346908,54
1660124816.98022,1444181.3346927,54
1660124816.98022,1444181.3346946,52
1660124816.98022,1444181.3346965,61
1660124816.98022,1444181.3346983,71
1660124816.98022,1444181.3347003,73
1660124816.98022,1444181.3347098,76
1660124816.98022,1444181.3347185,71
1660124816.98022,1444181.334723,64
1660124816.98022,1444181.3347269,66
1660124816.98022,1444181.3347326,73
1660124816.98022,1444181.3347365,76
1660124816.98022,1444181.3347416,76
1660124816.98022,1444181.3347457,71
1660124816.98022,1444181.3347514,66
1660124816.98022,1444181.3347554,64
1660124816.98022,1444181.3347608,68
1660124816.98022,1444181.3347648,80
1660124816.98022,1444181.3347701,90
1660124816.98022,1444181.3347742,87
1660124816.98022,1444181.3347798,76
1660124816.98022,1444181.334784,71
1660124816.98022,1444181.3347896,64
1660124816.98022,1444181.3347938,47
1660124816.98022,1444181.3347991,40
1660124816.98022,1444181.3348027,54
1660124816.98022,1444181.334807,61
1660124816.98022,1444181.3348123,47
1660124816.98022,1444181.9187893,11
1660124816.98022,1444181.9188066,19
1660124816.98022,1444181.9188138,373
1660124816.98022,1444181.9188202,986
1660124816.98022,1444181.9188248,831
1660124816.98022,1444181.9188311,-389
1660124816.98022,1444181.9188362,-1090
1660124817.00577,1444181.9188411,-525
1660124817.00577,1444181.9188458,7
1660124817.00577,1444181.9188525,2
1660124817.00577,1444181.9188616,80
1660124817.00577,1444181.9188676,187
1660124817.00577,1444181.9188732,128
1660124817.00577,1444181.9188824,106
1660124817.00577,1444181.9188921,144
1660124817.00577,1444181.9188998,135
1660124817.00577,1444181.9189063,123
1660124817.00577,1444181.9189175,118
1660124817.00577,1444181.9189301,97
1660124817.00577,1444181.9189432,95
1660124817.00577,1444181.918957,106
1660124817.00577,1444181.9189642,102
1660124817.00577,1444181.9189706,104
1660124817.00577,1444181.9189768,111
1660124817.00577,1444181.918983,109
1660124817.00577,1444181.918992,116
1660124817.00577,1444181.9190022,135
1660124817.00577,1444181.9190157,152
1660124817.00577,1444181.9190282,161
1660124817.00577,1444181.9190387,161
1660124817.00577,1444181.9190461,152
1660124817.48127,1444181.9190527,147
1660124817.48127,1444181.9190576,135
1660124817.48127,1444181.9190623,111
1660124817.48127,1444181.9190684,95
1660124817.48127,1444181.9190729,85
1660124817.48127,1444181.9190793,66
1660124817.48127,1444181.9190842,47
1660124817.48127,1444181.9190921,40
1660124817.48127,1444181.9190988,30
1660124817.48127,1444181.9191075,21
1660124817.48127,1444181.9191145,14
1660124817.48127,1444181.9191231,9
1660124817.48127,1444181.9191301,7
1660124817.48127,1444181.9191375,9
1660124817.48127,1444181.9191431,14
1660124817.48127,1444181.9191542,16
1660124817.48127,1444181.919166,21
1660124817.48127,1444181.9191793,23
1660124817.48127,1444181.9191932,26
1660124817.48127,1444181.9192064,33
1660124817.48127,1444181.9192204,42
1660124817.48127,1444181.9192343,45
1660124817.48127,1444181.9192484,38
1660124817.48127,1444181.9192624,33
1660124817.48127,1444181.9192772,26
1660124817.48127,1444181.9192913,21
1660124817.48127,1444181.9193051,35
1660124817.48127,1444181.9193188,42
1660124817.48127,1444181.9193327,38
1660124817.48127,1444181.9193462,42
1660124817.48127,1444181.9193598,52
1660124817.48127,1444181.9193688,49
1660124817.48127,1444181.9193713,49
1660124817.48127,1444181.9193736,54
1660124817.48127,1444181.9193756,57
1660124817.48127,1444181.9193776,57
1660124817.48127,1444181.9193796,59
1660124817.48127,1444181.9193816,59
1660124817.48127,1444181.9193838,57
1660124817.48127,1444181.9193861,57
1660124817.48127,1444181.9193881,52
1660124817.48127,1444181.9193901,54
1660124817.48127,1444182.4068262,76
1660124817.48127,1444182.4068452,104
1660124817.48127,1444182.406855,106
1660124817.48127,1444182.4068607,92
1660124817.48127,1444182.4068705,90
1660124817.48127,1444182.4068779,92
1660124817.48127,1444182.4068895,78
1660124817.48127,1444182.4068958,57
1660124817.50241,1444182.4069032,57
1660124817.50241,1444182.406912,71
1660124817.50241,1444182.4069186,71
1660124817.50241,1444182.4069291,42
1660124817.50241,1444182.4069376,-4
1660124817.50241,1444182.4069403,154
1660124817.50241,1444182.4069481,722
1660124817.50241,1444182.4069912,1033
1660124817.50241,1444182.4070037,187
1660124817.50241,1444182.4070137,-976
1660124817.50241,1444182.4070216,-936
1660124817.50241,1444182.4070315,-235
1660124817.50241,1444182.407037,-54
1660124817.50241,1444182.4070443,-85
1660124817.50241,1444182.407052,52
1660124817.50241,1444182.4070649,87
1660124817.50241,1444182.4070782,40
1660124817.50241,1444182.4070921,68
1660124817.50241,1444182.4071042,90
1660124817.50241,1444182.407114,68
1660124817.50241,1444182.4071276,71
1660124817.50241,1444182.407134,92
1660124817.50241,1444182.4071361,95
1660124817.50241,1444182.4071389,97
1660124818.09887,1444182.4071443,109
1660124818.09887,1444182.4071543,114
1660124818.09887,1444182.4071589,116
1660124818.09887,1444182.4071659,130
1660124818.09887,1444182.407173,142
1660124818.09887,1444182.4071777,156
1660124818.09887,1444182.4071833,171
1660124818.09887,1444182.4071886,180
1660124818.09887,1444182.4071962,185
1660124818.09887,1444182.4072061,192
1660124818.09887,1444182.4072191,194
1660124818.09887,1444182.4072298,182
1660124818.09887,1444182.4072331,163
1660124818.09887,1444182.4072368,149
1660124818.09887,1444182.4072389,128
1660124818.09887,1444182.4072409,97
1660124818.09887,1444182.4072429,76
1660124818.09887,1444182.407245,66
1660124818.09887,1444182.4072471,61
1660124818.09887,1444182.4072492,49
1660124818.09887,1444182.4072513,33
1660124818.09887,1444182.4072533,28
1660124818.09887,1444182.4072554,30
1660124818.09887,1444182.4072576,35
1660124818.09887,1444182.4072596,40
1660124818.09887,1444182.4072617,42
1660124818.09887,1444182.4072637,38
1660124818.09887,1444182.4072657,38
1660124818.09887,1444182.4072678,47
1660124818.09887,1444182.4072698,57
1660124818.09887,1444182.4072719,64
1660124818.09887,1444182.407274,71
1660124818.09887,1444182.407276,76
1660124818.09887,1444182.407278,80
1660124818.09887,1444182.4072801,85
1660124818.09887,1444182.407283,95
1660124818.09887,1444182.4072852,102
1660124818.09887,1444182.4072872,104
1660124818.09887,1444182.4072892,104
1660124818.09887,1444182.4072913,102
1660124818.09887,1444182.4072933,102
1660124818.09887,1444183.0406431,106
1660124818.09887,1444183.0406629,106
1660124818.09887,1444183.0406784,99
1660124818.09887,1444183.0406932,87
1660124818.09887,1444183.040702,76
1660124818.09887,1444183.0407047,54
1660124818.09887,1444183.0407069,47
1660124818.09887,1444183.040709,61
1660124818.09887,1444183.0407111,64
1660124818.12381,1444183.0407131,61
1660124818.12381,1444183.0407152,54
1660124818.12381,1444183.0407172,33
1660124818.12381,1444183.0407194,21
1660124818.12381,1444183.0407214,30
1660124818.12381,1444183.0407235,40
1660124818.12381,1444183.0407256,57
1660124818.12381,1444183.0407277,85
1660124818.12381,1444183.0407298,95
1660124818.12381,1444183.0407324,83
1660124818.12381,1444183.0407345,83
1660124818.12381,1444183.0407366,85
1660124818.12381,1444183.0407387,64
1660124818.12381,1444183.0407407,49
1660124818.12381,1444183.0407428,59
1660124818.12381,1444183.0407449,71
1660124818.12381,1444183.0407469,66
1660124818.12381,1444183.040749,40
1660124818.12381,1444183.0407511,26
1660124818.12381,1444183.0407533,306
1660124818.12381,1444183.0407554,924
1660124818.12381,1444183.0407575,983
1660124818.12381,1444183.0407597,-106
1660124818.12381,1444183.040762,-1043
1660124818.68961,1444183.0407641,-693
1660124818.68961,1444183.0407662,-76
1660124818.68961,1444183.0407681,-11
1660124818.68961,1444183.04077,21
1660124818.68961,1444183.0407719,156
1660124818.68961,1444183.0407738,135
1660124818.68961,1444183.0407757,85
1660124818.68961,1444183.0407775,109
1660124818.68961,1444183.0407797,116
1660124818.68961,1444183.0407882,111
1660124818.68961,1444183.0407973,121
1660124818.68961,1444183.0408001,123
1660124818.68961,1444183.0408022,116
1660124818.68961,1444183.0408041,125
1660124818.68961,1444183.040806,135
1660124818.68961,1444183.0408081,133
1660124818.68961,1444183.0408119,130
1660124818.68961,1444183.0408139,135
1660124818.68961,1444183.040821,140
1660124818.68961,1444183.0408322,147
1660124818.68961,1444183.0408358,161
1660124818.68961,1444183.0408396,171
1660124818.68961,1444183.0408417,171
1660124818.68961,1444183.0408437,173
1660124818.68961,1444183.0408459,173
1660124818.68961,1444183.040848,168
1660124818.68961,1444183.04085,154
1660124818.68961,1444183.0408521,137
1660124818.68961,1444183.0408542,121
1660124818.68961,1444183.040857,106
1660124818.68961,1444183.0408592,87
1660124818.68961,1444183.0408612,71
1660124818.68961,1444183.0408633,61
1660124818.68961,1444183.0408653,52
1660124818.68961,1444183.0408674,38
1660124818.68961,1444183.0408694,26
1660124818.68961,1444183.0408715,21
1660124818.68961,1444183.0408736,23
1660124818.68961,1444183.0408756,26
1660124818.68961,1444183.0408777,28
1660124818.68961,1444183.6266719,35
1660124818.68961,1444183.6266863,40
1660124818.68961,1444183.6266902,38
1660124818.68961,1444183.6266937,38
1660124818.68961,1444183.626697,49
1660124818.68961,1444183.6267001,64
1660124818.68961,1444183.6267032,78
1660124818.68961,1444183.6267064,80
1660124818.68961,1444183.6267094,71
1660124818.68961,1444183.6267125,76
1660124818.70656,1444183.6267212,90
1660124818.70656,1444183.6267358,92
1660124818.70656,1444183.626747,92
1660124818.70656,1444183.6267557,90
1660124818.70656,1444183.6267646,68
1660124818.70656,1444183.626775,54
1660124818.70656,1444183.6267856,61
1660124818.70656,1444183.6267918,68
1660124818.70656,1444183.6268053,73
1660124818.70656,1444183.6268159,78
1660124818.70656,1444183.6268239,61
1660124818.70656,1444183.6268279,28
1660124818.70656,1444183.6268319,30
1660124818.70656,1444183.6268376,54
1660124818.70656,1444183.6268426,52
1660124818.70656,1444183.6268482,42
1660124818.70656,1444183.6268522,38
1660124818.70656,1444183.6268559,33
1660124818.70656,1444183.62686,33
1660124818.70656,1444183.6268658,45
1660124818.70656,1444183.6268699,52
1660124818.70656,1444183.6268739,54
1660124818.70656,1444183.626879,61
1660124818.70656,1444183.6268823,71
1660124819.22471,1444183.6268868,73
1660124819.22471,1444183.6268908,76
1660124819.22471,1444183.6268943,76
1660124819.22471,1444183.6268974,61
1660124819.22471,1444183.6269007,33
1660124819.22471,1444183.626904,21
1660124819.22471,1444183.6269077,40
1660124819.22471,1444183.6269114,57
1660124819.22471,1444183.6269153,49
1660124819.22471,1444183.626919,11
1660124819.22471,1444183.6269229,57
1660124819.22471,1444183.6269267,465
1660124819.22471,1444183.6269308,979
1660124819.22471,1444183.6269368,594
1660124819.22471,1444183.6269415,-627
1660124819.22471,1444183.6269442,-1081
1660124819.22471,1444183.6269469,-441
1660124819.22471,1444183.6269498,-16
1660124819.22471,1444183.6269526,-19
1660124819.22471,1444183.6269579,95
1660124819.22471,1444183.6269612,182
1660124819.22471,1444183.6269657,125
1660124819.22471,1444183.6269685,121
1660124819.22471,1444183.6269712,144
1660124819.22471,1444183.6269738,114
1660124819.22471,1444183.6269766,102
1660124819.22471,1444183.6269794,128
1660124819.22471,1444183.6270104,135
1660124819.22471,1444183.6270215,130
1660124819.22471,1444183.6270281,140
1660124819.22471,1444183.6270334,149
1660124819.22471,1444183.6270382,142
1660124819.22471,1444183.6270462,144
1660124819.22471,1444183.6270508,163
1660124819.22471,1444183.6270565,178
1660124819.22471,1444183.6270604,187
1660124819.22471,1444183.6270645,211
1660124819.22471,1444183.6270792,230
1660124819.22471,1444183.6270841,223
1660124819.22471,1444184.1615015,213
1660124819.22471,1444184.1615188,218
1660124819.22471,1444184.1615242,220
1660124819.22471,1444184.1615326,209
1660124819.22471,1444184.1615371,192
1660124819.22471,1444184.1615411,166
1660124819.22471,1444184.1615449,144
1660124819.22471,1444184.1615494,128
1660124819.22471,1444184.1615541,109
1660124819.22471,1444184.1615581,95
1660124819.22471,1444184.1615619,71
1660124819.24765,1444184.1615657,35
1660124819.24765,1444184.1615698,23
1660124819.24765,1444184.1615737,38
1660124819.24765,1444184.1615778,42
1660124819.24765,1444184.1615816,40
1660124819.24765,1444184.1615864,38
1660124819.24765,1444184.1615926,33
1660124819.24765,1444184.1615968,26
1660124819.24765,1444184.1616074,35
1660124819.24765,1444184.1616117,49
1660124819.24765,1444184.1616157,57
1660124819.24765,1444184.1616211,59
1660124819.24765,1444184.1616249,57
1660124819.24765,1444184.1616288,38
1660124819.24765,1444184.1616325,21
1660124819.24765,1444184.1616362,26
1660124819.24765,1444184.1616397,38
1660124819.24765,1444184.1616435,42
1660124819.24765,1444184.1616471,42
1660124819.24765,1444184.1616513,38
1660124819.24765,1444184.1616552,38
1660124819.24765,1444184.1616591,45
1660124819.24765,1444184.161665,52
1660124819.24765,1444184.1616691,57
1660124819.75207,1444184.1616769,59
1660124819.75207,1444184.161681,57
1660124819.75207,1444184.1616848,57
1660124819.75207,1444184.1616885,64
1660124819.75207,1444184.1616926,66
1660124819.75207,1444184.1616964,71
1660124819.75207,1444184.1617042,80
1660124819.75207,1444184.1617084,73
1660124819.75207,1444184.1617134,59
1660124819.75207,1444184.1617171,59
1660124819.75207,1444184.1617209,64
1660124819.75207,1444184.1617249,68
1660124819.75207,1444184.1617287,85
1660124819.75207,1444184.1617324,102
1660124819.75207,1444184.161736,99
1660124819.75207,1444184.1617399,92
1660124819.75207,1444184.1617441,92
1660124819.75207,1444184.1617498,90
1660124819.75207,1444184.1617538,73
1660124819.75207,1444184.1617577,61
1660124819.75207,1444184.1617827,66
1660124819.75207,1444184.1617974,76
1660124819.75207,1444184.1618047,76
1660124819.75207,1444184.161812,52
1660124819.75207,1444184.1618197,66
1660124819.75207,1444184.1618266,380
1660124819.75207,1444184.1618367,891
1660124819.75207,1444184.161844,686
1660124819.75207,1444184.1618512,-489
1660124819.75207,1444184.1618579,-1152
1660124819.75207,1444184.161867,-582
1660124819.75207,1444184.161876,-49
1660124819.75207,1444184.1618839,-45
1660124819.75207,1444184.1618912,52
1660124819.75207,1444184.1619001,178
1660124819.75207,1444184.1619088,133
1660124819.75207,1444184.1619174,121
1660124819.75207,1444184.1619229,161
1660124819.75207,1444184.6976089,147
1660124819.75207,1444184.6976228,130
1660124819.75207,1444184.6976263,147
1660124819.75207,1444184.6976306,154
1660124819.75207,1444184.6976334,152
1660124819.75207,1444184.697636,159
1660124819.75207,1444184.6976386,161
1660124819.75207,1444184.6976412,161
1660124819.75207,1444184.6976438,166
1660124819.75207,1444184.6976462,173
1660124819.75207,1444184.6976487,182
1660124819.75207,1444184.6976512,194
1660124819.77102,1444184.6976539,204
1660124819.77102,1444184.6976564,209
1660124819.77102,1444184.6976594,201
1660124819.77102,1444184.6976688,190
1660124819.77102,1444184.6976798,192
1660124819.77102,1444184.6976833,182
1660124819.77102,1444184.6976863,149
1660124819.77102,1444184.6976892,121
1660124819.77102,1444184.6976924,97
1660124819.77102,1444184.6976953,57
1660124819.77102,1444184.697699,35
1660124819.77102,1444184.6977119,30
1660124819.77102,1444184.6977179,16
1660124819.77102,1444184.6977219,4
1660124819.77102,1444184.697724,4
1660124819.77102,1444184.697726,2
1660124819.77102,1444184.6977336,0
1660124819.77102,1444184.6977445,2
1660124819.77102,1444184.6977489,2
1660124819.77102,1444184.697751,4
1660124819.77102,1444184.6977531,14
1660124819.77102,1444184.6977552,19
1660124819.77102,1444184.6977575,23
1660124819.77102,1444184.6977595,33
1660124820.30898,1444184.6977617,38
1660124820.30898,1444184.6977636,42
1660124820.30898,1444184.6977656,54
1660124820.30898,1444184.6977676,61
1660124820.30898,1444184.6977696,57
1660124820.30898,1444184.6977715,54
1660124820.30898,1444184.6977735,61
1660124820.30898,1444184.6977754,68
1660124820.30898,1444184.6977773,73
1660124820.30898,1444184.6977793,73
1660124820.30898,1444184.6977812,76
1660124820.30898,1444184.6977834,78
1660124820.30898,1444184.697791,76
1660124820.30898,1444184.6978009,71
1660124820.30898,1444184.6978049,68
1660124820.30898,1444184.697809,71
1660124820.30898,1444184.6978109,71
1660124820.30898,1444184.6978183,68
1660124820.30898,1444184.6978292,64
1660124820.30898,1444184.6978328,61
1660124820.30898,1444184.6978367,61
1660124820.30898,1444184.6978387,66
1660124820.30898,1444184.6978446,68
1660124820.30898,1444184.6978558,80
1660124820.30898,1444184.697861,106
1660124820.30898,1444184.6978632,123
1660124820.30898,1444184.6978655,118
1660124820.30898,1444184.6978675,116
1660124820.30898,1444184.6978695,116
1660124820.30898,1444184.6978715,90
1660124820.30898,1444184.6978735,57
1660124820.30898,1444184.6978756,52
1660124820.30898,1444184.6978777,61
1660124820.30898,1444184.6978797,61
1660124820.30898,1444184.6978817,49
1660124820.30898,1444184.6978838,2
1660124820.30898,1444184.6978858,80
1660124820.30898,1444185.2343053,594
1660124820.30898,1444185.2343258,1071
1660124820.30898,1444185.2343411,453
1660124820.30898,1444185.2343549,-793
1660124820.30898,1444185.2343692,-1005
1660124820.30898,1444185.2343782,-316
1660124820.30898,1444185.2343828,-14
1660124820.30898,1444185.2343903,-26
1660124820.30898,1444185.2343947,109
1660124820.30898,1444185.2344006,161
1660124820.30898,1444185.2344048,76
1660124820.30898,1444185.2344104,54
1660124820.30898,1444185.2344145,78
1660124820.33391,1444185.2344187,78
1660124820.33391,1444185.234423,80
1660124820.33391,1444185.2344287,97
1660124820.33391,1444185.2344338,97
1660124820.33391,1444185.2344393,76
1660124820.33391,1444185.2344444,64
1660124820.33391,1444185.2344501,78
1660124820.33391,1444185.2344544,95
1660124820.33391,1444185.23446,102
1660124820.33391,1444185.2344652,114
1660124820.33391,1444185.2344706,123
1660124820.33391,1444185.2344759,128
1660124820.33391,1444185.2344817,144
1660124820.33391,1444185.2344867,163
1660124820.33391,1444185.2344919,173
1660124820.33391,1444185.2344968,175
1660124820.33391,1444185.2345015,171
1660124820.33391,1444185.2345052,156
1660124820.33391,1444185.2345101,137
1660124820.33391,1444185.2345157,118
1660124820.33391,1444185.2345205,109
1660124820.33391,1444185.2345241,99
1660124820.33391,1444185.2345277,83
1660124820.33391,1444185.2345327,66
1660124820.82405,1444185.2345384,59
1660124820.82405,1444185.234542,54
1660124820.82405,1444185.2345455,49
1660124820.82405,1444185.2345489,47
1660124820.82405,1444185.2345524,47
1660124820.82405,1444185.2345557,42
1660124820.82405,1444185.2345591,45
1660124820.82405,1444185.2345625,49
1660124820.82405,1444185.2345659,54
1660124820.82405,1444185.2345694,61
1660124820.82405,1444185.2345728,68
1660124820.82405,1444185.2345763,71
1660124820.82405,1444185.23458,76
1660124820.82405,1444185.2345836,83
1660124820.82405,1444185.2345888,90
1660124820.82405,1444185.2345921,95
1660124820.82405,1444185.2345973,97
1660124820.82405,1444185.2346006,97
1660124820.82405,1444185.2346046,92
1660124820.82405,1444185.2346095,90
1660124820.82405,1444185.2346136,92
1660124820.82405,1444185.2346184,92
1660124820.82405,1444185.2346232,90
1660124820.82405,1444185.2346265,90
1660124820.82405,1444185.2346299,90
1660124820.82405,1444185.2346332,85
1660124820.82405,1444185.2346366,78
1660124820.82405,1444185.2346413,71
1660124820.82405,1444185.2346465,66
1660124820.82405,1444185.2346512,66
1660124820.82405,1444185.2346544,66
1660124820.82405,1444185.2346584,64
1660124820.82405,1444185.2346618,68
1660124820.82405,1444185.2346652,85
1660124820.82405,1444185.2346699,104
1660124820.82405,1444185.2346744,111
1660124820.82405,1444185.7707782,99
1660124820.82405,1444185.770798,83
1660124820.82405,1444185.7708086,73
1660124820.82405,1444185.7708161,42
1660124820.82405,1444185.7708238,4
1660124820.82405,1444185.7708316,7
1660124820.82405,1444185.7708366,26
1660124820.82405,1444185.770844,16
1660124820.82405,1444185.770854,-19
1660124820.82405,1444185.7708629,-64
1660124820.82405,1444185.7708727,-9
1660124820.82405,1444185.770882,430
1660124820.82405,1444185.7708926,986
1660124820.82405,1444185.7709031,605
1660124820.84001,1444185.770909,-655
1660124820.84001,1444185.7709217,-1145
1660124820.84001,1444185.7709324,-518
1660124820.84001,1444185.7709384,-87
1660124820.84001,1444185.7709464,-90
1660124820.84001,1444185.7709538,21
1660124820.84001,1444185.7709562,111
1660124820.84001,1444185.7710278,57
1660124820.84001,1444185.7710446,47
1660124820.84001,1444185.7710591,78
1660124820.84001,1444185.7710734,76
1660124820.84001,1444185.7710868,78
1660124820.84001,1444185.771101,92
1660124820.84001,1444185.7711157,92
1660124820.84001,1444185.7711315,95
1660124820.84001,1444185.7711432,106
1660124820.84001,1444185.7711502,116
1660124820.84001,1444185.7711546,125
1660124820.84001,1444185.7711602,137
1660124820.84001,1444185.7711654,142
1660124820.84001,1444185.7711714,149
1660124820.84001,1444185.7711758,166
1660124820.84001,1444185.7711815,185
1660124820.84001,1444185.7711858,194
1660124821.45629,1444185.771192,204
1660124821.45629,1444185.7711965,213
1660124821.45629,1444185.7712006,206
1660124821.45629,1444185.7712048,194
1660124821.45629,1444185.7712095,190
1660124821.45629,1444185.771214,178
1660124821.45629,1444185.7712184,161
1660124821.45629,1444185.771223,142
1660124821.45629,1444185.7712278,121
1660124821.45629,1444185.7712336,109
1660124821.45629,1444185.7712393,106
1660124821.45629,1444185.7712508,99
1660124821.45629,1444185.7712632,92
1660124821.45629,1444185.771267,87
1660124821.45629,1444185.7712692,80
1660124821.45629,1444185.7712712,76
1660124821.45629,1444185.7712734,71
1660124821.45629,1444185.7712801,66
1660124821.45629,1444185.7712913,68
1660124821.45629,1444185.7712946,78
1660124821.45629,1444185.7712966,78
1660124821.45629,1444185.7712986,78
1660124821.45629,1444185.7713007,83
1660124821.45629,1444185.7713027,85
1660124821.45629,1444185.7713062,87
1660124821.45629,1444185.7713177,92
1660124821.45629,1444185.7713294,90
1660124821.45629,1444185.771346,87
1660124821.45629,1444185.7713581,87
1660124821.45629,1444185.7713753,87
1660124821.45629,1444185.7714072,76
1660124821.45629,1444185.7714297,59
1660124821.45629,1444185.7714406,59
1660124821.45629,1444185.7714471,64
1660124821.45629,1444185.7714512,66
1660124821.45629,1444186.4044764,73
1660124821.45629,1444186.4044953,73
1660124821.45629,1444186.4045037,61
1660124821.45629,1444186.4045129,49
1660124821.45629,1444186.4045184,35
1660124821.45629,1444186.4045251,21
1660124821.45629,1444186.4045403,35
1660124821.45629,1444186.4045528,64
1660124821.45629,1444186.4045619,64
1660124821.45629,1444186.4045711,45
1660124821.45629,1444186.4045736,30
1660124821.45629,1444186.4045758,2
1660124821.45629,1444186.404578,-30
1660124821.45629,1444186.4045857,-40
1660124821.45629,1444186.4045966,-30
1660124821.47524,1444186.4046001,-23
1660124821.47524,1444186.4046031,-21
1660124821.47524,1444186.404606,-49
1660124821.47524,1444186.4046341,-78
1660124821.47524,1444186.4046403,178
1660124821.47524,1444186.4046458,800
1660124821.47524,1444186.4046511,905
1660124821.47524,1444186.4046645,-135
1660124821.47524,1444186.4046794,-1066
1660124821.47524,1444186.4046921,-739
1660124821.47524,1444186.4047004,-130
1660124821.47524,1444186.4047126,-54
1660124821.47524,1444186.4047207,-4
1660124821.47524,1444186.4047296,133
1660124821.47524,1444186.4047428,121
1660124821.47524,1444186.404751,90
1660124821.47524,1444186.4047582,128
1660124821.47524,1444186.4047621,135
1660124821.47524,1444186.4047661,118
1660124821.47524,1444186.4047716,133
1660124821.47524,1444186.4047758,142
1660124821.47524,1444186.4047802,135
1660124821.47524,1444186.4047845,140
1660124821.47524,1444186.4047888,156
1660124822.04963,1444186.4047933,163
1660124822.04963,1444186.4047975,168
1660124822.04963,1444186.4048014,190
1660124822.04963,1444186.4048062,201
1660124822.04963,1444186.4048123,197
1660124822.04963,1444186.4048168,209
1660124822.04963,1444186.4048205,225
1660124822.04963,1444186.4048247,225
1660124822.04963,1444186.4048287,223
1660124822.04963,1444186.4048352,218
1660124822.04963,1444186.4048406,211
1660124822.04963,1444186.4048489,197
1660124822.04963,1444186.4048627,182
1660124822.04963,1444186.4048767,173
1660124822.04963,1444186.4048897,171
1660124822.04963,1444186.4049025,154
1660124822.04963,1444186.4049114,130
1660124822.04963,1444186.4049158,116
1660124822.04963,1444186.404924,106
1660124822.04963,1444186.4049293,92
1660124822.04963,1444186.4049374,83
1660124822.04963,1444186.404951,83
1660124822.04963,1444186.4049642,76
1660124822.04963,1444186.4049774,64
1660124822.04963,1444186.4049905,57
1660124822.04963,1444186.4050036,59
1660124822.04963,1444186.4050166,68
1660124822.04963,1444186.4050298,71
1660124822.04963,1444186.4050429,66
1660124822.04963,1444186.4050532,64
1660124822.04963,1444186.4050585,66
1660124822.04963,1444186.4050658,68
1660124822.04963,1444186.4050711,78
1660124822.04963,1444186.4050774,92
1660124822.04963,1444186.9893015,92
1660124822.04963,1444186.9893202,83
1660124822.04963,1444186.9893288,78
1660124822.04963,1444186.9893335,90
1660124822.04963,1444186.989338,85
1660124822.04963,1444186.9893418,68
1660124822.04963,1444186.9893462,71
1660124822.04963,1444186.9893511,76
1660124822.04963,1444186.9893548,59
1660124822.04963,1444186.9893579,47
1660124822.04963,1444186.9893608,49
1660124822.04963,1444186.9893643,54
1660124822.04963,1444186.9893702,61
1660124822.04963,1444186.9893774,68
1660124822.04963,1444186.9893839,61
1660124822.04963,1444186.9893869,40
1660124822.07357,1444186.9893899,30
1660124822.07357,1444186.9893928,42
1660124822.07357,1444186.9893957,42
1660124822.07357,1444186.9893987,11
1660124822.07357,1444186.989402,-28
1660124822.07357,1444186.9894069,-38
1660124822.07357,1444186.9894129,-19
1660124822.07357,1444186.9894164,-11
1660124822.07357,1444186.9894194,-33
1660124822.07357,1444186.9894223,-4
1660124822.07357,1444186.9894253,308
1660124822.07357,1444186.9894282,760
1660124822.07357,1444186.9894311,463
1660124822.07357,1444186.989434,-674
1660124822.07357,1444186.9894369,-1178
1660124822.07357,1444186.9894398,-570
1660124822.07357,1444186.9894428,-102
1660124822.07357,1444186.9894457,-68
1660124822.07357,1444186.9894487,71
1660124822.07357,1444186.9894515,178
1660124822.07357,1444186.9894545,118
1660124822.07357,1444186.9894574,109
1660124822.07357,1444186.9894603,152
1660124822.07357,1444186.9894632,142
1660124822.5472,1444186.9894673,128
1660124822.5472,1444186.9894742,144
1660124822.5472,1444186.989481,152
1660124822.5472,1444186.9894888,159
1660124822.5472,1444186.9894937,180
1660124822.5472,1444186.9894977,185
1660124822.5472,1444186.9895008,168
1660124822.5472,1444186.9895041,180
1660124822.5472,1444186.9895073,206
1660124822.5472,1444186.9895126,218
1660124822.5472,1444186.9895167,230
1660124822.5472,1444186.9895221,244
1660124822.5472,1444186.9895267,244
1660124822.5472,1444186.9895306,244
1660124822.5472,1444186.9895352,242
1660124822.5472,1444186.9895423,240
1660124822.5472,1444186.9895496,242
1660124822.5472,1444186.9895552,228
1660124822.5472,1444186.9895641,192
1660124822.5472,1444186.9895767,168
1660124822.5472,1444186.989591,159
1660124822.5472,1444186.9896082,137
1660124822.5472,1444186.989621,109
1660124822.5472,1444186.9896334,90
1660124822.5472,1444186.9896457,78
1660124822.5472,1444186.9896567,73
1660124822.5472,1444186.989672,71
1660124822.5472,1444186.9896852,66
1660124822.5472,1444186.9896982,61
1660124822.5472,1444186.9897108,59
1660124822.5472,1444186.9897223,57
1660124822.5472,1444186.9897355,54
1660124822.5472,1444186.9897494,61
1660124822.5472,1444187.4771366,71
1660124822.5472,1444187.4771542,71
1660124822.5472,1444187.4771607,71
1660124822.5472,1444187.4771743,71
1660124822.5472,1444187.4771834,68
1660124822.5472,1444187.4771902,71
1660124822.5472,1444187.4771971,73

1660124822.5472,1444187.4772038,76
1660124822.5472,1444187.4772098,83
1660124822.5472,1444187.4772166,78
1660124822.5472,1444187.4772234,0
1660124822.5472,1444187.4772277,-144
1660124822.5472,1444187.4772335,-99
1660124822.5472,1444187.4772375,349
1660124822.5472,1444187.4772414,1078
1660124822.5472,1444187.4772467,1803
1660124822.5472,1444187.4772532,1803
1660124822.56316,1444187.4772573,553
1660124822.56316,1444187.4772638,-810
1660124822.56316,1444187.4772681,-955
1660124822.56316,1444187.4772742,-499
1660124822.56316,1444187.4772784,-451
1660124822.56316,1444187.4772844,-553
1660124822.56316,1444187.4772888,-451
1660124822.56316,1444187.4772949,-297
1660124822.56316,1444187.4772992,-149
1660124822.56316,1444187.4773047,-23
1660124822.56316,1444187.4773083,9
1660124822.56316,1444187.4773135,-14
1660124822.56316,1444187.4773183,-9
1660124822.56316,1444187.4773221,9
1660124822.56316,1444187.4773328,14
1660124822.56316,1444187.4773368,16
1660124822.56316,1444187.4773405,23
1660124822.56316,1444187.4773505,35
1660124822.56316,1444187.4773591,47
1660124822.56316,1444187.4773618,59
1660124822.56316,1444187.4773638,76
1660124822.56316,1444187.477366,104
1660124822.56316,1444187.477368,142
1660124822.56316,1444187.4773728,187
1660124823.21144,1444187.4773825,225
1660124823.21144,1444187.4773869,256
1660124823.21144,1444187.4773904,287
1660124823.21144,1444187.4773937,332
1660124823.21144,1444187.4773988,365
1660124823.21144,1444187.4774022,363
1660124823.21144,1444187.4774051,342
1660124823.21144,1444187.4774088,306
1660124823.21144,1444187.4774124,249
1660124823.21144,1444187.4774163,192
1660124823.21144,1444187.4774206,133
1660124823.21144,1444187.4774237,78
1660124823.21144,1444187.4774267,38
1660124823.21144,1444187.4774297,9
1660124823.21144,1444187.4774327,-16
1660124823.21144,1444187.4774358,-28
1660124823.21144,1444187.4774387,-21
1660124823.21144,1444187.4774418,-11
1660124823.21144,1444187.4774447,-14
1660124823.21144,1444187.4774477,-23
1660124823.21144,1444187.4774505,-21
1660124823.21144,1444187.4774533,-9
1660124823.21144,1444187.4774562,2
1660124823.21144,1444187.4774592,4
1660124823.21144,1444187.4774622,14
1660124823.21144,1444187.4774652,26
1660124823.21144,1444187.4774681,23
1660124823.21144,1444187.477471,19
1660124823.21144,1444187.4774738,35
1660124823.21144,1444187.4774766,49
1660124823.21144,1444187.4774793,47
1660124823.21144,1444187.4774904,45
1660124823.21144,1444188.1611366,49
1660124823.21144,1444188.1611487,52
1660124823.21144,1444188.161152,54
1660124823.21144,1444188.1611564,66
1660124823.21144,1444188.161159,76
1660124823.21144,1444188.1611615,71
1660124823.21144,1444188.161164,68
1660124823.21144,1444188.1611664,61
1660124823.21144,1444188.1611688,47
1660124823.21144,1444188.1611712,52
1660124823.21144,1444188.1611736,59
1660124823.21144,1444188.161176,47
1660124823.21144,1444188.1611783,49
1660124823.21144,1444188.1611807,54
1660124823.21144,1444188.161183,28
1660124823.21144,1444188.1611855,4
1660124823.21144,1444188.1611878,11
1660124823.21144,1444188.1611903,19
1660124823.2274,1444188.1611927,11
1660124823.2274,1444188.161195,11
1660124823.2274,1444188.1611974,11
1660124823.2274,1444188.1611997,11
1660124823.2274,1444188.161202,35
1660124823.2274,1444188.1612046,61
1660124823.2274,1444188.1612071,66
1660124823.2274,1444188.1612094,59
1660124823.2274,1444188.1612117,61
1660124823.2274,1444188.161214,52
1660124823.2274,1444188.1612163,35
1660124823.2274,1444188.1612185,23
1660124823.2274,1444188.1612208,28
1660124823.2274,1444188.1612231,33
1660124823.2274,1444188.1612254,30
1660124823.2274,1444188.1612277,-4
1660124823.2274,1444188.16123,-40
1660124823.2274,1444188.1612323,201
1660124823.2274,1444188.1612346,812
1660124823.2274,1444188.1612368,948
1660124823.2274,1444188.161239,-80
1660124823.2274,1444188.1612412,-1078
1660124823.2274,1444188.1612434,-812
1660124823.2274,1444188.1612457,-199
1660124823.71253,1444188.161248,-95
1660124823.71253,1444188.1612502,-30
1660124823.71253,1444188.1612524,116
1660124823.71253,1444188.1612545,104
1660124823.71253,1444188.1612567,71
1660124823.71253,1444188.161259,111
1660124823.71253,1444188.161261,121
1660124823.71253,1444188.1612631,104
1660124823.71253,1444188.1612651,114
1660124823.71253,1444188.1612672,121
1660124823.71253,1444188.1612693,106
1660124823.71253,1444188.1612714,109
1660124823.71253,1444188.1612734,123
1660124823.71253,1444188.1612754,130
1660124823.71253,1444188.1612776,140
1660124823.71253,1444188.1612798,154
1660124823.71253,1444188.1612817,159
1660124823.71253,1444188.161284,168
1660124823.71253,1444188.1612862,182
1660124823.71253,1444188.1612884,197
1660124823.71253,1444188.1612904,206
1660124823.71253,1444188.1612931,218
1660124823.71253,1444188.1612953,232
1660124823.71253,1444188.1612975,237
1660124823.71253,1444188.1612997,230
1660124823.71253,1444188.1613019,218
1660124823.71253,1444188.1613041,213
1660124823.71253,1444188.1613062,211
1660124823.71253,1444188.1613084,199
1660124823.71253,1444188.1613107,175
1660124823.71253,1444188.161313,152
1660124823.71253,1444188.6470992,133
1660124823.71253,1444188.647112,118
1660124823.71253,1444188.6471148,106
1660124823.71253,1444188.6471171,97
1660124823.71253,1444188.6471192,87
1660124823.71253,1444188.6471212,83
1660124823.71253,1444188.6471232,83
1660124823.71253,1444188.6471252,90
1660124823.71253,1444188.6471273,99
1660124823.71253,1444188.6471293,97
1660124823.71253,1444188.6471313,80
1660124823.71253,1444188.6471333,57
1660124823.71253,1444188.6471353,61
1660124823.71253,1444188.6471373,83
1660124823.71253,1444188.6471393,85
1660124823.71253,1444188.6471413,80
1660124823.71253,1444188.6471433,78
1660124823.71253,1444188.6471469,68
1660124823.71253,1444188.6471583,61
1660124823.72849,1444188.647167,61
1660124823.72849,1444188.6471729,64
1660124823.72849,1444188.6471759,71
1660124823.72849,1444188.647178,78
1660124823.72849,1444188.6471801,66
1660124823.72849,1444188.6471821,54
1660124823.72849,1444188.6471842,78
1660124823.72849,1444188.6471862,102
1660124823.72849,1444188.6471882,92
1660124823.72849,1444188.6471909,80
1660124823.72849,1444188.647199,68
1660124823.72849,1444188.647211,33
1660124823.72849,1444188.6472164,-2
1660124823.72849,1444188.6472186,-9
1660124823.72849,1444188.6472207,7
1660124823.72849,1444188.6472241,19
1660124823.72849,1444188.6472361,-11
1660124823.72849,1444188.647241,-111
1660124823.72849,1444188.6472452,-83
1660124823.72849,1444188.6472518,430
1660124823.72849,1444188.647258,941
1660124823.72849,1444188.6472637,368
1660124823.72849,1444188.6472673,-807
1660124823.72849,1444188.6472707,-981
1660124824.29963,1444188.6472741,-344
1660124824.29963,1444188.6472772,-78
1660124824.29963,1444188.6472806,-66
1660124824.29963,1444188.6472842,66
1660124824.29963,1444188.647288,99
1660124824.29963,1444188.6472916,35
1660124824.29963,1444188.6472952,45
1660124824.29963,1444188.6473006,78
1660124824.29963,1444188.6473044,78
1660124824.29963,1444188.6473079,80
1660124824.29963,1444188.6473134,90
1660124824.29963,1444188.647322,90
1660124824.29963,1444188.6473247,97
1660124824.29963,1444188.6473271,104
1660124824.29963,1444188.6473344,106
1660124824.29963,1444188.6473456,123
1660124824.29963,1444188.6473591,142
1660124824.29963,1444188.6473653,144
1660124824.29963,1444188.6473682,156
1660124824.29963,1444188.6473703,180
1660124824.29963,1444188.6473736,187
1660124824.29963,1444188.6473822,192
1660124824.29963,1444188.6473889,197
1660124824.29963,1444188.6473926,194
1660124824.29963,1444188.6473959,190
1660124824.29963,1444188.6474003,180
1660124824.29963,1444188.6474072,161
1660124824.29963,1444188.6474113,144
1660124824.29963,1444188.6474151,128
1660124824.29963,1444188.6474189,111
1660124824.29963,1444189.234008,90
1660124824.29963,1444189.2340317,68
1660124824.29963,1444189.2340428,57
1660124824.29963,1444189.234055,54
1660124824.29963,1444189.2340686,42
1660124824.29963,1444189.2340804,38
1660124824.29963,1444189.2341283,49
1660124824.29963,1444189.2341446,38
1660124824.29963,1444189.2341579,14
1660124824.29963,1444189.2341655,21
1660124824.29963,1444189.2341756,40
1660124824.29963,1444189.2341822,45
1660124824.29963,1444189.2341855,40
1660124824.29963,1444189.2341881,35
1660124824.29963,1444189.2341978,21
1660124824.29963,1444189.2342066,16
1660124824.29963,1444189.2342091,19
1660124824.29963,1444189.2342113,26
1660124824.29963,1444189.2342133,38
1660124824.29963,1444189.2342153,42
1660124824.3126,1444189.2342174,33
1660124824.3126,1444189.2342194,33
1660124824.3126,1444189.2342214,42
1660124824.3126,1444189.234229,40
1660124824.3126,1444189.23424,30
1660124824.3126,1444189.2342444,28
1660124824.3126,1444189.2342465,40
1660124824.3126,1444189.2342485,68
1660124824.3126,1444189.2342506,90
1660124824.3126,1444189.2342527,97
1660124824.3126,1444189.2342554,102
1660124824.3126,1444189.2342664,102
1660124824.3126,1444189.2342738,80
1660124824.3126,1444189.2342762,42
1660124824.3126,1444189.2342782,11
1660124824.3126,1444189.2342809,16
1660124824.3126,1444189.2342918,47
1660124824.3126,1444189.2343051,59
1660124824.3126,1444189.2343197,21
1660124824.3126,1444189.2343269,-38
1660124824.3126,1444189.2343292,156
1660124824.3126,1444189.2343314,720
1660124824.3126,1444189.2343364,834
1660124824.3126,1444189.2343478,-149
1660124824.82227,1444189.2343513,-1007
1660124824.82227,1444189.2343534,-672
1660124824.82227,1444189.2343558,-125
1660124824.82227,1444189.234366,-49
1660124824.82227,1444189.2343724,57
1660124824.82227,1444189.2343782,199
1660124824.82227,1444189.2343881,163
1660124824.82227,1444189.2343997,140
1660124824.82227,1444189.2344073,182
1660124824.82227,1444189.2344171,178
1660124824.82227,1444189.2344317,166
1660124824.82227,1444189.2344424,185
1660124824.82227,1444189.2344496,197
1660124824.82227,1444189.2344631,192
1660124824.82227,1444189.2344756,178
1660124824.82227,1444189.234484,175
1660124824.82227,1444189.2344905,192
1660124824.82227,1444189.2345039,199
1660124824.82227,1444189.2345173,197
1660124824.82227,1444189.2345267,199
1660124824.82227,1444189.2345339,201
1660124824.82227,1444189.2345402,201
1660124824.82227,1444189.2345468,209
1660124824.82227,1444189.234553,230
1660124824.82227,1444189.234558,242
1660124824.82227,1444189.2345632,235
1660124824.82227,1444189.2345672,223
1660124824.82227,1444189.2345728,206
1660124824.82227,1444189.234578,187
1660124824.82227,1444189.7677632,171
1660124824.82227,1444189.7677787,144
1660124824.82227,1444189.7677837,116
1660124824.82227,1444189.7677908,90
1660124824.82227,1444189.7677949,61
1660124824.82227,1444189.7677989,42
1660124824.82227,1444189.7678043,38
1660124824.82227,1444189.767808,30
1660124824.82227,1444189.7678118,28
1660124824.82227,1444189.7678156,38
1660124824.82227,1444189.7678193,23
1660124824.82227,1444189.7678248,-11
1660124824.82227,1444189.7678299,-7
1660124824.82227,1444189.7678337,14
1660124824.82227,1444189.7678389,11
1660124824.82227,1444189.7678434,16
1660124824.82227,1444189.7678471,30
