Time,TimeLsl,Value
1660137894.14367,1457257.7001286,104
1660137894.14367,1457257.7001432,74
1660137894.14367,1457257.7001478,71
1660137894.14367,1457257.7001533,85
1660137894.14367,1457257.7001571,83
1660137894.14367,1457257.7001623,83
1660137894.14367,1457257.7001659,92
1660137894.14367,1457257.7001709,92
1660137894.14367,1457257.7001744,76
1660137894.14367,1457257.7001778,62
1660137894.14367,1457257.7001828,67
1660137894.14367,1457257.7001863,51
1660137894.14367,1457257.7001915,25
1660137894.14367,1457257.7001949,322
1660137894.14367,1457257.7001997,1219
1660137894.14367,1457257.7002031,1577
1660137894.14367,1457257.7002079,194
1660137894.14367,1457257.7002114,-1217
1660137894.14367,1457257.7002162,-909
1660137894.14367,1457257.7002196,-164
1660137894.14367,1457257.7002243,-64
1660137894.14367,1457257.7002283,-16
1660137894.14367,1457257.7002334,134
1660137894.14367,1457257.7002372,125
1660137894.14367,1457257.7002405,92
1660137894.14367,1457257.700244,136
1660137894.14367,1457257.7002489,146
1660137894.14367,1457257.7002524,127
1660137894.14367,1457257.7002572,139
1660137894.14367,1457257.7002605,155
1660137894.14367,1457257.7002653,157
1660137894.14367,1457257.7002687,166
1660137894.14367,1457257.7002734,180
1660137894.14367,1457257.7002768,185
1660137894.14367,1457257.7002819,192
1660137894.14367,1457257.7002852,206
1660137894.14367,1457257.7002902,215
1660137894.14367,1457257.7002936,227
1660137894.14367,1457257.7002984,243
1660137894.14367,1457257.7003018,257
1660137894.14367,1457257.7003066,271
1660137894.14367,1457257.7003101,285
1660137894.14367,1457257.7003154,299
1660137894.14367,1457257.7003187,317
1660137894.14367,1457257.7003236,340
1660137894.14367,1457257.7003271,364
1660137894.14367,1457257.7003323,375
1660137894.14367,1457257.7003368,371
1660137894.14367,1457257.7003417,361
1660137894.14367,1457257.700345,357
1660137894.27233,1457257.7003498,347
1660137894.27233,1457257.7003533,320
1660137894.27233,1457257.7003582,259
1660137894.27233,1457257.7003616,183
1660137894.27233,1457257.7003665,122
1660137894.27233,1457257.70037,78
1660137894.27233,1457257.7003747,37
1660137894.27233,1457257.7003781,6
1660137894.27233,1457257.7003829,-20
1660137894.27233,1457257.7003863,-39
1660137894.27233,1457257.7003911,-34
1660137894.27233,1457257.7003945,-16
1660137894.27233,1457257.7003978,-6
1660137894.27233,1457257.7004012,-4
1660137894.27233,1457257.700406,-2
1660137894.27233,1457257.7004094,-2
1660137894.27233,1457257.7004151,-13
1660137894.27233,1457257.7004184,-25
1660137894.27233,1457257.7004233,-16
1660137894.27233,1457257.7004268,-4
1660137894.27233,1457257.7004302,-9
1660137894.27233,1457257.700435,-9
1660137894.27233,1457257.7004385,-6
1660137894.27233,1457258.2878483,-4
1660137894.27233,1457258.2878692,0
1660137894.27233,1457258.2878745,0
1660137894.27233,1457258.2878789,4
1660137894.27233,1457258.287883,2
1660137894.27233,1457258.2878869,-20
1660137894.27233,1457258.2878923,-34
1660137894.27233,1457258.287896,-25
1660137894.27233,1457258.287899,-13
1660137894.27233,1457258.2879018,-13
1660137894.27233,1457258.2879057,-18
1660137894.27233,1457258.2879111,-27
1660137894.27233,1457258.2879161,-37
1660137894.27233,1457258.2879202,-27
1660137894.27233,1457258.2879253,-16
1660137894.27233,1457258.2879321,-16
1660137894.27233,1457258.287939,-25
1660137894.27233,1457258.2879453,-27
1660137894.27233,1457258.2879496,-20
1660137894.27233,1457258.2879546,-13
1660137894.27233,1457258.2879584,-4
1660137894.27233,1457258.2879615,4
1660137894.27233,1457258.2879648,11
1660137894.27233,1457258.2879681,18
1660137894.27233,1457258.2879729,18
1660137894.27233,1457258.2879774,16
1660137894.27233,1457258.2879809,25
1660137894.32271,1457258.2879874,37
1660137894.32271,1457258.2879922,44
1660137894.32271,1457258.2879976,51
1660137894.32271,1457258.2880049,57
1660137894.32271,1457258.288011,57
1660137894.32271,1457258.2880216,57
1660137894.32271,1457258.2880276,60
1660137894.32271,1457258.288035,69
1660137894.32271,1457258.2880417,81
1660137894.32271,1457258.2880503,81
1660137894.32271,1457258.2880588,81
1660137894.32271,1457258.2880648,88
1660137894.32271,1457258.2880705,88
1660137894.32271,1457258.2880776,78
1660137894.32271,1457258.2880823,83
1660137894.32271,1457258.288087,92
1660137894.32271,1457258.2880937,90
1660137894.32271,1457258.2881007,85
1660137894.32271,1457258.288108,88
1660137894.32271,1457258.2881132,106
1660137894.32271,1457258.2881221,136
1660137894.32271,1457258.2881293,134
1660137894.32271,1457258.288137,104
1660137894.32271,1457258.2881453,104
1660137894.32271,1457258.2881532,113
1660137894.32271,1457258.2881625,106
1660137894.32271,1457258.2881708,111
1660137894.32271,1457258.2881784,125
1660137894.32271,1457258.2881845,125
1660137894.32271,1457258.2881922,120
1660137894.32271,1457258.2881973,120
1660137894.32271,1457258.2882054,118
1660137894.32271,1457258.2882133,104
1660137894.32271,1457258.2882182,155
1660137894.32271,1457258.2882269,575
1660137894.32271,1457258.288234,1366
1660137894.32271,1457258.2882396,1145
1660137894.32271,1457258.2882474,-603
1660137894.32271,1457258.288256,-1509
1660137894.32271,1457258.288263,-712
1660137894.32271,1457258.288272,-64
1660137894.32271,1457258.288279,-37
1660137894.32271,1457258.2882843,99
1660137894.32271,1457258.2882931,238
1660137894.32271,1457258.2882978,192
1660137894.32271,1457258.2883106,185
1660137894.32271,1457258.8713048,236
1660137894.32271,1457258.8713253,231
1660137894.60326,1457258.8713327,218
1660137894.60326,1457258.8713398,231
1660137894.60326,1457258.8713448,236
1660137894.60326,1457258.8713495,236
1660137894.60326,1457258.8713562,245
1660137894.60326,1457258.871361,243
1660137894.60326,1457258.8713656,224
1660137894.60326,1457258.8713703,218
1660137894.60326,1457258.8713751,229
1660137894.60326,1457258.87138,245
1660137894.60326,1457258.8713846,250
1660137894.60326,1457258.8713901,262
1660137894.60326,1457258.871395,264
1660137894.60326,1457258.8714017,252
1660137894.60326,1457258.8714064,255
1660137894.60326,1457258.8714127,282
1660137894.60326,1457258.8714173,306
1660137894.60326,1457258.8714236,317
1660137894.60326,1457258.8714286,324
1660137894.60326,1457258.8714352,315
1660137894.60326,1457258.8714401,301
1660137894.60326,1457258.8714466,299
1660137894.60326,1457258.8714529,285
1660137894.60326,1457258.8714595,255
1660137894.60326,1457258.871466,218
1660137894.60326,1457258.8714706,155
1660137894.60326,1457258.8714753,85
1660137894.60326,1457258.8714815,30
1660137894.60326,1457258.8714864,-9
1660137894.60326,1457258.8714926,-41
1660137894.60326,1457258.8714974,-69
1660137894.60326,1457258.8715037,-85
1660137894.60326,1457258.8715113,-90
1660137894.60326,1457258.8715175,-83
1660137894.60326,1457258.8715223,-71
1660137894.60326,1457258.871527,-62
1660137894.60326,1457258.8715333,-53
1660137894.60326,1457258.8715396,-48
1660137894.60326,1457258.8715445,-48
1660137894.60326,1457258.8715513,-37
1660137894.60326,1457258.8715582,-23
1660137894.60326,1457258.8715644,-16
1660137894.60326,1457258.8715691,-9
1660137894.60326,1457258.8715754,-4
1660137894.60326,1457258.87158,-4
1660137894.60326,1457258.8715871,-4
1660137894.60326,1457258.871592,2
1660137894.60326,1457258.871598,6
1660137894.60326,1457258.8716027,6
1660137894.60326,1457258.8716088,6
1660137894.6621,1457258.8716136,-2
1660137894.6621,1457258.8716195,-11
1660137894.6621,1457258.871625,-6
1660137894.6621,1457258.8716313,2
1660137894.6621,1457258.8716362,4
1660137894.6621,1457258.8716426,4
1660137894.6621,1457258.8716494,6
1660137894.6621,1457258.8716557,11
1660137894.6621,1457258.8716614,16
1660137894.6621,1457258.8716676,20
1660137894.6621,1457258.8716724,25
1660137894.6621,1457258.871679,27
1660137894.6621,1457258.8716838,30
1660137894.6621,1457258.8716899,34
1660137894.6621,1457258.8716966,37
1660137894.6621,1457258.871703,41
1660137894.6621,1457258.8717094,46
1660137894.6621,1457258.8717147,48
1660137894.6621,1457258.8717215,53
1660137894.6621,1457258.8717247,53
1660137894.6621,1457258.8717277,51
1660137894.6621,1457259.4549829,53
1660137894.6621,1457259.454996,62
1660137894.6621,1457259.4550013,64
1660137895.04757,1457259.4550037,64
1660137895.04757,1457259.4550058,71
1660137895.04757,1457259.4550077,71
1660137895.04757,1457259.4550096,71
1660137895.04757,1457259.4550115,78
1660137895.04757,1457259.4550134,78
1660137895.04757,1457259.4550153,81
1660137895.04757,1457259.4550172,85
1660137895.04757,1457259.4550193,76
1660137895.04757,1457259.4550224,55
1660137895.04757,1457259.4550304,46
1660137895.04757,1457259.4550364,46
1660137895.04757,1457259.455041,53
1660137895.04757,1457259.4550471,60
1660137895.04757,1457259.4550525,48
1660137895.04757,1457259.455058,30
1660137895.04757,1457259.4550683,51
1660137895.04757,1457259.4550772,85
1660137895.04757,1457259.4550815,76
1660137895.04757,1457259.4550869,60
1660137895.04757,1457259.4550906,69
1660137895.04757,1457259.4550961,60
1660137895.04757,1457259.4551,44
1660137895.04757,1457259.4551052,53
1660137895.04757,1457259.4551096,67
1660137895.04757,1457259.4551145,67
1660137895.04757,1457259.4551182,71
1660137895.04757,1457259.4551237,76
1660137895.04757,1457259.4551275,57
1660137895.04757,1457259.4551327,23
1660137895.04757,1457259.4551365,160
1660137895.04757,1457259.4551419,860
1660137895.04757,1457259.4551472,1598
1660137895.04757,1457259.4551527,790
1660137895.04757,1457259.4551566,-909
1660137895.04757,1457259.4551627,-1131
1660137895.04757,1457259.4551673,-296
1660137895.04757,1457259.4551805,-9
1660137895.04757,1457259.4551887,-18
1660137895.04757,1457259.4551944,127
1660137895.04757,1457259.455203,162
1660137895.04757,1457259.4552101,97
1660137895.04757,1457259.4552224,115
1660137895.04757,1457259.4552368,136
1660137895.04757,1457259.4552501,118
1660137895.04757,1457259.4552644,125
1660137895.04757,1457259.4552956,139
1660137895.04757,1457259.4553056,134
1660137895.04757,1457259.4553113,139
1660137895.04757,1457259.4553157,153
1660137895.06053,1457259.4553202,162
1660137895.06053,1457259.4553251,169
1660137895.06053,1457259.4553306,173
1660137895.06053,1457259.4553365,176
1660137895.06053,1457259.4553412,183
1660137895.06053,1457259.4553483,197
1660137895.06053,1457259.4553579,211
1660137895.06053,1457259.4553661,218
1660137895.06053,1457259.4553727,220
1660137895.06053,1457259.4553794,227
1660137895.06053,1457259.455383,229
1660137895.06053,1457259.4553893,236
1660137895.06053,1457259.455393,257
1660137895.06053,1457259.4553984,271
1660137895.06053,1457259.4554033,276
1660137895.06053,1457259.4554174,273
1660137895.06053,1457259.4554263,269
1660137895.06053,1457259.4554326,262
1660137895.06053,1457259.4554381,250
1660137895.06053,1457259.455442,215
1660137895.06053,1457259.9920643,162
1660137895.06053,1457259.9920837,102
1660137895.06053,1457259.992088,51
1660137895.06053,1457259.9920932,13
1660137895.59295,1457259.9920968,-9
1660137895.59295,1457259.9921002,-25
1660137895.59295,1457259.9921035,-32
1660137895.59295,1457259.9921067,-39
1660137895.59295,1457259.9921101,-55
1660137895.59295,1457259.9921134,-62
1660137895.59295,1457259.9921169,-46
1660137895.59295,1457259.9921201,-30
1660137895.59295,1457259.9921234,-27
1660137895.59295,1457259.9921267,-23
1660137895.59295,1457259.9921301,-27
1660137895.59295,1457259.9921334,-39
1660137895.59295,1457259.9921367,-34
1660137895.59295,1457259.9921401,-18
1660137895.59295,1457259.9921435,-13
1660137895.59295,1457259.9921485,-11
1660137895.59295,1457259.992152,-2
1660137895.59295,1457259.9921567,0
1660137895.59295,1457259.99216,-6
1660137895.59295,1457259.9921634,-6
1660137895.59295,1457259.9921685,2
1660137895.59295,1457259.9921735,6
1660137895.59295,1457259.9921768,9
1660137895.59295,1457259.9921802,9
1660137895.59295,1457259.992185,9
1660137895.59295,1457259.9921883,16
1660137895.59295,1457259.9921934,20
1660137895.59295,1457259.9921972,23
1660137895.59295,1457259.9922007,25
1660137895.59295,1457259.9922057,30
1660137895.59295,1457259.9922092,34
1660137895.59295,1457259.9922139,39
1660137895.59295,1457259.9922172,41
1660137895.59295,1457259.9922206,44
1660137895.59295,1457259.9922255,37
1660137895.59295,1457259.9922303,27
1660137895.59295,1457259.9922337,27
1660137895.59295,1457259.9922385,39
1660137895.59295,1457259.9922417,46
1660137895.59295,1457259.9922452,46
1660137895.59295,1457259.99225,48
1660137895.59295,1457259.9922534,57
1660137895.59295,1457259.992258,57
1660137895.59295,1457259.9922614,57
1660137895.59295,1457259.9922648,67
1660137895.59295,1457259.99227,67
1660137895.59295,1457259.992276,69
1660137895.59295,1457259.9922795,78
1660137895.59295,1457259.9922845,81
1660137895.59295,1457259.9922879,74
1660137895.60491,1457259.9922914,67
1660137895.60491,1457259.9922964,64
1660137895.60491,1457259.9922999,60
1660137895.60491,1457259.9923048,55
1660137895.60491,1457259.9923082,60
1660137895.60491,1457259.9923128,67
1660137895.60491,1457259.9923162,67
1660137895.60491,1457259.9923196,69
1660137895.60491,1457259.992323,85
1660137895.60491,1457259.9923263,118
1660137895.60491,1457259.9923297,132
1660137895.60491,1457259.9923347,106
1660137895.60491,1457259.9923404,97
1660137895.60491,1457259.9923439,109
1660137895.60491,1457259.9923814,109
1660137895.60491,1457259.9924074,109
1660137895.60491,1457259.9924194,115
1660137895.60491,1457259.9924261,113
1660137895.60491,1457259.9924321,111
1660137895.60491,1457260.5280854,115
1660137895.60491,1457260.5281073,115
1660137895.60491,1457260.5281184,90
1660137895.60491,1457260.5281293,88
1660137895.60491,1457260.5281382,445
1660137896.12331,1457260.5281469,1340
1660137896.12331,1457260.5281533,1505
1660137896.12331,1457260.5281607,6
1660137896.12331,1457260.5281676,-1199
1660137896.12331,1457260.5281739,-735
1660137896.12331,1457260.5281805,-62
1660137896.12331,1457260.5281868,-20
1660137896.12331,1457260.5281939,13
1660137896.12331,1457260.5282005,134
1660137896.12331,1457260.5282073,113
1660137896.12331,1457260.5282133,90
1660137896.12331,1457260.5282201,134
1660137896.12331,1457260.5282264,129
1660137896.12331,1457260.5282325,95
1660137896.12331,1457260.5282391,104
1660137896.12331,1457260.5282483,125
1660137896.12331,1457260.5282569,127
1660137896.12331,1457260.5282656,134
1660137896.12331,1457260.5282742,146
1660137896.12331,1457260.5282824,141
1660137896.12331,1457260.5282914,143
1660137896.12331,1457260.5282982,160
1660137896.12331,1457260.5283066,171
1660137896.12331,1457260.5283156,173
1660137896.12331,1457260.5283246,178
1660137896.12331,1457260.5283316,183
1660137896.12331,1457260.52834,178
1660137896.12331,1457260.5283469,180
1660137896.12331,1457260.5283561,204
1660137896.12331,1457260.5283645,222
1660137896.12331,1457260.5283712,236
1660137896.12331,1457260.5283818,255
1660137896.12331,1457260.5283901,264
1660137896.12331,1457260.528399,266
1660137896.12331,1457260.5284059,273
1660137896.12331,1457260.5284139,276
1660137896.12331,1457260.5284207,262
1660137896.12331,1457260.5284293,227
1660137896.12331,1457260.5284361,171
1660137896.12331,1457260.5284444,104
1660137896.12331,1457260.5284507,41
1660137896.12331,1457260.5284585,-4
1660137896.12331,1457260.5284653,-32
1660137896.12331,1457260.5284736,-55
1660137896.12331,1457260.5284812,-71
1660137896.12331,1457260.5284897,-74
1660137896.12331,1457260.5284965,-62
1660137896.12331,1457260.5285053,-48
1660137896.12331,1457260.5285137,-41
1660137896.12331,1457260.5285203,-37
1660137896.13528,1457260.528529,-27
1660137896.13528,1457260.5285364,-18
1660137896.13528,1457260.5285445,-9
1660137896.13528,1457260.5285514,0
1660137896.13528,1457260.5285605,6
1660137896.13528,1457260.5285688,11
1660137896.13528,1457260.5285756,16
1660137896.13528,1457260.5285847,18
1660137896.13528,1457260.5285917,23
1660137896.13528,1457260.5286004,27
1660137896.13528,1457260.5286069,32
1660137896.13528,1457260.5286157,32
1660137896.13528,1457260.5286229,34
1660137896.13528,1457260.5286314,34
1660137896.13528,1457260.5286385,32
1660137896.13528,1457260.5286471,34
1660137896.13528,1457260.5286539,41
1660137896.13528,1457260.5286626,41
1660137896.13528,1457261.0644696,41
1660137896.13528,1457261.0644911,46
1660137896.13528,1457261.0644992,46
1660137896.13528,1457261.0645039,46
1660137896.13528,1457261.0645104,41
1660137896.13528,1457261.0645167,39
1660137896.75721,1457261.0645233,44
1660137896.75721,1457261.0645299,41
1660137896.75721,1457261.0645367,25
1660137896.75721,1457261.0645408,13
1660137896.75721,1457261.064545,23
1660137896.75721,1457261.0645485,30
1660137896.75721,1457261.064552,30
1660137896.75721,1457261.0645556,37
1660137896.75721,1457261.0645591,30
1660137896.75721,1457261.0645626,9
1660137896.75721,1457261.0645666,13
1660137896.75721,1457261.0645707,25
1660137896.75721,1457261.0645777,27
1660137896.75721,1457261.0645848,32
1660137896.75721,1457261.0645892,39
1660137896.75721,1457261.0645944,37
1660137896.75721,1457261.0646004,34
1660137896.75721,1457261.0646062,32
1660137896.75721,1457261.064612,18
1660137896.75721,1457261.0646181,13
1660137896.75721,1457261.0646214,16
1660137896.75721,1457261.0646252,13
1660137896.75721,1457261.064628,18
1660137896.75721,1457261.0646314,30
1660137896.75721,1457261.0646346,37
1660137896.75721,1457261.0646391,53
1660137896.75721,1457261.0646439,85
1660137896.75721,1457261.064648,97
1660137896.75721,1457261.0646542,76
1660137896.75721,1457261.0646595,69
1660137896.75721,1457261.0646656,71
1660137896.75721,1457261.0646717,64
1660137896.75721,1457261.0646784,67
1660137896.75721,1457261.0646867,78
1660137896.75721,1457261.0646946,78
1660137896.75721,1457261.0647006,76
1660137896.75721,1457261.0647082,83
1660137896.75721,1457261.0647145,85
1660137896.75721,1457261.0647215,57
1660137896.75721,1457261.0647289,44
1660137896.75721,1457261.0647355,398
1660137896.75721,1457261.0647498,1310
1660137896.75721,1457261.0647606,1516
1660137896.75721,1457261.0647676,44
1660137896.75721,1457261.064772,-1199
1660137896.75721,1457261.0647788,-779
1660137896.75721,1457261.0647854,-104
1660137896.75721,1457261.0647926,-23
1660137896.75721,1457261.0647986,44
1660137896.75721,1457261.0648068,180
1660137896.77217,1457261.0648141,160
1660137896.77217,1457261.0648222,134
1660137896.77217,1457261.0648297,169
1660137896.77217,1457261.0648391,169
1660137896.77217,1457261.0648459,157
1660137896.77217,1457261.0648533,173
1660137896.77217,1457261.0648622,183
1660137896.77217,1457261.0648674,183
1660137896.77217,1457261.064876,190
1660137896.77217,1457261.064883,192
1660137896.77217,1457261.0648882,192
1660137896.77217,1457261.0648971,201
1660137896.77217,1457261.0649022,206
1660137896.77217,1457261.0649155,211
1660137896.77217,1457261.0649261,227
1660137896.77217,1457261.0649457,236
1660137896.77217,1457261.0649547,241
1660137896.77217,1457261.7003573,255
1660137896.77217,1457261.7003762,264
1660137896.77217,1457261.7003811,271
1660137896.77217,1457261.7003871,289
1660137896.77217,1457261.7003909,296
1660137896.77217,1457261.7003943,282
1660137896.77217,1457261.7004,282
1660137897.28979,1457261.7004037,301
1660137897.28979,1457261.7004075,303
1660137897.28979,1457261.7004114,289
1660137897.28979,1457261.7004152,269
1660137897.28979,1457261.7004191,222
1660137897.28979,1457261.7004229,153
1660137897.28979,1457261.7004274,83
1660137897.28979,1457261.7004316,25
1660137897.28979,1457261.7004355,-23
1660137897.28979,1457261.7004385,-69
1660137897.28979,1457261.700442,-106
1660137897.28979,1457261.700445,-111
1660137897.28979,1457261.7004504,-104
1660137897.28979,1457261.7004548,-104
1660137897.28979,1457261.7004596,-88
1660137897.28979,1457261.700466,-62
1660137897.28979,1457261.7004708,-60
1660137897.28979,1457261.7004769,-62
1660137897.28979,1457261.7004826,-48
1660137897.28979,1457261.7004893,-37
1660137897.28979,1457261.700499,-39
1660137897.28979,1457261.7005092,-39
1660137897.28979,1457261.7005179,-27
1660137897.28979,1457261.7005267,-18
1660137897.28979,1457261.7005368,-9
1660137897.28979,1457261.700544,-4
1660137897.28979,1457261.7005503,-6
1660137897.28979,1457261.7005568,0
1660137897.28979,1457261.7005635,11
1660137897.28979,1457261.7005702,6
1660137897.28979,1457261.7005764,6
1660137897.28979,1457261.7005814,16
1660137897.28979,1457261.7005864,18
1660137897.28979,1457261.7005941,20
1660137897.28979,1457261.7006006,25
1660137897.28979,1457261.7006066,27
1660137897.28979,1457261.7006144,32
1660137897.28979,1457261.700622,44
1660137897.28979,1457261.7006297,48
1660137897.28979,1457261.7006365,46
1660137897.28979,1457261.7006457,48
1660137897.28979,1457261.7006547,60
1660137897.28979,1457261.7006606,62
1660137897.28979,1457261.7006698,57
1660137897.28979,1457261.7006794,64
1660137897.28979,1457261.7006884,76
1660137897.28979,1457261.7006977,76
1660137897.28979,1457261.7007085,74
1660137897.28979,1457261.7007166,83
1660137897.28979,1457261.7007247,85
1660137897.31572,1457261.7007325,85
1660137897.31572,1457261.7007389,85
1660137897.31572,1457261.700747,78
1660137897.31572,1457261.7007549,81
1660137897.31572,1457261.7007626,85
1660137897.31572,1457261.7007704,92
1660137897.31572,1457261.7007767,92
1660137897.31572,1457261.7007849,83
1660137897.31572,1457261.7007922,83
1660137897.31572,1457261.7007997,83
1660137897.31572,1457261.7008062,83
1660137897.31572,1457261.7008152,85
1660137897.31572,1457261.7008215,95
1660137897.31572,1457261.7008303,97
1660137897.31572,1457261.7008393,99
1660137897.31572,1457261.7008474,125
1660137897.31572,1457262.2343751,143
1660137897.31572,1457262.2343943,129
1660137897.31572,1457262.2344076,122
1660137897.31572,1457262.2344178,118
1660137897.31572,1457262.2344283,109
1660137897.31572,1457262.2344377,120
1660137897.31572,1457262.2344459,127
1660137897.31572,1457262.2345469,122
1660137897.82537,1457262.234557,125
1660137897.82537,1457262.2345663,115
1660137897.82537,1457262.2345735,109
1660137897.82537,1457262.2345806,115
1660137897.82537,1457262.2345859,143
1660137897.82537,1457262.2346049,385
1660137897.82537,1457262.2346135,1090
1660137897.82537,1457262.23462,1380
1660137897.82537,1457262.234627,0
1660137897.82537,1457262.2346342,-1523
1660137897.82537,1457262.2346408,-1182
1660137897.82537,1457262.2346455,-262
1660137897.82537,1457262.234649,-81
1660137897.82537,1457262.2346523,-16
1660137897.82537,1457262.2346556,178
1660137897.82537,1457262.2346589,197
1660137897.82537,1457262.2346622,150
1660137897.82537,1457262.2346658,197
1660137897.82537,1457262.2346714,218
1660137897.82537,1457262.2346747,180
1660137897.82537,1457262.2346781,176
1660137897.82537,1457262.2346815,194
1660137897.82537,1457262.2346849,199
1660137897.82537,1457262.2346898,206
1660137897.82537,1457262.2346931,218
1660137897.82537,1457262.2346979,215
1660137897.82537,1457262.2347013,220
1660137897.82537,1457262.2347061,231
1660137897.82537,1457262.2347096,243
1660137897.82537,1457262.234713,248
1660137897.82537,1457262.2347163,266
1660137897.82537,1457262.2347197,287
1660137897.82537,1457262.234723,287
1660137897.82537,1457262.2347264,294
1660137897.82537,1457262.2347312,324
1660137897.82537,1457262.2347346,352
1660137897.82537,1457262.2347402,371
1660137897.82537,1457262.2347436,378
1660137897.82537,1457262.2347488,387
1660137897.82537,1457262.2347522,401
1660137897.82537,1457262.234757,398
1660137897.82537,1457262.2347604,378
1660137897.82537,1457262.2347652,350
1660137897.82537,1457262.2347686,301
1660137897.82537,1457262.2347735,227
1660137897.82537,1457262.234777,143
1660137897.82537,1457262.2347819,78
1660137897.82537,1457262.2347853,39
1660137897.82537,1457262.2347901,0
1660137897.82537,1457262.2347935,-32
1660137897.83734,1457262.2347983,-48
1660137897.83734,1457262.2348018,-53
1660137897.83734,1457262.2348052,-48
1660137897.83734,1457262.23481,-44
1660137897.83734,1457262.2348134,-37
1660137897.83734,1457262.2348182,-20
1660137897.83734,1457262.2348216,-20
1660137897.83734,1457262.2348263,-23
1660137897.83734,1457262.2348299,-11
1660137897.83734,1457262.2348348,2
1660137897.83734,1457262.2348382,2
1660137897.83734,1457262.2348415,4
1660137897.83734,1457262.2348464,16
1660137897.83734,1457262.23485,18
1660137897.83734,1457262.2348549,16
1660137897.83734,1457262.7702042,20
1660137897.83734,1457262.7702243,11
1660137897.83734,1457262.7702395,-9
1660137897.83734,1457262.7702512,-6
1660137897.83734,1457262.770257,4
1660137897.83734,1457262.7702668,2
1660137897.83734,1457262.7702752,2
1660137897.83734,1457262.7702817,6
1660137897.83734,1457262.7702925,6
1660137898.46071,1457262.7702981,2
1660137898.46071,1457262.7703016,-6
1660137898.46071,1457262.7703046,-20
1660137898.46071,1457262.7703152,-30
1660137898.46071,1457262.770321,-23
1660137898.46071,1457262.7703233,-16
1660137898.46071,1457262.7703253,-11
1660137898.46071,1457262.7703273,-6
1660137898.46071,1457262.7703346,-16
1660137898.46071,1457262.7703448,-30
1660137898.46071,1457262.7703556,-27
1660137898.46071,1457262.7703649,-16
1660137898.46071,1457262.7703721,-9
1660137898.46071,1457262.7703781,-4
1660137898.46071,1457262.7703889,0
1660137898.46071,1457262.7703916,2
1660137898.46071,1457262.7703938,6
1660137898.46071,1457262.7703958,9
1660137898.46071,1457262.7703979,16
1660137898.46071,1457262.7703999,18
1660137898.46071,1457262.770402,18
1660137898.46071,1457262.770404,18
1660137898.46071,1457262.7704061,18
1660137898.46071,1457262.7704081,18
1660137898.46071,1457262.7704101,25
1660137898.46071,1457262.7704151,34
1660137898.46071,1457262.7704257,48
1660137898.46071,1457262.7704303,71
1660137898.46071,1457262.7704323,88
1660137898.46071,1457262.7704344,74
1660137898.46071,1457262.7704365,64
1660137898.46071,1457262.7704386,74
1660137898.46071,1457262.7704407,71
1660137898.46071,1457262.7704427,60
1660137898.46071,1457262.7704455,60
1660137898.46071,1457262.7704477,64
1660137898.46071,1457262.7704498,69
1660137898.46071,1457262.770452,76
1660137898.46071,1457262.7704541,85
1660137898.46071,1457262.7704561,76
1660137898.46071,1457262.7704582,62
1660137898.46071,1457262.7704603,278
1660137898.46071,1457262.7704623,1039
1660137898.46071,1457262.7704644,1470
1660137898.46071,1457262.7704664,231
1660137898.46071,1457262.7704691,-1268
1660137898.46071,1457262.7704712,-1036
1660137898.46071,1457262.7704732,-204
1660137898.46071,1457262.7704753,-41
1660137898.46071,1457262.7704774,11
1660137898.47068,1457262.7704794,178
1660137898.47068,1457262.7704815,180
1660137898.47068,1457262.7704836,136
1660137898.47068,1457262.7704856,176
1660137898.47068,1457262.7704877,190
1660137898.47068,1457262.7704897,176
1660137898.47068,1457262.7704923,185
1660137898.47068,1457262.7704944,187
1660137898.47068,1457262.7704964,169
1660137898.47068,1457262.7704985,162
1660137898.47068,1457262.7705043,171
1660137898.47068,1457262.7705176,180
1660137898.47068,1457262.7705257,185
1660137898.47068,1457262.7705318,192
1660137898.47068,1457263.4042032,194
1660137898.47068,1457263.4042172,190
1660137898.47068,1457263.4042221,190
1660137898.47068,1457263.4042251,204
1660137898.47068,1457263.404228,218
1660137898.47068,1457263.4042307,231
1660137898.47068,1457263.4042335,241
1660137898.47068,1457263.4042361,245
1660137898.47068,1457263.4042387,241
1660137898.47068,1457263.4042413,234
1660137899.0052,1457263.4042439,241
1660137899.0052,1457263.4042476,250
1660137899.0052,1457263.404259,250
1660137899.0052,1457263.4042649,243
1660137899.0052,1457263.4042673,220
1660137899.0052,1457263.4042693,173
1660137899.0052,1457263.4042748,129
1660137899.0052,1457263.4042881,83
1660137899.0052,1457263.4042974,30
1660137899.0052,1457263.4043001,-11
1660137899.0052,1457263.4043022,-39
1660137899.0052,1457263.4043042,-64
1660137899.0052,1457263.4043068,-74
1660137899.0052,1457263.4043145,-71
1660137899.0052,1457263.4043252,-67
1660137899.0052,1457263.4043287,-67
1660137899.0052,1457263.4043325,-64
1660137899.0052,1457263.4043346,-60
1660137899.0052,1457263.4043367,-57
1660137899.0052,1457263.4043445,-55
1660137899.0052,1457263.4043551,-51
1660137899.0052,1457263.4043585,-46
1660137899.0052,1457263.4043621,-46
1660137899.0052,1457263.4043647,-53
1660137899.0052,1457263.4043755,-51
1660137899.0052,1457263.4043829,-44
1660137899.0052,1457263.4043853,-39
1660137899.0052,1457263.4043873,-39
1660137899.0052,1457263.4043894,-34
1660137899.0052,1457263.4043923,-32
1660137899.0052,1457263.4044053,-34
1660137899.0052,1457263.404411,-27
1660137899.0052,1457263.4044135,-23
1660137899.0052,1457263.4044156,-23
1660137899.0052,1457263.4044177,-20
1660137899.0052,1457263.4044229,-16
1660137899.0052,1457263.4044341,-13
1660137899.0052,1457263.4044394,-9
1660137899.0052,1457263.4044415,-2
1660137899.0052,1457263.4044436,-2
1660137899.0052,1457263.4044457,0
1660137899.0052,1457263.404451,6
1660137899.0052,1457263.4044622,11
1660137899.0052,1457263.4044674,13
1660137899.0052,1457263.4044696,18
1660137899.0052,1457263.4044716,20
1660137899.0052,1457263.4044737,23
1660137899.0052,1457263.4044836,32
1660137899.0052,1457263.4045167,37
1660137899.0052,1457263.4045256,27
1660137899.01617,1457263.4045309,20
1660137899.01617,1457263.4045374,23
1660137899.01617,1457263.4045435,27
1660137899.01617,1457263.4045494,25
1660137899.01617,1457263.4045552,13
1660137899.01617,1457263.4045619,0
1660137899.01617,1457263.4045683,4
1660137899.01617,1457263.4045744,20
1660137899.01617,1457263.4045783,27
1660137899.01617,1457263.4045817,30
1660137899.01617,1457263.4045892,55
1660137899.01617,1457263.4045966,88
1660137899.01617,1457263.4046061,83
1660137899.01617,1457263.9404579,57
1660137899.01617,1457263.9404789,64
1660137899.01617,1457263.940494,78
1660137899.01617,1457263.940503,76
1660137899.01617,1457263.9405056,76
1660137899.01617,1457263.9405078,78
1660137899.01617,1457263.9405099,76
1660137899.01617,1457263.9405121,81
1660137899.01617,1457263.9405142,92
1660137899.01617,1457263.9405163,90
1660137899.01617,1457263.9405183,53
1660137899.5358,1457263.9405202,78
1660137899.5358,1457263.9405221,570
1660137899.5358,1457263.940524,1472
1660137899.5358,1457263.9405259,1243
1660137899.5358,1457263.940528,-461
1660137899.5358,1457263.9405299,-1294
1660137899.5358,1457263.9405318,-621
1660137899.5358,1457263.9405347,-109
1660137899.5358,1457263.9405415,-71
1660137899.5358,1457263.9405481,46
1660137899.5358,1457263.9405522,132
1660137899.5358,1457263.9405569,90
1660137899.5358,1457263.9405627,95
1660137899.5358,1457263.9405672,129
1660137899.5358,1457263.9405763,120
1660137899.5358,1457263.9405869,125
1660137899.5358,1457263.9405953,148
1660137899.5358,1457263.9406027,155
1660137899.5358,1457263.9406105,155
1660137899.5358,1457263.940616,157
1660137899.5358,1457263.940627,162
1660137899.5358,1457263.940638,173
1660137899.5358,1457263.9406459,185
1660137899.5358,1457263.9406525,194
1660137899.5358,1457263.9406612,206
1660137899.5358,1457263.9406649,218
1660137899.5358,1457263.9406669,224
1660137899.5358,1457263.9406743,238
1660137899.5358,1457263.9406852,257
1660137899.5358,1457263.9406914,271
1660137899.5358,1457263.9407009,287
1660137899.5358,1457263.9407066,303
1660137899.5358,1457263.9407206,315
1660137899.5358,1457263.9407278,329
1660137899.5358,1457263.9407302,343
1660137899.5358,1457263.9407359,345
1660137899.5358,1457263.9407471,343
1660137899.5358,1457263.9407509,331
1660137899.5358,1457263.9407656,303
1660137899.5358,1457263.9407765,257
1660137899.5358,1457263.9407802,197
1660137899.5358,1457263.9407841,127
1660137899.5358,1457263.9407869,64
1660137899.5358,1457263.9407975,23
1660137899.5358,1457263.940811,-2
1660137899.5358,1457263.940825,-30
1660137899.5358,1457263.9408324,-46
1660137899.5358,1457263.9408347,-46
1660137899.5358,1457263.9408368,-39
1660137899.5358,1457263.9408389,-34
1660137899.54677,1457263.9408467,-27
1660137899.54677,1457263.9408602,-20
1660137899.54677,1457263.9408747,-13
1660137899.54677,1457263.9408877,-6
1660137899.54677,1457263.9409009,2
1660137899.54677,1457263.9409142,6
1660137899.54677,1457263.9409264,11
1660137899.54677,1457263.9409379,16
1660137899.54677,1457263.9409494,18
1660137899.54677,1457263.940964,20
1660137899.54677,1457263.9409776,23
1660137899.54677,1457263.9409927,23
1660137899.54677,1457264.4787312,23
1660137899.54677,1457264.4787492,16
1660137899.54677,1457264.4787615,6
1660137899.54677,1457264.4787688,2
1660137899.54677,1457264.4787736,0
1660137899.54677,1457264.4787802,-4
1660137899.54677,1457264.4787848,-2
1660137899.54677,1457264.4787891,-6
1660137899.54677,1457264.4787932,-27
1660137899.54677,1457264.4787974,-34
1660137899.54677,1457264.4788016,-25
1660137899.54677,1457264.4788056,-23
1660137900.07627,1457264.4788103,-23
1660137900.07627,1457264.4788148,-16
1660137900.07627,1457264.4788194,-13
1660137900.07627,1457264.4788243,-16
1660137900.07627,1457264.478833,-11
1660137900.07627,1457264.4788383,-6
1660137900.07627,1457264.4788442,-4
1660137900.07627,1457264.4788507,2
1660137900.07627,1457264.4788559,-4
1660137900.07627,1457264.4788601,-23
1660137900.07627,1457264.4788648,-23
1660137900.07627,1457264.4788703,-13
1660137900.07627,1457264.4788761,-16
1660137900.07627,1457264.4788815,-23
1660137900.07627,1457264.4788881,-20
1660137900.07627,1457264.4788962,-16
1660137900.07627,1457264.478903,-9
1660137900.07627,1457264.4789082,0
1660137900.07627,1457264.4789133,11
1660137900.07627,1457264.4789187,41
1660137900.07627,1457264.4789246,71
1660137900.07627,1457264.4789287,60
1660137900.07627,1457264.478933,34
1660137900.07627,1457264.478937,44
1660137900.07627,1457264.4789411,57
1660137900.07627,1457264.4789449,55
1660137900.07627,1457264.4789488,60
1660137900.07627,1457264.4789533,67
1660137900.07627,1457264.4789666,64
1660137900.07627,1457264.4789813,64
1660137900.07627,1457264.4789922,74
1660137900.07627,1457264.4789999,69
1660137900.07627,1457264.4790086,27
1660137900.07627,1457264.4790167,102
1660137900.07627,1457264.4790221,718
1660137900.07627,1457264.4790291,1567
1660137900.07627,1457264.4790324,1034
1660137900.07627,1457264.4790453,-695
1660137900.07627,1457264.4790575,-1217
1660137900.07627,1457264.4790687,-454
1660137900.07627,1457264.4790825,-64
1660137900.07627,1457264.4790925,-55
1660137900.07627,1457264.4790976,81
1660137900.07627,1457264.4791115,148
1660137900.07627,1457264.4791244,99
1660137900.07627,1457264.4791374,120
1660137900.07627,1457264.4791471,157
1660137900.07627,1457264.4791526,141
1660137900.07627,1457264.479166,141
1660137900.07627,1457264.4791778,166
1660137900.09422,1457264.4791871,171
1660137900.09422,1457264.4791964,173
1660137900.09422,1457264.4792037,185
1660137900.09422,1457264.479211,187
1660137900.09422,1457264.4792179,192
1660137900.09422,1457264.4792246,206
1660137900.09422,1457264.4792327,215
1660137900.09422,1457264.4792401,224
1660137900.09422,1457264.4792525,236
1660137900.09422,1457264.4792612,243
1660137900.09422,1457264.4792708,257
1660137900.09422,1457265.0135402,276
1660137900.09422,1457265.0135585,294
1660137900.09422,1457265.013566,310
1660137900.09422,1457265.0135733,329
1660137900.09422,1457265.01358,345
1660137900.09422,1457265.0135856,350
1660137900.09422,1457265.0135908,350
1660137900.09422,1457265.013596,350
1660137900.09422,1457265.0136007,347
1660137900.09422,1457265.0136055,336
1660137900.09422,1457265.0136115,296
1660137900.09422,1457265.0136183,234
1660137900.09422,1457265.0136243,169
1660137900.70335,1457265.0136281,115
1660137900.70335,1457265.0136324,71
1660137900.70335,1457265.0136392,32
1660137900.70335,1457265.0136459,6
1660137900.70335,1457265.0136529,-23
1660137900.70335,1457265.01366,-48
1660137900.70335,1457265.0136644,-46
1660137900.70335,1457265.0136693,-27
1660137900.70335,1457265.0136741,-23
1660137900.70335,1457265.0136778,-18
1660137900.70335,1457265.013681,-16
1660137900.70335,1457265.0136864,-30
1660137900.70335,1457265.0136917,-34
1660137900.70335,1457265.0136962,-16
1660137900.70335,1457265.0137002,-4
1660137900.70335,1457265.0137053,-4
1660137900.70335,1457265.0137099,-2
1660137900.70335,1457265.0137154,-2
1660137900.70335,1457265.0137218,-4
1660137900.70335,1457265.0137273,0
1660137900.70335,1457265.0137303,2
1660137900.70335,1457265.0137332,0
1660137900.70335,1457265.0137361,2
1660137900.70335,1457265.0137392,2
1660137900.70335,1457265.0137421,-9
1660137900.70335,1457265.013745,-20
1660137900.70335,1457265.0137479,-18
1660137900.70335,1457265.0137507,-11
1660137900.70335,1457265.0137536,-9
1660137900.70335,1457265.0137565,-6
1660137900.70335,1457265.0137595,-4
1660137900.70335,1457265.0137624,2
1660137900.70335,1457265.0137653,4
1660137900.70335,1457265.0137682,0
1660137900.70335,1457265.0137711,-2
1660137900.70335,1457265.0137739,-2
1660137900.70335,1457265.0137769,-6
1660137900.70335,1457265.0137797,-6

1660137900.70335,1457265.0137826,0
1660137900.70335,1457265.0137855,2
1660137900.70335,1457265.013799,2
1660137900.70335,1457265.0138118,9
1660137900.70335,1457265.0138193,11
1660137900.70335,1457265.0138247,9
1660137900.70335,1457265.0138301,4
1660137900.70335,1457265.0138346,-4
1660137900.70335,1457265.0138396,-4
1660137900.70335,1457265.0138481,4
1660137900.70335,1457265.0138596,13
1660137900.70335,1457265.0138692,16
1660137900.71732,1457265.0138785,23
1660137900.71732,1457265.0138868,46
1660137900.71732,1457265.0138915,78
1660137900.71732,1457265.0139018,81
1660137900.71732,1457265.0139121,60
1660137900.71732,1457265.0139181,60
1660137900.71732,1457265.0139287,62
1660137900.71732,1457265.0139404,46
1660137900.71732,1457265.0139534,46
1660137900.71732,1457265.0139678,62
1660137900.71732,1457265.6465512,67
1660137900.71732,1457265.6465693,60
1660137900.71732,1457265.6465752,64
1660137900.71732,1457265.646582,64
1660137900.71732,1457265.6465869,30
1660137900.71732,1457265.6465932,55
1660137900.71732,1457265.646598,538
1660137900.71732,1457265.6466037,1468
1660137900.71732,1457265.6466096,1326
1660137900.71732,1457265.6466165,-382
1660137900.71732,1457265.6466223,-1319
1660137900.71732,1457265.646631,-665
1660137900.71732,1457265.6466352,-109
1660137900.71732,1457265.6466412,-76
1660137901.19485,1457265.6466452,25
1660137901.19485,1457265.6466491,113
1660137901.19485,1457265.6466529,74
1660137901.19485,1457265.6466567,83
1660137901.19485,1457265.6466607,129
1660137901.19485,1457265.6466644,127
1660137901.19485,1457265.6466684,118
1660137901.19485,1457265.6466722,127
1660137901.19485,1457265.6466759,139
1660137901.19485,1457265.6466798,143
1660137901.19485,1457265.6466835,153
1660137901.19485,1457265.6466874,169
1660137901.19485,1457265.6466913,183
1660137901.19485,1457265.6466953,185
1660137901.19485,1457265.6467013,185
1660137901.19485,1457265.6467073,190
1660137901.19485,1457265.6467111,190
1660137901.19485,1457265.6467148,194
1660137901.19485,1457265.6467185,206
1660137901.19485,1457265.6467222,224
1660137901.19485,1457265.6467259,243
1660137901.19485,1457265.6467298,264
1660137901.19485,1457265.6467335,289
1660137901.19485,1457265.6467371,310
1660137901.19485,1457265.6467407,324
1660137901.19485,1457265.6467442,331
1660137901.19485,1457265.6467485,336
1660137901.19485,1457265.6467521,333
1660137901.19485,1457265.6467558,327
1660137901.19485,1457265.6467609,299
1660137901.19485,1457265.6467688,250
1660137901.19485,1457265.6467739,178
1660137901.19485,1457265.6467773,106
1660137901.19485,1457265.6467808,60
1660137901.19485,1457265.6467844,34
1660137901.19485,1457265.6467878,16
1660137901.19485,1457265.6467912,-9
1660137901.19485,1457265.646795,-20
1660137901.19485,1457265.6467987,-13
1660137901.19485,1457265.6468023,-4
1660137901.19485,1457265.6468067,0
1660137901.19485,1457265.6468099,11
1660137901.19485,1457265.6468147,25
1660137901.19485,1457265.6468204,32
1660137901.19485,1457265.6468253,27
1660137901.19485,1457265.6468304,30
1660137901.19485,1457265.6468337,41
1660137901.19485,1457265.6468838,51
1660137901.19485,1457265.6468904,46
1660137901.19485,1457265.646895,41
1660137901.2098,1457265.6469005,39
1660137901.2098,1457265.6469045,44
1660137901.2098,1457265.6469083,48
1660137901.2098,1457265.646912,51
1660137901.2098,1457265.6469159,51
1660137901.2098,1457265.64692,51
1660137901.2098,1457265.6469254,57
1660137901.2098,1457265.6469297,53
1660137901.2098,1457265.6469342,44
1660137901.2098,1457266.1360972,51
1660137901.2098,1457266.1361162,57
1660137901.2098,1457266.1361215,46
1660137901.2098,1457266.1361252,44
1660137901.2098,1457266.1361285,48
1660137901.2098,1457266.1361326,41
1660137901.2098,1457266.1361364,48
1660137901.2098,1457266.1361423,57
1660137901.2098,1457266.1361494,51
1660137901.2098,1457266.1361565,53
1660137901.2098,1457266.1361635,57
1660137901.2098,1457266.1361705,37
1660137901.2098,1457266.1361775,23
1660137901.2098,1457266.1361839,37
1660137901.2098,1457266.136191,46
1660137901.77741,1457266.1361978,44
1660137901.77741,1457266.136205,44
1660137901.77741,1457266.136212,32
1660137901.77741,1457266.136219,18
1660137901.77741,1457266.1362255,13
1660137901.77741,1457266.1362324,-4
1660137901.77741,1457266.1362382,-11
1660137901.77741,1457266.1362414,9
1660137901.77741,1457266.136245,-6
1660137901.77741,1457266.1362517,-39
1660137901.77741,1457266.1362579,-13
1660137901.77741,1457266.136264,13
1660137901.77741,1457266.1362711,-13
1660137901.77741,1457266.1362776,-18
1660137901.77741,1457266.136284,4
1660137901.77741,1457266.1362873,-4
1660137901.77741,1457266.1362911,-9
1660137901.77741,1457266.1362941,9
1660137901.77741,1457266.1362971,13
1660137901.77741,1457266.1363027,16
1660137901.77741,1457266.1363067,32
1660137901.77741,1457266.1363117,37
1660137901.77741,1457266.1363171,27
1660137901.77741,1457266.1363211,48
1660137901.77741,1457266.1363262,306
1660137901.77741,1457266.1363333,1052
1660137901.77741,1457266.1363399,1359
1660137901.77741,1457266.136344,-37
1660137901.77741,1457266.1363489,-1516
1660137901.77741,1457266.1363525,-1134
1660137901.77741,1457266.1363554,-236
1660137901.77741,1457266.1363588,-74
1660137901.77741,1457266.136362,-2
1660137901.77741,1457266.1363667,187
1660137901.77741,1457266.1363714,187
1660137901.77741,1457266.1363763,143
1660137901.77741,1457266.1363817,187
1660137901.77741,1457266.1363883,204
1660137901.77741,1457266.1363922,185
1660137901.77741,1457266.1363955,199
1660137901.77741,1457266.1363986,218
1660137901.77741,1457266.1364016,211
1660137901.77741,1457266.1364044,211
1660137901.77741,1457266.1364074,231
1660137901.77741,1457266.1364103,248
1660137901.77741,1457266.1364132,252
1660137901.77741,1457266.1364161,252
1660137901.77741,1457266.1364191,259
1660137901.77741,1457266.1364221,271
1660137901.77741,1457266.136425,294
1660137901.79337,1457266.1364279,317
1660137901.79337,1457266.1364308,329
1660137901.79337,1457266.1364338,340
1660137901.79337,1457266.1364367,359
1660137901.79337,1457266.1364395,378
1660137901.79337,1457266.1364424,398
1660137901.79337,1457266.1364453,412
1660137901.79337,1457266.1364482,426
1660137901.79337,1457266.7197185,426
1660137901.79337,1457266.7197409,410
1660137901.79337,1457266.7197708,391
1660137901.79337,1457266.7197788,364
1660137901.79337,1457266.7197867,308
1660137901.79337,1457266.7197922,243
1660137901.79337,1457266.7197976,176
1660137901.79337,1457266.719807,106
1660137901.79337,1457266.7198126,39
1660137901.79337,1457266.7198201,0
1660137901.79337,1457266.7198274,-16
1660137901.79337,1457266.7198322,-32
1660137901.79337,1457266.719839,-41
1660137901.79337,1457266.7198438,-39
1660137901.79337,1457266.7198507,-48
1660137901.79337,1457266.7198576,-62
1660137902.31863,1457266.7198654,-60
1660137902.31863,1457266.719871,-55
1660137902.31863,1457266.7198758,-51
1660137902.31863,1457266.7198806,-39
1660137902.31863,1457266.719885,-30
1660137902.31863,1457266.7198892,-27
1660137902.31863,1457266.7198939,-20
1660137902.31863,1457266.7198988,-9
1660137902.31863,1457266.7199035,-2
1660137902.31863,1457266.7199086,0
1660137902.31863,1457266.7199136,0
1660137902.31863,1457266.7199185,0
1660137902.31863,1457266.7199233,2
1660137902.31863,1457266.7199279,6
1660137902.31863,1457266.7199331,9
1660137902.31863,1457266.719938,9
1660137902.31863,1457266.7199436,13
1660137902.31863,1457266.71995,16
1660137902.31863,1457266.7199555,16
1660137902.31863,1457266.7199632,20
1660137902.31863,1457266.7199681,30
1660137902.31863,1457266.7199746,32
1660137902.31863,1457266.7199798,30
1660137902.31863,1457266.7199869,30
1660137902.31863,1457266.7199918,34
1660137902.31863,1457266.7199979,41
1660137902.31863,1457266.7200031,37
1660137902.31863,1457266.720011,23
1660137902.31863,1457266.7200176,18
1660137902.31863,1457266.720024,23
1660137902.31863,1457266.7200288,25
1660137902.31863,1457266.7200344,23
1660137902.31863,1457266.7200401,30
1660137902.31863,1457266.7200448,32
1660137902.31863,1457266.720052,32
1660137902.31863,1457266.7200575,27
1660137902.31863,1457266.7200643,18
1660137902.31863,1457266.7200696,20
1660137902.31863,1457266.7200747,27
1660137902.31863,1457266.7200818,32
1660137902.31863,1457266.7200874,32
1660137902.31863,1457266.7200938,39
1660137902.31863,1457266.7200984,62
1660137902.31863,1457266.720103,83
1660137902.31863,1457266.7201095,64
1660137902.31863,1457266.7201141,37
1660137902.31863,1457266.7201202,39
1660137902.31863,1457266.7201247,46
1660137902.31863,1457266.7201294,41
1660137902.31863,1457266.720137,39
1660137902.3296,1457266.7201424,41
1660137902.3296,1457266.7201488,44
1660137902.3296,1457266.7201537,44
1660137902.3296,1457266.7201599,51
1660137902.3296,1457266.7201645,53
1660137902.3296,1457266.7201706,27
1660137902.3296,1457266.7201754,104
1660137902.3296,1457267.2553061,691
1660137902.3296,1457267.2553184,1495
1660137902.3296,1457267.2553213,897
1660137902.3296,1457267.2553241,-879
1660137902.3296,1457267.2553266,-1328
1660137902.3296,1457267.2553289,-482
1660137902.3296,1457267.2553313,-88
1660137902.3296,1457267.2553339,-74
1660137902.3296,1457267.2553361,76
1660137902.3296,1457267.2553383,129
1660137902.3296,1457267.2553405,62
1660137902.3296,1457267.2553428,67
1660137902.3296,1457267.2553449,88
1660137902.3296,1457267.2553472,81
1660137902.3296,1457267.2553494,97
1660137902.3296,1457267.2553519,115
1660137902.3296,1457267.2553571,113
1660137902.8512,1457267.255369,99
1660137902.8512,1457267.2553731,88
1660137902.8512,1457267.2553753,97
1660137902.8512,1457267.2553773,115
1660137902.8512,1457267.2553793,127
1660137902.8512,1457267.2553812,139
1660137902.8512,1457267.2553831,148
1660137902.8512,1457267.255389,153
1660137902.8512,1457267.2553996,166
1660137902.8512,1457267.255405,187
1660137902.8512,1457267.2554073,201
1660137902.8512,1457267.2554094,220
1660137902.8512,1457267.2554115,241
1660137902.8512,1457267.2554135,252
1660137902.8512,1457267.2554211,269
1660137902.8512,1457267.2554303,285
1660137902.8512,1457267.2554366,294
1660137902.8512,1457267.2554514,292
1660137902.8512,1457267.2554565,280
1660137902.8512,1457267.2554619,264
1660137902.8512,1457267.2554664,234
1660137902.8512,1457267.2554699,185
1660137902.8512,1457267.2554733,132
1660137902.8512,1457267.2554767,83
1660137902.8512,1457267.2554816,46
1660137902.8512,1457267.2554849,11
1660137902.8512,1457267.2554884,-16
1660137902.8512,1457267.2554931,-23
1660137902.8512,1457267.2554964,-18
1660137902.8512,1457267.2554997,-11
1660137902.8512,1457267.255503,-4
1660137902.8512,1457267.2555063,-2
1660137902.8512,1457267.2555097,2
1660137902.8512,1457267.2555131,11
1660137902.8512,1457267.2555164,23
1660137902.8512,1457267.2555198,30
1660137902.8512,1457267.2555232,37
1660137902.8512,1457267.2555266,41
1660137902.8512,1457267.2555301,41
1660137902.8512,1457267.2555334,44
1660137902.8512,1457267.255537,51
1660137902.8512,1457267.2555414,55
1660137902.8512,1457267.2555447,53
1660137902.8512,1457267.2555481,51
1660137902.8512,1457267.2555531,55
1660137902.8512,1457267.2555564,55
1660137902.8512,1457267.2555598,53
1660137902.8512,1457267.2555631,55
1660137902.8512,1457267.2555663,57
1660137902.8512,1457267.2555706,53
1660137902.86378,1457267.255574,41
1660137902.86378,1457267.2555797,39
1660137902.86378,1457267.255584,44
1660137902.86378,1457267.2555874,48
1660137902.86378,1457267.2555935,53
1660137902.86378,1457267.2555974,55
1660137902.86378,1457267.7941017,51
1660137902.86378,1457267.7941159,46
1660137902.86378,1457267.794119,41
1660137902.86378,1457267.7941218,44
1660137902.86378,1457267.7941245,48
1660137902.86378,1457267.7941272,48
1660137902.86378,1457267.7941302,51
1660137902.86378,1457267.7941821,46
1660137902.86378,1457267.7941892,27
1660137902.86378,1457267.7941938,18
1660137902.86378,1457267.7941991,23
1660137902.86378,1457267.7942082,18
1660137902.86378,1457267.7942123,9
1660137902.86378,1457267.7942189,2
1660137902.86378,1457267.794226,-13
1660137902.86378,1457267.7942329,-25
1660137902.86378,1457267.7942424,-11
1660137902.86378,1457267.7942528,0
1660137903.4928,1457267.7942619,6
1660137903.4928,1457267.7942672,37
1660137903.4928,1457267.7942764,60
1660137903.4928,1457267.7942847,37
1660137903.4928,1457267.7942917,25
1660137903.4928,1457267.7943006,37
1660137903.4928,1457267.7943099,39
1660137903.4928,1457267.7943238,30
1660137903.4928,1457267.7943376,20
1660137903.4928,1457267.7943459,16
1660137903.4928,1457267.7943485,16
1660137903.4928,1457267.7943505,13
1660137903.4928,1457267.7943526,18
1660137903.4928,1457267.7943547,4
1660137903.4928,1457267.7943568,-30
1660137903.4928,1457267.7943588,164
1660137903.4928,1457267.7943612,964
1660137903.4928,1457267.7943634,1577
1660137903.4928,1457267.7943653,500
1660137903.4928,1457267.7943674,-1129
1660137903.4928,1457267.7943695,-1124
1660137903.4928,1457267.7943715,-301
1660137903.4928,1457267.7943735,-85
1660137903.4928,1457267.7943755,-57
1660137903.4928,1457267.7943776,99
1660137903.4928,1457267.7943797,118
1660137903.4928,1457267.7943817,74
1660137903.4928,1457267.7943838,113
1660137903.4928,1457267.7943857,134
1660137903.4928,1457267.7943878,115
1660137903.4928,1457267.7943905,127
1660137903.4928,1457267.7943926,148
1660137903.4928,1457267.7943954,150
1660137903.4928,1457267.7943974,155
1660137903.4928,1457267.7943995,164
1660137903.4928,1457267.7944016,164
1660137903.4928,1457267.7944036,173
1660137903.4928,1457267.7944056,190
1660137903.4928,1457267.7944076,201
1660137903.4928,1457267.7944149,206
1660137903.4928,1457267.7944237,208
1660137903.4928,1457267.7944296,215
1660137903.4928,1457267.7944337,234
1660137903.4928,1457267.7944389,252
1660137903.4928,1457267.7944426,273
1660137903.4928,1457267.7944465,294
1660137903.4928,1457267.7944505,313
1660137903.4928,1457267.7944589,320
1660137903.4928,1457267.7944673,324
1660137903.4928,1457267.794473,322
1660137903.51174,1457267.7944811,315
1660137903.51174,1457267.7944889,310
1660137903.51174,1457267.7944945,289
1660137903.51174,1457267.7945007,241
1660137903.51174,1457267.7945045,176
1660137903.51174,1457268.4260429,120
1660137903.51174,1457268.426065,69
1660137903.51174,1457268.4260754,30
1660137903.51174,1457268.4260842,2
1660137903.51174,1457268.4260932,-32
1660137903.51174,1457268.4260977,-64
1660137903.51174,1457268.4261049,-64
1660137903.51174,1457268.426112,-46
1660137903.51174,1457268.4261205,-37
1660137903.51174,1457268.4261294,-32
1660137903.51174,1457268.4261403,-27
1660137903.51174,1457268.4261485,-23
1660137903.51174,1457268.4261587,-13
1660137903.51174,1457268.4261694,0
1660137903.51174,1457268.4261767,9
1660137903.51174,1457268.4261881,13
1660137903.51174,1457268.4261987,6
1660137903.51174,1457268.426208,-13
1660137903.51174,1457268.4262182,-25
1660137904.01974,1457268.4262285,-13
1660137904.01974,1457268.4262354,-2
1660137904.01974,1457268.4262454,-2
1660137904.01974,1457268.4262533,-2
1660137904.01974,1457268.4262583,0
1660137904.01974,1457268.4262691,-2
1660137904.01974,1457268.4262776,2
1660137904.01974,1457268.4262866,11
1660137904.01974,1457268.4262916,16
1660137904.01974,1457268.4263025,16
1660137904.01974,1457268.4263077,18
1660137904.01974,1457268.4263096,23
1660137904.01974,1457268.4263118,25
1660137904.01974,1457268.4263138,34
1660137904.01974,1457268.4263173,41
1660137904.01974,1457268.4263305,39
1660137904.01974,1457268.4263365,41
1660137904.01974,1457268.4263388,48
1660137904.01974,1457268.4263409,51
1660137904.01974,1457268.4263429,55
1660137904.01974,1457268.4263458,62
1660137904.01974,1457268.4263539,64
1660137904.01974,1457268.4263636,67
1660137904.01974,1457268.4263725,67
1660137904.01974,1457268.4263836,67
1660137904.01974,1457268.4263985,69
1660137904.01974,1457268.4264096,62
1660137904.01974,1457268.4264174,48
1660137904.01974,1457268.4264281,41
1660137904.01974,1457268.4264384,46
1660137904.01974,1457268.4264469,46
1660137904.01974,1457268.4264591,48
1660137904.01974,1457268.4264676,64
1660137904.01974,1457268.4264769,95
1660137904.01974,1457268.4264876,111
1660137904.01974,1457268.4264953,92
1660137904.01974,1457268.4265061,76
1660137904.01974,1457268.4265166,83
1660137904.01974,1457268.4265258,85
1660137904.01974,1457268.4265319,83
1660137904.01974,1457268.4265413,83
1660137904.01974,1457268.4265501,76
1660137904.01974,1457268.4265618,62
1660137904.01974,1457268.4265747,62
1660137904.01974,1457268.4265889,67
1660137904.01974,1457268.4266236,41
1660137904.01974,1457268.4266398,-4
1660137904.01974,1457268.4266487,148
1660137904.01974,1457268.4266625,906
1660137904.01974,1457268.4266686,1609
1660137904.0327,1457268.4266751,686
1660137904.0327,1457268.4266797,-997
1660137904.0327,1457268.4266828,-1145
1660137904.0327,1457268.4266857,-331
1660137904.0327,1457268.9635412,-69
1660137904.0327,1457268.9635616,-46
1660137904.0327,1457268.9635741,102
1660137904.0327,1457268.963586,125
1660137904.0327,1457268.9635954,78
1660137904.0327,1457268.9636032,115
1660137904.0327,1457268.9636112,143
1660137904.0327,1457268.9636152,125
1660137904.0327,1457268.9636231,127
1660137904.0327,1457268.9636323,141
1660137904.0327,1457268.9636395,143
1660137904.0327,1457268.9636475,153
1660137904.0327,1457268.9636522,166
1660137904.0327,1457268.9636608,171
1660137904.0327,1457268.963668,157
1660137904.0327,1457268.9636767,150
1660137904.0327,1457268.9636833,166
1660137904.0327,1457268.9636887,187
1660137904.0327,1457268.963692,199
1660137904.0327,1457268.9636959,215
1660137904.56151,1457268.9637036,218
1660137904.56151,1457268.9637084,211
1660137904.56151,1457268.9637118,227
1660137904.56151,1457268.9637149,259
1660137904.56151,1457268.963718,280
1660137904.56151,1457268.9637211,296
1660137904.56151,1457268.963724,310
1660137904.56151,1457268.9637269,310
1660137904.56151,1457268.9637301,308
1660137904.56151,1457268.963733,308
1660137904.56151,1457268.963736,289
1660137904.56151,1457268.9637393,245
1660137904.56151,1457268.963743,183
1660137904.56151,1457268.9637463,115
1660137904.56151,1457268.9637493,60
1660137904.56151,1457268.9637525,23
1660137904.56151,1457268.963756,-2
1660137904.56151,1457268.9637592,-16
1660137904.56151,1457268.9637626,-25
1660137904.56151,1457268.9637677,-34
1660137904.56151,1457268.963772,-37
1660137904.56151,1457268.963779,-25
1660137904.56151,1457268.963782,-9
1660137904.56151,1457268.963785,2
1660137904.56151,1457268.9637879,9
1660137904.56151,1457268.9637908,13
1660137904.56151,1457268.9637937,13
1660137904.56151,1457268.9637967,25
1660137904.56151,1457268.9637996,39
1660137904.56151,1457268.9638026,46
1660137904.56151,1457268.9638054,46
1660137904.56151,1457268.9638082,48
1660137904.56151,1457268.9638115,46
1660137904.56151,1457268.9638213,34
1660137904.56151,1457268.9638243,30
1660137904.56151,1457268.9638265,44
1660137904.56151,1457268.9638286,51
1660137904.56151,1457268.9638361,44
1660137904.56151,1457268.9638475,39
1660137904.56151,1457268.9638525,39
1660137904.56151,1457268.9638547,48
1660137904.56151,1457268.9638567,60
1660137904.56151,1457268.9638588,62
1660137904.56151,1457268.9638608,60
1660137904.56151,1457268.9638641,55
1660137904.56151,1457268.9638737,53
1660137904.56151,1457268.9638847,60
1660137904.56151,1457268.9638904,71
1660137904.56151,1457268.9639003,76
1660137904.56151,1457268.9639122,74
1660137904.57518,1457268.9639183,74
1660137904.57518,1457268.9639207,78
1660137904.57518,1457268.9639228,78
1660137904.57518,1457269.4979218,74
1660137904.57518,1457269.4979369,76
1660137904.57518,1457269.4979416,85
1660137904.57518,1457269.4979485,85
1660137904.57518,1457269.4979542,76
1660137904.57518,1457269.4979607,67
1660137904.57518,1457269.4979642,74
1660137904.57518,1457269.4979678,81
1660137904.57518,1457269.4979728,67
1660137904.57518,1457269.4979774,55
1660137904.57518,1457269.4979823,67
1660137904.57518,1457269.4979869,83
1660137904.57518,1457269.4979913,104
1660137904.57518,1457269.4979961,115
1660137904.57518,1457269.4979996,95
1660137904.57518,1457269.4980031,83
1660137904.57518,1457269.4980067,92
1660137904.57518,1457269.4980103,74
1660137904.57518,1457269.498015,53
1660137904.57518,1457269.4980185,62
1660137904.57518,1457269.4980233,74
1660137905.14586,1457269.4980281,69
1660137905.14586,1457269.4980315,69
1660137905.14586,1457269.4980349,62
1660137905.14586,1457269.4980384,27
1660137905.14586,1457269.4980417,25
1660137905.14586,1457269.4980452,322
1660137905.14586,1457269.4980486,1143
1660137905.14586,1457269.4980519,1393
1660137905.14586,1457269.4980553,-64
1660137905.14586,1457269.4980587,-1449
1660137905.14586,1457269.4980622,-1043
1660137905.14586,1457269.4980669,-245
1660137905.14586,1457269.4980705,-113
1660137905.14586,1457269.4980741,-32
1660137905.14586,1457269.4980776,122
1660137905.14586,1457269.498081,109
1660137905.14586,1457269.4980846,81
1660137905.14586,1457269.4980881,129
1660137905.14586,1457269.4980916,143
1660137905.14586,1457269.4980951,129
1660137905.14586,1457269.4980986,153
1660137905.14586,1457269.498102,171
1660137905.14586,1457269.4981055,162
1660137905.14586,1457269.4981107,164
1660137905.14586,1457269.4981141,166
1660137905.14586,1457269.4981175,155
1660137905.14586,1457269.4981223,166
1660137905.14586,1457269.4981257,190
1660137905.14586,1457269.4981292,199
1660137905.14586,1457269.4981326,215
1660137905.14586,1457269.4981361,236
1660137905.14586,1457269.4981396,252
1660137905.14586,1457269.4981444,266
1660137905.14586,1457269.4981478,282
1660137905.14586,1457269.4981514,306
1660137905.14586,1457269.4981565,329
1660137905.14586,1457269.498161,345
1660137905.14586,1457269.4981645,364
1660137905.14586,1457269.4981678,373
1660137905.14586,1457269.4981727,380
1660137905.14586,1457269.498178,378
1660137905.14586,1457269.4981817,347
1660137905.14586,1457269.4981852,301
1660137905.14586,1457269.4981887,243
1660137905.14586,1457269.4981934,183
1660137905.14586,1457269.4981969,118
1660137905.14586,1457269.4982017,62
1660137905.14586,1457269.4982063,18
1660137905.14586,1457269.4982097,-11
1660137905.14586,1457269.4982131,-18
1660137905.15683,1457269.4982167,-25
1660137905.15683,1457269.4982216,-30
1660137905.15683,1457270.0829781,-20
1660137905.15683,1457270.0829977,-18
1660137905.15683,1457270.0830048,-13
1660137905.15683,1457270.083009,2
1660137905.15683,1457270.0830138,11
1660137905.15683,1457270.0830169,23
1660137905.15683,1457270.08302,37
1660137905.15683,1457270.083023,25
1660137905.15683,1457270.0830264,2
1660137905.15683,1457270.0830294,6
1660137905.15683,1457270.0830323,25
1660137905.15683,1457270.0830353,30
1660137905.15683,1457270.0830382,30
1660137905.15683,1457270.0830412,25
1660137905.15683,1457270.0830445,2
1660137905.15683,1457270.083049,-11
1660137905.15683,1457270.0830526,0
1660137905.15683,1457270.0830559,9
1660137905.15683,1457270.0830593,6
1660137905.15683,1457270.0830627,11
1660137905.15683,1457270.083068,11
1660137905.15683,1457270.0830739,4
1660137905.68301,1457270.0830834,9
1660137905.68301,1457270.0830858,16
1660137905.68301,1457270.0830879,6
1660137905.68301,1457270.0830899,11
1660137905.68301,1457270.0830918,25
1660137905.68301,1457270.0830937,16
1660137905.68301,1457270.0830957,16
1660137905.68301,1457270.0830976,39
1660137905.68301,1457270.0830995,48
1660137905.68301,1457270.0831014,46
1660137905.68301,1457270.0831037,46
1660137905.68301,1457270.0831108,46
1660137905.68301,1457270.0831217,51
1660137905.68301,1457270.0831271,64
1660137905.68301,1457270.0831311,69
1660137905.68301,1457270.0831331,51
1660137905.68301,1457270.0831402,37
1660137905.68301,1457270.0831511,32
1660137905.68301,1457270.0831559,32
1660137905.68301,1457270.0831581,41
1660137905.68301,1457270.08316,44
1660137905.68301,1457270.0831623,41
1660137905.68301,1457270.0831645,67
1660137905.68301,1457270.0831665,90
1660137905.68301,1457270.0831687,69
1660137905.68301,1457270.0831708,55
1660137905.68301,1457270.0831729,69
1660137905.68301,1457270.0831751,69
1660137905.68301,1457270.0831772,64
1660137905.68301,1457270.0831793,69
1660137905.68301,1457270.0831815,69
1660137905.68301,1457270.0831836,71
1660137905.68301,1457270.0831857,71
1660137905.68301,1457270.0831877,64
1660137905.68301,1457270.0831905,74
1660137905.68301,1457270.0832007,109
1660137905.68301,1457270.0832092,301
1660137905.68301,1457270.0832117,937
1660137905.68301,1457270.0832138,1340
1660137905.68301,1457270.0832163,104
1660137905.68301,1457270.083226,-1572
1660137905.68301,1457270.0832352,-1370
1660137905.68301,1457270.0832378,-357
1660137905.68301,1457270.0832399,-113
1660137905.68301,1457270.0832421,-48
1660137905.68301,1457270.0832446,166
1660137905.68301,1457270.0832541,185
1660137905.68301,1457270.0832636,134
1660137905.68301,1457270.0832663,183
1660137905.68301,1457270.0832684,201
1660137905.70295,1457270.0832704,173
1660137905.70295,1457270.6197002,180
1660137905.70295,1457270.6197126,199
1660137905.70295,1457270.6197154,199
1660137905.70295,1457270.6197177,201
1660137905.70295,1457270.6197198,211
1660137905.70295,1457270.6197218,211
1660137905.70295,1457270.6197238,213
1660137905.70295,1457270.6197259,224
1660137905.70295,1457270.6197278,236
1660137905.70295,1457270.6197299,245
1660137905.70295,1457270.619732,248
1660137905.70295,1457270.619734,236
1660137905.70295,1457270.6197361,236
1660137905.70295,1457270.6197381,250
1660137905.70295,1457270.6197401,264
1660137905.70295,1457270.6197422,282
1660137905.70295,1457270.6197445,301
1660137905.70295,1457270.6197465,296
1660137905.70295,1457270.6197486,282
1660137905.70295,1457270.6197506,282
1660137905.70295,1457270.6197527,287
1660137905.70295,1457270.6197547,271
1660137905.70295,1457270.6197567,241
1660137906.2222,1457270.6197587,192
1660137906.2222,1457270.6197607,122
1660137906.2222,1457270.6197625,62
1660137906.2222,1457270.6197644,20
1660137906.2222,1457270.6197665,-13
1660137906.2222,1457270.6197685,-39
1660137906.2222,1457270.6197703,-55
1660137906.2222,1457270.6197722,-71
1660137906.2222,1457270.6197741,-88
1660137906.2222,1457270.619776,-81
1660137906.2222,1457270.6197778,-67
1660137906.2222,1457270.6197797,-55
1660137906.2222,1457270.6197818,-48
1660137906.2222,1457270.6197887,-39
1660137906.2222,1457270.6198022,-32
1660137906.2222,1457270.6198126,-20
1660137906.2222,1457270.6198209,-9
1660137906.2222,1457270.6198261,-2
1660137906.2222,1457270.6198301,6
1660137906.2222,1457270.6198355,11
1660137906.2222,1457270.6198417,11
1660137906.2222,1457270.6198455,9
1660137906.2222,1457270.6198492,6
1660137906.2222,1457270.6198541,6
1660137906.2222,1457270.6198577,9
1660137906.2222,1457270.6198608,6
1660137906.2222,1457270.619864,4
1660137906.2222,1457270.6198757,9
1660137906.2222,1457270.6198837,16
1660137906.2222,1457270.6198908,20
1660137906.2222,1457270.6198948,23
1660137906.2222,1457270.619899,23
1660137906.2222,1457270.6199063,20
1660137906.2222,1457270.6199152,23
1660137906.2222,1457270.6199223,30
1660137906.2222,1457270.6199246,34
1660137906.2222,1457270.6199267,39
1660137906.2222,1457270.6199289,41
1660137906.2222,1457270.6199312,39
1660137906.2222,1457270.6199332,41
1660137906.2222,1457270.6199353,48
1660137906.2222,1457270.6199373,55
1660137906.2222,1457270.6199393,57
1660137906.2222,1457270.6199414,57
1660137906.2222,1457270.6199435,62
1660137906.2222,1457270.6199455,60
1660137906.2222,1457270.6199476,51
1660137906.2222,1457270.6199497,46
1660137906.2222,1457270.6199517,51
1660137906.2222,1457270.6199538,57
1660137906.23778,1457271.157484,60
1660137906.23778,1457271.157501,57
1660137906.23778,1457271.1575066,55
1660137906.23778,1457271.1575106,76
1660137906.23778,1457271.1575129,97
1660137906.23778,1457271.157515,69
1660137906.23778,1457271.157517,46
1660137906.23778,1457271.157519,51
1660137906.23778,1457271.1575211,34
1660137906.23778,1457271.1575231,23
1660137906.23778,1457271.1575252,39
1660137906.23778,1457271.157527,41
1660137906.23778,1457271.157529,37
1660137906.23778,1457271.1575308,37
1660137906.23778,1457271.1575327,23
1660137906.23778,1457271.1575353,6
1660137906.23778,1457271.1575436,-4
1660137906.23778,1457271.1575501,129
1660137906.23778,1457271.1575568,804
1660137906.23778,1457271.1575647,1521
1660137906.23778,1457271.1575694,691
1660137906.23778,1457271.1575739,-1029
1660137906.23778,1457271.1575784,-1250
1660137906.23778,1457271.1575858,-417
1660137906.84723,1457271.1575923,-132
1660137906.84723,1457271.1575973,-118
1660137906.84723,1457271.1576017,37
1660137906.84723,1457271.1576048,67
1660137906.84723,1457271.1576076,16
1660137906.84723,1457271.1576104,51
1660137906.84723,1457271.1576164,81
1660137906.84723,1457271.1576259,74
1660137906.84723,1457271.1576368,83
1660137906.84723,1457271.1576464,102
1660137906.84723,1457271.1576614,102
1660137906.84723,1457271.1576697,104
1660137906.84723,1457271.1576723,111
1660137906.84723,1457271.1576795,113
1660137906.84723,1457271.1576902,122
1660137906.84723,1457271.1577005,139
1660137906.84723,1457271.1577114,146
1660137906.84723,1457271.1577244,155
1660137906.84723,1457271.1577378,169
1660137906.84723,1457271.1577467,185
1660137906.84723,1457271.1577494,206
1660137906.84723,1457271.1577516,222
1660137906.84723,1457271.1577537,234
1660137906.84723,1457271.1577557,248
1660137906.84723,1457271.1577578,271
1660137906.84723,1457271.1577599,292
1660137906.84723,1457271.1577619,301
1660137906.84723,1457271.1577639,303
1660137906.84723,1457271.1577661,299
1660137906.84723,1457271.1577684,289
1660137906.84723,1457271.1577705,271
1660137906.84723,1457271.1577726,234
1660137906.84723,1457271.1577746,183
1660137906.84723,1457271.1577768,125
1660137906.84723,1457271.1577788,71
1660137906.84723,1457271.1577809,30
1660137906.84723,1457271.157783,6
1660137906.84723,1457271.157785,-4
1660137906.84723,1457271.1577871,-13
1660137906.84723,1457271.1577891,-16
1660137906.84723,1457271.1577917,-11
1660137906.84723,1457271.1577937,-9
1660137906.84723,1457271.1577957,-2
1660137906.84723,1457271.1577978,6
1660137906.84723,1457271.1577998,9
1660137906.84723,1457271.1578019,4
1660137906.84723,1457271.157804,13
1660137906.84723,1457271.1578061,18
1660137906.84723,1457271.1578081,18
1660137906.84723,1457271.790007,27
1660137906.8592,1457271.7900316,41
1660137906.8592,1457271.7900354,44
1660137906.8592,1457271.7900386,41
1660137906.8592,1457271.790042,27
1660137906.8592,1457271.7900453,9
1660137906.8592,1457271.7900484,13
1660137906.8592,1457271.7900512,25
1660137906.8592,1457271.7900542,25
1660137906.8592,1457271.790059,23
1660137906.8592,1457271.790064,23
1660137906.8592,1457271.790067,20
1660137906.8592,1457271.7900704,23
1660137906.8592,1457271.7900764,30
1660137906.8592,1457271.7900795,37
1660137906.8592,1457271.7900823,30
1660137906.8592,1457271.7900854,13
1660137906.8592,1457271.7900907,-6
1660137906.8592,1457271.7900941,-13
1660137906.8592,1457271.7900969,-2
1660137906.8592,1457271.7900998,9
1660137906.8592,1457271.7901025,11
1660137906.8592,1457271.7901054,16
1660137906.8592,1457271.7901082,18
1660137906.8592,1457271.7901121,20
1660137907.40135,1457271.7901171,27
1660137907.40135,1457271.7901201,32
1660137907.40135,1457271.7901231,20
1660137907.40135,1457271.7901263,6
1660137907.40135,1457271.7901293,6
1660137907.40135,1457271.7901322,11
1660137907.40135,1457271.7901351,16
1660137907.40135,1457271.790138,30
1660137907.40135,1457271.790141,41
1660137907.40135,1457271.7901438,64
1660137907.40135,1457271.7901465,90
1660137907.40135,1457271.7901498,76
1660137907.40135,1457271.7901527,51
1660137907.40135,1457271.7901561,62
1660137907.40135,1457271.7901589,71
1660137907.40135,1457271.7901617,60
1660137907.40135,1457271.7901646,60
1660137907.40135,1457271.7901678,67
1660137907.40135,1457271.7901708,67
1660137907.40135,1457271.790174,74
1660137907.40135,1457271.790177,83
1660137907.40135,1457271.7901802,76
1660137907.40135,1457271.790183,37
1660137907.40135,1457271.7901859,92
1660137907.40135,1457271.7901888,649
1660137907.40135,1457271.7901917,1549
1660137907.40135,1457271.7901952,1210
1660137907.40135,1457271.7901982,-538
1660137907.40135,1457271.7902011,-1287
1660137907.40135,1457271.7902043,-570
1660137907.40135,1457271.7902071,-88
1660137907.40135,1457271.7902104,-64
1660137907.40135,1457271.7902132,57
1660137907.40135,1457271.7902164,141
1660137907.40135,1457271.7902193,81
1660137907.40135,1457271.7902226,81
1660137907.40135,1457271.7902255,122
1660137907.40135,1457271.7902286,115
1660137907.40135,1457271.7902322,111
1660137907.40135,1457271.7902354,129
1660137907.40135,1457271.7902382,134
1660137907.40135,1457271.7902409,139
1660137907.40135,1457271.7902438,150
1660137907.40135,1457271.7902469,157
1660137907.40135,1457271.7902497,162
1660137907.40135,1457271.7902526,173
1660137907.40135,1457271.7902556,187
1660137907.40135,1457271.7902602,199
1660137907.40135,1457272.3273218,213
1660137907.40135,1457272.3273419,224
1660137907.4193,1457272.3273505,234
1660137907.4193,1457272.3273584,252
1660137907.4193,1457272.3273636,276
1660137907.4193,1457272.327369,299
1660137907.4193,1457272.3273736,322
1660137907.4193,1457272.3273799,340
1660137907.4193,1457272.3273845,343
1660137907.4193,1457272.3273907,333
1660137907.4193,1457272.3273968,329
1660137907.4193,1457272.327403,329
1660137907.4193,1457272.3274089,308
1660137907.4193,1457272.3274144,255
1660137907.4193,1457272.3274208,171
1660137907.4193,1457272.3274246,90
1660137907.4193,1457272.3274294,41
1660137907.4193,1457272.327434,6
1660137907.4193,1457272.3274381,-30
1660137907.4193,1457272.3274443,-62
1660137907.4193,1457272.3274499,-90
1660137907.4193,1457272.327456,-109
1660137907.4193,1457272.3274601,-97
1660137907.4193,1457272.3274663,-78
1660137907.4193,1457272.3274706,-67
1660137907.4193,1457272.327477,-57
1660137907.92672,1457272.3274824,-48
1660137907.92672,1457272.3274858,-44
1660137907.92672,1457272.3274892,-32
1660137907.92672,1457272.3274938,-16
1660137907.92672,1457272.3274982,-4
1660137907.92672,1457272.3275014,4
1660137907.92672,1457272.3275046,9
1660137907.92672,1457272.3275079,6
1660137907.92672,1457272.3275115,11
1660137907.92672,1457272.3275171,20
1660137907.92672,1457272.3275211,25
1660137907.92672,1457272.3275292,30
1660137907.92672,1457272.3275332,32
1660137907.92672,1457272.3275389,30
1660137907.92672,1457272.3275433,27
1660137907.92672,1457272.3275491,34
1660137907.92672,1457272.3275568,41
1660137907.92672,1457272.327564,46
1660137907.92672,1457272.3275694,48
1660137907.92672,1457272.3275733,46
1660137907.92672,1457272.3275767,46
1660137907.92672,1457272.3275799,55
1660137907.92672,1457272.3275831,60
1660137907.92672,1457272.3275882,62
1660137907.92672,1457272.3275938,62
1660137907.92672,1457272.3275976,55
1660137907.92672,1457272.3276113,51
1660137907.92672,1457272.3276321,57
1660137907.92672,1457272.3276455,64
1660137907.92672,1457272.3276593,67
1660137907.92672,1457272.3276729,71
1660137907.92672,1457272.3276817,74
1660137907.92672,1457272.3276895,67
1660137907.92672,1457272.327697,55
1660137907.92672,1457272.3277064,55
1660137907.92672,1457272.3277111,64
1660137907.92672,1457272.3277169,69
1660137907.92672,1457272.3277206,71
1660137907.92672,1457272.3277244,81
1660137907.92672,1457272.3277298,99
1660137907.92672,1457272.3277332,132
1660137907.92672,1457272.3277398,139
1660137907.92672,1457272.3277458,111
1660137907.92672,1457272.3277497,102
1660137907.92672,1457272.3277545,104
1660137907.92672,1457272.3277582,97
1660137907.92672,1457272.3277629,99
1660137907.92672,1457272.8623536,104
1660137907.92672,1457272.8623663,92
1660137907.92672,1457272.862371,76
1660137907.93869,1457272.8623736,78
1660137907.93869,1457272.862376,78
1660137907.93869,1457272.8623784,44
1660137907.93869,1457272.8623807,62
1660137907.93869,1457272.862383,528
1660137907.93869,1457272.8623853,1463
1660137907.93869,1457272.8623876,1391
1660137907.93869,1457272.8623898,-282
1660137907.93869,1457272.8623921,-1298
1660137907.93869,1457272.8623944,-693
1660137907.93869,1457272.8623966,-111
1660137907.93869,1457272.8624,-76
1660137907.93869,1457272.8624086,23
1660137907.93869,1457272.8624197,125
1660137907.93869,1457272.8624241,60
1660137907.93869,1457272.8624263,44
1660137907.93869,1457272.8624291,92
1660137907.93869,1457272.8624313,92
1660137907.93869,1457272.8624334,85
1660137907.93869,1457272.8624367,106
1660137907.93869,1457272.8624497,102
1660137907.93869,1457272.8624557,83
1660137907.93869,1457272.862458,90
1660137907.93869,1457272.8624601,109
1660137908.56079,1457272.8624622,118
1660137908.56079,1457272.8624641,132

1660137908.56079,1457272.8624661,141
1660137908.56079,1457272.8624723,148
1660137908.56079,1457272.862482,164
1660137908.56079,1457272.8624889,183
1660137908.56079,1457272.8625022,199
1660137908.56079,1457272.8625136,224
1660137908.56079,1457272.8625217,250
1660137908.56079,1457272.8625418,266
1660137908.56079,1457272.8625468,285
1660137908.56079,1457272.8625504,310
1660137908.56079,1457272.862554,329
1660137908.56079,1457272.8625576,340
1660137908.56079,1457272.8625611,340
1660137908.56079,1457272.8625646,322
1660137908.56079,1457272.8625682,292
1660137908.56079,1457272.8625718,252
1660137908.56079,1457272.8625754,192
1660137908.56079,1457272.862579,127
1660137908.56079,1457272.8625826,78
1660137908.56079,1457272.8625861,34
1660137908.56079,1457272.8625897,-4
1660137908.56079,1457272.8625934,-25
1660137908.56079,1457272.8625969,-32
1660137908.56079,1457272.8626005,-32
1660137908.56079,1457272.862604,-27
1660137908.56079,1457272.8626076,-16
1660137908.56079,1457272.8626111,-11
1660137908.56079,1457272.8626146,-6
1660137908.56079,1457272.8626203,4
1660137908.56079,1457272.862626,18
1660137908.56079,1457272.8626295,27
1660137908.56079,1457272.8626339,34
1660137908.56079,1457272.8626374,39
1660137908.56079,1457272.8626409,44
1660137908.56079,1457272.8626449,51
1660137908.56079,1457272.8626487,55
1660137908.56079,1457272.8626539,60
1660137908.56079,1457272.8626573,55
1660137908.56079,1457272.8626608,39
1660137908.56079,1457272.8626644,32
1660137908.56079,1457272.8626679,34
1660137908.56079,1457272.8626716,39
1660137908.56079,1457272.8626751,44
1660137908.56079,1457272.8626786,46
1660137908.56079,1457273.4973017,44
1660137908.56079,1457273.497329,39
1660137908.56079,1457273.4973377,39
1660137908.56079,1457273.4973405,46
1660137908.5736,1457273.4973426,53
1660137908.5736,1457273.4973446,57
1660137908.5736,1457273.4973469,53
1660137908.5736,1457273.4973502,41
1660137908.5736,1457273.4973638,30
1660137908.5736,1457273.4973777,30
1660137908.5736,1457273.4973916,39
1660137908.5736,1457273.497405,46
1660137908.5736,1457273.4974182,48
1660137908.5736,1457273.4974314,34
1660137908.5736,1457273.4974449,18
1660137908.5736,1457273.4974581,18
1660137908.5736,1457273.4974715,25
1660137908.5736,1457273.4974846,20
1660137908.5736,1457273.4974983,16
1660137908.5736,1457273.4975115,25
1660137908.5736,1457273.497525,30
1660137908.5736,1457273.4975382,27
1660137908.5736,1457273.4975514,39
1660137908.5736,1457273.4975647,69
1660137908.5736,1457273.4975798,104
1660137908.5736,1457273.4975889,102
1660137908.5736,1457273.4975931,69
1660137908.5736,1457273.4975984,71
1660137909.03802,1457273.4976018,88
1660137909.03802,1457273.4976049,83
1660137909.03802,1457273.4976082,78
1660137909.03802,1457273.4976129,81
1660137909.03802,1457273.4976163,78
1660137909.03802,1457273.4976195,71
1660137909.03802,1457273.4976226,78
1660137909.03802,1457273.4976259,83
1660137909.03802,1457273.4976292,60
1660137909.03802,1457273.4976343,92
1660137909.03802,1457273.497638,563
1660137909.03802,1457273.4976417,1451
1660137909.03802,1457273.4976454,1226
1660137909.03802,1457273.4976517,-526
1660137909.03802,1457273.4976556,-1393
1660137909.03802,1457273.4976585,-656
1660137909.03802,1457273.4976617,-78
1660137909.03802,1457273.4976652,-39
1660137909.03802,1457273.4976691,85
1660137909.03802,1457273.4976742,185
1660137909.03802,1457273.497678,134
1660137909.03802,1457273.4976834,132
1660137909.03802,1457273.4976894,173
1660137909.03802,1457273.4976936,166
1660137909.03802,1457273.4976969,150
1660137909.03802,1457273.4977004,166
1660137909.03802,1457273.4977038,180
1660137909.03802,1457273.4977073,176
1660137909.03802,1457273.4977825,176
1660137909.03802,1457273.4977896,194
1660137909.03802,1457273.4977935,206
1660137909.03802,1457273.4977971,201
1660137909.03802,1457273.497801,197
1660137909.03802,1457273.4978047,211
1660137909.03802,1457273.4978083,231
1660137909.03802,1457273.497812,248
1660137909.03802,1457273.4978158,259
1660137909.03802,1457273.4978194,266
1660137909.03802,1457273.4978231,289
1660137909.03802,1457273.497827,327
1660137909.03802,1457273.4978334,340
1660137909.03802,1457273.4978372,352
1660137909.03802,1457273.4978424,375
1660137909.03802,1457273.4978462,385
1660137909.03802,1457273.4978498,375
1660137909.03802,1457273.983102,366
1660137909.03802,1457273.9831221,338
1660137909.03802,1457273.9831302,287
1660137909.03802,1457273.9831342,220
1660137909.03802,1457273.983138,143
1660137909.049,1457273.9831446,78
1660137909.049,1457273.983154,41
1660137909.049,1457273.9831594,9
1660137909.049,1457273.9831617,-16
1660137909.049,1457273.9831639,-25
1660137909.049,1457273.983166,-27
1660137909.049,1457273.9831681,-25
1660137909.049,1457273.9831702,-23
1660137909.049,1457273.9831723,-20
1660137909.049,1457273.9831743,-11
1660137909.049,1457273.9831764,6
1660137909.049,1457273.9831785,11
1660137909.049,1457273.9831805,-2
1660137909.049,1457273.9831827,-9
1660137909.049,1457273.9831847,4
1660137909.049,1457273.9831867,16
1660137909.049,1457273.9831888,20
1660137909.049,1457273.9831908,25
1660137909.049,1457273.9831929,27
1660137909.049,1457273.983195,20
1660137909.049,1457273.983197,18
1660137909.049,1457273.9831991,25
1660137909.049,1457273.9832011,27
1660137909.049,1457273.9832031,30
1660137909.57975,1457273.9832052,20
1660137909.57975,1457273.9832073,0
1660137909.57975,1457273.9832093,-2
1660137909.57975,1457273.9832112,11
1660137909.57975,1457273.9832131,18
1660137909.57975,1457273.983215,18
1660137909.57975,1457273.9832169,18
1660137909.57975,1457273.9832188,18
1660137909.57975,1457273.9832207,20
1660137909.57975,1457273.9832226,30
1660137909.57975,1457273.9832245,37
1660137909.57975,1457273.9832264,37
1660137909.57975,1457273.9832283,41
1660137909.57975,1457273.9832302,46
1660137909.57975,1457273.9832321,44
1660137909.57975,1457273.983234,46
1660137909.57975,1457273.9832359,55
1660137909.57975,1457273.9832378,57
1660137909.57975,1457273.9832397,57
1660137909.57975,1457273.9832417,51
1660137909.57975,1457273.9832436,41
1660137909.57975,1457273.9832455,41
1660137909.57975,1457273.9832475,39
1660137909.57975,1457273.9832505,30
1660137909.57975,1457273.9832526,32
1660137909.57975,1457273.9832547,46
1660137909.57975,1457273.9832568,71
1660137909.57975,1457273.9832588,83
1660137909.57975,1457273.9832609,67
1660137909.57975,1457273.9832629,55
1660137909.57975,1457273.9832649,67
1660137909.57975,1457273.983267,64
1660137909.57975,1457273.983269,60
1660137909.57975,1457273.983271,64
1660137909.57975,1457273.983273,62
1660137909.57975,1457273.9832751,60
1660137909.57975,1457273.9832772,64
1660137909.57975,1457273.9832793,67
1660137909.57975,1457273.9832813,60
1660137909.57975,1457273.9832834,57
1660137909.57975,1457273.9832854,273
1660137909.57975,1457273.9832875,1034
1660137909.57975,1457273.9832894,1505
1660137909.57975,1457273.9832915,252
1660137909.57975,1457274.5199126,-1354
1660137909.57975,1457274.5199283,-1145
1660137909.57975,1457274.5199335,-257
1660137909.57975,1457274.5199395,-71
1660137909.57975,1457274.5199437,-13
1660137909.57975,1457274.5199477,166
1660137909.59272,1457274.5199533,164
1660137909.59272,1457274.5199572,95
1660137909.59272,1457274.5199611,115
1660137909.59272,1457274.5199663,129
1660137909.59272,1457274.5199701,113
1660137909.59272,1457274.5199739,120
1660137909.59272,1457274.5199777,125
1660137909.59272,1457274.5199816,113
1660137909.59272,1457274.5199868,97
1660137909.59272,1457274.5199905,90
1660137909.59272,1457274.5199956,97
1660137909.59272,1457274.5199995,111
1660137909.59272,1457274.5200034,118
1660137909.59272,1457274.5200071,127
1660137909.59272,1457274.5200126,139
1660137909.59272,1457274.5200163,155
1660137909.59272,1457274.5200212,171
1660137909.59272,1457274.5200257,190
1660137909.59272,1457274.5200294,206
1660137909.59272,1457274.5200331,227
1660137909.59272,1457274.5200369,248
1660137909.59272,1457274.520042,264
1660137909.59272,1457274.5200467,282
1660137909.59272,1457274.5200518,296
1660137910.16798,1457274.5200556,299
1660137910.16798,1457274.5200593,296
1660137910.16798,1457274.5200628,285
1660137910.16798,1457274.5200665,248
1660137910.16798,1457274.5200702,190
1660137910.16798,1457274.5200738,132
1660137910.16798,1457274.5200776,81
1660137910.16798,1457274.5200814,37
1660137910.16798,1457274.520085,4
1660137910.16798,1457274.5200887,-16
1660137910.16798,1457274.5200923,-37
1660137910.16798,1457274.520096,-44
1660137910.16798,1457274.5200997,-37
1660137910.16798,1457274.5201034,-34
1660137910.16798,1457274.5201086,-39
1660137910.16798,1457274.5201122,-37
1660137910.16798,1457274.520116,-37
1660137910.16798,1457274.5201198,-34
1660137910.16798,1457274.5201234,-23
1660137910.16798,1457274.5201273,-9
1660137910.16798,1457274.5201326,2
1660137910.16798,1457274.5201371,9
1660137910.16798,1457274.520141,9
1660137910.16798,1457274.5201461,13
1660137910.16798,1457274.5201497,25
1660137910.16798,1457274.5201536,27
1660137910.16798,1457274.5201572,30
1660137910.16798,1457274.5201609,32
1660137910.16798,1457274.5201648,30
1660137910.16798,1457274.52017,25
1660137910.16798,1457274.5201737,27
1660137910.16798,1457274.5201775,34
1660137910.16798,1457274.5201829,39
1660137910.16798,1457274.5201864,41
1660137910.16798,1457274.5201901,46
1660137910.16798,1457274.5201939,41
1660137910.16798,1457274.5201991,39
1660137910.16798,1457274.5202029,48
1660137910.16798,1457274.5202067,53
1660137910.16798,1457274.5202119,55
1660137910.16798,1457274.5202169,57
1660137910.16798,1457274.5202206,57
1660137910.16798,1457274.5202245,57
1660137910.16798,1457275.1050964,62
1660137910.16798,1457275.1051147,71
1660137910.16798,1457275.1051201,76
1660137910.16798,1457275.1051242,69
1660137910.16798,1457275.1051288,51
1660137910.16798,1457275.1051621,37
1660137910.16798,1457275.1051689,34
1660137910.18593,1457275.1051735,30
1660137910.18593,1457275.1051795,25
1660137910.18593,1457275.1051873,30
1660137910.18593,1457275.1051956,23
1660137910.18593,1457275.1052036,2
1660137910.18593,1457275.1052071,2
1660137910.18593,1457275.1052107,23
1660137910.18593,1457275.1052144,53
1660137910.18593,1457275.1052178,83
1660137910.18593,1457275.1052214,67
1660137910.18593,1457275.105225,37
1660137910.18593,1457275.1052295,44
1660137910.18593,1457275.1052351,53
1660137910.18593,1457275.105241,51
1660137910.18593,1457275.1052463,55
1660137910.18593,1457275.105252,55
1660137910.18593,1457275.1052582,46
1660137910.18593,1457275.1052652,53
1660137910.18593,1457275.1052722,64
1660137910.18593,1457275.1052784,48
1660137910.18593,1457275.105285,18
1660137910.18593,1457275.1052918,173
1660137910.18593,1457275.1052985,865
1660137910.18593,1457275.1053053,1553
1660137910.75778,1457275.1053121,693
1660137910.75778,1457275.1053187,-1059
1660137910.75778,1457275.1053222,-1284
1660137910.75778,1457275.1053256,-405
1660137910.75778,1457275.105329,-76
1660137910.75778,1457275.1053325,-41
1660137910.75778,1457275.1053372,118
1660137910.75778,1457275.1053406,136
1660137910.75778,1457275.1053441,71
1660137910.75778,1457275.1053471,102
1660137910.75778,1457275.1053506,122
1660137910.75778,1457275.1053534,97
1660137910.75778,1457275.1053578,102
1660137910.75778,1457275.1053628,122
1660137910.75778,1457275.1053672,120
1660137910.75778,1457275.1053738,118
1660137910.75778,1457275.1053779,136
1660137910.75778,1457275.1053816,146
1660137910.75778,1457275.1053851,143
1660137910.75778,1457275.1053887,162
1660137910.75778,1457275.1053923,187
1660137910.75778,1457275.105396,192
1660137910.75778,1457275.1053996,199
1660137910.75778,1457275.1054034,218
1660137910.75778,1457275.1054073,236
1660137910.75778,1457275.1054112,255
1660137910.75778,1457275.1054149,280
1660137910.75778,1457275.1054189,306
1660137910.75778,1457275.1054228,322
1660137910.75778,1457275.1054282,340
1660137910.75778,1457275.1054346,354
1660137910.75778,1457275.1054388,359
1660137910.75778,1457275.1054462,352
1660137910.75778,1457275.1054507,336
1660137910.75778,1457275.1054584,303
1660137910.75778,1457275.1054627,250
1660137910.75778,1457275.1054658,178
1660137910.75778,1457275.1054697,104
1660137910.75778,1457275.1054749,51
1660137910.75778,1457275.1054801,4
1660137910.75778,1457275.1054831,-34
1660137910.75778,1457275.10549,-51
1660137910.75778,1457275.6918419,-53
1660137910.75778,1457275.6918569,-55
1660137910.75778,1457275.6918599,-53
1660137910.75778,1457275.6918622,-39
1660137910.75778,1457275.6918643,-27
1660137910.75778,1457275.6918665,-23
1660137910.75778,1457275.6918685,-18
1660137910.75778,1457275.6918705,-23
1660137910.76875,1457275.6918725,-32
1660137910.76875,1457275.6918746,-25
1660137910.76875,1457275.6918766,-16
1660137910.76875,1457275.6918787,-11
1660137910.76875,1457275.6918807,-2
1660137910.76875,1457275.6918827,-9
1660137910.76875,1457275.6918851,-34
1660137910.76875,1457275.6918921,-37
1660137910.76875,1457275.6919008,-25
1660137910.76875,1457275.6919054,-20
1660137910.76875,1457275.6919115,-18
1660137910.76875,1457275.6919214,-11
1660137910.76875,1457275.6919324,-16
1660137910.76875,1457275.6919449,-18
1660137910.76875,1457275.6919503,-4
1660137910.76875,1457275.6919525,4
1660137910.76875,1457275.6919561,4
1660137910.76875,1457275.691967,11
1660137910.76875,1457275.6919748,18
1660137910.76875,1457275.6919773,16
1660137910.76875,1457275.6919795,11
1660137910.76875,1457275.6919828,6
1660137910.76875,1457275.6919958,9
1660137910.76875,1457275.6920014,20
1660137911.28605,1457275.6920043,23
1660137911.28605,1457275.6920067,16
1660137911.28605,1457275.6920158,23
1660137911.28605,1457275.6920241,39
1660137911.28605,1457275.6920321,46
1660137911.28605,1457275.6920412,48
1660137911.28605,1457275.692049,48
1660137911.28605,1457275.6920544,37
1660137911.28605,1457275.6920589,27
1660137911.28605,1457275.6920653,34
1660137911.28605,1457275.6920742,46
1660137911.28605,1457275.6920831,57
1660137911.28605,1457275.6920933,69
1660137911.28605,1457275.6921049,90
1660137911.28605,1457275.6921142,106
1660137911.28605,1457275.692118,99
1660137911.28605,1457275.6921246,83
1660137911.28605,1457275.6921322,90
1660137911.28605,1457275.6921431,95
1660137911.28605,1457275.6921541,85
1660137911.28605,1457275.6921637,83
1660137911.28605,1457275.6921745,85
1660137911.28605,1457275.6921855,88
1660137911.28605,1457275.6921938,90
1660137911.28605,1457275.6922019,88
1660137911.28605,1457275.6922134,67
1660137911.28605,1457275.6922254,-2
1660137911.28605,1457275.6922343,44
1660137911.28605,1457275.6922448,677
1660137911.28605,1457275.6922563,1611
1660137911.28605,1457275.6922646,1185
1660137911.28605,1457275.6922755,-561
1660137911.28605,1457275.6922868,-1203
1660137911.28605,1457275.692293,-510
1660137911.28605,1457275.6923065,-102
1660137911.28605,1457275.6923162,-64
1660137911.28605,1457275.6923223,85
1660137911.28605,1457275.6923348,155
1660137911.28605,1457275.6923437,97
1660137911.28605,1457275.692353,106
1660137911.28605,1457275.692364,139
1660137911.28605,1457276.2255759,125
1660137911.28605,1457276.2255969,122
1660137911.28605,1457276.2256117,136
1660137911.28605,1457276.2256253,136
1660137911.28605,1457276.2256386,134
1660137911.28605,1457276.2256519,150
1660137911.28605,1457276.2256654,162
1660137911.28605,1457276.2256786,162
1660137911.28605,1457276.2256932,171
1660137911.29603,1457276.2257065,185
1660137911.29603,1457276.2257199,183
1660137911.29603,1457276.2257347,178
1660137911.29603,1457276.2257477,199
1660137911.29603,1457276.2257609,222
1660137911.29603,1457276.2257754,236
1660137911.29603,1457276.2257871,259
1660137911.29603,1457276.2257932,285
1660137911.29603,1457276.2258007,299
1660137911.29603,1457276.2258062,317
1660137911.29603,1457276.2258142,336
1660137911.29603,1457276.2258182,333
1660137911.29603,1457276.225823,322
1660137911.29603,1457276.2258333,296
1660137911.29603,1457276.2258398,238
1660137911.29603,1457276.2258476,164
1660137911.29603,1457276.2258538,99
1660137911.29603,1457276.2258611,32
1660137911.29603,1457276.2258673,-23
1660137911.29603,1457276.2258722,-55
1660137911.29603,1457276.2258762,-78
1660137911.29603,1457276.2258802,-97
1660137911.29603,1457276.2258842,-99
1660137911.29603,1457276.2258893,-102
1660137911.88238,1457276.2258931,-97
1660137911.88238,1457276.2258976,-81
1660137911.88238,1457276.2259014,-64
1660137911.88238,1457276.2259053,-55
1660137911.88238,1457276.2259092,-44
1660137911.88238,1457276.2259131,-27
1660137911.88238,1457276.225917,-13
1660137911.88238,1457276.225921,-2
1660137911.88238,1457276.2259253,9
1660137911.88238,1457276.2259293,16
1660137911.88238,1457276.2259337,18
1660137911.88238,1457276.2259376,20
1660137911.88238,1457276.2259428,25
1660137911.88238,1457276.2259468,32
1660137911.88238,1457276.2259511,39
1660137911.88238,1457276.2259549,41
1660137911.88238,1457276.2259588,34
1660137911.88238,1457276.2259628,30
1660137911.88238,1457276.225967,32
1660137911.88238,1457276.2259714,34
1660137911.88238,1457276.2259758,27
1660137911.88238,1457276.22598,25
1660137911.88238,1457276.2259843,27
1660137911.88238,1457276.225989,23
1660137911.88238,1457276.225993,25
1660137911.88238,1457276.2259971,37
1660137911.88238,1457276.2260027,41
1660137911.88238,1457276.2260071,41
1660137911.88238,1457276.2260113,46
1660137911.88238,1457276.2260155,46
1660137911.88238,1457276.2260196,48
1660137911.88238,1457276.2260238,53
1660137911.88238,1457276.2260279,57
1660137911.88238,1457276.2260321,62
1660137911.88238,1457276.2260375,62
1660137911.88238,1457276.2260416,55
1660137911.88238,1457276.2260461,48
1660137911.88238,1457276.2260506,48
1660137911.88238,1457276.2260549,48
1660137911.88238,1457276.2260593,53
1660137911.88238,1457276.8109673,60
1660137911.88238,1457276.8109882,67
1660137911.88238,1457276.8109961,76
1660137911.88238,1457276.8110011,104
1660137911.88238,1457276.8110077,134
1660137911.88238,1457276.8110121,132
1660137911.88238,1457276.8110184,106
1660137911.88238,1457276.8110229,83
1660137911.88238,1457276.8110291,64
1660137911.88238,1457276.8110337,64
1660137911.90104,1457276.8110402,76
1660137911.90104,1457276.8110466,76
1660137911.90104,1457276.8110513,71
1660137911.90104,1457276.811058,57
1660137911.90104,1457276.8110642,32
1660137911.90104,1457276.811069,0
1660137911.90104,1457276.8110751,-53
1660137911.90104,1457276.8110794,-9
1660137911.90104,1457276.8110857,565
1660137911.90104,1457276.8110903,1505
1660137911.90104,1457276.8110972,1196
1660137911.90104,1457276.8111033,-547
1660137911.90104,1457276.8111094,-1296
1660137911.90104,1457276.8111152,-586
1660137911.90104,1457276.8111208,-125
1660137911.90104,1457276.8111267,-106
1660137911.90104,1457276.8111324,34
1660137911.90104,1457276.8111382,132
1660137911.90104,1457276.8111429,85
1660137911.90104,1457276.8111489,102
1660137911.90104,1457276.8111533,146
1660137911.90104,1457276.8111592,127
1660137911.90104,1457276.8111642,118
1660137911.90104,1457276.8111698,132
1660137912.4092,1457276.8111741,127
1660137912.4092,1457276.8111784,132
1660137912.4092,1457276.8111827,155
1660137912.4092,1457276.8112008,166
1660137912.4092,1457276.8112068,164
1660137912.4092,1457276.8112112,169
1660137912.4092,1457276.8112153,187
1660137912.4092,1457276.8112195,208
1660137912.4092,1457276.8112238,222
1660137912.4092,1457276.811228,229
1660137912.4092,1457276.811233,243
1660137912.4092,1457276.8112376,269
1660137912.4092,1457276.8112424,287
1660137912.4092,1457276.811247,315
1660137912.4092,1457276.8112516,347
1660137912.4092,1457276.8112562,361
1660137912.4092,1457276.8112608,368
1660137912.4092,1457276.8112659,382
1660137912.4092,1457276.8112708,378
1660137912.4092,1457276.8112754,357
1660137912.4092,1457276.8112801,338
1660137912.4092,1457276.8112848,292
1660137912.4092,1457276.8112894,224
1660137912.4092,1457276.8112939,164
1660137912.4092,1457276.8112983,111
1660137912.4092,1457276.8113029,60
1660137912.4092,1457276.8113077,20
1660137912.4092,1457276.8113122,2
1660137912.4092,1457276.8113175,2
1660137912.4092,1457276.8113225,0
1660137912.4092,1457276.8113273,0
1660137912.4092,1457276.811332,4
1660137912.4092,1457276.8113364,9
1660137912.4092,1457276.8113408,16
1660137912.4092,1457276.8113455,34
1660137912.4092,1457276.8113501,41
1660137912.4092,1457276.8113548,48
1660137912.4092,1457276.8113596,60
1660137912.4092,1457276.8113644,57
1660137912.4092,1457277.3474222,55
1660137912.4092,1457277.3474351,62
1660137912.4092,1457277.3474444,67
1660137912.4092,1457277.3474482,64
1660137912.4092,1457277.3474503,57
1660137912.4092,1457277.3474525,53
1660137912.4092,1457277.3474546,51
1660137912.4092,1457277.3474567,44
1660137912.4092,1457277.3474587,34
1660137912.4092,1457277.3474608,25
1660137912.4092,1457277.3474628,20
1660137912.42017,1457277.3474649,9
1660137912.42017,1457277.3474671,0
1660137912.42017,1457277.3474698,9
1660137912.42017,1457277.347473,25
1660137912.42017,1457277.3474855,30
1660137912.42017,1457277.3474931,16
1660137912.42017,1457277.3474994,0
1660137912.42017,1457277.3475056,2
1660137912.42017,1457277.3475128,16
1660137912.42017,1457277.3475191,18
1660137912.42017,1457277.3475275,16
1660137912.42017,1457277.3475353,32
1660137912.42017,1457277.3475459,39
1660137912.42017,1457277.3475512,27
1660137912.42017,1457277.3475537,30
1660137912.42017,1457277.3475559,48
1660137912.42017,1457277.3475586,48
1660137912.42017,1457277.3475671,37
1660137912.42017,1457277.3475748,37
1660137912.42017,1457277.3475843,48
1660137912.42017,1457277.3475967,62
1660137912.42017,1457277.3476035,83
1660137912.42017,1457277.3476095,99
1660137912.42017,1457277.347621,102
1660137913.03982,1457277.3476364,85
1660137913.03982,1457277.3476455,74
1660137913.03982,1457277.3476505,83
1660137913.03982,1457277.3476543,85
1660137913.03982,1457277.347658,81
1660137913.03982,1457277.3476628,88
1660137913.03982,1457277.3476687,85
1660137913.03982,1457277.3476759,85
1660137913.03982,1457277.3476795,104
1660137913.03982,1457277.3476868,109
1660137913.03982,1457277.3476931,99
1660137913.03982,1457277.3476966,113
1660137913.03982,1457277.3477097,299
1660137913.03982,1457277.3477194,939
1660137913.03982,1457277.3477288,1512
1660137913.03982,1457277.3477353,498
1660137913.03982,1457277.3477441,-1333
1660137913.03982,1457277.3477487,-1421
1660137913.03982,1457277.3477624,-419
1660137913.03982,1457277.3477744,-118
1660137913.03982,1457277.347788,-69
1660137913.03982,1457277.3477972,169
1660137913.03982,1457277.3478093,227
1660137913.03982,1457277.3478196,164
1660137913.03982,1457277.3478319,199
1660137913.03982,1457277.3478419,231
1660137913.03982,1457277.3478502,208
1660137913.03982,1457277.3478613,204
1660137913.03982,1457277.3478726,213
1660137913.03982,1457277.3478823,206
1660137913.03982,1457277.3478875,199
1660137913.03982,1457277.3478935,194
1660137913.03982,1457277.347902,185
1660137913.03982,1457277.3479098,190
1660137913.03982,1457277.3479193,204
1660137913.03982,1457277.3479324,208
1660137913.03982,1457277.3479473,220
1660137913.03982,1457277.3479607,234
1660137913.03982,1457277.9817937,243
1660137913.03982,1457277.9818132,245
1660137913.03982,1457277.9818209,266
1660137913.03982,1457277.9818249,294
1660137913.03982,1457277.9818285,315
1660137913.03982,1457277.9818321,331
1660137913.03982,1457277.9818358,354
1660137913.03982,1457277.9818415,352
1660137913.03982,1457277.9818463,327
1660137913.03982,1457277.9818501,315
1660137913.03982,1457277.9818533,303
1660137913.03982,1457277.9818561,262
1660137913.05278,1457277.9818592,199
1660137913.05278,1457277.9818653,118
1660137913.05278,1457277.9818697,27
1660137913.05278,1457277.9818737,-27
1660137913.05278,1457277.9818783,-53
1660137913.05278,1457277.9818848,-83
1660137913.05278,1457277.9818919,-104
1660137913.05278,1457277.9818989,-113
1660137913.05278,1457277.9819048,-122
1660137913.05278,1457277.9819099,-115
1660137913.05278,1457277.9819153,-102
1660137913.05278,1457277.9819194,-97
1660137913.05278,1457277.9819232,-83
1660137913.05278,1457277.9819297,-67
1660137913.05278,1457277.981936,-67
1660137913.05278,1457277.9819408,-64
1660137913.05278,1457277.981947,-55
1660137913.05278,1457277.9819551,-46
1660137913.05278,1457277.9819626,-30
1660137913.05278,1457277.9819685,-13
1660137913.05278,1457277.9819771,-11
1660137913.05278,1457277.9819844,-13
1660137913.05278,1457277.9819901,-6
1660137913.05278,1457277.9819933,-2
1660137913.63194,1457277.9819967,-2
1660137913.63194,1457277.9819999,2
1660137913.63194,1457277.9820029,2
1660137913.63194,1457277.9820061,0
1660137913.63194,1457277.9820095,6
1660137913.63194,1457277.9820461,13
1660137913.63194,1457277.9820519,13
1660137913.63194,1457277.9820578,18
1660137913.63194,1457277.9820637,23
1660137913.63194,1457277.9820709,23
1660137913.63194,1457277.9820768,18
1660137913.63194,1457277.9820837,23
1660137913.63194,1457277.9820991,32
1660137913.63194,1457277.9821093,34
1660137913.63194,1457277.9821184,44
1660137913.63194,1457277.9821274,46
1660137913.63194,1457277.9821653,44
1660137913.63194,1457277.982175,46
1660137913.63194,1457277.9821842,51
1660137913.63194,1457277.9821907,53
1660137913.63194,1457277.9821949,51
1660137913.63194,1457277.9822019,39
1660137913.63194,1457277.9822068,30
1660137913.63194,1457277.9822155,30
1660137913.63194,1457277.9822206,39
1660137913.63194,1457277.9822267,51
1660137913.63194,1457277.9822316,57
1660137913.63194,1457277.9822371,76
1660137913.63194,1457277.9822416,97
1660137913.63194,1457277.9822474,88
1660137913.63194,1457277.9822518,57
1660137913.63194,1457277.9822556,57
1660137913.63194,1457277.9822619,71
1660137913.63194,1457277.9822666,67
1660137913.63194,1457277.9822723,64
1660137913.63194,1457277.9822752,67
1660137913.63194,1457277.982278,62
1660137913.63194,1457278.5680227,67
1660137913.63194,1457278.5680432,81
1660137913.63194,1457278.5680499,69
1660137913.63194,1457278.5680572,0
1660137913.63194,1457278.5680624,-18
1660137913.63194,1457278.568069,449
1660137913.63194,1457278.5680739,1426
1660137913.63194,1457278.5680847,1428
1660137913.63194,1457278.5680911,-190
1660137913.63194,1457278.5680959,-1238
1660137913.63194,1457278.5681024,-702
1660137913.63194,1457278.5681073,-155
1660137913.63194,1457278.5681133,-115
1660137913.64283,1457278.5681175,16
1660137913.64283,1457278.5681232,146
1660137913.64283,1457278.5681274,97
1660137913.64283,1457278.568135,88
1660137913.64283,1457278.5681393,125
1660137913.64283,1457278.568145,106
1660137913.64283,1457278.5681499,104
1660137913.64283,1457278.5681583,122
1660137913.64283,1457278.5681655,118
1660137913.64283,1457278.568168,113
1660137913.64283,1457278.5681702,106
1660137913.64283,1457278.5681722,90
1660137913.64283,1457278.5681743,92
1660137913.64283,1457278.5681764,109
1660137913.64283,1457278.5681785,136
1660137913.64283,1457278.5681804,164
1660137913.64283,1457278.5681824,157
1660137913.64283,1457278.5681845,150
1660137913.64283,1457278.5681866,183
1660137913.64283,1457278.5681886,215
1660137913.64283,1457278.5681912,220
1660137913.64283,1457278.5681934,236
1660137913.64283,1457278.5681955,264
1660137913.64283,1457278.5681976,292
1660137914.11277,1457278.5681996,294
1660137914.11277,1457278.5682017,296
1660137914.11277,1457278.5682036,322
1660137914.11277,1457278.5682056,331
1660137914.11277,1457278.5682075,287
1660137914.11277,1457278.5682094,231
1660137914.11277,1457278.5682113,180
1660137914.11277,1457278.5682132,122
1660137914.11277,1457278.5682151,62
1660137914.11277,1457278.568217,20
1660137914.11277,1457278.5682191,-11
1660137914.11277,1457278.568221,-30
1660137914.11277,1457278.568223,-41
1660137914.11277,1457278.5682249,-57
1660137914.11277,1457278.5682268,-51
1660137914.11277,1457278.5682288,-25
1660137914.11277,1457278.5682307,-25
1660137914.11277,1457278.5682328,-27
1660137914.11277,1457278.5682403,-11
1660137914.11277,1457278.5682504,2
1660137914.11277,1457278.5682568,2
1660137914.11277,1457278.5682591,-4
1660137914.11277,1457278.5682611,-11
1660137914.11277,1457278.5682632,-6
1660137914.11277,1457278.5682657,2
1660137914.11277,1457278.5682757,6
1660137914.11277,1457278.568284,4
1660137914.11277,1457278.5682866,0
1660137914.11277,1457278.5682887,13
1660137914.11277,1457278.5682908,34
1660137914.11277,1457278.5682953,30
1660137914.11277,1457278.5683075,18
1660137914.11277,1457278.5683131,20
1660137914.11277,1457278.568316,25
1660137914.11277,1457278.5683181,18
1660137914.11277,1457278.5683203,2
1660137914.11277,1457279.0551518,2
1660137914.11277,1457279.0551695,13
1660137914.11277,1457279.055175,37
1660137914.11277,1457279.0551797,62
1660137914.11277,1457279.0551836,64
1660137914.11277,1457279.055188,57
1660137914.11277,1457279.0551926,60
1660137914.11277,1457279.0551965,78
1660137914.11277,1457279.0552028,74
1660137914.11277,1457279.0552071,39
1660137914.11277,1457279.0552105,39
1660137914.11277,1457279.0552138,62
1660137914.11277,1457279.0552172,51
1660137914.11277,1457279.0552207,37
1660137914.12474,1457279.0552251,32
1660137914.12474,1457279.0552306,18
1660137914.12474,1457279.0552341,32
1660137914.12474,1457279.0552396,76
1660137914.12474,1457279.0552485,99
1660137914.12474,1457279.0552562,99
1660137914.12474,1457279.055262,92
1660137914.12474,1457279.0552679,85
1660137914.12474,1457279.0552713,83
1660137914.12474,1457279.0552762,83
1660137914.12474,1457279.0552794,78
1660137914.12474,1457279.0552833,83
1660137914.12474,1457279.0552866,83
1660137914.12474,1457279.0552897,57
1660137914.12474,1457279.0552933,53
1660137914.12474,1457279.0552998,74
1660137914.12474,1457279.0553045,69
1660137914.12474,1457279.0553079,51
1660137914.12474,1457279.055314,4
1660137914.12474,1457279.0553181,37
1660137914.12474,1457279.055324,552
1660137914.12474,1457279.0553305,1500
1660137914.12474,1457279.0553358,1340
1660137914.12474,1457279.0553395,-368
1660137914.65172,1457279.0553455,-1273
1660137914.65172,1457279.0553491,-644
1660137914.65172,1457279.0553528,-150
1660137914.65172,1457279.055357,-127
1660137914.65172,1457279.0553627,11
1660137914.65172,1457279.0553687,125
1660137914.65172,1457279.055375,88
1660137914.65172,1457279.0553792,83
1660137914.65172,1457279.0553834,113
1660137914.65172,1457279.0553874,120
1660137914.65172,1457279.0553904,146
1660137914.65172,1457279.0553931,166
1660137914.65172,1457279.0553958,143
1660137914.65172,1457279.0553984,113
1660137914.65172,1457279.0554015,104
1660137914.65172,1457279.0554042,111
1660137914.65172,1457279.0554069,139
1660137914.65172,1457279.0554095,176
1660137914.65172,1457279.0554121,173
1660137914.65172,1457279.0554148,157
1660137914.65172,1457279.0554177,183
1660137914.65172,1457279.0554203,222
1660137914.65172,1457279.0554229,236
1660137914.65172,1457279.0554256,250
1660137914.65172,1457279.0554282,285
1660137914.65172,1457279.0554309,315
1660137914.65172,1457279.0554336,333
1660137914.65172,1457279.0554363,357
1660137914.65172,1457279.0554389,368
1660137914.65172,1457279.0554415,368
1660137914.65172,1457279.0554441,371
1660137914.65172,1457279.0554469,354
1660137914.65172,1457279.0554497,310
1660137914.65172,1457279.0554528,266
1660137914.65172,1457279.0554562,199
1660137914.65172,1457279.5895371,95
1660137914.65172,1457279.5895559,34
1660137914.65172,1457279.5895616,27
1660137914.65172,1457279.5895669,0
1660137914.65172,1457279.5895724,-46
1660137914.65172,1457279.589576,-51
1660137914.65172,1457279.5895793,-41
1660137914.65172,1457279.5895825,-51
1660137914.65172,1457279.5895864,-53
1660137914.65172,1457279.5895911,-41
1660137914.65172,1457279.5896042,-39
1660137914.65172,1457279.5896152,-37
1660137914.65172,1457279.5896189,-23
1660137914.65172,1457279.5896219,-9
1660137914.65172,1457279.5896248,-6
1660137914.66368,1457279.5896279,-6
1660137914.66368,1457279.5896407,0
1660137914.66368,1457279.5896483,-2
1660137914.66368,1457279.5896508,-13
1660137914.66368,1457279.589653,-9
1660137914.66368,1457279.5896555,2
1660137914.66368,1457279.5896576,4
1660137914.66368,1457279.5896641,-13
1660137914.66368,1457279.5896749,-37
1660137914.66368,1457279.5896784,-30
1660137914.66368,1457279.5896814,6
1660137914.66368,1457279.5896884,11
1660137914.66368,1457279.5896994,-11
1660137914.66368,1457279.5897038,-2
1660137914.66368,1457279.5897059,6
1660137914.66368,1457279.5897091,-6
1660137914.66368,1457279.5897112,-2
1660137914.66368,1457279.5897139,9
1660137914.66368,1457279.5897238,-6
1660137914.66368,1457279.5897318,-9
1660137914.66368,1457279.5897344,27
1660137914.66368,1457279.5897366,62
1660137914.66368,1457279.5897387,46
1660137914.66368,1457279.5897408,0
1660137915.24112,1457279.5897481,-9
1660137915.24112,1457279.5897571,34
1660137915.24112,1457279.5897604,62
1660137915.24112,1457279.5897625,32
1660137915.24112,1457279.5897645,0
1660137915.24112,1457279.5897664,6
1660137915.24112,1457279.5897684,37
1660137915.24112,1457279.5897759,55
1660137915.24112,1457279.5897828,62
1660137915.24112,1457279.5897873,71
1660137915.24112,1457279.5897912,64
1660137915.24112,1457279.5897951,46
1660137915.24112,1457279.589799,53
1660137915.24112,1457279.5898031,78
1660137915.24112,1457279.5898071,78
1660137915.24112,1457279.5898126,69
1660137915.24112,1457279.5898177,88
1660137915.24112,1457279.5898212,90
1660137915.24112,1457279.5898248,67
1660137915.24112,1457279.5898346,67
1660137915.24112,1457279.5898428,71
1660137915.24112,1457279.5898528,44
1660137915.24112,1457279.5898589,153
1660137915.24112,1457279.5898612,763
1660137915.24112,1457279.5898633,1572
1660137915.24112,1457279.5898654,997
1660137915.24112,1457279.5898707,-823
1660137915.24112,1457279.5898819,-1370
1660137915.24112,1457279.5898933,-568
1660137915.24112,1457279.5899064,-157
1660137915.24112,1457279.5899165,-83
1660137915.24112,1457279.5899198,122
1660137915.24112,1457279.5899234,180
1660137915.24112,1457279.5899254,115
1660137915.24112,1457280.1745934,139
1660137915.24112,1457280.1746152,164
1660137915.24112,1457280.1746242,157
1660137915.24112,1457280.174627,173
1660137915.24112,1457280.1746291,160
1660137915.24112,1457280.1746312,150
1660137915.24112,1457280.1746333,201
1660137915.24112,1457280.1746353,208
1660137915.24112,1457280.1746374,155
1660137915.24112,1457280.1746394,155
1660137915.24112,1457280.1746421,180
1660137915.24112,1457280.1746443,183
1660137915.24112,1457280.1746462,183
1660137915.24112,1457280.1746488,173
1660137915.24112,1457280.174651,157
1660137915.24112,1457280.1746531,185
1660137915.25808,1457280.1746551,245
1660137915.25808,1457280.1746572,276
1660137915.25808,1457280.1746593,278
1660137915.25808,1457280.1746613,292
1660137915.25808,1457280.1746634,313
1660137915.25808,1457280.1746655,329
1660137915.25808,1457280.1746675,322
1660137915.25808,1457280.1746696,308
1660137915.25808,1457280.1746716,294
1660137915.25808,1457280.1746736,255
1660137915.25808,1457280.1746763,204
1660137915.25808,1457280.1746784,150
1660137915.25808,1457280.1746809,78
1660137915.25808,1457280.174683,13
1660137915.25808,1457280.1746853,-25
1660137915.25808,1457280.1746873,-64
1660137915.25808,1457280.1746893,-95
1660137915.25808,1457280.1746914,-81
1660137915.25808,1457280.1746934,-57
1660137915.25808,1457280.1746954,-62
1660137915.25808,1457280.1746975,-69
1660137915.25808,1457280.1746996,-71
1660137915.25808,1457280.1747016,-71
1660137915.25808,1457280.1747037,-53
1660137915.82174,1457280.1747057,-41
1660137915.82174,1457280.1747077,-41
1660137915.82174,1457280.1747096,-25
1660137915.82174,1457280.1747114,-6
1660137915.82174,1457280.1747134,-13
1660137915.82174,1457280.1747153,-9
1660137915.82174,1457280.1747173,13
1660137915.82174,1457280.1747191,20
1660137915.82174,1457280.174721,16
1660137915.82174,1457280.1747229,23
1660137915.82174,1457280.1747248,25
1660137915.82174,1457280.1747267,18
1660137915.82174,1457280.1747286,13
1660137915.82174,1457280.1747305,25
1660137915.82174,1457280.1747324,37
1660137915.82174,1457280.1747343,20
1660137915.82174,1457280.1747362,6
1660137915.82174,1457280.1747382,13
1660137915.82174,1457280.17474,23
1660137915.82174,1457280.174742,37
1660137915.82174,1457280.1747449,37
1660137915.82174,1457280.1747469,23
1660137915.82174,1457280.1747496,34
1660137915.82174,1457280.1747517,60
1660137915.82174,1457280.1747537,46
1660137915.82174,1457280.1747557,30
1660137915.82174,1457280.1747577,48
1660137915.82174,1457280.1747597,39
1660137915.82174,1457280.1747618,51
1660137915.82174,1457280.1747638,90
1660137915.82174,1457280.1747658,62
1660137915.82174,1457280.1747679,32
1660137915.82174,1457280.17477,51
1660137915.82174,1457280.759561,55
1660137915.82174,1457280.7595849,53
1660137915.82174,1457280.7595914,64
1660137915.82174,1457280.759598,78
1660137915.82174,1457280.7596032,109
1660137915.82174,1457280.7596088,127
1660137915.82174,1457280.7596137,92

1660137915.82174,1457280.7596171,81
1660137915.82174,1457280.7596206,115
1660137915.82174,1457280.7596241,104
1660137915.82174,1457280.7596276,46
1660137915.82174,1457280.7596312,48
1660137915.82174,1457280.7596365,92
1660137915.82174,1457280.7596407,85
1660137915.82174,1457280.7596445,55
1660137915.82174,1457280.7596481,53
1660137915.82174,1457280.7596517,25
1660137915.83271,1457280.7596564,-32
1660137915.83271,1457280.7596622,102
1660137915.83271,1457280.7596669,807
1660137915.83271,1457280.7596723,1581
1660137915.83271,1457280.7596763,853
1660137915.83271,1457280.7596815,-855
1660137915.83271,1457280.7596861,-1173
1660137915.83271,1457280.7596914,-394
1660137915.83271,1457280.7596956,-90
1660137915.83271,1457280.7597006,-55
1660137915.83271,1457280.7597043,102
1660137915.83271,1457280.7597098,129
1660137915.83271,1457280.7597137,53
1660137915.83271,1457280.7597194,64
1660137915.83271,1457280.7597233,109
1660137915.83271,1457280.7597272,120
1660137915.83271,1457280.7597323,129
1660137915.83271,1457280.7597399,143
1660137915.83271,1457280.7597481,143
1660137915.83271,1457280.7597546,143
1660137915.83271,1457280.7597627,155
1660137915.83271,1457280.7597693,173
1660137915.83271,1457280.75978,187
1660137915.83271,1457280.7597867,192
1660137916.35968,1457280.7597891,190
1660137916.35968,1457280.7597912,192
1660137916.35968,1457280.7597931,218
1660137916.35968,1457280.759795,236
1660137916.35968,1457280.7597969,234
1660137916.35968,1457280.7597989,229
1660137916.35968,1457280.7598008,266
1660137916.35968,1457280.7598027,320
1660137916.35968,1457280.7598046,331
1660137916.35968,1457280.7598099,324
1660137916.35968,1457280.7598184,345
1660137916.35968,1457280.7598232,357
1660137916.35968,1457280.7598276,340
1660137916.35968,1457280.7598336,320
1660137916.35968,1457280.7598403,289
1660137916.35968,1457280.7598499,231
1660137916.35968,1457280.7598619,162
1660137916.35968,1457280.7598722,95
1660137916.35968,1457280.7598755,57
1660137916.35968,1457280.759879,34
1660137916.35968,1457280.759881,-9
1660137916.35968,1457280.7598839,-34
1660137916.35968,1457280.759886,-37
1660137916.35968,1457280.759889,-46
1660137916.35968,1457280.7598934,-44
1660137916.35968,1457280.7598978,-41
1660137916.35968,1457280.759904,-41
1660137916.35968,1457280.7599086,-32
1660137916.35968,1457280.7599197,-16
1660137916.35968,1457280.7599249,-6
1660137916.35968,1457280.7599308,11
1660137916.35968,1457280.7599347,20
1660137916.35968,1457281.2958452,20
1660137916.35968,1457281.2958675,20
1660137916.35968,1457281.2958767,25
1660137916.35968,1457281.2958877,32
1660137916.35968,1457281.2958919,30
1660137916.35968,1457281.2958941,13
1660137916.35968,1457281.2958963,4
1660137916.35968,1457281.2958985,-6
1660137916.35968,1457281.2959005,-13
1660137916.35968,1457281.2959036,-2
1660137916.35968,1457281.2959165,4
1660137916.35968,1457281.2959246,0
1660137916.35968,1457281.2959273,2
1660137916.35968,1457281.2959294,9
1660137916.35968,1457281.2959314,9
1660137916.35968,1457281.2959335,11
1660137916.35968,1457281.2959355,20
1660137916.35968,1457281.2959376,23
1660137916.37264,1457281.295944,23
1660137916.37264,1457281.2959554,18
1660137916.37264,1457281.2959589,-6
1660137916.37264,1457281.2959618,-25
1660137916.37264,1457281.2959647,-13
1660137916.37264,1457281.2959676,11
1660137916.37264,1457281.2959705,16
1660137916.37264,1457281.2959735,6
1660137916.37264,1457281.2959833,6
1660137916.37264,1457281.2959921,11
1660137916.37264,1457281.2959947,6
1660137916.37264,1457281.295997,0
1660137916.37264,1457281.2959991,-2
1660137916.37264,1457281.2960018,4
1660137916.37264,1457281.2960126,13
1660137916.37264,1457281.2960197,16
1660137916.37264,1457281.2960221,30
1660137916.37264,1457281.2960242,76
1660137916.37264,1457281.2960263,113
1660137916.37264,1457281.2960284,88
1660137916.37264,1457281.2960304,39
1660137916.37264,1457281.2960324,34
1660137916.37264,1457281.2960344,60
1660137916.37264,1457281.2960365,78
1660137916.9938,1457281.2960386,81
1660137916.9938,1457281.2960406,71
1660137916.9938,1457281.2960425,74
1660137916.9938,1457281.2960444,81
1660137916.9938,1457281.2960463,71
1660137916.9938,1457281.2960482,51
1660137916.9938,1457281.2960501,37
1660137916.9938,1457281.296052,83
1660137916.9938,1457281.2960539,533
1660137916.9938,1457281.2960559,1442
1660137916.9938,1457281.2960583,1407
1660137916.9938,1457281.2960681,-187
1660137916.9938,1457281.296077,-1161
1660137916.9938,1457281.2960814,-586
1660137916.9938,1457281.2960845,-64
1660137916.9938,1457281.2960903,-39
1660137916.9938,1457281.2961016,81
1660137916.9938,1457281.2961049,171
1660137916.9938,1457281.2961088,106
1660137916.9938,1457281.2961107,115
1660137916.9938,1457281.2961128,169
1660137916.9938,1457281.296118,150
1660137916.9938,1457281.2961293,141
1660137916.9938,1457281.2961346,169
1660137916.9938,1457281.2961367,180
1660137916.9938,1457281.2961389,173
1660137916.9938,1457281.2961413,166
1660137916.9938,1457281.2961513,169
1660137916.9938,1457281.2961596,204
1660137916.9938,1457281.2961621,231
1660137916.9938,1457281.2961642,218
1660137916.9938,1457281.9308364,199
1660137916.9938,1457281.9308576,204
1660137916.9938,1457281.9308738,224
1660137916.9938,1457281.9308889,250
1660137916.9938,1457281.9309037,262
1660137916.9938,1457281.9309177,271
1660137916.9938,1457281.9309309,292
1660137916.9938,1457281.9309443,317
1660137916.9938,1457281.9309574,336
1660137916.9938,1457281.9309709,347
1660137916.9938,1457281.9309843,340
1660137916.9938,1457281.9309976,310
1660137916.9938,1457281.9310108,296
1660137916.9938,1457281.9310256,287
1660137916.9938,1457281.9310391,241
1660137916.9938,1457281.9310524,164
1660137916.9938,1457281.931067,74
1660137916.9938,1457281.9310805,0
1660137916.9938,1457281.9310942,-25
1660137917.01175,1457281.9311076,-46
1660137917.01175,1457281.9311208,-85
1660137917.01175,1457281.9311341,-102
1660137917.01175,1457281.9311486,-97
1660137917.01175,1457281.9311619,-92
1660137917.01175,1457281.9311753,-76
1660137917.01175,1457281.9311897,-69
1660137917.01175,1457281.9312029,-64
1660137917.01175,1457281.9312163,-53
1660137917.01175,1457281.9312307,-62
1660137917.01175,1457281.931244,-60
1660137917.01175,1457281.9312574,-30
1660137917.01175,1457281.9312719,-16
1660137917.01175,1457281.9312851,-16
1660137917.01175,1457281.9312985,-13
1660137917.01175,1457281.9313128,-13
1660137917.01175,1457281.9313261,-20
1660137917.01175,1457281.9313393,-18
1660137917.01175,1457281.9313537,-9
1660137917.01175,1457281.9313671,4
1660137917.01175,1457281.9313804,30
1660137917.01175,1457281.9313953,32
1660137917.01175,1457281.9314087,16
1660137917.01175,1457281.9314219,16
1660137917.52586,1457281.9314354,27
1660137917.52586,1457281.9314435,27
1660137917.52586,1457281.931451,20
1660137917.52586,1457281.931458,30
1660137917.52586,1457281.9314661,41
1660137917.52586,1457281.931476,41
1660137917.52586,1457281.9314889,41
1660137917.52586,1457281.9315024,44
1660137917.52586,1457281.9315157,55
1660137917.52586,1457281.931529,62
1660137917.52586,1457281.9315421,62
1660137917.52586,1457281.9315551,62
1660137917.52586,1457281.9315694,64
1660137917.52586,1457281.9315838,71
1660137917.52586,1457281.9316241,78
1660137917.52586,1457281.9316344,78
1660137917.52586,1457281.9316384,64
1660137917.52586,1457281.9316424,48
1660137917.52586,1457281.9316459,44
1660137917.52586,1457281.9316512,55
1660137917.52586,1457281.9316551,60
1660137917.52586,1457281.9316591,60
1660137917.52586,1457281.9316629,71
1660137917.52586,1457281.9316673,97
1660137917.52586,1457281.9316726,118
1660137917.52586,1457281.9316776,125
1660137917.52586,1457281.931681,113
1660137917.52586,1457281.9316954,106
1660137917.52586,1457281.9317075,109
1660137917.52586,1457281.9317177,113
1660137917.52586,1457282.4667689,113
1660137917.52586,1457282.4667893,111
1660137917.52586,1457282.4667978,109
1660137917.52586,1457282.4668048,115
1660137917.52586,1457282.4668115,122
1660137917.52586,1457282.4668174,120
1660137917.52586,1457282.4668235,95
1660137917.52586,1457282.4668288,46
1660137917.52586,1457282.4668348,160
1660137917.52586,1457282.4668397,839
1660137917.52586,1457282.4668467,1639
1660137917.52586,1457282.4668509,971
1660137917.52586,1457282.4668574,-749
1660137917.52586,1457282.4668623,-1134
1660137917.52586,1457282.4668704,-366
1660137917.52586,1457282.466876,-57
1660137917.52586,1457282.4668821,-60
1660137917.52586,1457282.4668868,88
1660137917.52586,1457282.4668928,136
1660137917.52586,1457282.4668967,64
1660137917.53583,1457282.4669036,67
1660137917.53583,1457282.4669075,92
1660137917.53583,1457282.4669134,85
1660137917.53583,1457282.4669185,99
1660137917.53583,1457282.4669236,127
1660137917.53583,1457282.4669285,129
1660137917.53583,1457282.4669339,127
1660137917.53583,1457282.4669375,139
1660137917.53583,1457282.4669437,143
1660137917.53583,1457282.4669521,150
1660137917.53583,1457282.4669602,157
1660137917.53583,1457282.4669662,155
1660137917.53583,1457282.4669744,160
1660137917.53583,1457282.4669781,178
1660137917.53583,1457282.4669832,197
1660137917.53583,1457282.4669867,201
1660137917.53583,1457282.4669921,208
1660137917.53583,1457282.4669965,245
1660137917.53583,1457282.4670049,282
1660137917.53583,1457282.4670147,287
1660137917.53583,1457282.4670266,294
1660137917.53583,1457282.4670363,336
1660137917.53583,1457282.4670438,347
1660137917.53583,1457282.467059,320
1660137918.06009,1457282.4670717,306
1660137918.06009,1457282.4670795,289
1660137918.06009,1457282.4670845,250
1660137918.06009,1457282.4670953,194
1660137918.06009,1457282.4671008,111
1660137918.06009,1457282.4671049,34
1660137918.06009,1457282.4671093,6
1660137918.06009,1457282.4671169,-16
1660137918.06009,1457282.4671226,-46
1660137918.06009,1457282.4671362,-57
1660137918.06009,1457282.467148,-53
1660137918.06009,1457282.4671538,-55
1660137918.06009,1457282.4671561,-37
1660137918.06009,1457282.4671636,-11
1660137918.06009,1457282.4671745,-20
1660137918.06009,1457282.467178,-30
1660137918.06009,1457282.467181,-23
1660137918.06009,1457282.4671839,-23
1660137918.06009,1457282.4671908,0
1660137918.06009,1457282.4672021,32
1660137918.06009,1457282.4672054,18
1660137918.06009,1457282.4672076,2
1660137918.06009,1457282.4672096,25
1660137918.06009,1457282.4672128,39
1660137918.06009,1457282.4672233,37
1660137918.06009,1457282.4672311,51
1660137918.06009,1457282.4672335,55
1660137918.06009,1457282.4672356,30
1660137918.06009,1457282.4672377,18
1660137918.06009,1457283.0028153,23
1660137918.06009,1457283.0028282,20
1660137918.06009,1457283.0028309,23
1660137918.06009,1457283.0028332,34
1660137918.06009,1457283.0028354,32
1660137918.06009,1457283.0028375,39
1660137918.06009,1457283.0028396,62
1660137918.06009,1457283.0028417,64
1660137918.06009,1457283.0028438,53
1660137918.06009,1457283.0028459,57
1660137918.06009,1457283.0028479,46
1660137918.06009,1457283.00285,44
1660137918.06009,1457283.002852,78
1660137918.06009,1457283.0028541,88
1660137918.06009,1457283.0028561,62
1660137918.06009,1457283.0028601,60
1660137918.06009,1457283.0028623,57
1660137918.06009,1457283.0028644,34
1660137918.06009,1457283.0028666,32
1660137918.06009,1457283.0028731,41
1660137918.06009,1457283.0028841,27
1660137918.07206,1457283.0028952,30
1660137918.07206,1457283.0029082,53
1660137918.07206,1457283.0029167,46
1660137918.07206,1457283.0029249,27
1660137918.07206,1457283.0029299,46
1660137918.07206,1457283.0029356,74
