Time,TimeLsl,Value
1660135506.54765,1454870.0976923,81
1660135506.54765,1454870.0977074,76
1660135506.54765,1454870.0977117,64
1660135506.54765,1454870.0977155,57
1660135506.54765,1454870.0977193,64
1660135506.54765,1454870.0977227,60
1660135506.54765,1454870.0977263,48
1660135506.54765,1454870.0977299,264
1660135506.54765,1454870.0977336,1041
1660135506.54765,1454870.0977371,1598
1660135506.54765,1454870.0977405,487
1660135506.54765,1454870.0977441,-1076
1660135506.54765,1454870.0977482,-983
1660135506.54765,1454870.0977517,-227
1660135506.54765,1454870.0977554,-99
1660135506.54765,1454870.0977608,-51
1660135506.54765,1454870.0977645,120
1660135506.54765,1454870.0977681,115
1660135506.54765,1454870.0977719,69
1660135506.54765,1454870.0977768,97
1660135506.54765,1454870.0977804,97
1660135506.54765,1454870.0977841,85
1660135506.54765,1454870.0977877,109
1660135506.54765,1454870.0977917,122
1660135506.54765,1454870.0977972,122
1660135506.54765,1454870.0978016,125
1660135506.54765,1454870.0978051,127
1660135506.54765,1454870.0978085,129
1660135506.54765,1454870.0978123,134
1660135506.54765,1454870.0978177,143
1660135506.54765,1454870.0978214,155
1660135506.54765,1454870.097825,164
1660135506.54765,1454870.0978285,169
1660135506.54765,1454870.097832,183
1660135506.54765,1454870.0978374,206
1660135506.54765,1454870.097841,224
1660135506.54765,1454870.0979289,252
1660135506.54765,1454870.0979497,282
1660135506.54765,1454870.0979547,306
1660135506.54765,1454870.0979585,331
1660135506.54765,1454870.097962,366
1660135506.54765,1454870.0979655,389
1660135506.54765,1454870.0979704,401
1660135506.54765,1454870.0979751,401
1660135506.54765,1454870.0979802,382
1660135506.54765,1454870.0979847,340
1660135506.54765,1454870.0979909,282
1660135506.54765,1454870.0979965,208
1660135506.54765,1454870.0980022,127
1660135506.54765,1454870.0980085,62
1660135506.69288,1454870.0980137,13
1660135506.69288,1454870.0980171,-20
1660135506.69288,1454870.0980209,-39
1660135506.69288,1454870.0980267,-46
1660135506.69288,1454870.0980301,-51
1660135506.69288,1454870.0980336,-51
1660135506.69288,1454870.0980392,-55
1660135506.69288,1454870.0980459,-60
1660135506.69288,1454870.0980494,-60
1660135506.69288,1454870.0980524,-55
1660135506.69288,1454870.0980558,-51
1660135506.69288,1454870.0980621,-41
1660135506.69288,1454870.0980685,-34
1660135506.69288,1454870.0980755,-27
1660135506.69288,1454870.0980821,-20
1660135506.69288,1454870.0980884,-9
1660135506.69288,1454870.0980961,2
1660135506.69288,1454870.0980992,4
1660135506.69288,1454870.0981021,-4
1660135506.69288,1454870.0981051,-16
1660135506.69288,1454870.098108,-13
1660135506.69288,1454870.098111,-6
1660135506.69288,1454870.0981141,-4
1660135506.69288,1454870.6341996,-11
1660135506.69288,1454870.6342174,-16
1660135506.69288,1454870.6342245,-16
1660135506.69288,1454870.6342312,-23
1660135506.69288,1454870.6342377,-30
1660135506.69288,1454870.6342442,-23
1660135506.69288,1454870.6342507,-16
1660135506.69288,1454870.6342573,-20
1660135506.69288,1454870.6342644,-20
1660135506.69288,1454870.6342703,-32
1660135506.69288,1454870.6342748,-51
1660135506.69288,1454870.6342792,-51
1660135506.69288,1454870.6342835,-37
1660135506.69288,1454870.6342879,-37
1660135506.69288,1454870.6342923,-34
1660135506.69288,1454870.6342966,-34
1660135506.69288,1454870.6343004,-53
1660135506.69288,1454870.6343063,-60
1660135506.69288,1454870.6343111,-53
1660135506.69288,1454870.6343156,-55
1660135506.69288,1454870.6343192,-53
1660135506.69288,1454870.6343226,-41
1660135506.69288,1454870.6343277,-39
1660135506.69288,1454870.6343317,-39
1660135506.69288,1454870.634337,-27
1660135506.69288,1454870.6343404,-20
1660135506.69288,1454870.6343438,-13
1660135506.73776,1454870.6343487,-6
1660135506.73776,1454870.6343526,-2
1660135506.73776,1454870.6343559,2
1660135506.73776,1454870.6343594,6
1660135506.73776,1454870.6343631,13
1660135506.73776,1454870.634368,18
1660135506.73776,1454870.6343713,27
1660135506.73776,1454870.6343762,34
1660135506.73776,1454870.6343794,37
1660135506.73776,1454870.6343827,39
1660135506.73776,1454870.634386,44
1660135506.73776,1454870.6343894,51
1660135506.73776,1454870.6343927,55
1660135506.73776,1454870.6343975,60
1660135506.73776,1454870.6344016,62
1660135506.73776,1454870.6344063,60
1660135506.73776,1454870.6344135,55
1660135506.73776,1454870.6344168,53
1660135506.73776,1454870.6344202,62
1660135506.73776,1454870.6344256,71
1660135506.73776,1454870.6344298,76
1660135506.73776,1454870.6344346,88
1660135506.73776,1454870.6344382,106
1660135506.73776,1454870.6344419,115
1660135506.73776,1454870.6344453,122
1660135506.73776,1454870.6344491,122
1660135506.73776,1454870.6344543,92
1660135506.73776,1454870.6344581,71
1660135506.73776,1454870.6344632,83
1660135506.73776,1454870.6344694,88
1660135506.73776,1454870.6344731,83
1660135506.73776,1454870.6344784,90
1660135506.73776,1454870.6344819,97
1660135506.73776,1454870.6344869,92
1660135506.73776,1454870.6344903,81
1660135506.73776,1454870.6344938,69
1660135506.73776,1454870.6344972,71
1660135506.73776,1454870.6345007,62
1660135506.73776,1454870.6345056,57
1660135506.73776,1454870.6345091,322
1660135506.73776,1454870.6345143,1134
1660135506.73776,1454870.6345182,1570
1660135506.73776,1454870.6345217,345
1660135506.73776,1454870.6345253,-1129
1660135506.73776,1454870.6345288,-930
1660135506.73776,1454870.634535,-171
1660135506.73776,1454871.2181902,-48
1660135506.73776,1454871.2182081,6
1660135507.00086,1454871.2182126,173
1660135507.00086,1454871.2182185,166
1660135507.00086,1454871.2182235,129
1660135507.00086,1454871.2182299,176
1660135507.00086,1454871.2182371,178
1660135507.00086,1454871.2182439,160
1660135507.00086,1454871.2182506,178
1660135507.00086,1454871.2182546,187
1660135507.00086,1454871.2182588,173
1660135507.00086,1454871.218266,180
1660135507.00086,1454871.2182728,180
1660135507.00086,1454871.2182791,157
1660135507.00086,1454871.2182831,153
1660135507.00086,1454871.218286,176
1660135507.00086,1454871.2182892,194
1660135507.00086,1454871.2182948,201
1660135507.00086,1454871.2183,206
1660135507.00086,1454871.218304,201
1660135507.00086,1454871.2183081,204
1660135507.00086,1454871.2183116,234
1660135507.00086,1454871.2183146,269
1660135507.00086,1454871.2183176,294
1660135507.00086,1454871.2183205,324
1660135507.00086,1454871.2183234,352
1660135507.00086,1454871.2183262,375
1660135507.00086,1454871.2183329,396
1660135507.00086,1454871.2183359,405
1660135507.00086,1454871.2183387,405
1660135507.00086,1454871.2183417,389
1660135507.00086,1454871.2183445,343
1660135507.00086,1454871.2183476,271
1660135507.00086,1454871.2183504,190
1660135507.00086,1454871.2183534,113
1660135507.00086,1454871.2183562,51
1660135507.00086,1454871.2183591,4
1660135507.00086,1454871.218362,-25
1660135507.00086,1454871.2183649,-44
1660135507.00086,1454871.2183678,-57
1660135507.00086,1454871.2183707,-71
1660135507.00086,1454871.2183737,-81
1660135507.00086,1454871.2183766,-81
1660135507.00086,1454871.2183795,-71
1660135507.00086,1454871.2183825,-69
1660135507.00086,1454871.2183856,-62
1660135507.00086,1454871.2183915,-46
1660135507.00086,1454871.2183947,-34
1660135507.00086,1454871.2184,-30
1660135507.00086,1454871.2184074,-20
1660135507.00086,1454871.2184135,-9
1660135507.00086,1454871.2184266,-2
1660135507.05507,1454871.2184339,2
1660135507.05507,1454871.2184408,2
1660135507.05507,1454871.2184453,-9
1660135507.05507,1454871.2184515,-25
1660135507.05507,1454871.2184577,-32
1660135507.05507,1454871.2184669,-27
1660135507.05507,1454871.2184716,-27
1660135507.05507,1454871.2184756,-30
1660135507.05507,1454871.2184786,-34
1660135507.05507,1454871.2184815,-34
1660135507.05507,1454871.2184845,-27
1660135507.05507,1454871.2184874,-32
1660135507.05507,1454871.2184902,-46
1660135507.05507,1454871.2184933,-39
1660135507.05507,1454871.2184964,-16
1660135507.05507,1454871.2184994,-11
1660135507.05507,1454871.2185023,-13
1660135507.05507,1454871.2185052,-11
1660135507.05507,1454871.218508,-13
1660135507.05507,1454871.2185109,-11
1660135507.05507,1454871.2185138,-6
1660135507.05507,1454871.8049004,-4
1660135507.05507,1454871.8049182,-4
1660135507.05507,1454871.8049226,-4
1660135507.34669,1454871.8049261,-9
1660135507.34669,1454871.8049296,-6
1660135507.34669,1454871.8049329,0
1660135507.34669,1454871.8049361,6
1660135507.34669,1454871.8049396,13
1660135507.34669,1454871.8049429,18
1660135507.34669,1454871.8049474,4
1660135507.34669,1454871.8049518,-13
1660135507.34669,1454871.8049552,-6
1660135507.34669,1454871.8049593,2
1660135507.34669,1454871.804966,6
1660135507.34669,1454871.8049729,16
1660135507.34669,1454871.8049799,11
1660135507.34669,1454871.8049867,-13
1660135507.34669,1454871.8049934,-18
1660135507.34669,1454871.8050006,0
1660135507.34669,1454871.8050076,6
1660135507.34669,1454871.8050131,2
1660135507.34669,1454871.8050166,11
1660135507.34669,1454871.8050198,23
1660135507.34669,1454871.8050248,20
1660135507.34669,1454871.8050308,25
1660135507.34669,1454871.8050338,34
1660135507.34669,1454871.8050375,27
1660135507.34669,1454871.8050403,20
1660135507.34669,1454871.8050434,27
1660135507.34669,1454871.8050467,37
1660135507.34669,1454871.80505,44
1660135507.34669,1454871.8050545,55
1660135507.34669,1454871.8050599,71
1660135507.34669,1454871.8050645,85
1660135507.34669,1454871.8050708,92
1660135507.34669,1454871.8050739,99
1660135507.34669,1454871.8050771,83
1660135507.34669,1454871.8050804,60
1660135507.34669,1454871.8050835,67
1660135507.34669,1454871.8050864,76
1660135507.34669,1454871.8050892,76
1660135507.34669,1454871.8050924,76
1660135507.34669,1454871.8050954,76
1660135507.34669,1454871.8050985,71
1660135507.34669,1454871.805102,78
1660135507.34669,1454871.8051053,97
1660135507.34669,1454871.8051085,104
1660135507.34669,1454871.8051114,90
1660135507.34669,1454871.8051142,95
1660135507.34669,1454871.8051173,282
1660135507.34669,1454871.8051206,941
1660135507.34669,1454871.8051235,1498
1660135507.34669,1454871.8051282,470
1660135507.35766,1454871.805133,-1250
1660135507.35766,1454871.8051368,-1245
1660135507.35766,1454871.8051419,-285
1660135507.35766,1454871.8051453,-51
1660135507.35766,1454871.8051502,-37
1660135507.35766,1454871.8051537,173
1660135507.35766,1454871.8051588,220
1660135507.35766,1454871.8051632,157
1660135507.35766,1454871.8051669,190
1660135507.35766,1454871.8051701,227
1660135507.35766,1454871.8051733,213
1660135507.35766,1454871.8051763,211
1660135507.35766,1454871.8051792,213
1660135507.35766,1454871.8051822,204
1660135507.35766,1454871.8051853,208
1660135507.35766,1454871.8051882,222
1660135507.35766,1454871.8051911,222
1660135507.35766,1454871.805194,231
1660135507.35766,1454871.8051968,252
1660135507.35766,1454871.8051999,255
1660135507.35766,1454872.2902888,257
1660135507.35766,1454872.2903099,276
1660135507.35766,1454872.2903174,292
1660135507.35766,1454872.2903227,303
1660135508.03194,1454872.2903265,324
1660135508.03194,1454872.2903299,345
1660135508.03194,1454872.2903333,359
1660135508.03194,1454872.2903368,380
1660135508.03194,1454872.2903402,410
1660135508.03194,1454872.2903454,429
1660135508.03194,1454872.290352,433
1660135508.03194,1454872.2903571,440
1660135508.03194,1454872.2903614,431
1660135508.03194,1454872.2903657,385
1660135508.03194,1454872.2903708,331
1660135508.03194,1454872.2903749,280
1660135508.03194,1454872.2903789,206
1660135508.03194,1454872.2903828,122
1660135508.03194,1454872.290389,60
1660135508.03194,1454872.2903935,11
1660135508.03194,1454872.2903966,-23
1660135508.03194,1454872.2903996,-44
1660135508.03194,1454872.2904026,-55
1660135508.03194,1454872.2904055,-67
1660135508.03194,1454872.2904086,-78
1660135508.03194,1454872.2904114,-92
1660135508.03194,1454872.2904144,-102
1660135508.03194,1454872.2904173,-92
1660135508.03194,1454872.2904202,-78
1660135508.03194,1454872.290423,-69
1660135508.03194,1454872.2904259,-57
1660135508.03194,1454872.2904288,-46
1660135508.03194,1454872.2904393,-41
1660135508.03194,1454872.2904426,-39
1660135508.03194,1454872.2904451,-27
1660135508.03194,1454872.2904528,-18
1660135508.03194,1454872.2904605,-11
1660135508.03194,1454872.2904692,-6
1660135508.03194,1454872.2904745,-2
1660135508.03194,1454872.2904821,-9
1660135508.03194,1454872.2904921,-25
1660135508.03194,1454872.2906156,-34
1660135508.03194,1454872.2906254,-30
1660135508.03194,1454872.2906321,-32
1660135508.03194,1454872.2906391,-41
1660135508.03194,1454872.2906459,-46
1660135508.03194,1454872.2906531,-44
1660135508.03194,1454872.2906585,-41
1660135508.03194,1454872.2906621,-34
1660135508.03194,1454872.2906654,-30
1660135508.03194,1454872.2906687,-27
1660135508.03194,1454872.290672,-30
1660135508.03194,1454872.2906765,-30
1660135508.03194,1454872.2906801,-25
1660135508.04391,1454872.2906855,-16
1660135508.04391,1454872.2906888,-16
1660135508.04391,1454872.2906921,-23
1660135508.04391,1454872.2906954,-27
1660135508.04391,1454872.2906986,-27
1660135508.04391,1454872.2907018,-18
1660135508.04391,1454872.2907053,-9
1660135508.04391,1454872.2907087,-4
1660135508.04391,1454872.2907138,0
1660135508.04391,1454872.2907171,2
1660135508.04391,1454872.2907204,2
1660135508.04391,1454872.2907236,6
1660135508.04391,1454872.2907271,11
1660135508.04391,1454872.290732,23
1660135508.04391,1454872.2907353,30
1660135508.04391,1454872.2907385,27
1660135508.04391,1454872.2907428,25
1660135508.04391,1454872.2907479,32
1660135508.04391,1454872.2907514,39
1660135508.04391,1454872.9738592,46
1660135508.04391,1454872.9738877,48
1660135508.04391,1454872.973895,46
1660135508.04391,1454872.973907,25
1660135508.04391,1454872.9739129,11
1660135508.52211,1454872.9739166,18
1660135508.52211,1454872.9739204,20
1660135508.52211,1454872.9739293,16
1660135508.52211,1454872.9739328,23
1660135508.52211,1454872.9739365,16
1660135508.52211,1454872.9739401,6
1660135508.52211,1454872.9739435,30
1660135508.52211,1454872.9739471,57
1660135508.52211,1454872.9739508,71
1660135508.52211,1454872.9739545,78
1660135508.52211,1454872.9739579,41
1660135508.52211,1454872.9739614,2
1660135508.52211,1454872.9739648,20
1660135508.52211,1454872.9739683,41
1660135508.52211,1454872.9739719,34
1660135508.52211,1454872.9739754,39
1660135508.52211,1454872.9739787,46
1660135508.52211,1454872.9739823,44
1660135508.52211,1454872.9739861,48
1660135508.52211,1454872.9739896,62
1660135508.52211,1454872.9739935,67
1660135508.52211,1454872.9739972,60
1660135508.52211,1454872.9740011,60
1660135508.52211,1454872.9740595,303
1660135508.52211,1454872.9740643,1090
1660135508.52211,1454872.9740681,1542
1660135508.52211,1454872.9740715,340
1660135508.52211,1454872.9740751,-1159
1660135508.52211,1454872.9740789,-983
1660135508.52211,1454872.9740827,-206
1660135508.52211,1454872.9740858,-67
1660135508.52211,1454872.9740902,-18
1660135508.52211,1454872.9740938,146
1660135508.52211,1454872.9740975,141
1660135508.52211,1454872.974102,102
1660135508.52211,1454872.9741067,153
1660135508.52211,1454872.9741104,166
1660135508.52211,1454872.9741139,150
1660135508.52211,1454872.9741173,166
1660135508.52211,1454872.9741209,185
1660135508.52211,1454872.9741604,180
1660135508.52211,1454872.9741706,185
1660135508.52211,1454872.9741778,190
1660135508.52211,1454872.9741825,192
1660135508.52211,1454872.9741879,197
1660135508.52211,1454872.9741988,208
1660135508.52211,1454872.9742048,215
1660135508.52211,1454872.9742096,222
1660135508.52211,1454872.9742141,234
1660135508.52211,1454872.9742186,248
1660135508.53858,1454872.9742231,264
1660135508.53858,1454872.9742276,282
1660135508.53858,1454872.9742325,301
1660135508.53858,1454872.9742396,324
1660135508.53858,1454872.9742478,357
1660135508.53858,1454872.9742529,382
1660135508.53858,1454872.9742579,398
1660135508.53858,1454872.9742627,412
1660135508.53858,1454872.9742674,417
1660135508.53858,1454872.9742722,408
1660135508.53858,1454872.9742765,394
1660135508.53858,1454872.9742809,361
1660135508.53858,1454872.9742851,294
1660135508.53858,1454872.9742896,213
1660135508.53858,1454872.9742944,141
1660135508.53858,1454872.9742987,85
1660135508.53858,1454872.9743041,46
1660135508.53858,1454872.9743088,18
1660135508.53858,1454873.4607821,-4
1660135508.53858,1454873.4607969,-20
1660135508.53858,1454873.4608007,-25
1660135508.53858,1454873.4608041,-20
1660135508.53858,1454873.4608074,-11
1660135508.53858,1454873.4608125,-4
1660135509.06195,1454873.4608159,-9
1660135509.06195,1454873.4608191,-9
1660135509.06195,1454873.4608224,2
1660135509.06195,1454873.4608256,13
1660135509.06195,1454873.4608289,18
1660135509.06195,1454873.4608324,25
1660135509.06195,1454873.4608356,20
1660135509.06195,1454873.4608389,2
1660135509.06195,1454873.4608422,-2
1660135509.06195,1454873.4608455,11
1660135509.06195,1454873.4608487,16
1660135509.06195,1454873.4608521,11
1660135509.06195,1454873.4608554,0
1660135509.06195,1454873.4608587,-18
1660135509.06195,1454873.460862,-34
1660135509.06195,1454873.460868,-30
1660135509.06195,1454873.4608737,-18
1660135509.06195,1454873.4608786,-16
1660135509.06195,1454873.460884,-13
1660135509.06195,1454873.4608885,-18
1660135509.06195,1454873.4608918,-32
1660135509.06195,1454873.4608967,-34
1660135509.06195,1454873.4609014,-23
1660135509.06195,1454873.4609048,-13
1660135509.06195,1454873.4609085,-9
1660135509.06195,1454873.4609119,-9
1660135509.06195,1454873.4609151,-16
1660135509.06195,1454873.4609201,-18
1660135509.06195,1454873.4609256,-16
1660135509.06195,1454873.4609288,-13
1660135509.06195,1454873.4609322,-16
1660135509.06195,1454873.4609355,-20
1660135509.06195,1454873.4609388,-27
1660135509.06195,1454873.4609421,-30
1660135509.06195,1454873.4609453,-23
1660135509.06195,1454873.4609487,-16
1660135509.06195,1454873.4609549,-13
1660135509.06195,1454873.4610825,-11
1660135509.06195,1454873.461089,-11
1660135509.06195,1454873.4610921,-11
1660135509.06195,1454873.4610951,-2
1660135509.06195,1454873.461098,4
1660135509.06195,1454873.4611009,11
1660135509.06195,1454873.4611044,13
1660135509.06195,1454873.4611074,11
1660135509.06195,1454873.4611109,13
1660135509.06195,1454873.4611146,20
1660135509.06195,1454873.4611183,27
1660135509.06195,1454873.4611218,32
1660135509.06195,1454873.4611253,37
1660135509.07691,1454873.4611283,34
1660135509.07691,1454873.4611323,27
1660135509.07691,1454873.4611353,25
1660135509.07691,1454873.461138,30
1660135509.07691,1454873.4611408,41
1660135509.07691,1454873.4611434,51
1660135509.07691,1454873.4611462,62
1660135509.07691,1454873.4611489,81
1660135509.07691,1454873.4611516,95
1660135509.07691,1454873.4611542,115
1660135509.07691,1454873.4611567,118
1660135509.07691,1454873.4611594,83
1660135509.07691,1454873.4611621,62
1660135509.07691,1454873.4611646,81
1660135509.07691,1454873.4611673,78
1660135509.07691,1454873.4611741,64
1660135509.07691,1454873.461232,71
1660135509.07691,1454873.9968221,78
1660135509.07691,1454873.9968417,76
1660135509.07691,1454873.9968515,78
1660135509.07691,1454873.9968605,85
1660135509.07691,1454873.9968685,88
1660135509.07691,1454873.9968743,71
1660135509.07691,1454873.9968775,71
1660135509.69097,1454873.9968814,382
1660135509.69097,1454873.996887,1243
1660135509.69097,1454873.9968922,1544
1660135509.69097,1454873.9968974,113
1660135509.69097,1454873.9969025,-1284
1660135509.69097,1454873.9969084,-906
1660135509.69097,1454873.9969142,-162
1660135509.69097,1454873.9969177,-83
1660135509.69097,1454873.9969208,-11
1660135509.69097,1454873.9969248,134
1660135509.69097,1454873.9969301,99
1660135509.69097,1454873.9969356,71
1660135509.69097,1454873.9969431,113
1660135509.69097,1454873.9969505,115
1660135509.69097,1454873.9969589,111
1660135509.69097,1454873.9969687,125
1660135509.69097,1454873.9969814,127
1660135509.69097,1454873.9969893,129
1660135509.69097,1454873.996997,143
1660135509.69097,1454873.9970083,160
1660135509.69097,1454873.9970171,166
1660135509.69097,1454873.9970246,171
1660135509.69097,1454873.9970319,173
1660135509.69097,1454873.9970357,178
1660135509.69097,1454873.9970394,197
1660135509.69097,1454873.9970429,220
1660135509.69097,1454873.9970482,231
1660135509.69097,1454873.9970526,250
1660135509.69097,1454873.9970592,276
1660135509.69097,1454873.9970649,294
1660135509.69097,1454873.9970721,313
1660135509.69097,1454873.9970811,347
1660135509.69097,1454873.9970886,382
1660135509.69097,1454873.9970963,398
1660135509.69097,1454873.9971011,405
1660135509.69097,1454873.997107,408
1660135509.69097,1454873.9971156,401
1660135509.69097,1454873.9971234,382
1660135509.69097,1454873.9971329,343
1660135509.69097,1454873.9971447,276
1660135509.69097,1454873.9971544,190
1660135509.69097,1454873.9971629,118
1660135509.69097,1454873.9971701,69
1660135509.69097,1454873.9971833,25
1660135509.69097,1454873.9971916,-6
1660135509.69097,1454873.9971981,-23
1660135509.69097,1454873.9972039,-34
1660135509.69097,1454873.9972135,-44
1660135509.69097,1454873.9972205,-39
1660135509.69097,1454873.9972287,-25
1660135509.7015,1454873.9972363,-16
1660135509.7015,1454873.9972439,-6
1660135509.7015,1454873.9972517,9
1660135509.7015,1454873.9972581,18
1660135509.7015,1454873.9972668,20
1660135509.7015,1454873.9972752,18
1660135509.7015,1454873.9972797,20
1660135509.7015,1454873.9972832,32
1660135509.7015,1454873.9972895,46
1660135509.7015,1454873.9972938,51
1660135509.7015,1454873.9972996,37
1660135509.7015,1454873.9973051,37
1660135509.7015,1454873.9973108,51
1660135509.7015,1454873.9973185,60
1660135509.7015,1454873.9973251,64
1660135509.7015,1454873.9973339,55
1660135509.7015,1454874.6306637,39
1660135509.7015,1454874.630687,44
1660135509.7015,1454874.6306974,57
1660135509.7015,1454874.630706,51
1660135509.7015,1454874.6307112,44
1660135509.7015,1454874.6307178,55
1660135509.7015,1454874.6307223,46
1660135509.7015,1454874.6307276,18
1660135510.18381,1454874.6307311,18
1660135510.18381,1454874.6307345,27
1660135510.18381,1454874.630738,32
1660135510.18381,1454874.6307415,32
1660135510.18381,1454874.6307452,-2
1660135510.18381,1454874.6307486,-41
1660135510.18381,1454874.6307523,-30
1660135510.18381,1454874.6307564,-16
1660135510.18381,1454874.6307602,-23
1660135510.18381,1454874.6307639,-9
1660135510.18381,1454874.6307676,0
1660135510.18381,1454874.6307713,-13
1660135510.18381,1454874.6307751,-20
1660135510.18381,1454874.6307787,-9
1660135510.18381,1454874.6307828,-2
1660135510.18381,1454874.6307867,-6
1660135510.18381,1454874.6307909,-4
1660135510.18381,1454874.6307967,2
1660135510.18381,1454874.6308007,0
1660135510.18381,1454874.6308095,9
1660135510.18381,1454874.6308149,20
1660135510.18381,1454874.6308186,13
1660135510.18381,1454874.6308221,13
1660135510.18381,1454874.6308253,18
1660135510.18381,1454874.6308285,6
1660135510.18381,1454874.630832,2
1660135510.18381,1454874.6308358,6
1660135510.18381,1454874.6308418,9
1660135510.18381,1454874.6308455,13
1660135510.18381,1454874.630851,13
1660135510.18381,1454874.6308547,13
1660135510.18381,1454874.630859,32
1660135510.18381,1454874.6308657,53
1660135510.18381,1454874.6308696,62
1660135510.18381,1454874.6308732,83
1660135510.18381,1454874.6308764,102
1660135510.18381,1454874.6308799,67
1660135510.18381,1454874.6308834,27
1660135510.18381,1454874.6308871,46
1660135510.18381,1454874.6308929,71
1660135510.18381,1454874.6308969,69
1660135510.18381,1454874.6309026,67
1660135510.18381,1454874.6309089,67
1660135510.18381,1454874.630914,64
1660135510.18381,1454874.630917,67
1660135510.18381,1454874.6309203,64
1660135510.18381,1454874.6309269,62
1660135510.18381,1454874.6309323,78
1660135510.18381,1454874.6309358,155
1660135510.18381,1454874.6309395,487
1660135510.19478,1454874.6309433,1229
1660135510.19478,1454874.6309496,1289
1660135510.19478,1454874.6309536,-331
1660135510.19478,1454874.6309573,-1621
1660135510.19478,1454874.6309627,-976
1660135510.19478,1454874.6309678,-157
1660135510.19478,1454874.6309712,-106
1660135510.19478,1454874.6309746,34
1660135510.19478,1454874.6309782,245
1660135510.19478,1454874.6309821,208
1660135510.19478,1454874.630988,180
1660135510.19478,1454874.6309917,243
1660135510.19478,1454874.6309981,248
1660135510.19478,1454874.6310041,227
1660135510.19478,1454874.6310081,243
1660135510.19478,1454875.1195391,257
1660135510.19478,1454875.1195535,257
1660135510.19478,1454875.1195583,255
1660135510.19478,1454875.1195611,259
1660135510.19478,1454875.1195634,255
1660135510.19478,1454875.1195658,241
1660135510.19478,1454875.1195681,243
1660135510.19478,1454875.1195704,266
1660135510.19478,1454875.1195728,280
1660135510.81375,1454875.1195751,280
1660135510.81375,1454875.1195773,301
1660135510.81375,1454875.1195795,317
1660135510.81375,1454875.1195822,320
1660135510.81375,1454875.1195878,347
1660135510.81375,1454875.1195972,380
1660135510.81375,1454875.1196071,387
1660135510.81375,1454875.1196119,385
1660135510.81375,1454875.1196156,389
1660135510.81375,1454875.1196208,401
1660135510.81375,1454875.119626,394
1660135510.81375,1454875.1196347,375
1660135510.81375,1454875.1196436,347
1660135510.81375,1454875.1196482,276
1660135510.81375,1454875.1196523,176
1660135510.81375,1454875.1196545,99
1660135510.81375,1454875.1196566,41
1660135510.81375,1454875.1196806,-11
1660135510.81375,1454875.1196846,-55
1660135510.81375,1454875.119688,-78
1660135510.81375,1454875.1196912,-97
1660135510.81375,1454875.1196945,-111
1660135510.81375,1454875.1196977,-102
1660135510.81375,1454875.119701,-90
1660135510.81375,1454875.1197038,-83
1660135510.81375,1454875.1197079,-76
1660135510.81375,1454875.1197133,-67
1660135510.81375,1454875.1197197,-55
1660135510.81375,1454875.119733,-51
1660135510.81375,1454875.1197462,-34
1660135510.81375,1454875.1197586,-9
1660135510.81375,1454875.119767,-11
1660135510.81375,1454875.1197715,-20
1660135510.81375,1454875.1197758,-6
1660135510.81375,1454875.1197822,-2
1660135510.81375,1454875.1197864,-9
1660135510.81375,1454875.1197938,-4
1660135510.81375,1454875.1197989,2
1660135510.81375,1454875.1198046,-6
1660135510.81375,1454875.1198101,-18
1660135510.81375,1454875.1198141,2
1660135510.81375,1454875.1198201,18
1660135510.81375,1454875.1198263,2
1660135510.81375,1454875.1198326,-2
1660135510.81375,1454875.1198387,2
1660135510.81375,1454875.119845,-2
1660135510.81375,1454875.1198497,11
1660135510.81375,1454875.119856,20
1660135510.81375,1454875.1198603,4
1660135510.81375,1454875.1198676,-2
1660135510.82473,1454875.1198721,0
1660135510.82473,1454875.1198783,0
1660135510.82473,1454875.1198827,-2
1660135510.82473,1454875.1198894,-4
1660135510.82473,1454875.1198978,11
1660135510.82473,1454875.1199036,16
1660135510.82473,1454875.119911,4
1660135510.82473,1454875.1199154,6
1660135510.82473,1454875.1199215,13
1660135510.82473,1454875.1199258,11
1660135510.82473,1454875.1199316,16
1660135510.82473,1454875.1199358,11
1660135510.82473,1454875.119942,-11
1660135510.82473,1454875.1199464,-18
1660135510.82473,1454875.7518197,-9
1660135510.82473,1454875.7518371,-9
1660135510.82473,1454875.7518449,-9
1660135510.82473,1454875.7518525,-11
1660135510.82473,1454875.7518582,-13
1660135510.82473,1454875.7518669,-13
1660135510.82473,1454875.7518755,-9
1660135510.82473,1454875.7518889,0
1660135510.82473,1454875.7518995,4
1660135510.82473,1454875.7519094,0
1660135511.39499,1454875.7519224,2
1660135511.39499,1454875.7519314,16
1660135511.39499,1454875.7519386,4
1660135511.39499,1454875.7519448,-23
1660135511.39499,1454875.7519561,-18
1660135511.39499,1454875.7519645,6
1660135511.39499,1454875.7519739,18
1660135511.39499,1454875.7519831,6
1660135511.39499,1454875.7519896,-20
1660135511.39499,1454875.7519919,-37
1660135511.39499,1454875.7519948,-39
1660135511.39499,1454875.7520044,-34
1660135511.39499,1454875.7520168,-30
1660135511.39499,1454875.7520205,-20
1660135511.39499,1454875.7520226,-11
1660135511.39499,1454875.7520247,-9
1660135511.39499,1454875.7520319,-4
1660135511.39499,1454875.752041,6
1660135511.39499,1454875.7520489,32
1660135511.39499,1454875.7520535,111
1660135511.39499,1454875.7520593,394
1660135511.39499,1454875.7520633,1043
1660135511.39499,1454875.7520722,1219
1660135511.39499,1454875.7520855,-238
1660135511.39499,1454875.7520946,-1707
1660135511.39499,1454875.7520973,-1231
1660135511.39499,1454875.7520994,-289
1660135511.39499,1454875.7521018,-143
1660135511.39499,1454875.7521098,-37
1660135511.39499,1454875.7521226,180
1660135511.39499,1454875.7521358,185
1660135511.39499,1454875.7521492,153
1660135511.39499,1454875.7521575,206
1660135511.39499,1454875.7521601,218
1660135511.39499,1454875.7521622,204
1660135511.39499,1454875.7521643,222
1660135511.39499,1454875.7521694,231
1660135511.39499,1454875.7521808,229
1660135511.39499,1454875.7521921,236
1660135511.39499,1454875.7522065,238
1660135511.39499,1454875.7522197,238
1660135511.39499,1454875.752233,248
1660135511.39499,1454875.7522464,250
1660135511.39499,1454875.7522596,257
1660135511.39499,1454875.7522726,271
1660135511.39499,1454875.7522824,287
1660135511.39499,1454875.7522918,299
1660135511.39499,1454875.7523032,303
1660135511.39499,1454875.7523113,315
1660135511.39499,1454875.7523223,333
1660135511.41294,1454875.7523331,359
1660135511.41294,1454875.7523422,385
1660135511.41294,1454875.7523557,405
1660135511.41294,1454875.7523643,405
1660135511.41294,1454875.7523738,396
1660135511.41294,1454875.7523849,401
1660135511.41294,1454875.752393,403
1660135511.41294,1454875.7524065,378
1660135511.41294,1454875.7524168,333
1660135511.41294,1454875.7524254,271
1660135511.41294,1454875.7524368,187
1660135511.41294,1454875.7524452,115
1660135511.41294,1454875.7524563,69
1660135511.41294,1454876.3374944,32
1660135511.41294,1454876.3375124,6
1660135511.41294,1454876.3375206,-9
1660135511.41294,1454876.3375277,-25
1660135511.41294,1454876.3375327,-37
1660135511.41294,1454876.3375369,-34
1660135511.41294,1454876.337542,-23
1660135511.41294,1454876.3375459,-11
1660135511.41294,1454876.3375498,-6
1660135511.41294,1454876.3375539,-18
1660135511.41294,1454876.337558,-30
1660135511.879,1454876.3375618,-13
1660135511.879,1454876.337566,6
1660135511.879,1454876.3375707,13
1660135511.879,1454876.3375752,25
1660135511.879,1454876.3375793,32
1660135511.879,1454876.3375833,30
1660135511.879,1454876.3375879,37
1660135511.879,1454876.3375928,46
1660135511.879,1454876.3375967,51
1660135511.879,1454876.3376008,48
1660135511.879,1454876.3376053,39
1660135511.879,1454876.3376095,20
1660135511.879,1454876.3376155,6
1660135511.879,1454876.3376209,9
1660135511.879,1454876.3376271,13
1660135511.879,1454876.3376309,2
1660135511.879,1454876.3376364,-4
1660135511.879,1454876.3376416,0
1660135511.879,1454876.337648,4
1660135511.879,1454876.3376523,6
1660135511.879,1454876.3376583,16
1660135511.879,1454876.3376625,20
1660135511.879,1454876.3376667,18
1660135511.879,1454876.3376705,18
1660135511.879,1454876.3376763,23
1660135511.879,1454876.3376815,27
1660135511.879,1454876.3376871,34
1660135511.879,1454876.3376919,39
1660135511.879,1454876.3377025,39
1660135511.879,1454876.3377126,39
1660135511.879,1454876.3377179,41
1660135511.879,1454876.337722,46
1660135511.879,1454876.3377278,53
1660135511.879,1454876.3377318,55
1660135511.879,1454876.3377379,53
1660135511.879,1454876.3377441,57
1660135511.879,1454876.3377501,57
1660135511.879,1454876.3377543,62
1660135511.879,1454876.3377587,69
1660135511.879,1454876.3377647,71
1660135511.879,1454876.337769,69
1660135511.879,1454876.3377735,71
1660135511.879,1454876.3377799,74
1660135511.879,1454876.3377835,71
1660135511.879,1454876.3377874,67
1660135511.879,1454876.3377918,46
1660135511.879,1454876.3377958,20
1660135511.879,1454876.3377997,13
1660135511.879,1454876.3378061,18
1660135511.879,1454876.33781,16
1660135511.88997,1454876.3378156,18
1660135511.88997,1454876.3378215,53
1660135511.88997,1454876.3378276,69
1660135511.88997,1454876.3378313,41
1660135511.88997,1454876.3378347,32
1660135511.88997,1454876.3378384,44
1660135511.88997,1454876.3378422,37
1660135511.88997,1454876.3378458,34
1660135511.88997,1454876.3378497,46
1660135511.88997,1454876.3378537,39
1660135511.88997,1454876.3378604,39
1660135511.88997,1454876.3378645,62
1660135511.88997,1454876.8254526,60
1660135511.88997,1454876.8254717,39
1660135511.88997,1454876.8254812,32
1660135511.88997,1454876.8254889,57
1660135511.88997,1454876.8254957,359
1660135511.88997,1454876.8255026,1161
1660135511.88997,1454876.8255086,1396
1660135511.88997,1454876.8255136,-74
1660135511.88997,1454876.8255249,-1424
1660135511.88997,1454876.8255281,-932
1660135511.88997,1454876.8255328,-169
1660135511.88997,1454876.8255384,-134
1660135512.61142,1454876.825544,-55
1660135512.61142,1454876.8255484,113
1660135512.61142,1454876.8255554,81
1660135512.61142,1454876.8255621,62
1660135512.61142,1454876.825569,120
1660135512.61142,1454876.8255753,113
1660135512.61142,1454876.8255795,81
1660135512.61142,1454876.8255839,88
1660135512.61142,1454876.8255883,90
1660135512.61142,1454876.8255936,92
1660135512.61142,1454876.8256009,115
1660135512.61142,1454876.8256088,127
1660135512.61142,1454876.8256152,115
1660135512.61142,1454876.8256214,99
1660135512.61142,1454876.825625,97
1660135512.61142,1454876.8256302,115
1660135512.61142,1454876.8256344,136
1660135512.61142,1454876.8256386,143
1660135512.61142,1454876.8256421,155
1660135512.61142,1454876.825645,171
1660135512.61142,1454876.8256481,180
1660135512.61142,1454876.825651,206
1660135512.61142,1454876.8256539,245
1660135512.61142,1454876.8256569,282
1660135512.61142,1454876.8256611,310
1660135512.61142,1454876.8256671,331
1660135512.61142,1454876.8256719,336
1660135512.61142,1454876.825675,331
1660135512.61142,1454876.8256781,327
1660135512.61142,1454876.8256811,315
1660135512.61142,1454876.825684,280
1660135512.61142,1454876.8256868,213
1660135512.61142,1454876.8256898,132
1660135512.61142,1454876.8256927,69
1660135512.61142,1454876.8256956,20
1660135512.61142,1454876.8256985,-18
1660135512.61142,1454876.825702,-46
1660135512.61142,1454876.8257192,-78
1660135512.61142,1454876.8257307,-109
1660135512.61142,1454876.8257398,-109
1660135512.61142,1454876.8257484,-95
1660135512.61142,1454876.825756,-83
1660135512.61142,1454876.8257684,-71
1660135512.61142,1454876.8257791,-64
1660135512.61142,1454876.825786,-62
1660135512.61142,1454876.825799,-55
1660135512.61142,1454876.825808,-41
1660135512.61142,1454876.8258147,-27
1660135512.61142,1454876.82582,-18
1660135512.61142,1454876.8258257,-9
1660135512.62239,1454876.8258597,-4
1660135512.62239,1454876.8258711,-9
1660135512.62239,1454876.8258764,-4
1660135512.62239,1454876.8258807,9
1660135512.62239,1454876.825885,18
1660135512.62239,1454876.8258895,20
1660135512.62239,1454876.8258939,18
1660135512.62239,1454876.8258986,18
1660135512.62239,1454876.8259033,18
1660135512.62239,1454876.8259075,20
1660135512.62239,1454876.8259123,25
1660135512.62239,1454877.5558232,32
1660135512.62239,1454877.5558418,34
1660135512.62239,1454877.5558515,32
1660135512.62239,1454877.5558565,34
1660135512.62239,1454877.555864,39
1660135512.62239,1454877.5558689,39
1660135512.62239,1454877.5558743,39
1660135512.62239,1454877.5558779,44
1660135512.62239,1454877.5558843,30
1660135512.62239,1454877.5558932,2
1660135512.62239,1454877.5559007,-4
1660135512.62239,1454877.555912,11
1660135512.62239,1454877.5559188,13
1660135513.11821,1454877.5559258,6
1660135513.11821,1454877.5559359,13
1660135513.11821,1454877.555945,9
1660135513.11821,1454877.5559518,-13
1660135513.11821,1454877.5559569,-11
1660135513.11821,1454877.5559623,4
1660135513.11821,1454877.5559685,6
1660135513.11821,1454877.5559737,9
1660135513.11821,1454877.5559829,13
1660135513.11821,1454877.5559903,4
1660135513.11821,1454877.5559932,2
1660135513.11821,1454877.5560006,13
1660135513.11821,1454877.5560434,13
1660135513.11821,1454877.5560574,13
1660135513.11821,1454877.556071,18
1660135513.11821,1454877.5560844,23
1660135513.11821,1454877.5560967,32
1660135513.11821,1454877.5561063,46
1660135513.11821,1454877.5561138,64
1660135513.11821,1454877.556123,85
1660135513.11821,1454877.5561536,85
1660135513.11821,1454877.5561577,64
1660135513.11821,1454877.5561706,64
1660135513.11821,1454877.556185,71
1660135513.11821,1454877.5561983,64
1660135513.11821,1454877.5562069,69
1660135513.11821,1454877.5562117,74
1660135513.11821,1454877.5562139,57
1660135513.11821,1454877.5562159,37
1660135513.11821,1454877.5562181,30
1660135513.11821,1454877.5562202,34
1660135513.11821,1454877.5562222,30
1660135513.11821,1454877.5562243,25
1660135513.11821,1454877.5562263,136
1660135513.11821,1454877.5562284,679
1660135513.11821,1454877.5562305,1440
1660135513.11821,1454877.5562325,964
1660135513.11821,1454877.5562346,-723

1660135513.11821,1454877.5562374,-1254
1660135513.11821,1454877.5562394,-489
1660135513.11821,1454877.5562423,-111
1660135513.11821,1454877.5562444,-83
1660135513.11821,1454877.5562465,95
1660135513.11821,1454877.5562504,166
1660135513.11821,1454877.556253,104
1660135513.11821,1454877.5562796,122
1660135513.11821,1454877.5562926,155
1660135513.11821,1454877.5563007,129
1660135513.11821,1454877.5563188,120
1660135513.11821,1454877.5563234,136
1660135513.17107,1454877.5563276,146
1660135513.17107,1454877.5563319,146
1660135513.17107,1454877.5563362,155
1660135513.17107,1454877.5563406,160
1660135513.17107,1454877.5563452,160
1660135513.17107,1454877.55635,162
1660135513.17107,1454877.5563541,185
1660135513.17107,1454877.5563583,211
1660135513.17107,1454877.5563623,220
1660135513.17107,1454877.5563917,218
1660135513.17107,1454877.9941924,222
1660135513.17107,1454877.9942084,257
1660135513.17107,1454877.9942145,296
1660135513.17107,1454877.9942254,322
1660135513.17107,1454877.9942342,352
1660135513.17107,1454877.9942417,380
1660135513.17107,1454877.9942442,394
1660135513.17107,1454877.9942463,415
1660135513.17107,1454877.9942484,433
1660135513.17107,1454877.9942505,424
1660135513.17107,1454877.9942526,394
1660135513.17107,1454877.9942546,350
1660135513.17107,1454877.9942569,276
1660135513.17107,1454877.994259,169
1660135513.63464,1454877.994261,74
1660135513.63464,1454877.994263,25
1660135513.63464,1454877.994265,-13
1660135513.63464,1454877.9942669,-53
1660135513.63464,1454877.9942688,-71
1660135513.63464,1454877.9942707,-81
1660135513.63464,1454877.9942727,-88
1660135513.63464,1454877.9942747,-90
1660135513.63464,1454877.9942766,-83
1660135513.63464,1454877.9942785,-67
1660135513.63464,1454877.9942804,-67
1660135513.63464,1454877.9942823,-74
1660135513.63464,1454877.9942842,-55
1660135513.63464,1454877.9942861,-27
1660135513.63464,1454877.9942886,-25
1660135513.63464,1454877.9942973,-23
1660135513.63464,1454877.9943069,-23
1660135513.63464,1454877.9943105,-25
1660135513.63464,1454877.9943127,-6
1660135513.63464,1454877.9943149,-2
1660135513.63464,1454877.9943169,-27
1660135513.63464,1454877.994319,-25
1660135513.63464,1454877.9943211,-4
1660135513.63464,1454877.9943231,-4
1660135513.63464,1454877.9943252,-18
1660135513.63464,1454877.9943272,-6
1660135513.63464,1454877.9943293,6
1660135513.63464,1454877.9943313,6
1660135513.63464,1454877.9943333,9
1660135513.63464,1454877.9943361,13
1660135513.63464,1454877.9943382,9
1660135513.63464,1454877.9943402,16
1660135513.63464,1454877.9943423,27
1660135513.63464,1454877.9943442,27
1660135513.63464,1454877.9943463,25
1660135513.63464,1454877.9943484,37
1660135513.63464,1454877.9943504,44
1660135513.63464,1454877.9943524,34
1660135513.63464,1454877.9943545,32
1660135513.63464,1454877.9943565,53
1660135513.63464,1454877.9943586,64
1660135513.63464,1454877.9943606,51
1660135513.63464,1454877.9943627,48
1660135513.63464,1454877.9943647,67
1660135513.63464,1454877.9943669,74
1660135513.63464,1454877.9943689,60
1660135513.63464,1454877.994371,64
1660135513.63464,1454877.9943731,85
1660135513.63464,1454877.9943752,83
1660135513.63464,1454877.9943772,67
1660135513.64362,1454877.9943792,64
1660135513.64362,1454877.9943812,67
1660135513.64362,1454877.9943832,71
1660135513.64362,1454877.9943853,90
1660135513.64362,1454877.9943873,104
1660135513.64362,1454877.9943894,111
1660135513.64362,1454877.9943915,113
1660135513.64362,1454877.9943936,102
1660135513.64362,1454877.9943957,95
1660135513.64362,1454878.5810138,99
1660135513.64362,1454878.5810294,97
1660135513.64362,1454878.5810356,97
1660135513.64362,1454878.5810412,97
1660135513.64362,1454878.5810455,92
1660135513.64362,1454878.5810502,97
1660135513.64362,1454878.5810535,111
1660135513.64362,1454878.5810569,113
1660135513.64362,1454878.5810621,111
1660135513.64362,1454878.5810665,129
1660135513.64362,1454878.5810699,215
1660135513.64362,1454878.5810751,545
1660135513.64362,1454878.5810784,1192
1660135513.64362,1454878.5810816,1097
1660135513.64362,1454878.581085,-561
1660135514.12193,1454878.5810904,-1753
1660135514.12193,1454878.5810937,-1062
1660135514.12193,1454878.5810971,-250
1660135514.12193,1454878.5811008,-150
1660135514.12193,1454878.581104,13
1660135514.12193,1454878.5811073,208
1660135514.12193,1454878.5811106,192
1660135514.12193,1454878.5811138,169
1660135514.12193,1454878.5811172,201
1660135514.12193,1454878.5811204,201
1660135514.12193,1454878.5811236,192
1660135514.12193,1454878.5811268,192
1660135514.12193,1454878.58113,190
1660135514.12193,1454878.5811333,190
1660135514.12193,1454878.5811365,192
1660135514.12193,1454878.5811399,204
1660135514.12193,1454878.5811448,213
1660135514.12193,1454878.5811482,218
1660135514.12193,1454878.5811514,231
1660135514.12193,1454878.5811547,241
1660135514.12193,1454878.5811585,243
1660135514.12193,1454878.5811619,252
1660135514.12193,1454878.5811652,276
1660135514.12193,1454878.5811686,294
1660135514.12193,1454878.5811741,306
1660135514.12193,1454878.5811775,331
1660135514.12193,1454878.581181,354
1660135514.12193,1454878.5811843,373
1660135514.12193,1454878.5811877,401
1660135514.12193,1454878.5811913,426
1660135514.12193,1454878.5811963,419
1660135514.12193,1454878.5811996,398
1660135514.12193,1454878.5812029,375
1660135514.12193,1454878.5812063,331
1660135514.12193,1454878.5812097,255
1660135514.12193,1454878.5812131,173
1660135514.12193,1454878.5812164,102
1660135514.12193,1454878.5812199,27
1660135514.12193,1454878.5812232,-30
1660135514.12193,1454878.5812265,-62
1660135514.12193,1454878.5812298,-90
1660135514.12193,1454878.581233,-102
1660135514.12193,1454878.5812364,-95
1660135514.12193,1454878.5812396,-88
1660135514.12193,1454878.5812429,-92
1660135514.12193,1454878.5812464,-88
1660135514.12193,1454878.5812497,-74
1660135514.12193,1454878.581253,-55
1660135514.12193,1454878.5812563,-41
1660135514.12193,1454878.5812596,-34
1660135514.1329,1454878.5812632,-30
1660135514.1329,1454878.5812667,-20
1660135514.1329,1454878.581272,-13
1660135514.1329,1454878.5812756,-9
1660135514.1329,1454878.5812804,2
1660135514.1329,1454878.5812848,11
1660135514.1329,1454878.5812897,9
1660135514.1329,1454878.581293,4
1660135514.1329,1454879.0670553,4
1660135514.1329,1454879.067069,13
1660135514.1329,1454879.0670717,20
1660135514.1329,1454879.067075,20
1660135514.1329,1454879.0670771,13
1660135514.1329,1454879.0670793,11
1660135514.1329,1454879.0670813,2
1660135514.1329,1454879.0670835,-6
1660135514.1329,1454879.0670856,0
1660135514.1329,1454879.0670877,6
1660135514.1329,1454879.0670897,0
1660135514.1329,1454879.0670917,6
1660135514.1329,1454879.0670958,20
1660135514.1329,1454879.0671067,16
1660135514.1329,1454879.0671134,9
1660135514.1329,1454879.0671193,13
1660135514.71148,1454879.0671298,16
1660135514.71148,1454879.0671333,18
1660135514.71148,1454879.0671355,18
1660135514.71148,1454879.0671374,9
1660135514.71148,1454879.0671394,9
1660135514.71148,1454879.0671413,18
1660135514.71148,1454879.0671446,18
1660135514.71148,1454879.0671531,23
1660135514.71148,1454879.0671589,23
1660135514.71148,1454879.0671632,11
1660135514.71148,1454879.0671682,4
1660135514.71148,1454879.0671739,9
1660135514.71148,1454879.0671825,11
1660135514.71148,1454879.0671916,11
1660135514.71148,1454879.0671963,11
1660135514.71148,1454879.0671993,-2
1660135514.71148,1454879.0672015,-13
1660135514.71148,1454879.0672037,-2
1660135514.71148,1454879.0672113,13
1660135514.71148,1454879.0672222,37
1660135514.71148,1454879.0672258,57
1660135514.71148,1454879.0672297,44
1660135514.71148,1454879.0672318,23
1660135514.71148,1454879.0672368,30
1660135514.71148,1454879.0672483,34
1660135514.71148,1454879.0672537,30
1660135514.71148,1454879.0672568,39
1660135514.71148,1454879.0672589,48
1660135514.71148,1454879.0672615,46
1660135514.71148,1454879.0672709,39
1660135514.71148,1454879.0672806,34
1660135514.71148,1454879.067285,41
1660135514.71148,1454879.0672891,41
1660135514.71148,1454879.0672953,78
1660135514.71148,1454879.0673017,442
1660135514.71148,1454879.0673075,1270
1660135514.71148,1454879.0673114,1338
1660135514.71148,1454879.067317,-234
1660135514.71148,1454879.0673208,-1366
1660135514.71148,1454879.0673247,-763
1660135514.71148,1454879.0673302,-118
1660135514.71148,1454879.0673338,-106
1660135514.71148,1454879.0673396,20
1660135514.71148,1454879.067344,180
1660135514.71148,1454879.0673497,136
1660135514.71148,1454879.0673538,125
1660135514.71148,1454879.0673595,178
1660135514.71148,1454879.0673651,166
1660135514.71148,1454879.0673714,150
1660135514.71148,1454879.0673751,171
1660135514.72245,1454879.0673787,180
1660135514.72245,1454879.0673843,178
1660135514.72245,1454879.0673898,187
1660135514.72245,1454879.067394,190
1660135514.72245,1454879.0673994,185
1660135514.72245,1454879.0674035,185
1660135514.72245,1454879.0674089,190
1660135514.72245,1454879.6532905,201
1660135514.72245,1454879.6533129,213
1660135514.72245,1454879.6533281,220
1660135514.72245,1454879.6533448,224
1660135514.72245,1454879.653359,234
1660135514.72245,1454879.6533729,250
1660135514.72245,1454879.6533858,273
1660135514.72245,1454879.6533952,303
1660135514.72245,1454879.6534026,327
1660135514.72245,1454879.6534118,329
1660135514.72245,1454879.6534177,327
1660135514.72245,1454879.6534263,331
1660135514.72245,1454879.6534374,320
1660135514.72245,1454879.6534468,301
1660135514.72245,1454879.6534516,276
1660135514.72245,1454879.653457,201
1660135514.72245,1454879.6534606,95
1660135515.30042,1454879.653466,16
1660135515.30042,1454879.6534701,-41
1660135515.30042,1454879.6534738,-92
1660135515.30042,1454879.6534828,-125
1660135515.30042,1454879.653494,-150
1660135515.30042,1454879.6535056,-169
1660135515.30042,1454879.6535102,-169
1660135515.30042,1454879.6535227,-162
1660135515.30042,1454879.6535313,-157
1660135515.30042,1454879.6535338,-148
1660135515.30042,1454879.653536,-141
1660135515.30042,1454879.6535382,-134
1660135515.30042,1454879.6535432,-122
1660135515.30042,1454879.6535549,-104
1660135515.30042,1454879.6535603,-90
1660135515.30042,1454879.6535648,-81
1660135515.30042,1454879.6535669,-69
1660135515.30042,1454879.653569,-64
1660135515.30042,1454879.6535711,-57
1660135515.30042,1454879.6535761,-51
1660135515.30042,1454879.6535879,-48
1660135515.30042,1454879.653594,-44
1660135515.30042,1454879.6535964,-37
1660135515.30042,1454879.6535984,-37
1660135515.30042,1454879.6536005,-34
1660135515.30042,1454879.6536026,-30
1660135515.30042,1454879.6536046,-20
1660135515.30042,1454879.6536113,-16
1660135515.30042,1454879.6536225,-13
1660135515.30042,1454879.6536272,-11
1660135515.30042,1454879.6536294,-9
1660135515.30042,1454879.6536315,-4
1660135515.30042,1454879.653638,2
1660135515.30042,1454879.6536496,9
1660135515.30042,1454879.6536542,11
1660135515.30042,1454879.6536574,13
1660135515.30042,1454879.6536595,18
1660135515.30042,1454879.6536618,20
1660135515.30042,1454879.6536691,27
1660135515.30042,1454879.6536834,32
1660135515.30042,1454879.6536969,34
1660135515.30042,1454879.6537104,39
1660135515.30042,1454879.653724,44
1660135515.30042,1454879.6537334,46
1660135515.30042,1454879.6537358,53
1660135515.30042,1454879.653738,57
1660135515.30042,1454879.6537401,55
1660135515.30042,1454879.6537422,57
1660135515.30042,1454879.6537489,60
1660135515.30042,1454879.6537622,57
1660135515.30839,1454879.6537709,51
1660135515.30839,1454879.6537754,46
1660135515.30839,1454879.6537882,48
1660135515.30839,1454879.6538022,57
1660135515.30839,1454879.6538157,71
1660135515.30839,1454879.653823,92
1660135515.30839,1454880.2370427,111
1660135515.30839,1454880.2370564,97
1660135515.30839,1454880.2370593,74
1660135515.30839,1454880.2370616,71
1660135515.30839,1454880.2370639,62
1660135515.30839,1454880.237066,48
1660135515.30839,1454880.2370682,55
1660135515.30839,1454880.2370703,60
1660135515.30839,1454880.2370723,60
1660135515.30839,1454880.2370744,62
1660135515.30839,1454880.2370765,71
1660135515.30839,1454880.2370786,74
1660135515.30839,1454880.2370808,44
1660135515.30839,1454880.2370828,37
1660135515.30839,1454880.2370849,308
1660135515.30839,1454880.237087,1094
1660135515.30839,1454880.2370895,1491
1660135515.30839,1454880.2370965,224
1660135515.8361,1454880.2371088,-1259
1660135515.8361,1454880.2371124,-1004
1660135515.8361,1454880.2371146,-215
1660135515.8361,1454880.2371166,-106
1660135515.8361,1454880.2371186,-34
1660135515.8361,1454880.2371213,150
1660135515.8361,1454880.2371321,127
1660135515.8361,1454880.2371382,69
1660135515.8361,1454880.2371406,113
1660135515.8361,1454880.2371427,127
1660135515.8361,1454880.2371448,106
1660135515.8361,1454880.2371468,115
1660135515.8361,1454880.2371489,134
1660135515.8361,1454880.2371513,136
1660135515.8361,1454880.2371619,139
1660135515.8361,1454880.23717,146
1660135515.8361,1454880.2371726,160
1660135515.8361,1454880.2371747,171
1660135515.8361,1454880.2371768,183
1660135515.8361,1454880.2371794,192
1660135515.8361,1454880.2371897,199
1660135515.8361,1454880.2371978,218
1660135515.8361,1454880.2372002,241
1660135515.8361,1454880.2372025,262
1660135515.8361,1454880.2372046,285
1660135515.8361,1454880.2372067,315
1660135515.8361,1454880.2372088,340
1660135515.8361,1454880.2372109,368
1660135515.8361,1454880.2372129,401
1660135515.8361,1454880.237215,426
1660135515.8361,1454880.2372178,433
1660135515.8361,1454880.2372206,424
1660135515.8361,1454880.2372227,403
1660135515.8361,1454880.2372247,364
1660135515.8361,1454880.2372269,306
1660135515.8361,1454880.237229,234
1660135515.8361,1454880.2372312,153
1660135515.8361,1454880.2372332,81
1660135515.8361,1454880.2372353,27
1660135515.8361,1454880.2372375,-13
1660135515.8361,1454880.2372396,-39
1660135515.8361,1454880.2372418,-55
1660135515.8361,1454880.2372439,-69
1660135515.8361,1454880.237246,-74
1660135515.8361,1454880.2372481,-71
1660135515.8361,1454880.2372502,-74
1660135515.8361,1454880.2372523,-74
1660135515.8361,1454880.2372544,-67
1660135515.8361,1454880.2372565,-60
1660135515.8361,1454880.2372589,-55
1660135515.84608,1454880.2372653,-53
1660135515.84608,1454880.2372718,-51
1660135515.84608,1454880.2372799,-53
1660135515.84608,1454880.2372886,-55
1660135515.84608,1454880.237296,-46
1660135515.84608,1454880.773406,-37
1660135515.84608,1454880.7734282,-32
1660135515.84608,1454880.7734383,-32
1660135515.84608,1454880.7734472,-30
1660135515.84608,1454880.7734557,-25
1660135515.84608,1454880.7734597,-18
1660135515.84608,1454880.7734701,-16
1660135515.84608,1454880.7734735,-20
1660135515.84608,1454880.7734778,-25
1660135515.84608,1454880.7734798,-39
1660135515.84608,1454880.7734819,-48
1660135515.84608,1454880.7734841,-37
1660135515.84608,1454880.7734874,-27
1660135515.84608,1454880.7734896,-27
1660135515.84608,1454880.7734921,-25
1660135515.84608,1454880.7735001,-39
1660135515.84608,1454880.7735115,-53
1660135515.84608,1454880.7735163,-44
1660135515.84608,1454880.7735185,-37
1660135516.36951,1454880.7735207,-48
1660135516.36951,1454880.773524,-41
1660135516.36951,1454880.773535,-27
1660135516.36951,1454880.7735405,-25
1660135516.36951,1454880.7735427,-23
1660135516.36951,1454880.7735446,-18
1660135516.36951,1454880.7735482,-9
1660135516.36951,1454880.7735579,2
1660135516.36951,1454880.7735682,11
1660135516.36951,1454880.7735804,11
1660135516.36951,1454880.7735936,11
1660135516.36951,1454880.7736046,13
1660135516.36951,1454880.7736083,13
1660135516.36951,1454880.7736159,23
1660135516.36951,1454880.7736268,25
1660135516.36951,1454880.7736313,20
1660135516.36951,1454880.7736335,39
1660135516.36951,1454880.7736358,57
1660135516.36951,1454880.7736379,64
1660135516.36951,1454880.77364,88
1660135516.36951,1454880.7736434,106
1660135516.36951,1454880.7736533,83
1660135516.36951,1454880.7736623,69
1660135516.36951,1454880.7736648,83
1660135516.36951,1454880.773667,88
1660135516.36951,1454880.7736691,81
1660135516.36951,1454880.7736714,83
1660135516.36951,1454880.7736735,88
1660135516.36951,1454880.7736755,99
1660135516.36951,1454880.7736781,102
1660135516.36951,1454880.7736882,97
1660135516.36951,1454880.7737004,97
1660135516.36951,1454880.7737099,85
1660135516.36951,1454880.7737151,106
1660135516.36951,1454880.773722,424
1660135516.36951,1454880.7737276,1224
1660135516.36951,1454880.7737344,1477
1660135516.36951,1454880.7737386,69
1660135516.36951,1454880.7737446,-1289
1660135516.36951,1454880.7737501,-876
1660135516.36951,1454880.773756,-118
1660135516.36951,1454880.7737619,-44
1660135516.36951,1454880.7737761,37
1660135516.36951,1454880.7737899,204
1660135516.36951,1454880.773799,166
1660135516.36951,1454880.7738108,127
1660135516.36951,1454880.7738202,178
1660135516.36951,1454880.7738228,178
1660135516.36951,1454880.773825,164
1660135516.36951,1454880.7738271,197
1660135516.38048,1454880.7738292,206
1660135516.38048,1454880.7738312,190
1660135516.38048,1454880.773834,204
1660135516.38048,1454880.7738442,218
1660135516.38048,1454881.3090996,215
1660135516.38048,1454881.3091195,220
1660135516.38048,1454881.309135,241
1660135516.38048,1454881.3091496,255
1660135516.38048,1454881.3091632,262
1660135516.38048,1454881.3091756,278
1660135516.38048,1454881.3091875,292
1660135516.38048,1454881.3091927,306
1660135516.38048,1454881.309199,338
1660135516.38048,1454881.3092036,366
1660135516.38048,1454881.3092098,389
1660135516.38048,1454881.3092145,417
1660135516.38048,1454881.3092207,426
1660135516.38048,1454881.3092268,422
1660135516.38048,1454881.3092335,433
1660135516.38048,1454881.3092391,433
1660135516.38048,1454881.3092445,405
1660135516.38048,1454881.3092516,366
1660135516.38048,1454881.3092582,303
1660135516.38048,1454881.3092642,194
1660135516.90301,1454881.3092689,95
1660135516.90301,1454881.3092733,32
1660135516.90301,1454881.309278,-25
1660135516.90301,1454881.3092827,-64
1660135516.90301,1454881.3092873,-85
1660135516.90301,1454881.3092919,-102
1660135516.90301,1454881.3092965,-113
1660135516.90301,1454881.3093011,-115
1660135516.90301,1454881.3093057,-102
1660135516.90301,1454881.3093113,-85
1660135516.90301,1454881.3093175,-92
1660135516.90301,1454881.3093221,-95
1660135516.90301,1454881.3093283,-69
1660135516.90301,1454881.3093338,-48
1660135516.90301,1454881.3093399,-41
1660135516.90301,1454881.3093798,-30
1660135516.90301,1454881.3094342,-20
1660135516.90301,1454881.3094432,-25
1660135516.90301,1454881.3094482,-30
1660135516.90301,1454881.3094523,-20
1660135516.90301,1454881.3094579,-13
1660135516.90301,1454881.3094635,-25
1660135516.90301,1454881.3094703,-39
1660135516.90301,1454881.3094788,-37
1660135516.90301,1454881.3094853,-27
1660135516.90301,1454881.3094919,-20
1660135516.90301,1454881.3094986,-18
1660135516.90301,1454881.309505,-30
1660135516.90301,1454881.3095117,-25
1660135516.90301,1454881.3095185,-6
1660135516.90301,1454881.309525,-4
1660135516.90301,1454881.3095315,-9
1660135516.90301,1454881.3095385,-9
1660135516.90301,1454881.3095445,-2
1660135516.90301,1454881.3095508,11
1660135516.90301,1454881.3095566,-4
1660135516.90301,1454881.3095628,-32
1660135516.90301,1454881.3095692,-18
1660135516.90301,1454881.3095754,0
1660135516.90301,1454881.309581,0
1660135516.90301,1454881.3095871,6
1660135516.90301,1454881.3096539,6
1660135516.90301,1454881.3096664,2
1660135516.90301,1454881.3096737,6
1660135516.90301,1454881.3096797,20
1660135516.90301,1454881.3096867,37
1660135516.90301,1454881.3096921,37
1660135516.90301,1454881.3096961,30
1660135516.90301,1454881.3096994,41
1660135516.90301,1454881.3097039,57
1660135516.91298,1454881.3097096,51
1660135516.91298,1454881.3097156,44
1660135516.91298,1454881.3097196,48
1660135516.91298,1454881.8463702,44
1660135516.91298,1454881.8463887,41
1660135516.91298,1454881.8463933,51
1660135516.91298,1454881.8463978,55
1660135516.91298,1454881.8464025,60
1660135516.91298,1454881.8464066,83
1660135516.91298,1454881.8464112,97
1660135516.91298,1454881.8464148,81
1660135516.91298,1454881.8464193,67
1660135516.91298,1454881.846424,51
1660135516.91298,1454881.846428,34
1660135516.91298,1454881.8464321,41
1660135516.91298,1454881.8464365,55
1660135516.91298,1454881.84644,57
1660135516.91298,1454881.8464435,51
1660135516.91298,1454881.8464471,39
1660135516.91298,1454881.8464506,30
1660135516.91298,1454881.8464541,39
1660135516.91298,1454881.8464576,71
1660135516.91298,1454881.846461,178
1660135516.91298,1454881.8464653,582
1660135517.54244,1454881.8464705,1282
1660135517.54244,1454881.846477,992
1660135517.54244,1454881.8464817,-795
1660135517.54244,1454881.8464859,-1700
1660135517.54244,1454881.8464895,-818
1660135517.54244,1454881.8464968,-139
1660135517.54244,1454881.8465031,-106
1660135517.54244,1454881.8465094,69
1660135517.54244,1454881.8465156,227
1660135517.54244,1454881.8465222,180
1660135517.54244,1454881.846529,180
1660135517.54244,1454881.8465339,227
1660135517.54244,1454881.8465377,215
1660135517.54244,1454881.846542,201
1660135517.54244,1454881.8465454,213
1660135517.54244,1454881.8465505,215
1660135517.54244,1454881.8465536,215
1660135517.54244,1454881.846559,224
1660135517.54244,1454881.8465643,234
1660135517.54244,1454881.8465709,236
1660135517.54244,1454881.8465751,238
1660135517.54244,1454881.8465806,250
1660135517.54244,1454881.8465868,262
1660135517.54244,1454881.8465915,271
1660135517.54244,1454881.8465951,292
1660135517.54244,1454881.8465995,310
1660135517.54244,1454881.8466036,324
1660135517.54244,1454881.8466075,333
1660135517.54244,1454881.8466126,345
1660135517.54244,1454881.8466171,368
1660135517.54244,1454881.8466243,403
1660135517.54244,1454881.8466279,426
1660135517.54244,1454881.8466316,436
1660135517.54244,1454881.8466367,433
1660135517.54244,1454881.8466402,426
1660135517.54244,1454881.8466435,403
1660135517.54244,1454881.8466507,364
1660135517.54244,1454881.8466543,296
1660135517.54244,1454881.8466601,206
1660135517.54244,1454881.8466654,122
1660135517.54244,1454881.8466688,60
1660135517.54244,1454881.8466735,18
1660135517.54244,1454881.8466792,-9
1660135517.54244,1454881.846684,-30
1660135517.54244,1454881.8466899,-51
1660135517.54244,1454881.8466935,-64
1660135517.54244,1454881.8466987,-69
1660135517.54244,1454881.8467044,-67
1660135517.54244,1454881.8467099,-64
1660135517.54244,1454881.8467167,-55
1660135517.55341,1454881.8467216,-48
1660135517.55341,1454881.8467254,-46
1660135517.55341,1454882.4791823,-39
1660135517.55341,1454882.4792064,-25
1660135517.55341,1454882.4792119,-13
1660135517.55341,1454882.4792187,-6
1660135517.55341,1454882.4792229,-2
1660135517.55341,1454882.4792304,-6
1660135517.55341,1454882.479234,-23
1660135517.55341,1454882.4792416,-25
1660135517.55341,1454882.4792465,-16
1660135517.55341,1454882.4792512,-13
1660135517.55341,1454882.479255,-16
1660135517.55341,1454882.4792595,-25
1660135517.55341,1454882.4792656,-51
1660135517.55341,1454882.4792701,-71
1660135517.55341,1454882.4792735,-69
1660135517.55341,1454882.47928,-67
1660135517.55341,1454882.4792835,-71
1660135517.55341,1454882.4792868,-71
1660135517.55341,1454882.4792906,-67
1660135517.55341,1454882.4792951,-64
1660135517.55341,1454882.4793001,-60
1660135517.55341,1454882.4793034,-55
1660135518.12396,1454882.4793066,-53
1660135518.12396,1454882.4793098,-53
1660135518.12396,1454882.4793131,-57
1660135518.12396,1454882.4793164,-60
1660135518.12396,1454882.4793199,-53
1660135518.12396,1454882.4793231,-46
1660135518.12396,1454882.4793265,-41
1660135518.12396,1454882.4793303,-34
1660135518.12396,1454882.4793352,-27
1660135518.12396,1454882.4793395,-25
1660135518.12396,1454882.4793433,-20
1660135518.12396,1454882.4793481,-11
1660135518.12396,1454882.4793528,-6
1660135518.12396,1454882.4793574,-4
1660135518.12396,1454882.479363,4
1660135518.12396,1454882.4793697,11
1660135518.12396,1454882.4793736,13
1660135518.12396,1454882.4793787,16
1660135518.12396,1454882.4793832,13
1660135518.12396,1454882.4793877,-2
1660135518.12396,1454882.4793936,-16
1660135518.12396,1454882.4793972,-11
1660135518.12396,1454882.4794028,0
1660135518.12396,1454882.4794083,6
1660135518.12396,1454882.4794143,13
1660135518.12396,1454882.4794187,39
1660135518.12396,1454882.4794251,69
1660135518.12396,1454882.4794313,67
1660135518.12396,1454882.4794356,39
1660135518.12396,1454882.4794428,39
1660135518.12396,1454882.4794482,48
1660135518.12396,1454882.4794564,46
1660135518.12396,1454882.4794619,51
1660135518.12396,1454882.4794669,60
1660135518.12396,1454882.479471,55
1660135518.12396,1454882.4794744,51
1660135518.12396,1454882.479478,57
1660135518.12396,1454882.4794815,64
1660135518.12396,1454882.4794872,64
1660135518.12396,1454882.4794909,67
1660135518.12396,1454882.4794944,187
1660135518.12396,1454882.4794988,758
1660135518.12396,1454882.4795053,1523
1660135518.12396,1454882.4795094,932
1660135518.12396,1454882.4795146,-837
1660135518.12396,1454882.4795179,-1240
1660135518.12396,1454882.4795214,-364
1660135518.12396,1454882.4795276,-41
1660135518.12396,1454882.479533,-64
1660135518.12396,1454882.4795383,125
1660135518.13493,1454882.4795443,194
1660135518.13493,1454883.0643318,127
1660135518.13493,1454883.0643486,157
1660135518.13493,1454883.0644741,192
1660135518.13493,1454883.0644856,166
1660135518.13493,1454883.0644931,169
1660135518.13493,1454883.0645001,192
1660135518.13493,1454883.064506,192
1660135518.13493,1454883.0645778,194
1660135518.13493,1454883.0645894,194
1660135518.13493,1454883.0645989,173
1660135518.13493,1454883.0646335,160
1660135518.13493,1454883.0646428,176
1660135518.13493,1454883.0646499,192
1660135518.13493,1454883.0646564,199
1660135518.13493,1454883.0646613,208
1660135518.13493,1454883.0646674,215
1660135518.13493,1454883.0646722,222
1660135518.13493,1454883.0646786,248
1660135518.13493,1454883.0647345,276
1660135518.13493,1454883.0647458,303
1660135518.13493,1454883.0647519,333
1660135518.13493,1454883.0647581,352
1660135518.13493,1454883.0647645,352
1660135518.6126,1454883.0647718,364
1660135518.6126,1454883.0647779,380
1660135518.6126,1454883.0647867,378
1660135518.6126,1454883.0648217,359
1660135518.6126,1454883.0648336,320
1660135518.6126,1454883.0648413,248
1660135518.6126,1454883.0648485,162
1660135518.6126,1454883.0648519,92
1660135518.6126,1454883.0648552,37
1660135518.6126,1454883.0648586,-9
1660135518.6126,1454883.0650667,-51
1660135518.6126,1454883.0650746,-83
1660135518.6126,1454883.065084,-95
1660135518.6126,1454883.0650915,-90
1660135518.6126,1454883.0650989,-90
1660135518.6126,1454883.065108,-97
1660135518.6126,1454883.0651189,-97
1660135518.6126,1454883.0651614,-92
1660135518.6126,1454883.0651721,-85
1660135518.6126,1454883.0651823,-76
1660135518.6126,1454883.0651951,-60
1660135518.6126,1454883.0652061,-48
1660135518.6126,1454883.0652149,-41
1660135518.6126,1454883.0652245,-34
1660135518.6126,1454883.0652376,-32
1660135518.6126,1454883.0652507,-27
1660135518.6126,1454883.065261,-16
1660135518.6126,1454883.0652743,-6
1660135518.6126,1454883.0652876,-4
1660135518.6126,1454883.065301,-2
1660135518.6126,1454883.0653142,-2
1660135518.6126,1454883.0653274,-11
1660135518.6126,1454883.0653406,-11
1660135518.6126,1454883.0653539,-9
1660135518.6126,1454883.0653674,-18
1660135518.6126,1454883.0653806,-23
1660135518.6126,1454883.0653937,-20
1660135518.6126,1454883.0654069,-20
1660135518.6126,1454883.0654153,-18
1660135518.6126,1454883.065418,-16
1660135518.6126,1454883.0654256,-13
1660135518.6126,1454883.0654386,-11
1660135518.6126,1454883.0654457,-6
1660135518.6126,1454883.0654481,-6
1660135518.6126,1454883.0654541,-4
1660135518.6126,1454883.0654668,2
1660135518.6126,1454883.065475,4
1660135518.6126,1454883.0654775,6
1660135518.6126,1454883.065485,16
1660135518.6126,1454883.0654978,16
1660135518.62457,1454883.552358,13
1660135518.62457,1454883.5523794,20
1660135518.62457,1454883.5523891,25
1660135518.62457,1454883.5523919,27
1660135518.62457,1454883.5523943,37
1660135518.62457,1454883.5523964,39
1660135518.62457,1454883.5523985,34
1660135518.62457,1454883.5524006,30
1660135518.62457,1454883.5524027,37
1660135518.62457,1454883.5524047,41
1660135518.62457,1454883.5524067,44
1660135518.62457,1454883.5524088,39
1660135518.62457,1454883.5524109,18
1660135518.62457,1454883.552413,0
1660135518.62457,1454883.552415,2
1660135518.62457,1454883.5524202,16
1660135518.62457,1454883.5524322,27
1660135518.62457,1454883.55244,32
1660135518.62457,1454883.5524422,25
1660135518.62457,1454883.5524483,30
1660135518.62457,1454883.5524553,48
1660135518.62457,1454883.5524642,41
1660135518.62457,1454883.5524682,23
1660135518.62457,1454883.552472,34
1660135519.24603,1454883.5524759,39
1660135519.24603,1454883.5524798,25
1660135519.24603,1454883.5524838,13
1660135519.24603,1454883.5524879,20
1660135519.24603,1454883.5524928,32
1660135519.24603,1454883.5524967,37
1660135519.24603,1454883.5525012,41
1660135519.24603,1454883.5525054,41
1660135519.24603,1454883.5525096,37
1660135519.24603,1454883.5525137,51
1660135519.24603,1454883.5525184,250
1660135519.24603,1454883.552523,930
1660135519.24603,1454883.5525273,1542
1660135519.24603,1454883.5525316,596
1660135519.24603,1454883.5525358,-1101
1660135519.24603,1454883.5525399,-1152
1660135519.24603,1454883.552544,-250
1660135519.24603,1454883.552548,-48
1660135519.24603,1454883.5525517,-48
1660135519.24603,1454883.5525553,143
1660135519.24603,1454883.552559,162
1660135519.24603,1454883.5525634,97
1660135519.24603,1454883.5525672,146
1660135519.24603,1454883.5525707,178
1660135519.24603,1454883.5525743,160
1660135519.24603,1454883.5525781,171
1660135519.24603,1454883.5525819,180
1660135519.24603,1454883.5525855,173
1660135519.24603,1454883.5525899,183
1660135519.24603,1454883.5525941,197
1660135519.24603,1454883.5525983,201
1660135519.24603,1454883.5526044,206
1660135519.24603,1454883.5526082,211
1660135519.24603,1454883.5526138,213
1660135519.24603,1454883.5526193,229
1660135519.24603,1454883.5526233,248
1660135519.24603,1454883.5526291,262
1660135519.24603,1454883.5526331,280
1660135519.24603,1454883.552637,301
1660135519.24603,1454883.5526426,324
1660135519.24603,1454883.5526476,357
1660135519.24603,1454883.5526516,389
1660135519.24603,1454883.5526554,419
1660135519.24603,1454883.5526592,445
1660135519.24603,1454883.5526628,456
1660135519.24603,1454883.5526666,454
1660135519.24603,1454883.5526721,438
1660135519.24603,1454883.5526769,403
1660135519.24603,1454883.5526848,352
1660135519.24603,1454884.1853805,278
1660135519.257,1454884.185401,187
1660135519.257,1454884.1854161,102
1660135519.257,1454884.1854263,37
1660135519.257,1454884.185437,-2
1660135519.257,1454884.1854472,-23
1660135519.257,1454884.1854511,-41
1660135519.257,1454884.1854532,-55
1660135519.257,1454884.1854553,-74
1660135519.257,1454884.1854574,-97
1660135519.257,1454884.1854594,-99
1660135519.257,1454884.1854627,-85
1660135519.257,1454884.185474,-78
1660135519.257,1454884.1854813,-74
1660135519.257,1454884.1854838,-67
1660135519.257,1454884.185486,-76
1660135519.257,1454884.185488,-81
1660135519.257,1454884.1854901,-69
1660135519.257,1454884.1854933,-74
1660135519.257,1454884.1855042,-90
1660135519.257,1454884.1855115,-83
1660135519.257,1454884.185514,-81
1660135519.257,1454884.1855161,-92
1660135519.257,1454884.1855181,-83
1660135519.257,1454884.1855202,-71
1660135519.82781,1454884.1855222,-74
1660135519.82781,1454884.1855274,-71
1660135519.82781,1454884.1855377,-64
1660135519.82781,1454884.1855421,-64
1660135519.82781,1454884.1855442,-67
1660135519.82781,1454884.1855469,-67
1660135519.82781,1454884.1855575,-64
1660135519.82781,1454884.185565,-55
1660135519.82781,1454884.1855694,-48
1660135519.82781,1454884.1855714,-44
1660135519.82781,1454884.1855734,-39
1660135519.82781,1454884.1855757,-30
1660135519.82781,1454884.1855833,-25
1660135519.82781,1454884.1855941,-20
1660135519.82781,1454884.1855986,-11
1660135519.82781,1454884.1856006,-4
1660135519.82781,1454884.1856033,-2
1660135519.82781,1454884.1856055,4
1660135519.82781,1454884.1856076,11
1660135519.82781,1454884.1856097,18
1660135519.82781,1454884.1856118,25
1660135519.82781,1454884.185614,30
1660135519.82781,1454884.1856161,32
1660135519.82781,1454884.1856181,39
1660135519.82781,1454884.1856202,44
1660135519.82781,1454884.1856222,48
1660135519.82781,1454884.1856244,55
1660135519.82781,1454884.1856265,62
1660135519.82781,1454884.1856285,62
1660135519.82781,1454884.1856306,67
1660135519.82781,1454884.1856327,71
1660135519.82781,1454884.1856347,74
1660135519.82781,1454884.1856368,81
1660135519.82781,1454884.1856389,90
1660135519.82781,1454884.185641,95
1660135519.82781,1454884.1856431,90
1660135519.82781,1454884.1856452,81
1660135519.82781,1454884.1856473,69
1660135519.82781,1454884.1856493,69
1660135519.82781,1454884.1856514,78
1660135519.82781,1454884.1856535,83
1660135519.82781,1454884.1856556,83
1660135519.82781,1454884.1856576,90
1660135519.82781,1454884.1856597,104
1660135519.82781,1454884.1856619,129
1660135519.82781,1454884.185664,150
1660135519.82781,1454884.1856661,136
1660135519.82781,1454884.1856684,115
1660135519.82781,1454884.771521,115
1660135519.82781,1454884.771535,115
1660135519.84178,1454884.7715395,115
1660135519.84178,1454884.7715436,122
1660135519.84178,1454884.7715462,129
1660135519.84178,1454884.7715485,127
1660135519.84178,1454884.7715508,125
1660135519.84178,1454884.7715531,129
1660135519.84178,1454884.7715553,136
1660135519.84178,1454884.7715576,134
1660135519.84178,1454884.77156,118
1660135519.84178,1454884.7715622,222
1660135519.84178,1454884.7715644,793
1660135519.84178,1454884.7715667,1537
1660135519.84178,1454884.7715688,925
1660135519.84178,1454884.771571,-809
1660135519.84178,1454884.7715732,-1178
1660135519.84178,1454884.7715756,-320
1660135519.84178,1454884.7715781,-27
1660135519.84178,1454884.7715801,-69
1660135519.84178,1454884.7715825,111
1660135519.84178,1454884.7715847,173
1660135519.84178,1454884.7715871,104
1660135519.84178,1454884.7715893,136
1660135519.84178,1454884.7715916,164
1660135519.84178,1454884.7715939,118
1660135520.26348,1454884.7715962,113
1660135520.26348,1454884.7715983,153
1660135520.26348,1454884.7716004,157
1660135520.26348,1454884.7716025,148
1660135520.26348,1454884.7716045,157
1660135520.26348,1454884.7716065,166
1660135520.26348,1454884.7716085,169
1660135520.26348,1454884.7716106,185
1660135520.26348,1454884.7716126,201
1660135520.26348,1454884.7716147,206
1660135520.26348,1454884.7716168,218
1660135520.26348,1454884.7716188,243
1660135520.26348,1454884.771621,262
1660135520.26348,1454884.7716231,278
1660135520.26348,1454884.7716252,313
1660135520.26348,1454884.7716273,343
1660135520.26348,1454884.7716293,359
1660135520.26348,1454884.7716313,382
1660135520.26348,1454884.7716334,408
1660135520.26348,1454884.7716354,429
1660135520.26348,1454884.7716399,445
1660135520.26348,1454884.7716429,436
1660135520.26348,1454884.7716462,405
1660135520.26348,1454884.7716533,364
1660135520.26348,1454884.7716589,294
1660135520.26348,1454884.7716638,201
1660135520.26348,1454884.7716793,122
1660135520.26348,1454884.7716838,57
1660135520.26348,1454884.7716902,2
1660135520.26348,1454884.7716938,-25
1660135520.26348,1454884.7716991,-39
1660135520.26348,1454884.771703,-55
1660135520.26348,1454884.7717066,-71
1660135520.26348,1454884.7717101,-78
1660135520.26348,1454884.771714,-81
1660135520.26348,1454884.7717176,-81
1660135520.26348,1454884.7717212,-76
1660135520.26348,1454884.7717249,-64
1660135520.26348,1454884.7717297,-55
1660135520.26348,1454884.7717334,-46
1660135520.26348,1454884.7717395,-37
1660135520.26348,1454884.7717434,-27
1660135520.26348,1454884.771747,-20
1660135520.26348,1454884.7717522,-18
1660135520.26348,1454884.7717557,-4
1660135520.26348,1454884.77176,9
1660135520.26348,1454884.7717649,6
1660135520.26348,1454885.2096371,2
1660135520.26348,1454885.2096534,13
1660135520.26348,1454885.2096585,20
1660135520.27445,1454885.2096654,9
1660135520.27445,1454885.2096718,0
1660135520.27445,1454885.2096785,2
1660135520.27445,1454885.2096846,0
1660135520.27445,1454885.2096885,9
1660135520.27445,1454885.209693,13
1660135520.27445,1454885.2096986,-9
1660135520.27445,1454885.2097043,-25
1660135520.27445,1454885.2097092,-16
1660135520.27445,1454885.2097137,-13
1660135520.27445,1454885.2097188,-13
1660135520.27445,1454885.2097275,-9
1660135520.27445,1454885.2097371,-18
1660135520.27445,1454885.2097463,-20
1660135520.27445,1454885.2097512,-2
1660135520.27445,1454885.2097557,4
1660135520.27445,1454885.2097624,4
1660135520.27445,1454885.209766,11
1660135520.27445,1454885.2097712,13
1660135520.27445,1454885.2097748,13
1660135520.27445,1454885.2097785,25
1660135520.27445,1454885.2097836,34
1660135520.27445,1454885.2097874,34
1660135520.27445,1454885.2097912,41
1660135520.85694,1454885.2097965,51
1660135520.85694,1454885.2098014,46

1660135520.85694,1454885.2098051,39
1660135520.85694,1454885.2098099,51
1660135520.85694,1454885.2098132,64
1660135520.85694,1454885.2098159,69
1660135520.85694,1454885.2098185,76
1660135520.85694,1454885.2098212,67
1660135520.85694,1454885.209824,60
1660135520.85694,1454885.2098266,74
1660135520.85694,1454885.2098292,78
1660135520.85694,1454885.2098319,78
1660135520.85694,1454885.2098345,88
1660135520.85694,1454885.2098372,90
1660135520.85694,1454885.2098399,92
1660135520.85694,1454885.2098426,90
1660135520.85694,1454885.2098453,81
1660135520.85694,1454885.209848,78
1660135520.85694,1454885.2098506,90
1660135520.85694,1454885.2098533,88
1660135520.85694,1454885.2098568,81
1660135520.85694,1454885.2098597,99
1660135520.85694,1454885.2098626,125
1660135520.85694,1454885.2098653,134
1660135520.85694,1454885.2098682,127
1660135520.85694,1454885.209871,120
1660135520.85694,1454885.2098738,127
1660135520.85694,1454885.2098766,125
1660135520.85694,1454885.2098793,113
1660135520.85694,1454885.2098821,120
1660135520.85694,1454885.2098849,136
1660135520.85694,1454885.2098878,132
1660135520.85694,1454885.2098905,122
1660135520.85694,1454885.2098945,122
1660135520.85694,1454885.2099015,129
1660135520.85694,1454885.2099063,143
1660135520.85694,1454885.2099132,169
1660135520.85694,1454885.2099189,273
1660135520.85694,1454885.2099224,684
1660135520.85694,1454885.2099264,1375
1660135520.85694,1454885.2099315,1050
1660135520.85694,1454885.2099368,-746
1660135520.85694,1454885.2099415,-1609
1660135520.85694,1454885.2099489,-716
1660135520.85694,1454885.2099535,-60
1660135520.85694,1454885.2099565,-53
1660135520.85694,1454885.7959358,113
1660135520.85694,1454885.7959636,271
1660135520.85694,1454885.7959702,208
1660135520.85694,1454885.7959745,192
1660135520.86691,1454885.7959811,238
1660135520.86691,1454885.7959849,218
1660135520.86691,1454885.7959912,185
1660135520.86691,1454885.7959943,197
1660135520.86691,1454885.7959972,204
1660135520.86691,1454885.7960002,201
1660135520.86691,1454885.7960286,211
1660135520.86691,1454885.7960427,215
1660135520.86691,1454885.7960564,197
1660135520.86691,1454885.79607,183
1660135520.86691,1454885.7960835,199
1660135520.86691,1454885.7960967,220
1660135520.86691,1454885.7961101,231
1660135520.86691,1454885.7961366,248
1660135520.86691,1454885.7961522,269
1660135520.86691,1454885.7961679,280
1660135520.86691,1454885.7961812,306
1660135520.86691,1454885.7961945,338
1660135520.86691,1454885.7962092,357
1660135520.86691,1454885.7962235,371
1660135520.86691,1454885.7962368,387
1660135520.86691,1454885.7962515,394
1660135520.86691,1454885.7962655,394
1660135520.86691,1454885.7962794,389
1660135521.43339,1454885.7962932,364
1660135521.43339,1454885.7963029,320
1660135521.43339,1454885.7963106,264
1660135521.43339,1454885.7963181,190
1660135521.43339,1454885.7963251,109
1660135521.43339,1454885.7963358,44
1660135521.43339,1454885.7963481,-9
1660135521.43339,1454885.7963596,-55
1660135521.43339,1454885.7963742,-76
1660135521.43339,1454885.7963895,-85
1660135521.43339,1454885.7964028,-90
1660135521.43339,1454885.7964166,-85
1660135521.43339,1454885.7964314,-81
1660135521.43339,1454885.7964448,-76
1660135521.43339,1454885.7964579,-60
1660135521.43339,1454885.7964722,-51
1660135521.43339,1454885.7964866,-41
1660135521.43339,1454885.7964997,-27
1660135521.43339,1454885.7965139,-18
1660135521.43339,1454885.7965283,-13
1660135521.43339,1454885.7965418,0
1660135521.43339,1454885.796556,9
1660135521.43339,1454885.7965693,13
1660135521.43339,1454885.7965826,20
1660135521.43339,1454885.7965975,23
1660135521.43339,1454885.7966106,23
1660135521.43339,1454885.7966242,32
1660135521.43339,1454885.7966385,37
1660135521.43339,1454885.7966516,34
1660135521.43339,1454885.796665,37
1660135521.43339,1454885.7966798,39
1660135521.43339,1454885.7966936,34
1660135521.43339,1454885.7967067,34
1660135521.43339,1454885.7967217,25
1660135521.43339,1454885.7967353,13
1660135521.43339,1454885.7967486,13
1660135521.43339,1454885.796763,18
1660135521.43339,1454885.7967992,20
1660135521.43339,1454885.7968139,25
1660135521.43339,1454885.796823,25
1660135521.43339,1454885.7968374,20
1660135521.43339,1454885.7968446,20
1660135521.43339,1454885.7968566,20
1660135521.43339,1454885.7968612,25
1660135521.43339,1454885.7968651,34
1660135521.43339,1454886.3793012,41
1660135521.43339,1454886.3793239,46
1660135521.43339,1454886.379332,44
1660135521.43339,1454886.3793376,41
1660135521.43339,1454886.379347,48
1660135521.44436,1454886.3793503,55
1660135521.44436,1454886.3793527,55
1660135521.44436,1454886.3793567,62
1660135521.44436,1454886.3793611,55
1660135521.44436,1454886.3793655,30
1660135521.44436,1454886.37937,27
1660135521.44436,1454886.3793746,44
1660135521.44436,1454886.379379,46
1660135521.44436,1454886.3793844,46
1660135521.44436,1454886.3793904,51
1660135521.44436,1454886.3793978,44
1660135521.44436,1454886.3794063,44
1660135521.44436,1454886.3794147,51
1660135521.44436,1454886.37942,55
1660135521.44436,1454886.3794253,60
1660135521.44436,1454886.3794287,60
1660135521.44436,1454886.3794318,37
1660135521.44436,1454886.379435,13
1660135521.44436,1454886.3794381,13
1660135521.44436,1454886.379441,32
1660135521.44436,1454886.3794442,37
1660135521.44436,1454886.3794475,30
1660135521.44436,1454886.379451,32
1660135521.44436,1454886.3794545,60
1660135521.97742,1454886.3794581,71
1660135521.97742,1454886.3794617,53
1660135521.97742,1454886.3794652,48
1660135521.97742,1454886.3794685,60
1660135521.97742,1454886.3794722,55
1660135521.97742,1454886.3794773,46
1660135521.97742,1454886.3794816,53
1660135521.97742,1454886.3794849,62
1660135521.97742,1454886.379488,67
1660135521.97742,1454886.3794911,69
1660135521.97742,1454886.3794946,74
1660135521.97742,1454886.3794981,71
1660135521.97742,1454886.3795017,60
1660135521.97742,1454886.3795053,113
1660135521.97742,1454886.3795099,538
1660135521.97742,1454886.3795156,1370
1660135521.97742,1454886.3795192,1238
1660135521.97742,1454886.3795237,-456
1660135521.97742,1454886.3795295,-1400
1660135521.97742,1454886.3795338,-665
1660135521.97742,1454886.3795391,-76
1660135521.97742,1454886.3795436,-83
1660135521.97742,1454886.3795489,51
1660135521.97742,1454886.3795526,183
1660135521.97742,1454886.3795576,118
1660135521.97742,1454886.3795613,97
1660135521.97742,1454886.3795664,146
1660135521.97742,1454886.3795699,143
1660135521.97742,1454886.3795743,127
1660135521.97742,1454886.3795789,136
1660135521.97742,1454886.3795825,134
1660135521.97742,1454886.379586,127
1660135521.97742,1454886.3795894,129
1660135521.97742,1454886.379593,134
1660135521.97742,1454886.3795965,129
1660135521.97742,1454886.3796,127
1660135521.97742,1454886.3796037,139
1660135521.97742,1454886.379609,146
1660135521.97742,1454886.3796133,150
1660135521.97742,1454886.3796184,162
1660135521.97742,1454886.3796223,178
1660135521.97742,1454886.3796271,194
1660135521.97742,1454886.3796306,215
1660135521.97742,1454886.379636,236
1660135521.97742,1454886.916058,262
1660135521.97742,1454886.9160776,294
1660135521.97742,1454886.9160861,322
1660135521.97742,1454886.9160913,338
1660135521.97742,1454886.916098,347
1660135521.97742,1454886.9161029,347
1660135521.99038,1454886.9161093,338
1660135521.99038,1454886.9161141,310
1660135521.99038,1454886.9161212,255
1660135521.99038,1454886.9161268,183
1660135521.99038,1454886.916133,111
1660135521.99038,1454886.9161376,39
1660135521.99038,1454886.9161419,-30
1660135521.99038,1454886.916148,-71
1660135521.99038,1454886.9161522,-85
1660135521.99038,1454886.9161577,-97
1660135521.99038,1454886.9161639,-106
1660135521.99038,1454886.9161685,-122
1660135521.99038,1454886.9161747,-143
1660135521.99038,1454886.9161793,-153
1660135521.99038,1454886.9161839,-136
1660135521.99038,1454886.9161905,-118
1660135521.99038,1454886.9161949,-106
1660135521.99038,1454886.916201,-92
1660135521.99038,1454886.9162055,-81
1660135521.99038,1454886.9162117,-76
1660135521.99038,1454886.9162162,-67
1660135521.99038,1454886.9162207,-51
1660135521.99038,1454886.916227,-37
1660135521.99038,1454886.9162323,-27
1660135522.56138,1454886.9162387,-18
1660135522.56138,1454886.9162435,-16
1660135522.56138,1454886.9162482,-18
1660135522.56138,1454886.916253,-13
1660135522.56138,1454886.9162601,-4
1660135522.56138,1454886.9163223,0
1660135522.56138,1454886.9163304,4
1660135522.56138,1454886.9163363,4
1660135522.56138,1454886.9163419,2
1660135522.56138,1454886.9163472,9
1660135522.56138,1454886.9163522,16
1660135522.56138,1454886.9163575,20
1660135522.56138,1454886.9163628,25
1660135522.56138,1454886.9163681,27
1660135522.56138,1454886.9163726,25
1660135522.56138,1454886.9163783,25
1660135522.56138,1454886.9163859,20
1660135522.56138,1454886.9163906,9
1660135522.56138,1454886.9163956,13
1660135522.56138,1454886.9164001,13
1660135522.56138,1454886.9164045,2
1660135522.56138,1454886.9164092,6
1660135522.56138,1454886.9164136,18
1660135522.56138,1454886.9164185,23
1660135522.56138,1454886.9164259,30
1660135522.56138,1454886.9164301,34
1660135522.56138,1454886.9164346,30
1660135522.56138,1454886.9164389,32
1660135522.56138,1454886.916443,44
1660135522.56138,1454886.9164472,48
1660135522.56138,1454886.9164515,53
1660135522.56138,1454886.9164557,57
1660135522.56138,1454886.91646,55
1660135522.56138,1454886.9164642,55
1660135522.56138,1454886.9164683,60
1660135522.56138,1454886.9164726,69
1660135522.56138,1454886.916477,71
1660135522.56138,1454886.9164811,71
1660135522.56138,1454886.9164856,71
1660135522.56138,1454886.9164899,74
1660135522.56138,1454886.9164941,78
1660135522.56138,1454886.9164986,83
1660135522.56138,1454886.9165042,85
1660135522.56138,1454887.5013834,85
1660135522.56138,1454887.5014036,78
1660135522.56138,1454887.5014095,71
1660135522.56138,1454887.5014161,71
1660135522.56138,1454887.5014212,78
1660135522.56138,1454887.5014274,85
1660135522.56138,1454887.501432,92
1660135522.57434,1454887.501438,95
1660135522.57434,1454887.5014428,92
1660135522.57434,1454887.5014494,83
1660135522.57434,1454887.5014533,64
1660135522.57434,1454887.5014572,48
1660135522.57434,1454887.5014737,48
1660135522.57434,1454887.5014831,46
1660135522.57434,1454887.5014875,34
1660135522.57434,1454887.5014921,18
1660135522.57434,1454887.5014977,9
1660135522.57434,1454887.5015013,16
1660135522.57434,1454887.5015052,25
1660135522.57434,1454887.5015108,25
1660135522.57434,1454887.5015141,30
1660135522.57434,1454887.5015178,25
1660135522.57434,1454887.5015216,16
1660135522.57434,1454887.5015252,185
1660135522.57434,1454887.5015301,860
1660135522.57434,1454887.5015357,1514
1660135522.57434,1454887.501541,633
1660135522.57434,1454887.5015447,-1080
1660135522.57434,1454887.5015486,-1201
1660135522.57434,1454887.5015535,-313
1660135522.57434,1454887.5015589,-90
1660135523.14422,1454887.5015643,-99
1660135523.14422,1454887.501569,90
1660135523.14422,1454887.5015723,118
1660135523.14422,1454887.5015756,46
1660135523.14422,1454887.5015788,88
1660135523.14422,1454887.5015821,122
1660135523.14422,1454887.5015864,99
1660135523.14422,1454887.5015907,92
1660135523.14422,1454887.501595,99
1660135523.14422,1454887.501598,90
1660135523.14422,1454887.5016016,90
1660135523.14422,1454887.501605,104
1660135523.14422,1454887.5016082,109
1660135523.14422,1454887.501614,118
1660135523.14422,1454887.5016186,134
1660135523.14422,1454887.501623,143
1660135523.14422,1454887.5016298,148
1660135523.14422,1454887.5016356,164
1660135523.14422,1454887.5016399,183
1660135523.14422,1454887.5016433,199
1660135523.14422,1454887.5016498,224
1660135523.14422,1454887.501654,250
1660135523.14422,1454887.5016573,276
1660135523.14422,1454887.5016703,303
1660135523.14422,1454887.5016824,333
1660135523.14422,1454887.5016906,359
1660135523.14422,1454887.5016988,378
1660135523.14422,1454887.501706,385
1660135523.14422,1454887.5017182,380
1660135523.14422,1454887.5017235,359
1660135523.14422,1454887.5017278,317
1660135523.14422,1454887.5017326,259
1660135523.14422,1454887.5017374,185
1660135523.14422,1454887.5017449,115
1660135523.14422,1454887.5017523,57
1660135523.14422,1454887.5017595,13
1660135523.14422,1454887.501766,-18
1660135523.14422,1454887.5017698,-32
1660135523.14422,1454887.5017759,-39
1660135523.14422,1454887.5017791,-41
1660135523.14422,1454887.5017819,-44
1660135523.14422,1454887.5017848,-46
1660135523.14422,1454888.0854345,-48
1660135523.14422,1454888.0854474,-37
1660135523.14422,1454888.0854517,-20
1660135523.14422,1454888.0854571,-11
1660135523.14422,1454888.0854605,-2
1660135523.14422,1454888.0854631,2
1660135523.14422,1454888.0854656,4
1660135523.14422,1454888.0854681,11
1660135523.15606,1454888.0854709,27
1660135523.15606,1454888.0854736,34
1660135523.15606,1454888.0854762,39
1660135523.15606,1454888.0854789,32
1660135523.15606,1454888.0854815,11
1660135523.15606,1454888.0854842,4
1660135523.15606,1454888.085487,16
1660135523.15606,1454888.0854896,20
1660135523.15606,1454888.0854922,20
1660135523.15606,1454888.0854948,18
1660135523.15606,1454888.0854972,-2
1660135523.15606,1454888.0854992,-18
1660135523.15606,1454888.0855012,-6
1660135523.15606,1454888.0855036,4
1660135523.15606,1454888.0855063,4
1660135523.15606,1454888.085509,6
1660135523.15606,1454888.0855117,6
1660135523.15606,1454888.0855144,6
1660135523.15606,1454888.085517,16
1660135523.15606,1454888.0855197,23
1660135523.15606,1454888.0855222,27
1660135523.15606,1454888.0855245,32
1660135523.15606,1454888.0855268,34
1660135523.15606,1454888.0855291,27
1660135523.63358,1454888.0855314,18
1660135523.63358,1454888.0855336,20
1660135523.63358,1454888.0855357,30
1660135523.63358,1454888.0855377,34
1660135523.63358,1454888.0855399,37
1660135523.63358,1454888.0855419,39
1660135523.63358,1454888.0855439,41
1660135523.63358,1454888.0855464,48
1660135523.63358,1454888.0855496,53
1660135523.63358,1454888.0855578,57
1660135523.63358,1454888.0855627,60
1660135523.63358,1454888.0855666,60
1660135523.63358,1454888.0855746,60
1660135523.63358,1454888.0855793,67
1660135523.63358,1454888.0855846,71
1660135523.63358,1454888.0855932,76
1660135523.63358,1454888.0855975,78
1660135523.63358,1454888.0855998,76
1660135523.63358,1454888.0856018,69
1660135523.63358,1454888.0856037,67
1660135523.63358,1454888.0856057,69
1660135523.63358,1454888.0856076,69
1660135523.63358,1454888.0856095,67
1660135523.63358,1454888.0856114,71
1660135523.63358,1454888.0856133,78
1660135523.63358,1454888.0856153,95
1660135523.63358,1454888.0856172,120
1660135523.63358,1454888.0856191,109
1660135523.63358,1454888.0856212,81
1660135523.63358,1454888.0856232,83
1660135523.63358,1454888.0856251,90
1660135523.63358,1454888.085627,78
1660135523.63358,1454888.0856289,71
1660135523.63358,1454888.0856308,78
1660135523.63358,1454888.0856326,78
1660135523.63358,1454888.0856345,78
1660135523.63358,1454888.0856364,85
1660135523.63358,1454888.0856383,83
1660135523.63358,1454888.0856402,64
1660135523.63358,1454888.0856421,46
1660135523.63358,1454888.0856441,192
1660135523.63358,1454888.5736825,846
1660135523.63358,1454888.5736951,1523
1660135523.63358,1454888.5736987,691
1660135523.63358,1454888.5737017,-1018
1660135523.63358,1454888.5737047,-1185
1660135523.63358,1454888.5737074,-315
1660135523.63358,1454888.5737103,-69
1660135523.63358,1454888.5737132,-64
1660135523.63358,1454888.573716,106
1660135523.64324,1454888.5737188,113
1660135523.64324,1454888.5737223,44
1660135523.64324,1454888.5737358,92
1660135523.64324,1454888.5737437,125
1660135523.64324,1454888.5737462,106
1660135523.64324,1454888.5737484,109
1660135523.64324,1454888.5737504,104
1660135523.64324,1454888.5737524,90
1660135523.64324,1454888.573755,102
1660135523.64324,1454888.5737646,118
1660135523.64324,1454888.5737737,120
1660135523.64324,1454888.5737764,129
1660135523.64324,1454888.5737784,143
1660135523.64324,1454888.5737805,148
1660135523.64324,1454888.5737826,148
1660135523.64324,1454888.5737847,155
1660135523.64324,1454888.5737867,162
1660135523.64324,1454888.5737892,178
1660135523.64324,1454888.5737948,204
1660135523.64324,1454888.5738066,224
1660135523.64324,1454888.5738118,248
1660135523.64324,1454888.5738139,282
1660135523.64324,1454888.573816,317
1660135523.64324,1454888.573818,345
1660135524.2653,1454888.57382,361
1660135524.2653,1454888.5738268,359
1660135524.2653,1454888.5738367,350
1660135524.2653,1454888.5738428,336
1660135524.2653,1454888.5738536,299
1660135524.2653,1454888.573867,231
1660135524.2653,1454888.5738725,155
1660135524.2653,1454888.5738754,85
1660135524.2653,1454888.5738775,27
1660135524.2653,1454888.5738796,-11
1660135524.2653,1454888.5738817,-32
1660135524.2653,1454888.5738837,-44
1660135524.2653,1454888.5738858,-55
1660135524.2653,1454888.5738879,-60
1660135524.2653,1454888.57389,-62
1660135524.2653,1454888.573892,-53
1660135524.2653,1454888.5738941,-39
1660135524.2653,1454888.5738961,-27
1660135524.2653,1454888.5738982,-13
1660135524.2653,1454888.5739003,-4
1660135524.2653,1454888.5739024,-4
1660135524.2653,1454888.5739044,-4
1660135524.2653,1454888.5739064,4
1660135524.2653,1454888.5739085,13
1660135524.2653,1454888.5739106,20
1660135524.2653,1454888.5739177,25
1660135524.2653,1454888.573929,25
1660135524.2653,1454888.5739325,27
1660135524.2653,1454888.5739355,34
1660135524.2653,1454888.5739384,41
1660135524.2653,1454888.5739441,44
1660135524.2653,1454888.5739559,44
1660135524.2653,1454888.5739611,41
1660135524.2653,1454888.5739633,41
1660135524.2653,1454888.5739654,41
1660135524.2653,1454888.5739676,46
1660135524.2653,1454888.5739754,51
1660135524.2653,1454888.5739859,53
1660135524.2653,1454888.5739955,53
1660135524.2653,1454888.5740045,51
1660135524.2653,1454889.2066798,51
1660135524.2653,1454889.2066921,60
1660135524.2653,1454889.2066955,69
1660135524.2653,1454889.2066978,69
1660135524.2653,1454889.2066999,67
1660135524.2653,1454889.2067021,48
1660135524.2653,1454889.2067042,27
1660135524.2653,1454889.2067063,39
1660135524.2653,1454889.2067084,53
1660135524.2653,1454889.2067105,48
1660135524.27927,1454889.2067126,48
1660135524.27927,1454889.2067148,44
1660135524.27927,1454889.2067168,20
1660135524.27927,1454889.2067188,9
1660135524.27927,1454889.2067209,20
1660135524.27927,1454889.206723,30
1660135524.27927,1454889.206725,16
1660135524.27927,1454889.2067272,-4
1660135524.27927,1454889.2067294,-9
1660135524.27927,1454889.2067314,-6
1660135524.27927,1454889.2067335,2
1660135524.27927,1454889.2067361,9
1660135524.27927,1454889.2067382,11
1660135524.27927,1454889.2067403,9
1660135524.27927,1454889.2067423,9
1660135524.27927,1454889.2067444,9
1660135524.27927,1454889.2067464,2
1660135524.27927,1454889.2067484,0
1660135524.27927,1454889.2067505,18
1660135524.27927,1454889.2067526,34
1660135524.27927,1454889.2067547,44
1660135524.27927,1454889.2067567,60
1660135524.27927,1454889.2067593,69
1660135524.27927,1454889.2067613,53
1660135524.85371,1454889.2067634,41
1660135524.85371,1454889.2067654,48
1660135524.85371,1454889.2067673,57
1660135524.85371,1454889.2067692,60
1660135524.85371,1454889.2067711,62
1660135524.85371,1454889.2067729,64
1660135524.85371,1454889.2067748,64
1660135524.85371,1454889.2067768,71
1660135524.85371,1454889.2067787,69
1660135524.85371,1454889.2067806,41
1660135524.85371,1454889.2067828,27
1660135524.85371,1454889.206789,190
1660135524.85371,1454889.2067969,825
1660135524.85371,1454889.2068016,1472
1660135524.85371,1454889.2068066,626
1660135524.85371,1454889.206814,-1106
1660135524.85371,1454889.2068238,-1284
1660135524.85371,1454889.2068325,-387
1660135524.85371,1454889.206835,-104
1660135524.85371,1454889.2068372,-74
1660135524.85371,1454889.2068394,118
1660135524.85371,1454889.2068415,146
1660135524.85371,1454889.2068436,88
1660135524.85371,1454889.2068457,134
1660135524.85371,1454889.2068478,157
1660135524.85371,1454889.2068499,129
1660135524.85371,1454889.206852,150
1660135524.85371,1454889.2068541,183
1660135524.85371,1454889.2068562,173
1660135524.85371,1454889.2068582,169
1660135524.85371,1454889.2068602,187
1660135524.85371,1454889.2068623,197
1660135524.85371,1454889.2068643,194
1660135524.85371,1454889.2068664,206
1660135524.85371,1454889.2068685,229
1660135524.85371,1454889.2068713,245
1660135524.85371,1454889.2068734,245
1660135524.85371,1454889.2068755,257
1660135524.85371,1454889.2068777,292
1660135524.85371,1454889.7933806,320
1660135524.85371,1454889.7933937,338
1660135524.85371,1454889.7934023,359
1660135524.85371,1454889.7934061,378
1660135524.85371,1454889.7934082,401
1660135524.85371,1454889.7934103,422
1660135524.85371,1454889.7934123,433
1660135524.85371,1454889.7934144,438
1660135524.85371,1454889.7934164,426
1660135524.85371,1454889.7934185,385
1660135524.85371,1454889.7934205,310
1660135524.86503,1454889.7934226,231
1660135524.86503,1454889.7934246,164
1660135524.86503,1454889.7934266,99
1660135524.86503,1454889.7934286,25
1660135524.86503,1454889.7934307,-37
1660135524.86503,1454889.7934327,-67
1660135524.86503,1454889.7934348,-76
1660135524.86503,1454889.7934369,-76
1660135524.86503,1454889.793439,-76
1660135524.86503,1454889.793441,-97
1660135524.86503,1454889.7934431,-111
1660135524.86503,1454889.7934452,-102
1660135524.86503,1454889.7934472,-78
1660135524.86503,1454889.7934492,-62
1660135524.86503,1454889.7934513,-55
1660135524.86503,1454889.7934534,-48
1660135524.86503,1454889.7934554,-34
1660135524.86503,1454889.7934574,-27
1660135524.86503,1454889.7934594,-20
1660135524.86503,1454889.7934615,0
1660135524.86503,1454889.7934635,4
1660135524.86503,1454889.7934656,0
1660135524.86503,1454889.7934676,9
1660135524.86503,1454889.7934696,20
1660135525.38302,1454889.7934716,18
1660135525.38302,1454889.7934735,13
1660135525.38302,1454889.7934754,11
1660135525.38302,1454889.7934774,4
1660135525.38302,1454889.7934793,4
1660135525.38302,1454889.7934812,11
1660135525.38302,1454889.7934831,18
1660135525.38302,1454889.793485,25
1660135525.38302,1454889.7934869,30
1660135525.38302,1454889.7934888,34
1660135525.38302,1454889.7934907,37
1660135525.38302,1454889.7934926,37
1660135525.38302,1454889.7934945,41
1660135525.38302,1454889.7934963,48
1660135525.38302,1454889.7934981,53
1660135525.38302,1454889.7935,55
1660135525.38302,1454889.7935018,57
1660135525.38302,1454889.7935037,67
1660135525.38302,1454889.7935057,71
1660135525.38302,1454889.7935077,74
1660135525.38302,1454889.7935097,81
1660135525.38302,1454889.7935128,74
1660135525.38302,1454889.7935148,71
1660135525.38302,1454889.7935168,81
1660135525.38302,1454889.7935188,85
1660135525.38302,1454889.7935209,81
1660135525.38302,1454889.793523,85
1660135525.38302,1454889.7935251,90
1660135525.38302,1454889.7935271,88
1660135525.38302,1454889.7935291,92
1660135525.38302,1454889.7935311,95
1660135525.38302,1454889.793533,85
1660135525.38302,1454889.7935351,85
1660135525.38302,1454889.7935371,85
1660135525.38302,1454889.7935392,76
1660135525.38302,1454889.7935412,81
1660135525.38302,1454889.7935433,95
1660135525.38302,1454889.7935469,102
1660135525.38302,1454890.3280586,106
1660135525.38302,1454890.3280777,102
1660135525.38302,1454890.3280836,81
1660135525.38302,1454890.3280904,62
1660135525.38302,1454890.328095,48
1660135525.38302,1454890.3280986,48
1660135525.38302,1454890.3281041,57
1660135525.38302,1454890.3281104,60
1660135525.38302,1454890.3281161,55
1660135525.38302,1454890.3281224,67
1660135525.38302,1454890.328129,74
1660135525.38302,1454890.3281355,64
1660135525.39498,1454890.3281419,74
1660135525.39498,1454890.3281477,157
1660135525.39498,1454890.3281546,549
1660135525.39498,1454890.3281607,1284
1660135525.39498,1454890.3281664,1048
1660135525.39498,1454890.3281728,-693
1660135525.39498,1454890.3281768,-1581
1660135525.39498,1454890.3281825,-772
1660135525.39498,1454890.3281873,-150
1660135525.39498,1454890.328192,-127
1660135525.39498,1454890.3281981,30
1660135525.39498,1454890.3282041,157
1660135525.39498,1454890.3282101,85
1660135525.39498,1454890.3282138,64
1660135525.39498,1454890.3282189,109
1660135525.39498,1454890.3282225,104
1660135525.39498,1454890.3282262,88
1660135525.39498,1454890.3282298,97
1660135525.39498,1454890.3282335,104
1660135525.39498,1454890.3282372,90
1660135525.39498,1454890.3282422,83
1660135525.39498,1454890.3282506,95
1660135525.39498,1454890.3282558,102
1660135525.39498,1454890.3282591,109
1660135525.93347,1454890.3282624,125
1660135525.93347,1454890.3282657,127
1660135525.93347,1454890.3282687,136
1660135525.93347,1454890.3282718,164
1660135525.93347,1454890.3282749,176
1660135525.93347,1454890.328278,190
1660135525.93347,1454890.3282815,220
1660135525.93347,1454890.328286,243
1660135525.93347,1454890.3282908,266
1660135525.93347,1454890.3283019,294
1660135525.93347,1454890.3283102,317
1660135525.93347,1454890.328319,338
1660135525.93347,1454890.3283318,345
1660135525.93347,1454890.3283409,336
1660135525.93347,1454890.3283529,327
1660135525.93347,1454890.3283568,292
1660135525.93347,1454890.3283609,220
1660135525.93347,1454890.3283629,141
1660135525.93347,1454890.3283671,78
1660135525.93347,1454890.3283748,27
1660135525.93347,1454890.3283884,-18
1660135525.93347,1454890.3284024,-46
1660135525.93347,1454890.3284104,-51
1660135525.93347,1454890.3284136,-55
1660135525.93347,1454890.328416,-76
1660135525.93347,1454890.3284181,-90
1660135525.93347,1454890.3284207,-83
1660135525.93347,1454890.3284299,-71
1660135525.93347,1454890.3284396,-62
1660135525.93347,1454890.3284434,-51
1660135525.93347,1454890.3284453,-34
1660135525.93347,1454890.3284473,-25
1660135525.93347,1454890.3284588,-32
1660135525.93347,1454890.3284676,-41
1660135525.93347,1454890.3284702,-27
1660135525.93347,1454890.3284724,-9
1660135525.93347,1454890.3284751,-4
1660135525.93347,1454890.8666073,2
1660135525.93347,1454890.8666271,2
1660135525.93347,1454890.866637,0
1660135525.93347,1454890.8666414,4
1660135525.93347,1454890.8666561,9
1660135525.93347,1454890.8666646,11
1660135525.93347,1454890.8666704,11
1660135525.93347,1454890.8666797,13
1660135525.93347,1454890.8666846,2
1660135525.93347,1454890.866691,-18
1660135525.93347,1454890.8666953,-23
1660135525.93347,1454890.8666997,-16
1660135525.93347,1454890.8667037,-6
1660135525.94244,1454890.8667158,6
1660135525.94244,1454890.8667222,-6
1660135525.94244,1454890.8667266,-32
1660135525.94244,1454890.8667306,-30
1660135525.94244,1454890.8667347,-13
1660135525.94244,1454890.8667393,-13
1660135525.94244,1454890.8667432,-23
1660135525.94244,1454890.8667473,-23
1660135525.94244,1454890.8667542,-18
1660135525.94244,1454890.8667632,-13
1660135525.94244,1454890.8667762,-6
1660135525.94244,1454890.8667897,-4
1660135525.94244,1454890.8668029,2
1660135525.94244,1454890.8668161,13
1660135525.94244,1454890.8668292,11
1660135525.94244,1454890.866843,11
1660135525.94244,1454890.8668561,23
1660135525.94244,1454890.8668699,23
1660135525.94244,1454890.8668829,13
1660135525.94244,1454890.8668962,18
1660135525.94244,1454890.8669096,23
1660135525.94244,1454890.8669228,25
1660135525.94244,1454890.866936,39
1660135525.94244,1454890.8669492,46
1660135526.46407,1454890.8669616,55
1660135526.46407,1454890.8669695,90
1660135526.46407,1454890.8669767,104
1660135526.46407,1454890.8669839,74
1660135526.46407,1454890.8669885,64
1660135526.46407,1454890.8669989,81
1660135526.46407,1454890.8670313,76
1660135526.46407,1454890.8670411,67
1660135526.46407,1454890.8670473,76
1660135526.46407,1454890.8670613,83
1660135526.46407,1454890.8670733,81
1660135526.46407,1454890.8670846,85
1660135526.46407,1454890.8670894,92
1660135526.46407,1454890.8670914,67
1660135526.46407,1454890.8670935,20
1660135526.46407,1454890.8670956,180
1660135526.46407,1454890.8670977,911
1660135526.46407,1454890.8670997,1570
1660135526.46407,1454890.8671017,658
1660135526.46407,1454890.8671043,-969
1660135526.46407,1454890.8671146,-1052
1660135526.46407,1454890.8671284,-262
1660135526.46407,1454890.8671419,-69
1660135526.46407,1454890.8671554,-39
1660135526.46407,1454890.8671685,132
1660135526.46407,1454890.8671817,127
1660135526.46407,1454890.8671939,71
1660135526.46407,1454890.8672028,129
1660135526.46407,1454890.8672093,155
1660135526.46407,1454890.8672197,132
1660135526.46407,1454890.8672329,139
1660135526.46407,1454890.8672461,153
1660135526.46407,1454890.8672595,160
1660135526.46407,1454890.8672727,173
1660135526.46407,1454890.8672861,190
1660135526.46407,1454890.8672992,187
1660135526.46407,1454891.4006461,176
1660135526.46407,1454891.4006592,176
1660135526.46407,1454891.400662,185
1660135526.46407,1454891.4006643,194
1660135526.46407,1454891.4006665,213
1660135526.46407,1454891.4006685,229
1660135526.46407,1454891.4006706,241
1660135526.46407,1454891.4006728,262
1660135526.46407,1454891.4006748,294
1660135526.46407,1454891.4006769,320
1660135526.46407,1454891.400679,338
1660135526.46407,1454891.4006811,352
1660135526.46407,1454891.4006832,373
1660135526.46407,1454891.4006853,394
1660135526.47603,1454891.4006874,389
1660135526.47603,1454891.4006894,361
1660135526.47603,1454891.400693,340
1660135526.47603,1454891.4006951,292
1660135526.47603,1454891.4006972,185
1660135526.47603,1454891.4006992,74
1660135526.47603,1454891.4007013,20
1660135526.47603,1454891.4007036,-6
1660135526.47603,1454891.4007057,-41
1660135526.47603,1454891.4007078,-76
1660135526.47603,1454891.4007098,-111
1660135526.47603,1454891.4007119,-134
1660135526.47603,1454891.400714,-134
1660135526.47603,1454891.4007161,-111
1660135526.47603,1454891.4007182,-92
1660135526.47603,1454891.4007202,-95
1660135526.47603,1454891.4007223,-92
1660135526.47603,1454891.4007243,-71
1660135526.47603,1454891.4007264,-53
1660135526.47603,1454891.4007284,-37
1660135526.47603,1454891.4007309,-13
1660135526.47603,1454891.400733,-6
1660135526.47603,1454891.400735,-16
1660135526.47603,1454891.4007371,-11
1660135526.99909,1454891.4007392,2
1660135526.99909,1454891.4007412,11
1660135526.99909,1454891.4007432,23
1660135526.99909,1454891.4007451,23
1660135526.99909,1454891.4007471,-2
1660135526.99909,1454891.4007489,-11
1660135526.99909,1454891.4007509,11
1660135526.99909,1454891.4007527,16
1660135526.99909,1454891.4007546,13
1660135526.99909,1454891.4007565,23
1660135526.99909,1454891.4007583,27
1660135526.99909,1454891.4007609,25
1660135526.99909,1454891.4007697,32
1660135526.99909,1454891.400779,41
1660135526.99909,1454891.4007842,41
1660135526.99909,1454891.4007874,30
1660135526.99909,1454891.4007896,25
1660135526.99909,1454891.4007951,30
1660135526.99909,1454891.4008065,32
1660135526.99909,1454891.4008101,39
1660135526.99909,1454891.4008143,39
1660135526.99909,1454891.4008162,32
1660135526.99909,1454891.4008191,51
1660135526.99909,1454891.4008318,67
1660135526.99909,1454891.4008433,57
1660135526.99909,1454891.4008514,48
1660135526.99909,1454891.4008589,64
1660135526.99909,1454891.4008657,71
1660135526.99909,1454891.4008731,64
1660135526.99909,1454891.4008831,67
1660135526.99909,1454891.4008901,76
1660135526.99909,1454891.4009026,78
1660135526.99909,1454891.400913,78
1660135526.99909,1454891.4009239,83
1660135526.99909,1454891.4009351,99
1660135526.99909,1454891.9369312,115
1660135526.99909,1454891.9369506,113
1660135526.99909,1454891.9369942,99
1660135526.99909,1454891.937003,104
1660135526.99909,1454891.9370082,102
1660135526.99909,1454891.9370124,83
1660135526.99909,1454891.9370162,88
1660135526.99909,1454891.9370202,106
1660135526.99909,1454891.9370237,92
1660135526.99909,1454891.9370272,64
1660135526.99909,1454891.9370312,64
1660135526.99909,1454891.9370354,78
1660135526.99909,1454891.9370393,85
1660135526.99909,1454891.9370431,122
1660135526.99909,1454891.937047,359
1660135527.01007,1454891.9370512,1018
1660135527.01007,1454891.9370555,1428
1660135527.01007,1454891.9370591,231
1660135527.01007,1454891.937063,-1440
1660135527.01007,1454891.9370677,-1305
1660135527.01007,1454891.9370717,-375
1660135527.01007,1454891.9370762,-162
1660135527.01007,1454891.93708,-64
1660135527.01007,1454891.9370839,185
1660135527.01007,1454891.937088,215
1660135527.01007,1454891.937092,171
1660135527.01007,1454891.9370961,224
1660135527.01007,1454891.9371013,238
1660135527.01007,1454891.9371058,213
1660135527.01007,1454891.9371122,227
1660135527.01007,1454891.9371162,243
1660135527.01007,1454891.937122,243
1660135527.01007,1454891.937126,257
1660135527.01007,1454891.9371298,259
1660135527.01007,1454891.9371335,241
1660135527.01007,1454891.9371379,241
1660135527.01007,1454891.9371441,262
1660135527.01007,1454891.9371498,278
1660135527.01007,1454891.9371555,289
1660135527.63175,1454891.9371598,306
1660135527.63175,1454891.9371638,322
1660135527.63175,1454891.9371677,343
1660135527.63175,1454891.9371715,366
1660135527.63175,1454891.9371762,389
1660135527.63175,1454891.9371799,419
1660135527.63175,1454891.9371837,459
1660135527.63175,1454891.9371875,482
1660135527.63175,1454891.9371913,468
1660135527.63175,1454891.9371953,456
1660135527.63175,1454891.9371992,461
1660135527.63175,1454891.9372029,433
1660135527.63175,1454891.9372063,364
1660135527.63175,1454891.9372097,294
1660135527.63175,1454891.9372133,197
1660135527.63175,1454891.937217,90
1660135527.63175,1454891.9372208,25
1660135527.63175,1454891.9372244,-23
1660135527.63175,1454891.9372281,-62
1660135527.63175,1454891.9372325,-92
1660135527.63175,1454891.9372364,-118
1660135527.63175,1454891.9372433,-109
1660135527.63175,1454891.9372476,-83
1660135527.63175,1454891.9372536,-99
1660135527.63175,1454891.9372591,-113
1660135527.63175,1454891.9372628,-97
1660135527.63175,1454891.9372683,-83
1660135527.63175,1454891.9372721,-74
1660135527.63175,1454891.9372777,-62
1660135527.63175,1454891.9372829,-51
1660135527.63175,1454891.9372887,-34
1660135527.63175,1454891.9372927,-18
1660135527.63175,1454891.9372968,-18
1660135527.63175,1454891.9373016,-16
1660135527.63175,1454892.5705855,-2
1660135527.63175,1454892.570638,6
1660135527.63175,1454892.5706462,16
1660135527.63175,1454892.5706514,18
1660135527.63175,1454892.5706559,0
1660135527.63175,1454892.5706608,-27
1660135527.63175,1454892.5706655,-23
1660135527.63175,1454892.5706702,-9
1660135527.63175,1454892.5706752,-13
1660135527.63175,1454892.5706801,-6
1660135527.63175,1454892.5706871,0
1660135527.63175,1454892.5707014,-18
1660135527.63175,1454892.5707203,-37
1660135527.63175,1454892.5707291,-25
1660135527.63175,1454892.5707333,-4
1660135527.63175,1454892.5707365,-2
1660135527.64272,1454892.5707426,-4
1660135527.64272,1454892.5707486,-4
1660135527.64272,1454892.5707567,-4
1660135527.64272,1454892.5707626,-2
1660135527.64272,1454892.5707705,13
1660135527.64272,1454892.5707794,27
1660135527.64272,1454892.5707829,23
1660135527.64272,1454892.5707896,13
1660135527.64272,1454892.5707956,20
1660135527.64272,1454892.5708003,27
1660135527.64272,1454892.5708057,25
1660135527.64272,1454892.5708107,34
1660135527.64272,1454892.5708182,46
1660135527.64272,1454892.5708216,53
1660135527.64272,1454892.5708246,64
1660135527.64272,1454892.5708276,67
1660135527.64272,1454892.5708305,60
1660135527.64272,1454892.5708334,69
1660135527.64272,1454892.5708364,69
1660135527.64272,1454892.5708392,60
1660135527.64272,1454892.570842,64
1660135527.64272,1454892.570845,64
1660135527.64272,1454892.5708479,64
1660135527.64272,1454892.5708511,64
1660135528.45973,1454892.5708568,57
1660135528.45973,1454892.5708598,64
1660135528.45973,1454892.5708627,85
1660135528.45973,1454892.5708654,134
1660135528.45973,1454892.5708711,408
1660135528.45973,1454892.5708778,1087
1660135528.45973,1454892.5708823,1324
1660135528.45973,1454892.5708855,-64
1660135528.45973,1454892.5708892,-1570
1660135528.45973,1454892.5708921,-1206
1660135528.45973,1454892.570895,-320
1660135528.45973,1454892.5708982,-155
1660135528.45973,1454892.5709016,-13
1660135528.45973,1454892.5709051,218
1660135528.45973,1454892.5709094,211
1660135528.45973,1454892.5709134,178
1660135528.45973,1454892.5709171,236
1660135528.45973,1454892.5709211,236
1660135528.45973,1454892.5709254,211
1660135528.45973,1454892.5709289,231
1660135528.45973,1454892.5709325,248
1660135528.45973,1454892.5709359,243
1660135528.45973,1454892.5709394,238
1660135528.45973,1454892.5709436,238
1660135528.45973,1454892.5709474,250
1660135528.45973,1454892.5709507,252
1660135528.45973,1454892.5709544,252
1660135528.45973,1454892.5709577,269
1660135528.45973,1454892.5709621,280
1660135528.45973,1454892.5709658,285
1660135528.45973,1454892.5709703,296
1660135528.45973,1454892.5709756,322
1660135528.45973,1454892.5709798,347
1660135528.45973,1454893.4011601,375
1660135528.45973,1454893.4011734,405
1660135528.45973,1454893.4011773,422
1660135528.45973,1454893.401182,442
1660135528.45973,1454893.4011849,459
1660135528.45973,1454893.4011877,454
1660135528.45973,1454893.4011904,438

1660135528.45973,1454893.401193,415
1660135528.45973,1454893.4011956,350
1660135528.45973,1454893.4011982,248
1660135528.45973,1454893.4012008,162
1660135528.45973,1454893.4012034,95
1660135528.45973,1454893.4012059,32
1660135528.45973,1454893.4012086,-16
1660135528.45973,1454893.4012111,-51
1660135528.45973,1454893.4012136,-85
1660135528.45973,1454893.4012163,-106
1660135528.4717,1454893.4012188,-118
1660135528.4717,1454893.4012213,-143
1660135528.4717,1454893.4012238,-148
1660135528.4717,1454893.4012264,-115
1660135528.4717,1454893.4012289,-97
1660135528.4717,1454893.4012314,-115
1660135528.4717,1454893.401234,-125
1660135528.4717,1454893.4012365,-125
1660135528.4717,1454893.4012391,-111
1660135528.4717,1454893.4012417,-60
1660135528.4717,1454893.4012442,-23
1660135528.4717,1454893.4012466,-37
1660135528.4717,1454893.401249,-46
1660135528.4717,1454893.4012513,-41
1660135528.4717,1454893.4012535,-60
1660135528.4717,1454893.4012557,-71
1660135528.4717,1454893.401258,-76
1660135528.4717,1454893.4012601,-95
1660135528.4717,1454893.4012623,-92
1660135528.4717,1454893.4012647,-67
1660135528.4717,1454893.4012669,-78
1660135528.4717,1454893.4012691,-102
1660135528.4717,1454893.4012713,-95
1660135528.4717,1454893.4012735,-76
1660135528.74838,1454893.4012757,-62
1660135528.74838,1454893.4012778,-64
1660135528.74838,1454893.4012799,-67
1660135528.74838,1454893.4012822,-48
1660135528.74838,1454893.4012843,-46
1660135528.74838,1454893.4012867,-57
1660135528.74838,1454893.4012887,-64
1660135528.74838,1454893.4012908,-62
1660135528.74838,1454893.4012929,-41
1660135528.74838,1454893.401295,-16
1660135528.74838,1454893.4012971,-27
1660135528.74838,1454893.4012992,-53
1660135528.74838,1454893.4013013,-55
1660135528.74838,1454893.4013034,-48
1660135528.74838,1454893.4013055,-37
1660135528.74838,1454893.4013076,-9
1660135528.74838,1454893.4013096,13
1660135528.74838,1454893.4013117,9
1660135528.74838,1454893.4013137,-4
1660135528.74838,1454893.4013158,6
1660135528.74838,1454893.4013178,44
1660135528.74838,1454893.40132,55
1660135528.74838,1454893.4013221,30
1660135528.74838,1454893.4013241,11
1660135528.74838,1454893.4013269,23
1660135528.74838,1454893.4013362,30
1660135528.74838,1454893.401343,11
1660135528.74838,1454893.4013505,13
1660135528.74838,1454893.4013554,55
1660135528.74838,1454893.4013599,64
1660135528.74838,1454893.4013659,48
1660135528.74838,1454893.4013712,76
1660135528.74838,1454893.6928997,69
1660135528.74838,1454893.6929181,9
1660135528.74838,1454893.692927,171
1660135528.74838,1454893.6929411,895
1660135528.74838,1454893.6929456,1595
1660135528.74838,1454893.6929513,781
1660135528.74838,1454893.6929553,-860
1660135528.74838,1454893.6929609,-1057
1660135528.74838,1454893.692965,-294
1660135528.74838,1454893.6929705,-71
1660135528.74838,1454893.6929744,-48
1660135528.74838,1454893.69298,111
1660135528.74838,1454893.6929841,118
1660135528.74838,1454893.6929895,57
1660135528.74838,1454893.6929936,95
1660135528.74838,1454893.692999,122
1660135528.74838,1454893.693003,113
1660135528.74838,1454893.693007,125
1660135528.75935,1454893.6930115,136
1660135528.75935,1454893.6930152,122
1660135528.75935,1454893.6930191,104
1660135528.75935,1454893.6930231,111
1660135528.75935,1454893.6930269,139
1660135528.75935,1454893.6930315,143
1660135528.75935,1454893.6930369,132
1660135528.75935,1454893.6930424,166
1660135528.75935,1454893.6930464,213
1660135528.75935,1454893.6930519,211
1660135528.75935,1454893.6930559,211
1660135528.75935,1454893.69306,231
1660135528.75935,1454893.6930654,236
1660135528.75935,1454893.6930695,250
1660135528.75935,1454893.6930749,294
1660135528.75935,1454893.6930789,343
1660135528.75935,1454893.6930845,378
1660135528.75935,1454893.6930885,394
1660135528.75935,1454893.6930928,408
1660135528.75935,1454893.6930969,398
1660135528.75935,1454893.6931027,343
1660135528.75935,1454893.6931085,280
1660135528.75935,1454893.6931146,234
1660135528.75935,1454893.6931199,194
1660135529.28646,1454893.6931257,134
1660135529.28646,1454893.6931306,69
1660135529.28646,1454893.6931344,37
1660135529.28646,1454893.6931381,9
1660135529.28646,1454893.6931419,-34
1660135529.28646,1454893.6931455,-64
1660135529.28646,1454893.6931489,-67
1660135529.28646,1454893.6931524,-69
1660135529.28646,1454893.6931557,-60
1660135529.28646,1454893.6931596,-41
1660135529.28646,1454893.6931634,-39
1660135529.28646,1454893.693167,-39
1660135529.28646,1454893.6931708,-41
1660135529.28646,1454893.6931765,-46
1660135529.28646,1454893.6931799,-25
1660135529.28646,1454893.6931834,-9
1660135529.28646,1454893.6931886,-23
1660135529.28646,1454893.6931928,-20
1660135529.28646,1454893.6931969,20
1660135529.28646,1454893.6932005,30
1660135529.28646,1454893.6932107,-16
1660135529.28646,1454893.6932203,-48
1660135529.28646,1454893.6932251,-37
1660135529.28646,1454893.6932292,-44
1660135529.28646,1454893.6932335,-67
1660135529.28646,1454893.6932378,-20
1660135529.28646,1454893.6932486,39
1660135529.28646,1454893.6932637,0
1660135529.28646,1454893.6932757,-44
1660135529.28646,1454893.6932853,-20
1660135529.28646,1454893.6932931,-18
1660135529.28646,1454894.2292773,-34
1660135529.28646,1454894.2293166,-18
1660135529.28646,1454894.2293257,-9
1660135529.28646,1454894.2293328,-23
1660135529.28646,1454894.2293397,-20
1660135529.28646,1454894.2293454,-16
1660135529.28646,1454894.2293494,-13
1660135529.28646,1454894.2293532,-6
1660135529.28646,1454894.2293567,-11
1660135529.28646,1454894.2293602,-16
1660135529.28646,1454894.2293636,-16
1660135529.28646,1454894.2293671,-25
1660135529.28646,1454894.2293706,-39
1660135529.28646,1454894.2293738,-48
1660135529.28646,1454894.2293796,-57
1660135529.28646,1454894.2293904,-67
1660135529.28646,1454894.2293942,-18
1660135529.28646,1454894.2293965,30
1660135529.28646,1454894.2293987,-20
1660135529.29779,1454894.2294008,-60
1660135529.29779,1454894.2294028,-46
1660135529.29779,1454894.2294099,-57
1660135529.29779,1454894.2294192,-83
1660135529.29779,1454894.2294283,-76
1660135529.29779,1454894.2294348,-62
1660135529.29779,1454894.2294381,-57
1660135529.29779,1454894.229451,-44
1660135529.29779,1454894.229457,-20
1660135529.29779,1454894.2294602,-25
1660135529.29779,1454894.2294633,-32
1660135529.29779,1454894.2294759,4
1660135529.29779,1454894.2294907,252
1660135529.29779,1454894.2294986,981
1660135529.29779,1454894.2295094,1410
1660135529.29779,1454894.2295168,180
1660135529.29779,1454894.22952,-1407
1660135529.29779,1454894.229522,-1222
1660135529.29779,1454894.2295251,-345
1660135529.29779,1454894.229536,-148
1660135529.29779,1454894.229543,-74
1660135529.29779,1454894.2295454,109
1660135529.29779,1454894.229548,125
1660135529.29779,1454894.2295578,111
1660135529.81893,1454894.2295646,160
1660135529.81893,1454894.2295673,155
1660135529.81893,1454894.2295773,134
1660135529.81893,1454894.2295869,160
1660135529.81893,1454894.2295943,178
1660135529.81893,1454894.2295986,183
1660135529.81893,1454894.2296025,194
1660135529.81893,1454894.2296087,201
1660135529.81893,1454894.2296167,206
1660135529.81893,1454894.2296232,215
1660135529.81893,1454894.229634,222
1660135529.81893,1454894.2296374,236
1660135529.81893,1454894.2296398,250
1660135529.81893,1454894.2296491,259
1660135529.81893,1454894.2296628,287
1660135529.81893,1454894.2296745,315
1660135529.81893,1454894.2296825,336
1660135529.81893,1454894.2296924,387
1660135529.81893,1454894.2297065,431
1660135529.81893,1454894.2297196,438
1660135529.81893,1454894.2297328,433
1660135529.81893,1454894.2297461,438
1660135529.81893,1454894.2297595,463
1660135529.81893,1454894.229773,487
1660135529.81893,1454894.2297864,438
1660135529.81893,1454894.2297997,354
1660135529.81893,1454894.2298135,292
1660135529.81893,1454894.2298268,201
1660135529.81893,1454894.2298398,88
1660135529.81893,1454894.2298515,46
1660135529.81893,1454894.7651271,53
1660135529.81893,1454894.7651514,-2
1660135529.81893,1454894.7651635,-51
1660135529.81893,1454894.7651727,-25
1660135529.81893,1454894.7651763,-27
1660135529.81893,1454894.7651786,-74
1660135529.81893,1454894.7651808,-78
1660135529.81893,1454894.7651829,-60
1660135529.81893,1454894.7651849,-34
1660135529.81893,1454894.765187,-18
1660135529.81893,1454894.765189,-37
1660135529.81893,1454894.7651911,-55
1660135529.81893,1454894.7651932,-60
1660135529.81893,1454894.7651954,-55
1660135529.81893,1454894.7651975,-48
1660135529.81893,1454894.7651996,-25
1660135529.81893,1454894.7652027,11
1660135529.81893,1454894.765218,23
1660135529.81893,1454894.765231,-6
1660135529.81893,1454894.7652438,-32
1660135529.8309,1454894.7652552,-27
1660135529.8309,1454894.7652596,-27
1660135529.8309,1454894.7652619,-30
1660135529.8309,1454894.7652708,-25
1660135529.8309,1454894.7652828,-27
1660135529.8309,1454894.7652953,-39
1660135529.8309,1454894.7653026,-39
1660135529.8309,1454894.765305,-34
1660135529.8309,1454894.7653072,-25
1660135529.8309,1454894.7653158,-4
1660135529.8309,1454894.7653244,9
1660135529.8309,1454894.7653271,-6
1660135529.8309,1454894.7653293,-6
1660135529.8309,1454894.7653315,13
1660135529.8309,1454894.7653336,9
1660135529.8309,1454894.7653358,0
1660135529.8309,1454894.765338,16
1660135529.8309,1454894.76534,9
1660135529.8309,1454894.7653422,-18
1660135529.8309,1454894.7653442,-9
1660135529.8309,1454894.7653464,20
1660135529.8309,1454894.7653485,27
1660135529.8309,1454894.7653506,20
1660135529.8309,1454894.7653528,13
1660135530.36423,1454894.7653549,37
1660135530.36423,1454894.7653569,71
1660135530.36423,1454894.7653593,64
1660135530.36423,1454894.7653612,39
1660135530.36423,1454894.7653631,34
1660135530.36423,1454894.765365,39
1660135530.36423,1454894.7653669,51
1660135530.36423,1454894.7653688,62
1660135530.36423,1454894.7653708,46
1660135530.36423,1454894.7653727,30
1660135530.36423,1454894.7653747,25
1660135530.36423,1454894.7653766,11
1660135530.36423,1454894.7653786,6
1660135530.36423,1454894.7653805,13
1660135530.36423,1454894.7653825,71
1660135530.36423,1454894.7653845,452
1660135530.36423,1454894.7653865,1268
1660135530.36423,1454894.7653884,1280
1660135530.36423,1454894.7653904,-350
1660135530.36423,1454894.7653923,-1495
1660135530.36423,1454894.7653975,-881
1660135530.36423,1454894.7654099,-204
1660135530.36423,1454894.76542,-160
1660135530.36423,1454894.7654257,-13
1660135530.36423,1454894.7654289,162
1660135530.36423,1454894.7654323,113
1660135530.36423,1454894.7654374,92
1660135530.36423,1454894.7654405,157
1660135530.36423,1454894.7654439,153
1660135530.36423,1454895.3010393,125
1660135530.36423,1454895.3010524,139
1660135530.36423,1454895.3010565,139
1660135530.36423,1454895.3010588,139
1660135530.36423,1454895.3010609,155
1660135530.36423,1454895.301063,155
1660135530.36423,1454895.3010651,153
1660135530.36423,1454895.3010672,169
1660135530.36423,1454895.3010692,166
1660135530.36423,1454895.3010725,153
1660135530.36423,1454895.3010786,164
1660135530.36423,1454895.3010854,185
1660135530.36423,1454895.3010933,199
