Time,TimeLsl,Value
1660134585.41355,1453948.6450817,-4
1660134585.41355,1453948.6450973,-2
1660134585.41355,1453948.6451018,2
1660134585.41355,1453948.6451072,11
1660134585.41355,1453948.6451109,16
1660134585.41355,1453948.6451159,13
1660134585.41355,1453948.6451194,4
1660134585.41355,1453948.6451244,2
1660134585.41355,1453948.645128,2
1660134585.41355,1453948.6451331,4
1660134585.41355,1453948.6452354,4
1660134585.41355,1453948.6452446,0
1660134585.41355,1453948.6452671,-20
1660134585.41355,1453948.6452784,-41
1660134585.41355,1453948.6452855,-34
1660134585.41355,1453948.6452917,-23
1660134585.41355,1453948.6452978,-25
1660134585.41355,1453948.6453021,-25
1660134585.41355,1453948.6453077,-32
1660134585.41355,1453948.6453117,-53
1660134585.41355,1453948.6453175,-53
1660134585.41355,1453948.6453213,-37
1660134585.41355,1453948.6453251,-30
1660134585.41355,1453948.6453305,-32
1660134585.41355,1453948.6453344,-37
1660134585.41355,1453948.6453396,-46
1660134585.41355,1453948.6453436,-67
1660134585.41355,1453948.6453501,-83
1660134585.41355,1453948.6453539,-81
1660134585.41355,1453948.6453595,-67
1660134585.41355,1453948.6453644,-71
1660134585.41355,1453948.6453688,-95
1660134585.41355,1453948.6453725,-97
1660134585.41355,1453948.6453779,-76
1660134585.41355,1453948.6453817,-67
1660134585.41355,1453948.6453871,-67
1660134585.41355,1453948.6453911,-64
1660134585.41355,1453948.6453968,-62
1660134585.41355,1453948.6454006,-57
1660134585.41355,1453948.6454061,-53
1660134585.41355,1453948.6454101,-53
1660134585.41355,1453948.6454139,-53
1660134585.41355,1453948.6454174,-60
1660134585.41355,1453948.6454215,-74
1660134585.41355,1453948.6454252,-71
1660134585.41355,1453948.6454288,-62
1660134585.41355,1453948.6454326,-57
1660134585.41355,1453948.6454362,-57
1660134585.41355,1453948.6454398,-60
1660134585.41355,1453948.6454434,-62
1660134585.52277,1453948.6454472,-64
1660134585.52277,1453948.6454506,-64
1660134585.52277,1453948.6454546,-55
1660134585.52277,1453948.6454584,-34
1660134585.52277,1453948.6454624,-9
1660134585.52277,1453948.6454662,2
1660134585.52277,1453948.64547,16
1660134585.52277,1453948.6454737,20
1660134585.52277,1453948.6454773,-13
1660134585.52277,1453948.6454821,-39
1660134585.52277,1453948.6454879,-16
1660134585.52277,1453948.6454916,-9
1660134585.52277,1453948.6454955,-25
1660134585.52277,1453948.6454992,-20
1660134585.52277,1453948.6455046,-4
1660134585.52277,1453948.6455085,-4
1660134585.52277,1453948.6455138,0
1660134585.52277,1453948.6455178,11
1660134585.52277,1453948.6455229,16
1660134585.52277,1453948.6455269,0
1660134585.52277,1453948.6455325,-30
1660134585.52277,1453948.6455363,85
1660134585.52277,1453948.6455427,744
1660134585.52277,1453949.1325624,1567
1660134585.52277,1453949.1325807,943
1660134585.52277,1453949.1325905,-783
1660134585.52277,1453949.1325971,-1173
1660134585.52277,1453949.1326031,-380
1660134585.52277,1453949.1326071,-76
1660134585.52277,1453949.1326125,-90
1660134585.52277,1453949.1326164,67
1660134585.52277,1453949.1326222,115
1660134585.52277,1453949.1326273,34
1660134585.52277,1453949.132631,46
1660134585.52277,1453949.1326362,90
1660134585.52277,1453949.1326414,81
1660134585.52277,1453949.132645,81
1660134585.52277,1453949.132649,106
1660134585.52277,1453949.1326541,113
1660134585.52277,1453949.1326587,109
1660134585.52277,1453949.1326641,111
1660134585.52277,1453949.1326697,113
1660134585.52277,1453949.1326754,109
1660134585.52277,1453949.1326805,102
1660134585.52277,1453949.132684,104
1660134585.52277,1453949.1326878,111
1660134585.52277,1453949.1326934,118
1660134585.52277,1453949.1326981,139
1660134585.52277,1453949.1327029,162
1660134585.52277,1453949.1327085,192
1660134585.56072,1453949.1327127,227
1660134585.56072,1453949.1327164,259
1660134585.56072,1453949.1327201,292
1660134585.56072,1453949.1327261,329
1660134585.56072,1453949.1327299,359
1660134585.56072,1453949.1327334,375
1660134585.56072,1453949.1327371,378
1660134585.56072,1453949.1327416,361
1660134585.56072,1453949.1327455,322
1660134585.56072,1453949.1327491,257
1660134585.56072,1453949.1327528,173
1660134585.56072,1453949.1327561,88
1660134585.56072,1453949.1327598,20
1660134585.56072,1453949.1327636,-30
1660134585.56072,1453949.1327674,-67
1660134585.56072,1453949.1327711,-88
1660134585.56072,1453949.1327749,-92
1660134585.56072,1453949.1327786,-97
1660134585.56072,1453949.1327822,-97
1660134585.56072,1453949.1327856,-95
1660134585.56072,1453949.1327893,-92
1660134585.56072,1453949.1327932,-88
1660134585.56072,1453949.132797,-83
1660134585.56072,1453949.1328006,-78
1660134585.56072,1453949.1328044,-62
1660134585.56072,1453949.1328081,-48
1660134585.56072,1453949.1328117,-44
1660134585.56072,1453949.1328153,-37
1660134585.56072,1453949.1328202,-23
1660134585.56072,1453949.1328239,-6
1660134585.56072,1453949.1328275,2
1660134585.56072,1453949.1328314,11
1660134585.56072,1453949.1328361,13
1660134585.56072,1453949.13284,9
1660134585.56072,1453949.1328459,9
1660134585.56072,1453949.1328501,18
1660134585.56072,1453949.1328553,27
1660134585.56072,1453949.1328608,30
1660134585.56072,1453949.1328655,27
1660134585.56072,1453949.1328708,23
1660134585.56072,1453949.1328747,20
1660134585.56072,1453949.1328795,25
1660134585.56072,1453949.1328843,34
1660134585.56072,1453949.1328896,44
1660134585.56072,1453949.1328939,46
1660134585.56072,1453949.1328995,39
1660134585.56072,1453949.6695915,39
1660134585.56072,1453949.6696103,44
1660134585.56072,1453949.6696201,48
1660134585.56072,1453949.6696275,53
1660134585.58217,1453949.6696347,53
1660134585.58217,1453949.6696392,37
1660134585.58217,1453949.6696433,13
1660134585.58217,1453949.6696484,6
1660134585.58217,1453949.6696556,2
1660134585.58217,1453949.6696627,-2
1660134585.58217,1453949.66967,0
1660134585.58217,1453949.6696804,-4
1660134585.58217,1453949.6696898,-23
1660134585.58217,1453949.6696976,-23
1660134585.58217,1453949.669705,-9
1660134585.58217,1453949.6697173,-2
1660134585.58217,1453949.6697288,-6
1660134585.58217,1453949.6697401,-6
1660134585.58217,1453949.6697452,-18
1660134585.58217,1453949.6697474,-34
1660134585.58217,1453949.6697495,-30
1660134585.58217,1453949.6697567,-16
1660134585.58217,1453949.6697677,-11
1660134585.58217,1453949.6697723,-11
1660134585.58217,1453949.6697746,-9
1660134585.58217,1453949.6697767,-13
1660134585.58217,1453949.6697789,-16
1660134585.58217,1453949.669781,-18
1660134585.58217,1453949.6697886,-16
1660134585.58217,1453949.6697991,-11
1660134585.58217,1453949.6698026,-9
1660134585.58217,1453949.6698055,-9
1660134585.58217,1453949.6698084,-6
1660134585.58217,1453949.6698151,-4
1660134585.58217,1453949.6698262,-2
1660134585.58217,1453949.669831,0
1660134585.58217,1453949.6698342,2
1660134585.58217,1453949.6698431,2
1660134585.58217,1453949.6698556,-2
1660134585.58217,1453949.6698701,2
1660134585.58217,1453949.6698847,16
1660134585.58217,1453949.6698977,30
1660134585.58217,1453949.6699082,41
1660134585.58217,1453949.6699153,55
1660134585.58217,1453949.6699187,69
1660134585.58217,1453949.6699257,62
1660134585.58217,1453949.6699288,37
1660134585.58217,1453949.6699342,34
1660134585.58217,1453949.6699386,51
1660134585.58217,1453949.6699419,46
1660134585.58217,1453949.6699452,37
1660134585.58217,1453949.669952,51
1660134585.58217,1453949.669955,67
1660134585.58217,1453949.6699601,62
1660134585.59414,1453949.6699734,67
1660134585.59414,1453949.6699823,83
1660134585.59414,1453949.6699884,76
1660134585.59414,1453949.669995,48
1660134585.59414,1453949.6699994,64
1660134585.59414,1453949.6700031,424
1660134585.59414,1453949.6700071,1322
1660134585.59414,1453949.6700125,1558
1660134585.59414,1453949.6700164,53
1660134585.59414,1453949.6700218,-1264
1660134585.59414,1453949.6700256,-802
1660134585.59414,1453949.6700311,-88
1660134585.59414,1453949.670035,-44
1660134585.59414,1453949.6700404,41
1660134585.59414,1453949.6700441,199
1660134585.59414,1453949.6700496,155
1660134585.59414,1453949.670054,129
1660134585.59414,1453949.6700626,183
1660134585.59414,1453949.6700707,178
1660134585.59414,1453950.2533964,169
1660134585.59414,1453950.2534169,197
1660134585.59414,1453950.2534247,199
1660134585.86569,1453950.2534314,183
1660134585.86569,1453950.2534383,187
1660134585.86569,1453950.2534452,197
1660134585.86569,1453950.2534513,194
1660134585.86569,1453950.2534549,199
1660134585.86569,1453950.2534587,208
1660134585.86569,1453950.2534619,204
1660134585.86569,1453950.2534682,206
1660134585.86569,1453950.2534758,238
1660134585.86569,1453950.2534822,271
1660134585.86569,1453950.2534895,287
1660134585.86569,1453950.2534961,306
1660134585.86569,1453950.2535025,324
1660134585.86569,1453950.2535055,340
1660134585.86569,1453950.2535085,380
1660134585.86569,1453950.2535115,419
1660134585.86569,1453950.2535145,440
1660134585.86569,1453950.2535174,456
1660134585.86569,1453950.2535204,442
1660134585.86569,1453950.2535234,391
1660134585.86569,1453950.2535264,329
1660134585.86569,1453950.2535301,257
1660134585.86569,1453950.253533,171
1660134585.86569,1453950.2535358,81
1660134585.86569,1453950.253539,13
1660134585.86569,1453950.2535419,-32
1660134585.86569,1453950.2535448,-60
1660134585.86569,1453950.2535476,-76
1660134585.86569,1453950.2535506,-81
1660134585.86569,1453950.2535534,-83
1660134585.86569,1453950.2535562,-97
1660134585.86569,1453950.2535592,-102
1660134585.86569,1453950.2535621,-85
1660134585.86569,1453950.2535651,-67
1660134585.86569,1453950.2535679,-57
1660134585.86569,1453950.2535708,-48
1660134585.86569,1453950.2535741,-37
1660134585.86569,1453950.253577,-27
1660134585.86569,1453950.25358,-16
1660134585.86569,1453950.2535829,2
1660134585.86569,1453950.2535858,16
1660134585.86569,1453950.2535888,25
1660134585.86569,1453950.2535917,27
1660134585.86569,1453950.2535989,32
1660134585.86569,1453950.2536027,34
1660134585.86569,1453950.2536086,44
1660134585.86569,1453950.2536117,48
1660134585.86569,1453950.2536188,44
1660134585.86569,1453950.2536252,46
1660134585.86569,1453950.2536294,60
1660134585.91644,1453950.2536353,67
1660134585.91644,1453950.2536383,57
1660134585.91644,1453950.2536413,51
1660134585.91644,1453950.2536441,60
1660134585.91644,1453950.2536471,67
1660134585.91644,1453950.25365,62
1660134585.91644,1453950.2536528,60
1660134585.91644,1453950.2536559,62
1660134585.91644,1453950.2536589,55
1660134585.91644,1453950.2536619,44
1660134585.91644,1453950.2536647,34
1660134585.91644,1453950.2536677,32
1660134585.91644,1453950.2536706,37
1660134585.91644,1453950.2536736,44
1660134585.91644,1453950.2536764,44
1660134585.91644,1453950.2536794,39
1660134585.91644,1453950.2536823,51
1660134585.91644,1453950.2536852,48
1660134585.91644,1453950.2536886,18
1660134585.91644,1453950.2536944,13
1660134585.91644,1453950.7904532,27
1660134585.91644,1453950.7904699,32
1660134585.91644,1453950.7904774,39
1660134585.91644,1453950.7904816,41
1660134586.43295,1453950.7904868,20
1660134586.43295,1453950.7904914,0
1660134586.43295,1453950.7904953,-11
1660134586.43295,1453950.790499,-18
1660134586.43295,1453950.7905026,-13
1660134586.43295,1453950.7905062,-6
1660134586.43295,1453950.7905098,-6
1660134586.43295,1453950.7905135,-18
1660134586.43295,1453950.7905171,-34
1660134586.43295,1453950.7905208,-39
1660134586.43295,1453950.7905244,-30
1660134586.43295,1453950.7905282,-32
1660134586.43295,1453950.7905335,-37
1660134586.43295,1453950.7905372,-30
1660134586.43295,1453950.7905411,-25
1660134586.43295,1453950.7905465,-18
1660134586.43295,1453950.7905503,4
1660134586.43295,1453950.7905557,20
1660134586.43295,1453950.7905596,23
1660134586.43295,1453950.7905648,34
1660134586.43295,1453950.7905684,39
1660134586.43295,1453950.7905735,9
1660134586.43295,1453950.7905773,-11
1660134586.43295,1453950.7905811,6
1660134586.43295,1453950.7905867,16
1660134586.43295,1453950.7905912,13
1660134586.43295,1453950.7905965,16
1660134586.43295,1453950.7906002,18
1660134586.43295,1453950.7906039,25
1660134586.43295,1453950.7906094,32
1660134586.43295,1453950.7906137,39
1660134586.43295,1453950.790619,44
1660134586.43295,1453950.7906228,60
1660134586.43295,1453950.7906279,125
1660134586.43295,1453950.7906317,398
1660134586.43295,1453950.7906371,1080
1660134586.43295,1453950.7906409,1257
1660134586.43295,1453950.7906464,-206
1660134586.43295,1453950.7906502,-1574
1660134586.43295,1453950.7906554,-1034
1660134586.43295,1453950.7906598,-173
1660134586.43295,1453950.790665,-106
1660134586.43295,1453950.790672,0
1660134586.43295,1453950.7906771,222
1660134586.43295,1453950.7907113,199
1660134586.43295,1453950.7907239,162
1660134586.43295,1453950.7907331,222
1660134586.43295,1453950.7907409,224
1660134586.43295,1453950.7907468,199
1660134586.43295,1453950.7907513,222
1660134586.44392,1453950.7907585,231
1660134586.44392,1453950.7907664,206
1660134586.44392,1453950.7907745,206
1660134586.44392,1453950.7907887,220
1660134586.44392,1453950.7908069,224
1660134586.44392,1453950.7908163,238
1660134586.44392,1453950.7908249,248
1660134586.44392,1453950.7908359,248
1660134586.44392,1453950.7908434,262
1660134586.44392,1453950.7908479,266
1660134586.44392,1453950.7908544,266
1660134586.44392,1453950.7908583,287
1660134586.44392,1453950.7908649,317
1660134586.44392,1453950.7908711,350
1660134586.44392,1453950.7908773,380
1660134586.44392,1453950.7908829,398
1660134586.44392,1453950.790886,422
1660134586.44392,1453950.7908889,449
1660134586.44392,1453950.7908922,456
1660134586.44392,1453951.3747719,445
1660134586.44392,1453951.3747918,417
1660134586.44392,1453951.3748007,364
1660134586.44392,1453951.3748063,278
1660134586.44392,1453951.3748133,183
1660134587.07223,1453951.3748189,109
1660134587.07223,1453951.3748233,51
1660134587.07223,1453951.3748277,11
1660134587.07223,1453951.3748321,-25
1660134587.07223,1453951.3748373,-64
1660134587.07223,1453951.3748414,-81
1660134587.07223,1453951.3748447,-71
1660134587.07223,1453951.3748483,-64
1660134587.07223,1453951.374852,-74
1660134587.07223,1453951.3748558,-92
1660134587.07223,1453951.3748619,-106
1660134587.07223,1453951.3748683,-102
1660134587.07223,1453951.3748766,-85
1660134587.07223,1453951.3748899,-69
1660134587.07223,1453951.3749004,-57
1660134587.07223,1453951.374905,-51
1660134587.07223,1453951.3749083,-46
1660134587.07223,1453951.3749114,-37
1660134587.07223,1453951.3749144,-23
1660134587.07223,1453951.3749177,-13
1660134587.07223,1453951.3749209,-6
1660134587.07223,1453951.3749244,2
1660134587.07223,1453951.3749278,2
1660134587.07223,1453951.3749309,0
1660134587.07223,1453951.374934,6
1660134587.07223,1453951.3749371,11
1660134587.07223,1453951.3749402,13
1660134587.07223,1453951.3749436,16
1660134587.07223,1453951.3749479,16
1660134587.07223,1453951.3749512,16
1660134587.07223,1453951.3749544,16
1660134587.07223,1453951.3749581,23
1660134587.07223,1453951.3749614,25
1660134587.07223,1453951.3749647,18
1660134587.07223,1453951.374968,16
1660134587.07223,1453951.3749715,16
1660134587.07223,1453951.3749753,11
1660134587.07223,1453951.3749793,9
1660134587.07223,1453951.3749825,13
1660134587.07223,1453951.3749857,18
1660134587.07223,1453951.3749888,13
1660134587.07223,1453951.3749921,0
1660134587.07223,1453951.3749964,-2
1660134587.07223,1453951.3749997,6
1660134587.07223,1453951.3750028,9
1660134587.07223,1453951.3750061,9
1660134587.07223,1453951.3750092,16
1660134587.07223,1453951.3750126,20
1660134587.07223,1453951.3750159,18
1660134587.07223,1453951.3750195,13
1660134587.08918,1453951.375023,0
1660134587.08918,1453951.3750264,-18
1660134587.08918,1453951.3750297,-20
1660134587.08918,1453951.3750331,-20
1660134587.08918,1453951.3750371,-32
1660134587.08918,1453951.3750406,-34
1660134587.08918,1453951.3750441,-27
1660134587.08918,1453951.3750476,-30
1660134587.08918,1453951.375051,-34
1660134587.08918,1453951.3750548,-34
1660134587.08918,1453951.3750586,-32
1660134587.08918,1453951.3750623,-23
1660134587.08918,1453951.3750659,-11
1660134587.08918,1453951.3750694,2
1660134587.08918,1453951.3750733,18
1660134587.08918,1453951.3750772,39
1660134587.08918,1453951.375081,51
1660134587.08918,1453951.3750848,27
1660134587.08918,1453952.0087823,-4
1660134587.08918,1453952.0088007,2
1660134587.08918,1453952.0088105,16
1660134587.08918,1453952.0088193,11
1660134587.08918,1453952.0088289,6
1660134587.08918,1453952.0088358,2
1660134587.55255,1453952.0088418,-4
1660134587.55255,1453952.0088453,-2
1660134587.55255,1453952.0088494,9
1660134587.55255,1453952.0088548,18
1660134587.55255,1453952.0088603,20
1660134587.55255,1453952.0088674,18
1660134587.55255,1453952.0088734,192
1660134587.55255,1453952.0088793,902
1660134587.55255,1453952.0088859,1458
1660134587.55255,1453952.00889,336
1660134587.55255,1453952.008895,-1317
1660134587.55255,1453952.0089021,-1187
1660134587.55255,1453952.0089095,-313
1660134587.55255,1453952.0089148,-173
1660134587.55255,1453952.0089241,-132
1660134587.55255,1453952.0089315,76
1660134587.55255,1453952.0089389,71
1660134587.55255,1453952.0089484,20
1660134587.55255,1453952.0089554,76
1660134587.55255,1453952.0089623,92
1660134587.55255,1453952.0089699,74
1660134587.55255,1453952.0089782,99
1660134587.55255,1453952.008986,120
1660134587.55255,1453952.0089933,118
1660134587.55255,1453952.0090347,122
1660134587.55255,1453952.0090428,127
1660134587.55255,1453952.0090506,129
1660134587.55255,1453952.0090561,146
1660134587.55255,1453952.0090626,164
1660134587.55255,1453952.0090707,169
1660134587.55255,1453952.0090781,171
1660134587.55255,1453952.0090873,171
1660134587.55255,1453952.0090939,183
1660134587.55255,1453952.0090999,215
1660134587.55255,1453952.0091086,245
1660134587.55255,1453952.0091195,276
1660134587.55255,1453952.0091274,313
1660134587.55255,1453952.0091372,347
1660134587.55255,1453952.0091454,375
1660134587.55255,1453952.0091547,398
1660134587.55255,1453952.0091649,412
1660134587.55255,1453952.0091749,405
1660134587.55255,1453952.0091819,366
1660134587.55255,1453952.0092817,313
1660134587.55255,1453952.0092929,236
1660134587.55255,1453952.0092999,143
1660134587.55255,1453952.0093063,60
1660134587.55255,1453952.0093103,6
1660134587.55255,1453952.0093168,-34
1660134587.55255,1453952.0093236,-67
1660134587.5695,1453952.00933,-83
1660134587.5695,1453952.0093353,-88
1660134587.5695,1453952.0093411,-88
1660134587.5695,1453952.0093469,-85
1660134587.5695,1453952.0093548,-81
1660134587.5695,1453952.0093596,-81
1660134587.5695,1453952.0093656,-76
1660134587.5695,1453952.0093716,-67
1660134587.5695,1453952.0093765,-60
1660134587.5695,1453952.0093825,-51
1660134587.5695,1453952.0093873,-41
1660134587.5695,1453952.0093942,-37
1660134587.5695,1453952.0094026,-32
1660134587.5695,1453952.0094102,-23
1660134587.5695,1453952.0094161,-11
1660134587.5695,1453952.0094254,0
1660134587.5695,1453952.0094297,4
1660134587.5695,1453952.4969015,4
1660134587.5695,1453952.4969199,6
1660134587.5695,1453952.4969289,9
1660134587.5695,1453952.4969381,13
1660134587.5695,1453952.4969448,20
1660134587.5695,1453952.4969533,23
1660134587.5695,1453952.4969615,23
1660134588.13707,1453952.4969698,18
1660134588.13707,1453952.4969765,-6
1660134588.13707,1453952.4969829,-32
1660134588.13707,1453952.4969876,-30
1660134588.13707,1453952.4969924,-16
1660134588.13707,1453952.4969985,-18
1660134588.13707,1453952.4970025,-16
1660134588.13707,1453952.497007,-9
1660134588.13707,1453952.497013,-16
1660134588.13707,1453952.4970165,-18
1660134588.13707,1453952.4970196,-4
1660134588.13707,1453952.4970227,0
1660134588.13707,1453952.4970257,-6
1660134588.13707,1453952.4970289,-11
1660134588.13707,1453952.4970323,-32
1660134588.13707,1453952.497036,-55
1660134588.13707,1453952.4970389,-48
1660134588.13707,1453952.4970421,-37
1660134588.13707,1453952.4970453,-41
1660134588.13707,1453952.4970485,-39
1660134588.13707,1453952.4970516,-34
1660134588.13707,1453952.4970549,-37
1660134588.13707,1453952.4970582,-30
1660134588.13707,1453952.4970621,-25
1660134588.13707,1453952.4970657,-23
1660134588.13707,1453952.4970708,-16
1660134588.13707,1453952.4970746,-13
1660134588.13707,1453952.4970801,-13
1660134588.13707,1453952.4970847,-13
1660134588.13707,1453952.4970892,-16
1660134588.13707,1453952.497099,-27
1660134588.13707,1453952.4971066,-37
1660134588.13707,1453952.4971147,-46
1660134588.13707,1453952.4971218,-69
1660134588.13707,1453952.4971317,-71
1660134588.13707,1453952.4971437,-44
1660134588.13707,1453952.49715,-20
1660134588.13707,1453952.4971541,-9
1660134588.13707,1453952.4971604,9
1660134588.13707,1453952.4971681,0
1660134588.13707,1453952.4971763,-39
1660134588.13707,1453952.4971893,-44
1660134588.13707,1453952.4971984,-27
1660134588.13707,1453952.497207,-27
1660134588.13707,1453952.4972126,-20
1660134588.13707,1453952.4972164,-6
1660134588.13707,1453952.4972217,-6
1660134588.13707,1453952.4972253,-11
1660134588.13707,1453952.497231,-6
1660134588.13707,1453952.4972387,4
1660134588.14704,1453952.4972511,4
1660134588.14704,1453952.4972603,-20
1660134588.14704,1453952.4972689,76
1660134588.14704,1453952.4972756,698
1660134588.14704,1453952.4972793,1533
1660134588.14704,1453952.4972846,955
1660134588.14704,1453952.4972883,-800
1660134588.14704,1453952.4972955,-1231
1660134588.14704,1453952.4973032,-412
1660134588.14704,1453952.49731,-85
1660134588.14704,1453952.4973137,-104
1660134588.14704,1453952.4973215,51
1660134588.14704,1453952.4973313,109
1660134588.14704,1453952.4973438,57
1660134588.14704,1453952.4973523,85
1660134588.14704,1453952.4973596,113
1660134588.14704,1453953.0809706,102
1660134588.14704,1453953.0810207,113
1660134588.14704,1453953.0810373,134
1660134588.14704,1453953.0810445,141
1660134588.14704,1453953.0810484,141
1660134588.14704,1453953.0810525,127
1660134588.14704,1453953.0810582,106
1660134588.14704,1453953.0810623,115
1660134588.62704,1453953.0810663,136
1660134588.62704,1453953.0810706,146
1660134588.62704,1453953.0810751,155
1660134588.62704,1453953.0810806,157
1660134588.62704,1453953.0810863,150
1660134588.62704,1453953.0810903,164
1660134588.62704,1453953.0810951,206
1660134588.62704,1453953.0811018,241
1660134588.62704,1453953.0811085,271
1660134588.62704,1453953.0811153,308
1660134588.62704,1453953.0811218,340
1660134588.62704,1453953.0811288,357
1660134588.62704,1453953.0811331,371
1660134588.62704,1453953.0811369,375
1660134588.62704,1453953.0811404,359
1660134588.62704,1453953.0811442,313
1660134588.62704,1453953.0811483,234
1660134588.62704,1453953.081153,143
1660134588.62704,1453953.0811572,64
1660134588.62704,1453953.0811614,4
1660134588.62704,1453953.0811656,-41
1660134588.62704,1453953.0811697,-69
1660134588.62704,1453953.0811732,-85
1660134588.62704,1453953.0811766,-109
1660134588.62704,1453953.0811803,-129
1660134588.62704,1453953.0811859,-134
1660134588.62704,1453953.0811909,-125
1660134588.62704,1453953.0811964,-125
1660134588.62704,1453953.0812002,-122
1660134588.62704,1453953.0812057,-113
1660134588.62704,1453953.0812109,-99
1660134588.62704,1453953.0812165,-83
1660134588.62704,1453953.0812201,-71
1660134588.62704,1453953.0812241,-64
1660134588.62704,1453953.0812278,-51
1660134588.62704,1453953.0812334,-41
1660134588.62704,1453953.0812387,-39
1660134588.62704,1453953.081245,-30
1660134588.62704,1453953.0812493,-20
1660134588.62704,1453953.0812556,-13
1660134588.62704,1453953.0812596,-6
1660134588.62704,1453953.0812636,-4
1660134588.62704,1453953.0812676,-6
1660134588.62704,1453953.0812717,-13
1660134588.62704,1453953.0812777,-11
1660134588.62704,1453953.0812834,-4
1660134588.62704,1453953.0812869,-2
1660134588.62704,1453953.0812904,-6
1660134588.62704,1453953.0812958,-13
1660134588.62704,1453953.0813026,-6
1660134588.64,1453953.0813061,9
1660134588.64,1453953.0813092,9
1660134588.64,1453953.0813123,6
1660134588.64,1453953.0813153,11
1660134588.64,1453953.0813183,11
1660134588.64,1453953.0813214,11
1660134588.64,1453953.0813244,13
1660134588.64,1453953.0813274,11
1660134588.64,1453953.0813304,13
1660134588.64,1453953.0813333,23
1660134588.64,1453953.0813363,27
1660134588.64,1453953.0813393,23
1660134588.64,1453953.0813422,20
1660134588.64,1453953.0813451,25
1660134588.64,1453953.0813481,32
1660134588.64,1453953.5692942,37
1660134588.64,1453953.5693122,37
1660134588.64,1453953.5693176,41
1660134588.64,1453953.569325,34
1660134588.64,1453953.56933,20
1660134588.64,1453953.5693358,18
1660134588.64,1453953.56934,25
1660134588.64,1453953.5693468,27
1660134588.64,1453953.5693501,25
1660134589.21895,1453953.5693564,20
1660134589.21895,1453953.5693626,4
1660134589.21895,1453953.5693695,-4
1660134589.21895,1453953.5693731,2
1660134589.21895,1453953.5693853,6
1660134589.21895,1453953.5693925,-4
1660134589.21895,1453953.5694054,-23
1660134589.21895,1453953.5694142,-16
1660134589.21895,1453953.5694185,6
1660134589.21895,1453953.5694247,25
1660134589.21895,1453953.5694277,41
1660134589.21895,1453953.5694306,34
1660134589.21895,1453953.5694335,-27
1660134589.21895,1453953.5694364,-81
1660134589.21895,1453953.5694393,-71
1660134589.21895,1453953.5694423,-67
1660134589.21895,1453953.5694556,-92
1660134589.21895,1453953.5694683,-92
1660134589.21895,1453953.5694826,-81
1660134589.21895,1453953.5694958,-90
1660134589.21895,1453953.5695089,-90
1660134589.21895,1453953.5695222,-71
1660134589.21895,1453953.5695353,-60
1660134589.21895,1453953.5695476,-81
1660134589.21895,1453953.5695571,-115
1660134589.21895,1453953.5695646,71
1660134589.21895,1453953.5695706,818
1660134589.21895,1453953.5695837,1451
1660134589.21895,1453953.5695927,579
1660134589.21895,1453953.5696012,-976
1660134589.21895,1453953.5696142,-1136
1660134589.21895,1453953.569627,-431
1660134589.21895,1453953.5696384,-187
1660134589.21895,1453953.5696498,-125
1660134589.21895,1453953.5696583,32
1660134589.21895,1453953.5696622,62
1660134589.21895,1453953.5696749,27
1660134589.21895,1453953.5696879,60
1660134589.21895,1453953.5696983,85
1660134589.21895,1453953.5697134,83
1660134589.21895,1453953.5697271,97
1660134589.21895,1453953.5697407,115
1660134589.21895,1453953.5697524,122
1660134589.21895,1453953.5697602,132
1660134589.21895,1453953.5697638,136
1660134589.21895,1453953.5697765,143
1660134589.21895,1453953.5697893,169
1660134589.21895,1453953.5698036,190
1660134589.21895,1453953.5698168,192
1660134589.21895,1453953.56983,211
1660134589.22992,1453953.5698432,238
1660134589.22992,1453953.5698564,255
1660134589.22992,1453953.5698692,280
1660134589.22992,1453953.569883,322
1660134589.22992,1453953.569898,359
1660134589.22992,1453953.5699112,394
1660134589.22992,1453953.5699234,426
1660134589.22992,1453953.5699368,454
1660134589.22992,1453953.5699453,482
1660134589.22992,1453953.5699534,500
1660134589.22992,1453953.5699603,496
1660134589.22992,1453953.5699798,456
1660134589.22992,1453953.5699909,389
1660134589.22992,1453953.5699947,303
1660134589.22992,1453954.1545942,208
1660134589.22992,1453954.1546061,118
1660134589.22992,1453954.1546108,48
1660134589.22992,1453954.1546132,2
1660134589.22992,1453954.1546155,-27
1660134589.22992,1453954.1546177,-57
1660134589.22992,1453954.1546199,-88
1660134589.22992,1453954.154622,-88
1660134589.22992,1453954.1546242,-74
1660134589.22992,1453954.1546263,-78
1660134589.89381,1453954.1546285,-76
1660134589.89381,1453954.1546305,-69
1660134589.89381,1453954.1546324,-83
1660134589.89381,1453954.1546343,-76
1660134589.89381,1453954.1546362,-44
1660134589.89381,1453954.1546381,-32
1660134589.89381,1453954.15464,-25
1660134589.89381,1453954.154642,-23
1660134589.89381,1453954.1546439,-37
1660134589.89381,1453954.1546458,-39
1660134589.89381,1453954.1546476,-30
1660134589.89381,1453954.1546495,-34
1660134589.89381,1453954.1546515,-32
1660134589.89381,1453954.1546533,-9
1660134589.89381,1453954.1546553,6
1660134589.89381,1453954.1546573,4
1660134589.89381,1453954.1546593,11
1660134589.89381,1453954.1546612,11
1660134589.89381,1453954.1546637,0
1660134589.89381,1453954.1546681,13
1660134589.89381,1453954.1546729,27
1660134589.89381,1453954.1546779,13
1660134589.89381,1453954.1546834,4
1660134589.89381,1453954.1546886,6
1660134589.89381,1453954.1546931,11
1660134589.89381,1453954.1546962,13
1660134589.89381,1453954.1546984,13
1660134589.89381,1453954.1547005,11
1660134589.89381,1453954.1547025,13
1660134589.89381,1453954.1547045,25
1660134589.89381,1453954.1547065,44
1660134589.89381,1453954.1547089,48
1660134589.89381,1453954.1547109,39
1660134589.89381,1453954.1547129,37
1660134589.89381,1453954.154715,39
1660134589.89381,1453954.154717,41
1660134589.89381,1453954.1547191,51
1660134589.89381,1453954.1547211,62
1660134589.89381,1453954.1547231,71
1660134589.89381,1453954.1547251,76
1660134589.89381,1453954.1547272,71
1660134589.89381,1453954.1547292,71
1660134589.89381,1453954.1547313,74
1660134589.89381,1453954.1547332,64
1660134589.89381,1453954.1547353,71
1660134589.89381,1453954.1547374,78
1660134589.89381,1453954.1547394,62
1660134589.89381,1453954.1547414,55
1660134589.89381,1453954.1547433,69
1660134589.89381,1453954.1547454,69
1660134589.90578,1453954.1547478,69
1660134589.90578,1453954.1547498,88
1660134589.90578,1453954.1547518,88
1660134589.90578,1453954.1547538,81
1660134589.90578,1453954.1547597,102
1660134589.90578,1453954.1547695,106
1660134589.90578,1453954.1547757,67
1660134589.90578,1453954.1547802,53
1660134589.90578,1453954.1547852,64
1660134589.90578,1453954.1547894,46
1660134589.90578,1453954.1547944,39
1660134589.90578,1453954.1547988,62
1660134589.90578,1453954.1548041,60
1660134589.90578,1453954.8363465,51
1660134589.90578,1453954.8363663,60
1660134589.90578,1453954.8363808,64
1660134589.90578,1453954.836391,53
1660134589.90578,1453954.8364003,39
1660134589.90578,1453954.83641,122
1660134589.90578,1453954.8364226,609
1660134589.90578,1453954.8364328,1407
1660134589.90578,1453954.8364397,1029
1660134589.90578,1453954.8364519,-802
1660134589.90578,1453954.8364622,-1570
1660134590.33204,1453954.8364695,-737
1660134590.33204,1453954.8364743,-224
1660134590.33204,1453954.8364805,-231
1660134590.33204,1453954.8364869,-51
1660134590.33204,1453954.8364932,71
1660134590.33204,1453954.8364998,6
1660134590.33204,1453954.8365233,27
1660134590.33204,1453954.8365316,78
1660134590.33204,1453954.8365391,57
1660134590.33204,1453954.8365456,53
1660134590.33204,1453954.8365529,67
1660134590.33204,1453954.8365631,67
1660134590.33204,1453954.8365741,71
1660134590.33204,1453954.8365819,85
1660134590.33204,1453954.8365926,92
1660134590.33204,1453954.836603,99
1660134590.33204,1453954.836612,113
1660134590.33204,1453954.8366243,129
1660134590.33204,1453954.8366332,146
1660134590.33204,1453954.8366425,169
1660134590.33204,1453954.8366537,199
1660134590.33204,1453954.8366611,227
1660134590.33204,1453954.8366735,257
1660134590.33204,1453954.8366826,285
1660134590.33204,1453954.8366851,308
1660134590.33204,1453954.8366873,354
1660134590.33204,1453954.8366893,398
1660134590.33204,1453954.8366914,417
1660134590.33204,1453954.8366978,424
1660134590.33204,1453954.8367087,419
1660134590.33204,1453954.8367184,387
1660134590.33204,1453954.836727,338
1660134590.33204,1453954.8367416,276
1660134590.33204,1453954.8367721,171
1660134590.33204,1453954.8367846,78
1660134590.33204,1453954.8367918,30
1660134590.33204,1453954.8367957,-16
1660134590.33204,1453954.8368013,-62
1660134590.33204,1453954.8368046,-76
1660134590.33204,1453954.8368078,-83
1660134590.33204,1453954.836811,-88
1660134590.33204,1453954.8368143,-85
1660134590.33204,1453954.8368175,-85
1660134590.33204,1453954.8368208,-83
1660134590.33204,1453954.8368263,-74
1660134590.33204,1453954.8368295,-71
1660134590.33204,1453954.8368329,-71
1660134590.33204,1453954.8368362,-53
1660134590.33204,1453954.8368413,-37
1660134590.33204,1453954.8368448,-32
1660134590.34401,1453954.8368505,-18
1660134590.34401,1453954.8368541,-9
1660134590.34401,1453954.8368602,-6
1660134590.34401,1453954.8368661,2
1660134590.34401,1453954.8368724,11
1660134590.34401,1453954.8368801,11
1660134590.34401,1453954.8368859,13
1660134590.34401,1453954.8368898,11
1660134590.34401,1453954.8368954,6
1660134590.34401,1453954.8368996,16
1660134590.34401,1453954.8369048,18
1660134590.34401,1453954.8369086,11
1660134590.34401,1453955.2748881,11
1660134590.34401,1453955.2749059,13
1660134590.34401,1453955.2749125,2
1660134590.34401,1453955.2749202,-11
1660134590.34401,1453955.2749247,-9
1660134590.34401,1453955.2749318,-4
1660134590.34401,1453955.2749381,-13
1660134590.34401,1453955.2749467,-13
1660134590.34401,1453955.2749574,2
1660134590.34401,1453955.2749625,11
1660134590.34401,1453955.2749646,4
1660134590.34401,1453955.2749686,4
1660134590.87367,1453955.2749708,11
1660134590.87367,1453955.2749736,16
1660134590.87367,1453955.2749818,16
1660134590.87367,1453955.2749883,11
1660134590.87367,1453955.2749944,4
1660134590.87367,1453955.2750115,6
1660134590.87367,1453955.2750208,4
1660134590.87367,1453955.2750253,0
1660134590.87367,1453955.2750325,6
1660134590.87367,1453955.2750435,13
1660134590.87367,1453955.2750579,13
1660134590.87367,1453955.2750711,2
1660134590.87367,1453955.2750811,-25
1660134590.87367,1453955.2750879,-46
1660134590.87367,1453955.2751007,-39
1660134590.87367,1453955.2751111,-18
1660134590.87367,1453955.275123,0
1660134590.87367,1453955.2751363,16
1660134590.87367,1453955.275148,23
1660134590.87367,1453955.275156,20
1660134590.87367,1453955.2751695,9
1660134590.87367,1453955.2751758,-11
1660134590.87367,1453955.2751781,-13
1660134590.87367,1453955.2751846,2
1660134590.87367,1453955.2751981,0
1660134590.87367,1453955.2752113,-13
1660134590.87367,1453955.2752219,-11
1660134590.87367,1453955.2752298,2
1660134590.87367,1453955.2752442,9
1660134590.87367,1453955.2752568,16
1660134590.87367,1453955.2752648,18
1660134590.87367,1453955.2752743,-4
1660134590.87367,1453955.2752833,-34
1660134590.87367,1453955.2752935,183
1660134590.87367,1453955.2753025,992
1660134590.87367,1453955.275308,1553
1660134590.87367,1453955.2753133,408
1660134590.87367,1453955.2753187,-1192
1660134590.87367,1453955.2753242,-1085
1660134590.87367,1453955.2753342,-273
1660134590.87367,1453955.2753425,-136
1660134590.87367,1453955.275346,-113
1660134590.87367,1453955.2753595,67
1660134590.87367,1453955.2753699,71
1660134590.87367,1453955.2753779,18
1660134590.87367,1453955.275387,67
1660134590.87367,1453955.2753986,92
1660134590.87367,1453955.2754131,78
1660134590.87367,1453955.2754254,92
1660134590.87367,1453955.2754365,106
1660134590.88763,1453955.2754479,95
1660134590.88763,1453955.2754622,97
1660134590.88763,1453955.2754754,111
1660134590.88763,1453955.2754887,111
1660134590.88763,1453955.2755019,106
1660134590.88763,1453955.2755152,106
1660134590.88763,1453955.2755284,92
1660134590.88763,1453955.2755416,83
1660134590.88763,1453955.2755546,104
1660134590.88763,1453955.2755676,134
1660134590.88763,1453955.275581,148
1660134590.88763,1453955.8113905,173
1660134590.88763,1453955.8114045,208
1660134590.88763,1453955.8114086,241
1660134590.88763,1453955.8114135,273
1660134590.88763,1453955.8114158,303
1660134590.88763,1453955.811419,322
1660134590.88763,1453955.8114214,324
1660134590.88763,1453955.8114237,306
1660134590.88763,1453955.811426,266
1660134590.88763,1453955.8114284,194
1660134590.88763,1453955.8114307,115
1660134590.88763,1453955.8114329,39
1660134590.88763,1453955.8114351,-37
1660134591.44889,1453955.8114371,-97
1660134591.44889,1453955.8114394,-141
1660134591.44889,1453955.8114416,-183
1660134591.44889,1453955.8114435,-201
1660134591.44889,1453955.8114457,-197
1660134591.44889,1453955.8114479,-197
1660134591.44889,1453955.81145,-190
1660134591.44889,1453955.8114521,-180
1660134591.44889,1453955.8114545,-178
1660134591.44889,1453955.8114599,-169
1660134591.44889,1453955.8114673,-150
1660134591.44889,1453955.8114717,-139
1660134591.44889,1453955.8114754,-127
1660134591.44889,1453955.8114816,-113
1660134591.44889,1453955.8114865,-102
1660134591.44889,1453955.8114926,-90
1660134591.44889,1453955.8115013,-81
1660134591.44889,1453955.8115051,-74
1660134591.44889,1453955.8115072,-62
1660134591.44889,1453955.8115093,-48
1660134591.44889,1453955.8115113,-44
1660134591.44889,1453955.8115157,-41
1660134591.44889,1453955.8115209,-37
1660134591.44889,1453955.8115262,-32
1660134591.44889,1453955.8115337,-32
1660134591.44889,1453955.8115382,-34
1660134591.44889,1453955.8115419,-41
1660134591.44889,1453955.811544,-41
1660134591.44889,1453955.8115461,-34
1660134591.44889,1453955.8115481,-32
1660134591.44889,1453955.8115501,-27
1660134591.44889,1453955.8115522,-18
1660134591.44889,1453955.8115542,-16
1660134591.44889,1453955.8115565,-13
1660134591.44889,1453955.8115584,-11
1660134591.44889,1453955.8115605,-9
1660134591.44889,1453955.8115624,-4
1660134591.44889,1453955.8115642,2

1660134591.44889,1453955.8115662,11
1660134591.44889,1453955.8115681,18
1660134591.44889,1453955.81157,11
1660134591.44889,1453955.811572,6
1660134591.44889,1453955.8115739,11
1660134591.44889,1453955.8115758,25
1660134591.44889,1453955.8115778,34
1660134591.44889,1453955.8115796,37
1660134591.44889,1453955.8115815,34
1660134591.44889,1453955.8115836,20
1660134591.44889,1453955.8115857,0
1660134591.44889,1453955.8115877,-6
1660134591.46385,1453955.8115896,4
1660134591.46385,1453955.8115926,11
1660134591.46385,1453955.8115946,13
1660134591.46385,1453955.8115967,11
1660134591.46385,1453955.8115987,20
1660134591.46385,1453955.8116008,53
1660134591.46385,1453955.8116035,78
1660134591.46385,1453955.8116056,64
1660134591.46385,1453955.8116076,37
1660134591.46385,1453955.811618,30
1660134591.46385,1453956.3960741,34
1660134591.46385,1453956.3960867,37
1660134591.46385,1453956.39609,41
1660134591.46385,1453956.3960925,48
1660134591.46385,1453956.3960948,46
1660134591.46385,1453956.3960971,25
1660134591.46385,1453956.3960993,6
1660134591.46385,1453956.3961015,11
1660134591.46385,1453956.3961041,-6
1660134591.46385,1453956.3961103,4
1660134591.46385,1453956.39612,412
1660134591.46385,1453956.3961262,1319
1660134591.46385,1453956.3961304,1419
1660134591.46385,1453956.3961325,-97
1660134592.04109,1453956.3961359,-1238
1660134592.04109,1453956.3961424,-770
1660134592.04109,1453956.396151,-171
1660134592.04109,1453956.3961585,-129
1660134592.04109,1453956.396166,-37
1660134592.04109,1453956.3961723,95
1660134592.04109,1453956.396177,60
1660134592.04109,1453956.3961831,46
1660134592.04109,1453956.3961928,95
1660134592.04109,1453956.3961985,102
1660134592.04109,1453956.3962097,90
1660134592.04109,1453956.3962148,106
1660134592.04109,1453956.3962215,118
1660134592.04109,1453956.3962261,115
1660134592.04109,1453956.3962324,118
1660134592.04109,1453956.396237,120
1660134592.04109,1453956.3962478,113
1660134592.04109,1453956.3962593,113
1660134592.04109,1453956.3962722,132
1660134592.04109,1453956.3962837,155
1660134592.04109,1453956.3962956,173
1660134592.04109,1453956.3963068,187
1660134592.04109,1453956.3963129,211
1660134592.04109,1453956.3963153,243
1660134592.04109,1453956.3963174,278
1660134592.04109,1453956.3963196,313
1660134592.04109,1453956.396323,345
1660134592.04109,1453956.3963368,378
1660134592.04109,1453956.3963461,408
1660134592.04109,1453956.3963502,417
1660134592.04109,1453956.3963523,405
1660134592.04109,1453956.3963582,389
1660134592.04109,1453956.3963684,352
1660134592.04109,1453956.3963737,278
1660134592.04109,1453956.3963844,180
1660134592.04109,1453956.3963903,95
1660134592.04109,1453956.3963926,20
1660134592.04109,1453956.3963947,-30
1660134592.04109,1453956.3964001,-71
1660134592.04109,1453956.3964117,-115
1660134592.04109,1453956.396423,-136
1660134592.04109,1453956.3964375,-132
1660134592.04109,1453956.3964502,-132
1660134592.04109,1453956.3964634,-132
1660134592.04109,1453956.3964768,-125
1660134592.04109,1453956.39649,-118
1660134592.04109,1453956.3965034,-109
1660134592.04109,1453956.3965166,-102
1660134592.04109,1453956.39653,-97
1660134592.04109,1453956.3965437,-78
1660134592.05505,1453956.3965572,-64
1660134592.05505,1453956.3965703,-60
1660134592.05505,1453956.3965837,-51
1660134592.05505,1453956.3965968,-37
1660134592.05505,1453956.3966101,-27
1660134592.05505,1453956.3966232,-20
1660134592.05505,1453956.3966363,-16
1660134592.05505,1453956.3966493,-11
1660134592.05505,1453956.3966625,-4
1660134592.05505,1453956.9823714,2
1660134592.05505,1453956.9823918,2
1660134592.05505,1453956.9823983,0
1660134592.05505,1453956.9824028,2
1660134592.05505,1453956.9824075,4
1660134592.05505,1453956.9824131,11
1660134592.05505,1453956.9824179,16
1660134592.05505,1453956.9824233,23
1660134592.05505,1453956.9824292,6
1660134592.05505,1453956.982434,-25
1660134592.05505,1453956.982438,-20
1660134592.05505,1453956.982442,2
1660134592.05505,1453956.982448,-2
1660134592.05505,1453956.9824569,0
1660134592.05505,1453956.9824638,2
1660134592.57888,1453956.9824681,-23
1660134592.57888,1453956.9824721,-34
1660134592.57888,1453956.9824759,-13
1660134592.57888,1453956.9824804,-2
1660134592.57888,1453956.9824866,0
1660134592.57888,1453956.9824928,-2
1660134592.57888,1453956.9824996,-11
1660134592.57888,1453956.9825043,-13
1660134592.57888,1453956.9825085,0
1660134592.57888,1453956.9825125,16
1660134592.57888,1453956.9825166,16
1660134592.57888,1453956.9825219,9
1660134592.57888,1453956.9825283,13
1660134592.57888,1453956.9825339,20
1660134592.57888,1453956.9825384,20
1660134592.57888,1453956.9825446,23
1660134592.57888,1453956.9825508,27
1660134592.57888,1453956.9825593,39
1660134592.57888,1453956.9825672,62
1660134592.57888,1453956.9825737,90
1660134592.57888,1453956.9825796,90
1660134592.57888,1453956.9825863,74
1660134592.57888,1453956.9825925,76
1660134592.57888,1453956.9825967,92
1660134592.57888,1453956.9826026,90
1660134592.57888,1453956.9826075,76
1660134592.57888,1453956.9826133,85
1660134592.57888,1453956.9826175,99
1660134592.57888,1453956.9826233,92
1660134592.57888,1453956.9826276,97
1660134592.57888,1453956.9826334,99
1660134592.57888,1453956.9826377,64
1660134592.57888,1453956.9826438,95
1660134592.57888,1453956.9826483,489
1660134592.57888,1453956.9826552,1342
1660134592.57888,1453956.9826595,1398
1660134592.57888,1453956.9826655,-250
1660134592.57888,1453956.98267,-1468
1660134592.57888,1453956.9826767,-841
1660134592.57888,1453956.9826816,-115
1660134592.57888,1453956.9826892,-83
1660134592.57888,1453956.9826954,41
1660134592.57888,1453956.9827037,220
1660134592.57888,1453956.9827106,171
1660134592.57888,1453956.9827173,141
1660134592.57888,1453956.982723,190
1660134592.57888,1453956.9827294,192
1660134592.57888,1453956.9827361,183
1660134592.57888,1453956.9827445,204
1660134592.57888,1453956.982751,218
1660134592.59584,1453956.9827588,220
1660134592.59584,1453956.9827657,218
1660134592.59584,1453956.9827742,229
1660134592.59584,1453956.9827803,252
1660134592.59584,1453956.9827867,257
1660134592.59584,1453956.983002,255
1660134592.59584,1453956.9830149,264
1660134592.59584,1453956.983023,278
1660134592.59584,1453957.5174147,299
1660134592.59584,1453957.517433,324
1660134592.59584,1453957.5174497,343
1660134592.59584,1453957.5174642,354
1660134592.59584,1453957.5174776,375
1660134592.59584,1453957.517491,398
1660134592.59584,1453957.5175016,405
1660134592.59584,1453957.5175072,429
1660134592.59584,1453957.5175146,456
1660134592.59584,1453957.5175198,447
1660134592.59584,1453957.5175269,424
1660134592.59584,1453957.5175337,382
1660134592.59584,1453957.517537,303
1660134592.59584,1453957.5175408,206
1660134592.59584,1453957.5175429,115
1660134592.59584,1453957.5175449,34
1660134593.20805,1453957.5175471,-27
1660134593.20805,1453957.5175491,-76
1660134593.20805,1453957.5175516,-122
1660134593.20805,1453957.517561,-150
1660134593.20805,1453957.5175674,-153
1660134593.20805,1453957.5175782,-160
1660134593.20805,1453957.5175846,-166
1660134593.20805,1453957.5175951,-157
1660134593.20805,1453957.5176084,-148
1660134593.20805,1453957.5176226,-146
1660134593.20805,1453957.5176359,-132
1660134593.20805,1453957.5176491,-120
1660134593.20805,1453957.5176626,-111
1660134593.20805,1453957.5176758,-99
1660134593.20805,1453957.5176889,-92
1660134593.20805,1453957.517702,-92
1660134593.20805,1453957.5177151,-81
1660134593.20805,1453957.5177283,-67
1660134593.20805,1453957.5177366,-60
1660134593.20805,1453957.51774,-53
1660134593.20805,1453957.517751,-44
1660134593.20805,1453957.5177582,-48
1660134593.20805,1453957.5177604,-62
1660134593.20805,1453957.5177625,-60
1660134593.20805,1453957.5177687,-53
1660134593.20805,1453957.5177799,-51
1660134593.20805,1453957.5177849,-53
1660134593.20805,1453957.5177879,-51
1660134593.20805,1453957.5177901,-51
1660134593.20805,1453957.5177931,-51
1660134593.20805,1453957.5178042,-44
1660134593.20805,1453957.5178159,-32
1660134593.20805,1453957.5178295,-30
1660134593.20805,1453957.5178386,-25
1660134593.20805,1453957.5178468,-20
1660134593.20805,1453957.5178506,-23
1660134593.20805,1453957.5178544,-20
1660134593.20805,1453957.5178581,-6
1660134593.20805,1453957.517862,2
1660134593.20805,1453957.5178679,0
1660134593.20805,1453957.5178719,2
1660134593.20805,1453957.5178775,11
1660134593.20805,1453957.5178814,13
1660134593.20805,1453957.5178868,13
1660134593.20805,1453957.5178905,23
1660134593.20805,1453957.517896,30
1660134593.20805,1453957.5178999,23
1660134593.20805,1453957.5179033,13
1660134593.20805,1453957.517909,13
1660134593.20805,1453957.5179126,18
1660134593.22276,1453957.5179161,25
1660134593.22276,1453957.5179196,34
1660134593.22276,1453957.5179232,34
1660134593.22276,1453957.5179269,44
1660134593.22276,1453957.5179307,74
1660134593.22276,1453957.5179345,81
1660134593.22276,1453957.5179383,62
1660134593.22276,1453958.1537653,64
1660134593.22276,1453958.1537829,71
1660134593.22276,1453958.1537923,57
1660134593.22276,1453958.1537983,48
1660134593.22276,1453958.1538069,57
1660134593.22276,1453958.1538123,64
1660134593.22276,1453958.1538183,62
1660134593.22276,1453958.1538219,62
1660134593.22276,1453958.1538274,44
1660134593.22276,1453958.1538334,4
1660134593.22276,1453958.1538439,2
1660134593.22276,1453958.153856,289
1660134593.22276,1453958.1538644,1150
1660134593.22276,1453958.1538702,1553
1660134593.22276,1453958.1538761,166
1660134593.22276,1453958.1538832,-1333
1660134593.22276,1453958.1538939,-981
1660134593.75211,1453958.1538967,-187
1660134593.75211,1453958.1539023,-129
1660134593.75211,1453958.1539111,-71
1660134593.75211,1453958.1539178,111
1660134593.75211,1453958.1539241,76
1660134593.75211,1453958.1539315,37
1660134593.75211,1453958.1539389,99
1660134593.75211,1453958.1539479,113
1660134593.75211,1453958.1539543,97
1660134593.75211,1453958.1539605,115
1660134593.75211,1453958.1539655,122
1660134593.75211,1453958.1539806,118
1660134593.75211,1453958.1539896,115
1660134593.75211,1453958.1539959,111
1660134593.75211,1453958.1540352,111
1660134593.75211,1453958.1540441,125
1660134593.75211,1453958.1540507,136
1660134593.75211,1453958.1540563,146
1660134593.75211,1453958.1540613,153
1660134593.75211,1453958.1540666,166
1660134593.75211,1453958.1540739,190
1660134593.75211,1453958.1540806,213
1660134593.75211,1453958.1540843,241
1660134593.75211,1453958.1540882,271
1660134593.75211,1453958.1540916,308
1660134593.75211,1453958.1540948,347
1660134593.75211,1453958.1540987,378
1660134593.75211,1453958.1541035,387
1660134593.75211,1453958.154108,387
1660134593.75211,1453958.1541143,382
1660134593.75211,1453958.1541511,352
1660134593.75211,1453958.1541588,289
1660134593.75211,1453958.1541634,194
1660134593.75211,1453958.1541666,95
1660134593.75211,1453958.1541695,20
1660134593.75211,1453958.1541734,-27
1660134593.75211,1453958.1541778,-64
1660134593.75211,1453958.1541847,-88
1660134593.75211,1453958.1541906,-99
1660134593.75211,1453958.1541991,-102
1660134593.75211,1453958.1542072,-102
1660134593.75211,1453958.1542132,-99
1660134593.75211,1453958.1542209,-99
1660134593.75211,1453958.1542273,-97
1660134593.75211,1453958.1542339,-88
1660134593.75211,1453958.1542405,-81
1660134593.75211,1453958.1542472,-76
1660134593.75211,1453958.1542535,-69
1660134593.75211,1453958.1542572,-69
1660134593.75211,1453958.1542606,-78
1660134593.76607,1453958.1542656,-88
1660134593.76607,1453958.1542705,-85
1660134593.76607,1453958.1542774,-78
1660134593.76607,1453958.1542814,-74
1660134593.76607,1453958.1542874,-71
1660134593.76607,1453958.1542921,-69
1660134593.76607,1453958.6873581,-62
1660134593.76607,1453958.6873752,-60
1660134593.76607,1453958.6873808,-57
1660134593.76607,1453958.6873876,-48
1660134593.76607,1453958.6873922,-46
1660134593.76607,1453958.6873987,-51
1660134593.76607,1453958.6874066,-48
1660134593.76607,1453958.6874112,-46
1660134593.76607,1453958.6874155,-44
1660134593.76607,1453958.6874191,-37
1660134593.76607,1453958.6874226,-32
1660134593.76607,1453958.6874281,-34
1660134593.76607,1453958.687432,-41
1660134593.76607,1453958.6874374,-41
1660134593.76607,1453958.6874416,-32
1660134593.76607,1453958.6874472,-23
1660134593.76607,1453958.6874555,-18
1660134593.76607,1453958.687461,-18
1660134594.23164,1453958.6874756,-27
1660134594.23164,1453958.6874841,-27
1660134594.23164,1453958.6874914,-16
1660134594.23164,1453958.6874985,-18
1660134594.23164,1453958.6875059,-34
1660134594.23164,1453958.6875119,-37
1660134594.23164,1453958.6875173,-51
1660134594.23164,1453958.6875233,-78
1660134594.23164,1453958.687532,-81
1660134594.23164,1453958.6875433,-67
1660134594.23164,1453958.6875533,-67
1660134594.23164,1453958.687561,-69
1660134594.23164,1453958.6875739,-81
1660134594.23164,1453958.6875872,-102
1660134594.23164,1453958.6876004,-92
1660134594.23164,1453958.6876136,-69
1660134594.23164,1453958.6876269,-57
1660134594.23164,1453958.6876389,-34
1660134594.23164,1453958.6876458,-6
1660134594.23164,1453958.6876509,-6
1660134594.23164,1453958.6876639,-23
1660134594.23164,1453958.6876783,-16
1660134594.23164,1453958.687692,0
1660134594.23164,1453958.6877046,2
1660134594.23164,1453958.6877188,2
1660134594.23164,1453958.6877317,4
1660134594.23164,1453958.6877468,9
1660134594.23164,1453958.6877565,18
1660134594.23164,1453958.6877627,27
1660134594.23164,1453958.6877667,32
1660134594.23164,1453958.6877716,16
1660134594.23164,1453958.6877769,-6
1660134594.23164,1453958.6877914,255
1660134594.23164,1453958.6878046,1110
1660134594.23164,1453958.687818,1609
1660134594.23164,1453958.6878312,401
1660134594.23164,1453958.6878445,-1090
1660134594.23164,1453958.6878576,-906
1660134594.23164,1453958.6878707,-160
1660134594.23164,1453958.687884,-71
1660134594.23164,1453958.6878972,-46
1660134594.23164,1453958.6879104,118
1660134594.23164,1453958.6879236,111
1660134594.23164,1453958.6879366,62
1660134594.23164,1453958.6879497,106
1660134594.23164,1453958.6879628,129
1660134594.23164,1453958.6879759,120
1660134594.23164,1453958.6879859,134
1660134594.23164,1453958.6879911,148
1660134594.23164,1453958.6880012,148
1660134594.24453,1453958.6880095,155
1660134594.24453,1453958.6880142,164
1660134594.24453,1453958.6880248,169
1660134594.24453,1453958.6880357,180
1660134594.24453,1453958.6880452,197
1660134594.24453,1453959.1749642,206
1660134594.24453,1453959.1749765,215
1660134594.24453,1453959.1749814,234
1660134594.24453,1453959.1749862,259
1660134594.24453,1453959.1749882,285
1660134594.24453,1453959.1749902,308
1660134594.24453,1453959.1749922,338
1660134594.24453,1453959.1749943,371
1660134594.24453,1453959.1749964,389
1660134594.24453,1453959.1749984,394
1660134594.24453,1453959.1750004,415
1660134594.24453,1453959.1750024,431
1660134594.24453,1453959.1750044,419
1660134594.24453,1453959.1750063,380
1660134594.24453,1453959.1750084,310
1660134594.24453,1453959.1750104,208
1660134594.24453,1453959.1750127,109
1660134594.24453,1453959.1750205,30
1660134594.24453,1453959.1750316,-30
1660134594.82396,1453959.1750364,-64
1660134594.82396,1453959.1750386,-97
1660134594.82396,1453959.1750406,-136
1660134594.82396,1453959.175043,-150
1660134594.82396,1453959.1750532,-146
1660134594.82396,1453959.1750602,-153
1660134594.82396,1453959.1750711,-153
1660134594.82396,1453959.1750771,-139
1660134594.82396,1453959.1750817,-136
1660134594.82396,1453959.1750868,-132
1660134594.82396,1453959.1750917,-115
1660134594.82396,1453959.1750961,-104
1660134594.82396,1453959.1751004,-90
1660134594.82396,1453959.1751032,-74
1660134594.82396,1453959.1751053,-67
1660134594.82396,1453959.1751084,-60
1660134594.82396,1453959.1751213,-46
1660134594.82396,1453959.1751273,-39
1660134594.82396,1453959.1751294,-37
1660134594.82396,1453959.1751313,-27
1660134594.82396,1453959.1751387,-23
1660134594.82396,1453959.1751465,-34
1660134594.82396,1453959.1751547,-44
1660134594.82396,1453959.1751626,-46
1660134594.82396,1453959.1751736,-46
1660134594.82396,1453959.175183,-39
1660134594.82396,1453959.1751898,-39
1660134594.82396,1453959.1751988,-41
1660134594.82396,1453959.175205,-41
1660134594.82396,1453959.1752148,-46
1660134594.82396,1453959.1752208,-57
1660134594.82396,1453959.1752297,-55
1660134594.82396,1453959.1752358,-44
1660134594.82396,1453959.1752444,-41
1660134594.82396,1453959.1752507,-41
1660134594.82396,1453959.1752596,-32
1660134594.82396,1453959.1752699,-27
1660134594.82396,1453959.1752794,-23
1660134594.82396,1453959.1752924,-9
1660134594.82396,1453959.1753015,-2
1660134594.82396,1453959.1753079,-11
1660134594.82396,1453959.1753168,-11
1660134594.82396,1453959.1753228,2
1660134594.82396,1453959.1753318,11
1660134594.82396,1453959.1753378,18
1660134594.82396,1453959.1753464,25
1660134594.82396,1453959.1753528,20
1660134594.82396,1453959.1753618,11
1660134594.82396,1453959.1753677,20
1660134594.82396,1453959.1753766,34
1660134594.83892,1453959.1753829,39
1660134594.83892,1453959.1753929,46
1660134594.83892,1453959.1753988,48
1660134594.83892,1453959.175407,32
1660134594.83892,1453959.7597846,27
1660134594.83892,1453959.7598071,39
1660134594.83892,1453959.7598134,53
1660134594.83892,1453959.7598174,53
1660134594.83892,1453959.7598209,34
1660134594.83892,1453959.7598283,25
1660134594.83892,1453959.7598333,37
1660134594.83892,1453959.7598374,23
1660134594.83892,1453959.7598433,-13
1660134594.83892,1453959.7598472,-6
1660134594.83892,1453959.7598527,13
1660134594.83892,1453959.7598565,-9
1660134594.83892,1453959.7598604,-37
1660134594.83892,1453959.7598652,-23
1660134594.83892,1453959.7598685,-2
1660134594.83892,1453959.7598745,0
1660134594.83892,1453959.7598777,6
1660134594.83892,1453959.7598809,4
1660134594.83892,1453959.7598844,-18
1660134594.83892,1453959.7598879,-27
1660134595.36107,1453959.759892,166
1660134595.36107,1453959.7598954,909
1660134595.36107,1453959.759899,1600
1660134595.36107,1453959.7599036,670
1660134595.36107,1453959.7599081,-1050
1660134595.36107,1453959.7599115,-1141
1660134595.36107,1453959.7599147,-269
1660134595.36107,1453959.759918,-64
1660134595.36107,1453959.7599223,-71
1660134595.36107,1453959.7599272,115
1660134595.36107,1453959.7599314,148
1660134595.36107,1453959.7599348,81
1660134595.36107,1453959.7599382,127
1660134595.36107,1453959.7599424,166
1660134595.36107,1453959.7599475,143
1660134595.36107,1453959.7599514,155
1660134595.36107,1453959.759958,178
1660134595.36107,1453959.7599663,176
1660134595.36107,1453959.7599732,180
1660134595.36107,1453959.7599767,194
1660134595.36107,1453959.7599896,194
1660134595.36107,1453959.7599962,185
1660134595.36107,1453959.7600028,192
1660134595.36107,1453959.7600113,215
1660134595.36107,1453959.7600155,241
1660134595.36107,1453959.7600192,255
1660134595.36107,1453959.7600236,271
1660134595.36107,1453959.7600306,303
1660134595.36107,1453959.760034,340
1660134595.36107,1453959.7600396,361
1660134595.36107,1453959.7600497,389
1660134595.36107,1453959.7600542,436
1660134595.36107,1453959.7600583,470
1660134595.36107,1453959.7600603,487
1660134595.36107,1453959.7600633,500
1660134595.36107,1453959.7600696,491
1660134595.36107,1453959.760081,459
1660134595.36107,1453959.7600864,405
1660134595.36107,1453959.7600887,317
1660134595.36107,1453959.7600909,213
1660134595.36107,1453959.7600931,136
1660134595.36107,1453959.7601001,81
1660134595.36107,1453959.7601111,25
1660134595.36107,1453959.7601141,-13
1660134595.36107,1453959.7601164,-25
1660134595.36107,1453959.7601184,-30
1660134595.36107,1453959.7601204,-34
1660134595.36107,1453959.7601225,-37
1660134595.36107,1453959.7601258,-41
1660134595.36107,1453959.7601573,-48
1660134595.37503,1453959.7601689,-46
1660134595.37503,1453959.7601734,-44
1660134595.37503,1453959.7601755,-51
1660134595.37503,1453960.2961217,-51
1660134595.37503,1453960.2961379,-37
1660134595.37503,1453960.2961422,-27
1660134595.37503,1453960.2961477,-20
1660134595.37503,1453960.2961514,-20
1660134595.37503,1453960.296155,-9
1660134595.37503,1453960.2961602,13
1660134595.37503,1453960.296164,9
1660134595.37503,1453960.2961692,-23
1660134595.37503,1453960.2961729,-41
1660134595.37503,1453960.2961781,-25
1660134595.37503,1453960.2961816,-18
1660134595.37503,1453960.2961853,-34
1660134595.37503,1453960.2961908,-41
1660134595.37503,1453960.2961943,-60
1660134595.37503,1453960.296198,-92
1660134595.37503,1453960.2962031,-90
1660134595.37503,1453960.2962067,-69
1660134595.37503,1453960.2962104,-69
1660134595.37503,1453960.2962154,-67
1660134595.37503,1453960.2962206,-62
1660134595.94116,1453960.2962257,-62
1660134595.94116,1453960.2962302,-60
1660134595.94116,1453960.2962338,-53
1660134595.94116,1453960.2962373,-48
1660134595.94116,1453960.2962413,-37
1660134595.94116,1453960.2962448,-32
1660134595.94116,1453960.2962482,-39
1660134595.94116,1453960.2962517,-34
1660134595.94116,1453960.2962563,-16
1660134595.94116,1453960.29626,-11
1660134595.94116,1453960.2962638,-18
1660134595.94116,1453960.296269,-18
1660134595.94116,1453960.2962729,-13
1660134595.94116,1453960.2962766,-16
1660134595.94116,1453960.2962802,-11
1660134595.94116,1453960.2962838,2
1660134595.94116,1453960.2962893,13
1660134595.94116,1453960.2962928,18
1660134595.94116,1453960.2962976,18
1660134595.94116,1453960.2963026,18
1660134595.94116,1453960.2963061,23
1660134595.94116,1453960.2963111,30
1660134595.94116,1453960.2963146,34
1660134595.94116,1453960.2963182,39
1660134595.94116,1453960.2963218,37
1660134595.94116,1453960.2963265,30
1660134595.94116,1453960.2963301,32
1660134595.94116,1453960.2963351,48
1660134595.94116,1453960.2963387,53
1660134595.94116,1453960.2963423,57
1660134595.94116,1453960.2963472,85
1660134595.94116,1453960.2963518,99
1660134595.94116,1453960.2963555,83
1660134595.94116,1453960.296359,74
1660134595.94116,1453960.2963627,81
1660134595.94116,1453960.2963675,81
1660134595.94116,1453960.2963712,81
1660134595.94116,1453960.2963759,81
1660134595.94116,1453960.2963814,76
1660134595.94116,1453960.296385,78
1660134595.94116,1453960.2963886,90
1660134595.94116,1453960.2963922,97
1660134595.94116,1453960.2963971,85
1660134595.94116,1453960.2964015,60
1660134595.94116,1453960.2964065,125
1660134595.94116,1453960.2964118,626
1660134595.94116,1453960.2964153,1440
1660134595.94116,1453960.2964189,1036
1660134595.94116,1453960.2964239,-770
1660134595.94116,1453960.2964283,-1431
1660134595.95513,1453960.2964331,-558
1660134595.95513,1453960.2964375,-81
1660134595.95513,1453960.883579,-97
1660134595.95513,1453960.8835977,78
1660134595.95513,1453960.8836056,190
1660134595.95513,1453960.8836103,125
1660134595.95513,1453960.8836175,127
1660134595.95513,1453960.8836227,150
1660134595.95513,1453960.88363,120
1660134595.95513,1453960.8836351,127
1660134595.95513,1453960.8836414,155
1660134595.95513,1453960.8836465,153
1660134595.95513,1453960.8836527,146
1660134595.95513,1453960.883657,139
1660134595.95513,1453960.8836627,127
1660134595.95513,1453960.8836672,136
1660134595.95513,1453960.8836729,153
1660134595.95513,1453960.8836771,157
1660134595.95513,1453960.8836828,166
1660134595.95513,1453960.8836871,185
1660134595.95513,1453960.8836931,199
1660134595.95513,1453960.8836974,222
1660134595.95513,1453960.8837032,252
1660134595.95513,1453960.8837075,276
1660134596.5264,1453960.883713,301
1660134596.5264,1453960.8837171,331
1660134596.5264,1453960.8837213,357
1660134596.5264,1453960.8837255,382
1660134596.5264,1453960.8837294,394
1660134596.5264,1453960.8837333,385
1660134596.5264,1453960.8837378,368
1660134596.5264,1453960.8837418,338
1660134596.5264,1453960.8837461,264
1660134596.5264,1453960.8837503,164
1660134596.5264,1453960.8837544,83
1660134596.5264,1453960.8837587,20
1660134596.5264,1453960.883763,-37
1660134596.5264,1453960.8837672,-76
1660134596.5264,1453960.8837714,-90
1660134596.5264,1453960.8837757,-104
1660134596.5264,1453960.8837801,-113
1660134596.5264,1453960.8837857,-113
1660134596.5264,1453960.8837924,-104
1660134596.5264,1453960.8837991,-95
1660134596.5264,1453960.8838052,-92
1660134596.5264,1453960.8838099,-90
1660134596.5264,1453960.8838163,-81
1660134596.5264,1453960.883821,-71
1660134596.5264,1453960.8838274,-62
1660134596.5264,1453960.8838338,-51
1660134596.5264,1453960.8838384,-39
1660134596.5264,1453960.8838444,-34
1660134596.5264,1453960.8838488,-34
1660134596.5264,1453960.8838547,-39
1660134596.5264,1453960.8838593,-39
1660134596.5264,1453960.8838652,-39
1660134596.5264,1453960.8838702,-55
1660134596.5264,1453960.8838765,-69
1660134596.5264,1453960.8838809,-71
1660134596.5264,1453960.8838869,-74
1660134596.5264,1453960.8838916,-90
1660134596.5264,1453960.8838976,-99
1660134596.5264,1453960.8839024,-90
1660134596.5264,1453960.8839084,-83
1660134596.5264,1453960.883913,-95
1660134596.5264,1453960.8839191,-99
1660134596.5264,1453960.8839239,-83
1660134596.5264,1453960.88393,-74
1660134596.5264,1453960.8839345,-76
1660134596.5264,1453960.883941,-71
1660134596.5264,1453960.883947,-62
1660134596.5264,1453960.8839517,-62
1660134596.5264,1453960.8839579,-60
1660134596.5264,1453960.8839626,-51
1660134596.53937,1453960.8839688,-41
1660134596.53937,1453961.4674258,-37
1660134596.53937,1453961.4675487,-34
1660134596.53937,1453961.4675626,-34
1660134596.53937,1453961.4675842,-30
1660134596.53937,1453961.4675912,-25
1660134596.53937,1453961.4675959,-18
1660134596.53937,1453961.4676004,-6
1660134596.53937,1453961.4676044,-9
1660134596.53937,1453961.467609,-27
1660134596.53937,1453961.4676132,-27
1660134596.53937,1453961.4676173,-9
1660134596.53937,1453961.4676215,-2
1660134596.53937,1453961.4676256,-6
1660134596.53937,1453961.4676293,-13
1660134596.53937,1453961.4676338,-37
1660134596.53937,1453961.4676382,-57
1660134596.53937,1453961.4676424,-53
1660134596.53937,1453961.4676464,-51
1660134596.53937,1453961.4676504,-53
1660134596.53937,1453961.4676545,-46
1660134596.53937,1453961.4676587,-48
1660134596.53937,1453961.4676657,-60
1660134596.53937,1453961.4676698,-46
1660134597.05801,1453961.4676741,-2
1660134597.05801,1453961.4676784,11
1660134597.05801,1453961.4676827,-6
1660134597.05801,1453961.467687,-20
1660134597.05801,1453961.4676914,-16
1660134597.05801,1453961.4676952,-13
1660134597.05801,1453961.4676993,-9
1660134597.05801,1453961.4677035,4
1660134597.05801,1453961.4677077,11
1660134597.05801,1453961.4677117,13
1660134597.05801,1453961.4677157,16
1660134597.05801,1453961.4677203,20
1660134597.05801,1453961.4677243,13
1660134597.05801,1453961.4677284,-18
1660134597.05801,1453961.4677325,81
1660134597.05801,1453961.4677367,716
1660134597.05801,1453961.4677408,1567
1660134597.05801,1453961.467745,1039
1660134597.05801,1453961.4677492,-674
1660134597.05801,1453961.4677534,-1150
1660134597.05801,1453961.4677576,-380
1660134597.05801,1453961.4677616,-55
1660134597.05801,1453961.4677656,-88
1660134597.05801,1453961.4677696,48
1660134597.05801,1453961.4677744,109
1660134597.05801,1453961.4677784,57
1660134597.05801,1453961.4677825,85
1660134597.05801,1453961.4677866,109
1660134597.05801,1453961.4677907,78
1660134597.05801,1453961.467795,78
1660134597.05801,1453961.4678003,102
1660134597.05801,1453961.4678043,109
1660134597.05801,1453961.4678084,111
1660134597.05801,1453961.4678125,120
1660134597.05801,1453961.4678186,129
1660134597.05801,1453961.4678226,141
1660134597.05801,1453961.4678287,148
1660134597.05801,1453961.467833,160
1660134597.05801,1453961.4678371,178
1660134597.05801,1453961.4678413,194
1660134597.05801,1453961.4678453,211
1660134597.05801,1453961.4678493,238
1660134597.05801,1453961.4678559,264
1660134597.05801,1453961.4678621,292
1660134597.05801,1453961.4678679,327
1660134597.05801,1453961.4678735,366
1660134597.05801,1453961.4678775,398
1660134597.05801,1453961.4678839,422
1660134597.05801,1453961.4678883,422
1660134597.05801,1453961.4678942,412
1660134597.07097,1453962.0033169,394
1660134597.07097,1453962.0033407,347
1660134597.07097,1453962.0033491,269
1660134597.07097,1453962.0033575,178
1660134597.07097,1453962.0033642,90
1660134597.07097,1453962.0033727,16
1660134597.07097,1453962.0033815,-30
1660134597.07097,1453962.0033881,-57
1660134597.07097,1453962.0033945,-71
1660134597.07097,1453962.0033988,-78
1660134597.07097,1453962.0034046,-92
1660134597.07097,1453962.0034087,-120
1660134597.07097,1453962.0034143,-139
1660134597.07097,1453962.0034182,-127
1660134597.07097,1453962.0034241,-115
1660134597.07097,1453962.0034291,-118
1660134597.07097,1453962.0034347,-111
1660134597.07097,1453962.003439,-118
1660134597.07097,1453962.0034451,-143
1660134597.07097,1453962.0034507,-141
1660134597.07097,1453962.0034567,-118
1660134597.07097,1453962.0034612,-109
1660134597.07097,1453962.0034671,-104
1660134597.07097,1453962.0034724,-99
1660134597.6509,1453962.0034788,-104
1660134597.6509,1453962.0034847,-109
1660134597.6509,1453962.0034911,-95
1660134597.6509,1453962.0034961,-81
1660134597.6509,1453962.0035029,-83
1660134597.6509,1453962.0035088,-78
1660134597.6509,1453962.0035135,-74
1660134597.6509,1453962.0035199,-76
1660134597.6509,1453962.0035263,-71
1660134597.6509,1453962.0035325,-57
1660134597.6509,1453962.0035389,-53
1660134597.6509,1453962.0035473,-53
1660134597.6509,1453962.0035539,-55
1660134597.6509,1453962.0035627,-57
1660134597.6509,1453962.0035699,-53
1660134597.6509,1453962.0035746,-41
1660134597.6509,1453962.0035836,-32
1660134597.6509,1453962.0035896,-20
1660134597.6509,1453962.0035963,-13
1660134597.6509,1453962.0036042,-18
1660134597.6509,1453962.003611,-34
1660134597.6509,1453962.0036166,-34
1660134597.6509,1453962.0036228,-18
1660134597.6509,1453962.0036307,-9
1660134597.6509,1453962.0036383,-9
1660134597.6509,1453962.0036436,-11
1660134597.6509,1453962.0036519,-6
1660134597.6509,1453962.003658,0
1660134597.6509,1453962.003667,9
1660134597.6509,1453962.0036729,13
1660134597.6509,1453962.0036864,20
1660134597.6509,1453962.0036958,25
1660134597.6509,1453962.003699,23
1660134597.6509,1453962.003702,25
1660134597.6509,1453962.0037049,37
1660134597.6509,1453962.0037077,44
1660134597.6509,1453962.0037106,44
1660134597.6509,1453962.0037136,37
1660134597.6509,1453962.0037165,25
1660134597.6509,1453962.0037194,30
1660134597.6509,1453962.0037223,46
1660134597.6509,1453962.0037259,55
1660134597.6509,1453962.0037329,64
1660134597.6509,1453962.0037391,81
1660134597.6509,1453962.003745,97
1660134597.6509,1453962.0037492,111
1660134597.6509,1453962.0037533,99
1660134597.6509,1453962.003757,74
1660134597.6509,1453962.0037591,74
1660134597.6509,1453962.5880356,78
1660134597.66386,1453962.5880522,71
1660134597.66386,1453962.5880598,71
1660134597.66386,1453962.5880658,78
1660134597.66386,1453962.5880717,83
1660134597.66386,1453962.5880764,81
1660134597.66386,1453962.588082,83
1660134597.66386,1453962.5880859,76
1660134597.66386,1453962.5880897,32
1660134597.66386,1453962.588095,4
1660134597.66386,1453962.588099,301
1660134597.66386,1453962.5881028,1168
1660134597.66386,1453962.5881067,1593
1660134597.66386,1453962.5881122,340
1660134597.66386,1453962.588117,-1104
1660134597.66386,1453962.5881227,-892
1660134597.66386,1453962.5881265,-169
1660134597.66386,1453962.5881318,-78
1660134597.66386,1453962.5881357,-46
1660134597.66386,1453962.5881411,113
1660134597.66386,1453962.5881449,95
1660134597.66386,1453962.5881501,57
1660134597.66386,1453962.5881541,118
1660134597.66386,1453962.5881594,134
1660134597.66386,1453962.5881632,111
1660134598.17914,1453962.5881686,129
1660134598.17914,1453962.5881723,155
1660134598.17914,1453962.588176,148
1660134598.17914,1453962.5881797,139
1660134598.17914,1453962.5881832,150
1660134598.17914,1453962.5881868,171
1660134598.17914,1453962.5881905,183
1660134598.17914,1453962.5881945,190
1660134598.17914,1453962.5882,201
1660134598.17914,1453962.5882039,220
1660134598.17914,1453962.5882091,236
1660134598.17914,1453962.588213,241
1660134598.17914,1453962.5882182,241
1660134598.17914,1453962.5882222,259
1660134598.17914,1453962.5882274,299
1660134598.17914,1453962.5882312,331
1660134598.17914,1453962.5882351,361
1660134598.17914,1453962.588239,389
1660134598.17914,1453962.5882443,410
1660134598.17914,1453962.5882488,422
1660134598.17914,1453962.5882542,412
1660134598.17914,1453962.5882581,378
1660134598.17914,1453962.5882633,322
1660134598.17914,1453962.5882672,236
1660134598.17914,1453962.5882725,136
1660134598.17914,1453962.5882762,57
1660134598.17914,1453962.5882815,9
1660134598.17914,1453962.5882855,-30
1660134598.17914,1453962.5882908,-71
1660134598.17914,1453962.5882947,-97
1660134598.17914,1453962.5882999,-104
1660134598.17914,1453962.5883038,-109
1660134598.17914,1453962.5883089,-115
1660134598.17914,1453962.5883127,-109
1660134598.17914,1453962.5883179,-106
1660134598.17914,1453962.5883219,-115
1660134598.17914,1453962.588327,-102
1660134598.17914,1453962.588331,-76
1660134598.17914,1453962.5883364,-67
1660134598.17914,1453962.5883403,-64
1660134598.17914,1453962.5883455,-62
1660134598.17914,1453962.5883493,-60
1660134598.17914,1453962.5883545,-44
1660134598.17914,1453962.5883584,-25
1660134598.17914,1453962.5883637,-23
1660134598.17914,1453962.5883675,-20
1660134598.17914,1453962.5883729,-13
1660134598.17914,1453962.5883769,-11
1660134598.17914,1453963.1238669,-11
1660134598.17914,1453963.1238798,-11
1660134598.19111,1453963.1238834,4
1660134598.19111,1453963.123887,16
1660134598.19111,1453963.1238953,-2
1660134598.19111,1453963.1239046,-20
1660134598.19111,1453963.1239093,0
1660134598.19111,1453963.1239155,16
1660134598.19111,1453963.12392,9
1660134598.19111,1453963.1239261,18
1660134598.19111,1453963.1239304,27
1660134598.19111,1453963.123936,-4
1660134598.19111,1453963.1239404,-32
1660134598.19111,1453963.1239456,-13
1660134598.19111,1453963.1239503,16
1660134598.19111,1453963.1239561,13
1660134598.19111,1453963.1239607,-2
1660134598.19111,1453963.1239665,-20
1660134598.19111,1453963.1239721,-37
1660134598.19111,1453963.1239802,-34
1660134598.19111,1453963.1239889,-20
1660134598.19111,1453963.123995,-20
1660134598.19111,1453963.1239979,-20
1660134598.19111,1453963.1240049,-11
1660134598.19111,1453963.1240145,-9
1660134598.19111,1453963.1240205,-11
1660134598.72214,1453963.124025,4
1660134598.72214,1453963.1240293,20
1660134598.72214,1453963.1240334,11
1660134598.72214,1453963.1240374,-4
1660134598.72214,1453963.1240449,-11
1660134598.72214,1453963.1240555,-11
1660134598.72214,1453963.1240634,-13
1660134598.72214,1453963.1240916,-6
1660134598.72214,1453963.1241107,6
1660134598.72214,1453963.1241544,13
1660134598.72214,1453963.1241696,25
1660134598.72214,1453963.1241769,46
1660134598.72214,1453963.1241809,64
1660134598.72214,1453963.1241842,95
1660134598.72214,1453963.1241874,102
1660134598.72214,1453963.1241909,69
1660134598.72214,1453963.1241943,57
1660134598.72214,1453963.1241994,62
1660134598.72214,1453963.1242027,57
1660134598.72214,1453963.124206,62
1660134598.72214,1453963.1242095,76
1660134598.72214,1453963.1242129,76
1660134598.72214,1453963.1242164,71
1660134598.72214,1453963.1242198,74
1660134598.72214,1453963.1242234,78
1660134598.72214,1453963.1242268,71
1660134598.72214,1453963.1242304,69
1660134598.72214,1453963.1242339,208
1660134598.72214,1453963.1242374,830
1660134598.72214,1453963.1242409,1553
1660134598.72214,1453963.1242444,767
1660134598.72214,1453963.1242479,-1069
1660134598.72214,1453963.1242517,-1345
1660134598.72214,1453963.1242551,-387
1660134598.72214,1453963.1242588,-53
1660134598.72214,1453963.1242622,-55
1660134598.72214,1453963.1242658,143
1660134598.72214,1453963.1242694,211
1660134598.72214,1453963.124273,146
1660134598.72214,1453963.1242766,173
1660134598.72214,1453963.1242801,218
1660134598.72214,1453963.1242837,211
1660134598.72214,1453963.1242873,211
1660134598.72214,1453963.124291,224
1660134598.72214,1453963.1242946,227
1660134598.72214,1453963.1242981,222
1660134598.72214,1453963.1243017,224
1660134598.72214,1453963.6607215,229
1660134598.72214,1453963.6607398,231
1660134598.72214,1453963.6607487,238
1660134598.73411,1453963.6607528,255
1660134598.73411,1453963.6607577,264
1660134598.73411,1453963.6607617,271
1660134598.73411,1453963.6607652,289
1660134598.73411,1453963.6607686,313
1660134598.73411,1453963.6607733,317
1660134598.73411,1453963.6607825,322
1660134598.73411,1453963.6607881,345
1660134598.73411,1453963.6607922,375
1660134598.73411,1453963.6607948,408
1660134598.73411,1453963.6608033,426
1660134598.73411,1453963.6608117,412
1660134598.73411,1453963.6608161,378
1660134598.73411,1453963.6608216,338
1660134598.73411,1453963.6608257,285
1660134598.73411,1453963.6608309,199
1660134598.73411,1453963.6608343,92
1660134598.73411,1453963.6608376,0
1660134598.73411,1453963.660841,-71
1660134598.73411,1453963.6608444,-132
1660134598.73411,1453963.6608517,-169
1660134598.73411,1453963.6608585,-178
1660134598.73411,1453963.6608696,-185
1660134598.73411,1453963.660878,-197
1660134599.34719,1453963.6608814,-199
1660134599.34719,1453963.6608836,-187

1660134599.34719,1453963.6608856,-173
1660134599.34719,1453963.6608878,-160
1660134599.34719,1453963.6608975,-143
1660134599.34719,1453963.6609048,-132
1660134599.34719,1453963.6609153,-125
1660134599.34719,1453963.6609273,-113
1660134599.34719,1453963.6609348,-97
1660134599.34719,1453963.6609373,-88
1660134599.34719,1453963.6609394,-74
1660134599.34719,1453963.6609415,-57
1660134599.34719,1453963.6609435,-57
1660134599.34719,1453963.6609513,-60
1660134599.34719,1453963.6609619,-55
1660134599.34719,1453963.6609654,-57
1660134599.34719,1453963.6609691,-57
1660134599.34719,1453963.660974,-46
1660134599.34719,1453963.6609861,-41
1660134599.34719,1453963.6609916,-44
1660134599.34719,1453963.6609937,-44
1660134599.34719,1453963.660997,-37
1660134599.34719,1453963.6610069,-32
1660134599.34719,1453963.6610171,-27
1660134599.34719,1453963.6610212,-23
1660134599.34719,1453963.661031,-25
1660134599.34719,1453963.6610413,-25
1660134599.34719,1453963.6610438,-13
1660134599.34719,1453963.6610459,-4
1660134599.34719,1453963.6610481,-2
1660134599.34719,1453963.6610566,2
1660134599.34719,1453963.6610672,4
1660134599.34719,1453963.6610801,4
1660134599.34719,1453963.6610904,9
1660134599.34719,1453963.6610959,18
1660134599.34719,1453963.6610997,23
1660134599.34719,1453963.6611034,32
1660134599.34719,1453963.6611077,34
1660134599.34719,1453963.6611121,25
1660134599.34719,1453963.6611167,25
1660134599.34719,1453963.6611208,37
1660134599.34719,1453963.6611248,41
1660134599.34719,1453963.6611283,44
1660134599.34719,1453963.6611317,46
1660134599.34719,1453963.6611352,44
1660134599.34719,1453963.661139,44
1660134599.34719,1453964.2938458,48
1660134599.34719,1453964.2938813,34
1660134599.34719,1453964.2938912,20
1660134599.34719,1453964.2938983,20
1660134599.35916,1453964.2939068,9
1660134599.35916,1453964.2939138,-9
1660134599.35916,1453964.2939162,9
1660134599.35916,1453964.2939183,39
1660134599.35916,1453964.2939203,46
1660134599.35916,1453964.2939224,64
1660134599.35916,1453964.2939244,53
1660134599.35916,1453964.2939264,-9
1660134599.35916,1453964.2939284,-30
1660134599.35916,1453964.2939306,0
1660134599.35916,1453964.2939326,-6
1660134599.35916,1453964.2939347,-34
1660134599.35916,1453964.2939367,-30
1660134599.35916,1453964.2939387,-18
1660134599.35916,1453964.2939409,-18
1660134599.35916,1453964.2939429,-11
1660134599.35916,1453964.2939449,-2
1660134599.35916,1453964.293947,-16
1660134599.35916,1453964.293949,-46
1660134599.35916,1453964.293951,88
1660134599.35916,1453964.293953,774
1660134599.35916,1453964.293955,1563
1660134599.35916,1453964.293957,825
1660134599.35916,1453964.293959,-904
1660134599.8838,1453964.293961,-1166
1660134599.8838,1453964.2939629,-336
1660134599.8838,1453964.2939648,-85
1660134599.8838,1453964.2939667,-97
1660134599.8838,1453964.2939686,76
1660134599.8838,1453964.2939704,106
1660134599.8838,1453964.2939724,39
1660134599.8838,1453964.2939742,83
1660134599.8838,1453964.2939761,115
1660134599.8838,1453964.293978,92
1660134599.8838,1453964.29398,109
1660134599.8838,1453964.2939818,125
1660134599.8838,1453964.2939837,109
1660134599.8838,1453964.2939856,115
1660134599.8838,1453964.2939875,132
1660134599.8838,1453964.2939901,129
1660134599.8838,1453964.2939985,132
1660134599.8838,1453964.2940067,148
1660134599.8838,1453964.2940119,160
1660134599.8838,1453964.2940202,169
1660134599.8838,1453964.2940265,190
1660134599.8838,1453964.2940344,208
1660134599.8838,1453964.294042,224
1660134599.8838,1453964.2940459,248
1660134599.8838,1453964.2940483,282
1660134599.8838,1453964.2940504,324
1660134599.8838,1453964.2940525,361
1660134599.8838,1453964.2940546,387
1660134599.8838,1453964.2940568,396
1660134599.8838,1453964.2940589,396
1660134599.8838,1453964.2940609,385
1660134599.8838,1453964.294063,354
1660134599.8838,1453964.2940651,301
1660134599.8838,1453964.2940677,222
1660134599.8838,1453964.2940699,125
1660134599.8838,1453964.2940722,34
1660134599.8838,1453964.2940743,-34
1660134599.8838,1453964.2940764,-83
1660134599.8838,1453964.2940784,-113
1660134599.8838,1453964.2940805,-127
1660134599.8838,1453964.2940826,-141
1660134599.8838,1453964.2940846,-153
1660134599.8838,1453964.2940867,-146
1660134599.8838,1453964.2940887,-134
1660134599.8838,1453964.2940908,-132
1660134599.8838,1453964.830258,-127
1660134599.8838,1453964.8302778,-122
1660134599.8838,1453964.8302867,-113
1660134599.8838,1453964.8302934,-95
1660134599.8838,1453964.8302993,-74
1660134599.89576,1453964.8303043,-62
1660134599.89576,1453964.8303105,-53
1660134599.89576,1453964.8303149,-53
1660134599.89576,1453964.8303206,-62
1660134599.89576,1453964.8303271,-60
1660134599.89576,1453964.830334,-41
1660134599.89576,1453964.8303381,-37
1660134599.89576,1453964.8303424,-32
1660134599.89576,1453964.8303484,-32
1660134599.89576,1453964.8303528,-51
1660134599.89576,1453964.8303584,-67
1660134599.89576,1453964.8303632,-57
1660134599.89576,1453964.8303691,-46
1660134599.89576,1453964.8303736,-46
1660134599.89576,1453964.8303793,-44
1660134599.89576,1453964.8303844,-60
1660134599.89576,1453964.8303897,-83
1660134599.89576,1453964.8303959,-74
1660134599.89576,1453964.8304013,-55
1660134599.89576,1453964.8304052,-67
1660134599.89576,1453964.8304091,-69
1660134599.89576,1453964.8304152,-53
1660134599.89576,1453964.8304207,-48
1660134599.89576,1453964.8304259,-55
1660134600.42296,1453964.8304293,-46
1660134600.42296,1453964.830433,-32
1660134600.42296,1453964.8304371,-27
1660134600.42296,1453964.8304404,-23
1660134600.42296,1453964.8304439,-13
1660134600.42296,1453964.8304475,-6
1660134600.42296,1453964.8304512,2
1660134600.42296,1453964.8304549,11
1660134600.42296,1453964.8304587,11
1660134600.42296,1453964.8304628,11
1660134600.42296,1453964.8304669,16
1660134600.42296,1453964.8304715,27
1660134600.42296,1453964.8304762,37
1660134600.42296,1453964.8304813,44
1660134600.42296,1453964.8304872,41
1660134600.42296,1453964.8305008,34
1660134600.42296,1453964.8305115,32
1660134600.42296,1453964.8305215,34
1660134600.42296,1453964.8305318,37
1660134600.42296,1453964.8305425,41
1660134600.42296,1453964.8305507,64
1660134600.42296,1453964.8305601,95
1660134600.42296,1453964.8305708,109
1660134600.42296,1453964.8305784,113
1660134600.42296,1453964.8305896,127
1660134600.42296,1453964.8305998,113
1660134600.42296,1453964.8306098,83
1660134600.42296,1453964.8306207,69
1660134600.42296,1453964.8306288,67
1660134600.42296,1453964.8306414,71
1660134600.42296,1453964.8306515,76
1660134600.42296,1453964.8306618,76
1660134600.42296,1453964.8306725,74
1660134600.42296,1453964.8306807,71
1660134600.42296,1453964.8306932,81
1660134600.42296,1453964.830703,92
1660134600.42296,1453964.8307157,74
1660134600.42296,1453964.8307246,71
1660134600.42296,1453964.8307339,361
1660134600.42296,1453964.8307381,1196
1660134600.42296,1453964.8307451,1600
1660134600.42296,1453964.8307489,285
1660134600.42296,1453964.8307555,-1222
1660134600.42296,1453964.8307609,-976
1660134600.42296,1453965.3681876,-197
1660134600.42296,1453965.3682029,-88
1660134600.42296,1453965.3682074,-23
1660134600.42296,1453965.3682115,164
1660134600.42296,1453965.3682166,153
1660134600.42296,1453965.3682212,102
1660134600.43394,1453965.3682253,153
1660134600.43394,1453965.3682316,171
1660134600.43394,1453965.3682357,155
1660134600.43394,1453965.3682397,171
1660134600.43394,1453965.3682444,166
1660134600.43394,1453965.3682485,134
1660134600.43394,1453965.3682544,127
1660134600.43394,1453965.3682601,139
1660134600.43394,1453965.3682659,146
1660134600.43394,1453965.3682709,155
1660134600.43394,1453965.3682773,155
1660134600.43394,1453965.3682837,148
1660134600.43394,1453965.3682884,153
1660134600.43394,1453965.3682943,178
1660134600.43394,1453965.3682986,204
1660134600.43394,1453965.368304,229
1660134600.43394,1453965.3683076,269
1660134600.43394,1453965.3683126,308
1660134600.43394,1453965.3683161,340
1660134600.43394,1453965.3683196,378
1660134600.43394,1453965.3683232,398
1660134600.43394,1453965.3683295,408
1660134600.43394,1453965.368335,415
1660134600.43394,1453965.3683401,403
1660134601.11307,1453965.3683439,347
1660134601.11307,1453965.3683472,262
1660134601.11307,1453965.368351,164
1660134601.11307,1453965.3683547,81
1660134601.11307,1453965.3683585,9
1660134601.11307,1453965.3683623,-55
1660134601.11307,1453965.3683658,-106
1660134601.11307,1453965.3683698,-136
1660134601.11307,1453965.3683737,-136
1660134601.11307,1453965.3683777,-134
1660134601.11307,1453965.3683815,-146
1660134601.11307,1453965.3683853,-148
1660134601.11307,1453965.368389,-148
1660134601.11307,1453965.3683927,-139
1660134601.11307,1453965.3683968,-104
1660134601.11307,1453965.3684013,-83
1660134601.11307,1453965.368405,-97
1660134601.11307,1453965.3684097,-95
1660134601.11307,1453965.3684155,-78
1660134601.11307,1453965.3684197,-74
1660134601.11307,1453965.3684258,-64
1660134601.11307,1453965.3684329,-51
1660134601.11307,1453965.3684367,-39
1660134601.11307,1453965.368442,-23
1660134601.11307,1453965.3684468,-16
1660134601.11307,1453965.3684524,-16
1660134601.11307,1453965.3684567,-11
1660134601.11307,1453965.3684606,-18
1660134601.11307,1453965.3684669,-13
1660134601.11307,1453965.3684731,9
1660134601.11307,1453965.3684814,6
1660134601.11307,1453965.3684888,-6
1660134601.11307,1453965.3684932,-13
1660134601.11307,1453965.3684991,-18
1660134601.11307,1453965.3685025,-4
1660134601.11307,1453965.3685065,20
1660134601.11307,1453965.3685112,23
1660134601.11307,1453965.3685143,2
1660134601.11307,1453965.3685179,-4
1660134601.11307,1453965.368523,-2
1660134601.11307,1453965.3685264,-2
1660134601.11307,1453965.3685311,18
1660134601.11307,1453965.3685344,34
1660134601.11307,1453966.0489839,23
1660134601.11307,1453966.0490068,9
1660134601.11307,1453966.0490234,16
1660134601.11307,1453966.0490329,32
1660134601.11307,1453966.0490375,44
1660134601.11307,1453966.0490439,41
1660134601.11307,1453966.0490478,25
1660134601.12504,1453966.0490519,9
1660134601.12504,1453966.0490572,18
1660134601.12504,1453966.0490612,34
1660134601.12504,1453966.0490648,37
1660134601.12504,1453966.0490687,30
1660134601.12504,1453966.0490724,27
1660134601.12504,1453966.049076,18
1660134601.12504,1453966.0490798,-4
1660134601.12504,1453966.0490839,-13
1660134601.12504,1453966.0490893,0
1660134601.12504,1453966.0490972,-2
1660134601.12504,1453966.0491025,6
1660134601.12504,1453966.0491067,46
1660134601.12504,1453966.0491111,39
1660134601.12504,1453966.0491153,16
1660134601.12504,1453966.0491204,37
1660134601.12504,1453966.0491244,34
1660134601.12504,1453966.0491283,6
1660134601.12504,1453966.0491347,18
1660134601.12504,1453966.0491391,23
1660134601.12504,1453966.0491433,4
1660134601.12504,1453966.0491474,16
1660134601.12504,1453966.0491518,34
1660134601.12504,1453966.0491572,32
1660134601.59389,1453966.0491614,30
1660134601.59389,1453966.0491654,44
1660134601.59389,1453966.0491723,48
1660134601.59389,1453966.0491805,34
1660134601.59389,1453966.0491872,74
1660134601.59389,1453966.049194,456
1660134601.59389,1453966.0492009,1301
1660134601.59389,1453966.0492063,1273
1660134601.59389,1453966.0492114,-419
1660134601.59389,1453966.0492179,-1495
1660134601.59389,1453966.0492244,-783
1660134601.59389,1453966.0492314,-122
1660134601.59389,1453966.0492378,-120
1660134601.59389,1453966.0492443,16
1660134601.59389,1453966.0492503,183
1660134601.59389,1453966.0492547,136
1660134601.59389,1453966.0492585,120
1660134601.59389,1453966.0492624,171
1660134601.59389,1453966.0492663,162
1660134601.59389,1453966.0492706,153
1660134601.59389,1453966.0492759,178
1660134601.59389,1453966.0492792,180
1660134601.59389,1453966.0492824,176
1660134601.59389,1453966.0492858,183
1660134601.59389,1453966.0492892,185
1660134601.59389,1453966.0492932,187
1660134601.59389,1453966.0492966,183
1660134601.59389,1453966.0492999,166
1660134601.59389,1453966.049303,173
1660134601.59389,1453966.0493066,194
1660134601.59389,1453966.0493108,204
1660134601.59389,1453966.0493153,218
1660134601.59389,1453966.0493444,252
1660134601.59389,1453966.0493538,296
1660134601.59389,1453966.0493587,324
1660134601.59389,1453966.0493638,340
1660134601.59389,1453966.0493682,371
1660134601.59389,1453966.0493726,408
1660134601.59389,1453966.0493771,419
1660134601.59389,1453966.0493834,408
1660134601.59389,1453966.0493879,368
1660134601.59389,1453966.0493957,308
1660134601.59389,1453966.5376856,227
1660134601.59389,1453966.5376982,122
1660134601.59389,1453966.5377025,30
1660134601.59389,1453966.5377049,-34
1660134601.59389,1453966.5377071,-92
1660134601.59389,1453966.5377092,-136
1660134601.59389,1453966.5377113,-148
1660134601.59389,1453966.5377134,-150
1660134601.60785,1453966.5377154,-157
1660134601.60785,1453966.5377174,-162
1660134601.60785,1453966.5377194,-164
1660134601.60785,1453966.5377214,-164
1660134601.60785,1453966.5377234,-143
1660134601.60785,1453966.5377254,-127
1660134601.60785,1453966.5377274,-122
1660134601.60785,1453966.5377294,-113
1660134601.60785,1453966.5377315,-104
1660134601.60785,1453966.5377335,-118
1660134601.60785,1453966.5377355,-132
1660134601.60785,1453966.5377375,-115
1660134601.60785,1453966.5377395,-88
1660134601.60785,1453966.5377415,-83
1660134601.60785,1453966.5377436,-88
1660134601.60785,1453966.5377455,-97
1660134601.60785,1453966.5377475,-115
1660134601.60785,1453966.5377495,-113
1660134601.60785,1453966.5377515,-97
1660134601.60785,1453966.5377535,-97
1660134601.60785,1453966.5377555,-95
1660134601.60785,1453966.5377575,-102
1660134601.60785,1453966.5377595,-120
1660134601.60785,1453966.5377616,-109
1660134602.23643,1453966.5377636,-92
1660134602.23643,1453966.5377656,-90
1660134602.23643,1453966.5377675,-90
1660134602.23643,1453966.5377694,-92
1660134602.23643,1453966.5377713,-88
1660134602.23643,1453966.5377732,-81
1660134602.23643,1453966.5377751,-76
1660134602.23643,1453966.537777,-64
1660134602.23643,1453966.5377789,-55
1660134602.23643,1453966.537782,-57
1660134602.23643,1453966.5377851,-57
1660134602.23643,1453966.5377882,-51
1660134602.23643,1453966.537792,-41
1660134602.23643,1453966.537798,-27
1660134602.23643,1453966.537804,-23
1660134602.23643,1453966.537811,-23
1660134602.23643,1453966.5378174,-23
1660134602.23643,1453966.5378478,-23
1660134602.23643,1453966.5378618,-30
1660134602.23643,1453966.5378659,-32
1660134602.23643,1453966.5378692,-25
1660134602.23643,1453966.5378724,-25
1660134602.23643,1453966.5378758,-25
1660134602.23643,1453966.5379003,-25
1660134602.23643,1453966.5379088,-20
1660134602.23643,1453966.5379139,-6
1660134602.23643,1453966.5379217,6
1660134602.23643,1453966.5379313,9
1660134602.23643,1453966.537942,32
1660134602.23643,1453966.5379513,51
1660134602.23643,1453966.5379607,60
1660134602.23643,1453966.5379667,60
1660134602.23643,1453966.5379777,32
1660134602.23643,1453966.5379904,11
1660134602.23643,1453966.538026,27
1660134602.23643,1453966.5380399,30
1660134602.23643,1453966.5380532,25
1660134602.23643,1453966.5380667,34
1660134602.23643,1453966.5380805,44
1660134602.23643,1453966.5380935,44
1660134602.23643,1453966.5381057,46
1660134602.23643,1453967.1719276,55
1660134602.23643,1453967.1719464,44
1660134602.23643,1453967.1719554,11
1660134602.23643,1453967.1719605,139
1660134602.23643,1453967.1719671,797
1660134602.23643,1453967.1719738,1565
1660134602.23643,1453967.1719799,932
1660134602.23643,1453967.1719869,-753
1660134602.23643,1453967.1720005,-1161
1660134602.25039,1453967.1720102,-408
1660134602.25039,1453967.1720192,-92
1660134602.25039,1453967.1720301,-83
1660134602.25039,1453967.1720346,76
1660134602.25039,1453967.1720441,127
1660134602.25039,1453967.1720542,51
1660134602.25039,1453967.1720654,62
1660134602.25039,1453967.1720743,102
1660134602.25039,1453967.1720798,95
1660134602.25039,1453967.1720844,104
1660134602.25039,1453967.1720884,129
1660134602.25039,1453967.172095,125
1660134602.25039,1453967.1720994,111
1660134602.25039,1453967.1721027,122
1660134602.25039,1453967.1721084,143
1660134602.25039,1453967.1721117,160
1660134602.25039,1453967.1721171,166
1660134602.25039,1453967.1721226,164
1660134602.25039,1453967.1721256,162
1660134602.25039,1453967.1721285,169
1660134602.25039,1453967.1721316,194
1660134602.25039,1453967.1721347,231
1660134602.25039,1453967.1721401,271
1660134602.25039,1453967.1721432,303
1660134602.81442,1453967.1721468,324
1660134602.81442,1453967.1721535,352
1660134602.81442,1453967.1721603,394
1660134602.81442,1453967.1721663,429
1660134602.81442,1453967.1721707,442
1660134602.81442,1453967.1721751,438
1660134602.81442,1453967.172178,403
1660134602.81442,1453967.1721811,338
1660134602.81442,1453967.172184,255
1660134602.81442,1453967.1721868,139
1660134602.81442,1453967.1721897,11
1660134602.81442,1453967.1721926,-57
1660134602.81442,1453967.1721957,-95
1660134602.81442,1453967.1721987,-139
1660134602.81442,1453967.1722015,-160
1660134602.81442,1453967.1722044,-153
1660134602.81442,1453967.1722073,-153
1660134602.81442,1453967.1722101,-162
1660134602.81442,1453967.172213,-162
1660134602.81442,1453967.1722159,-155
1660134602.81442,1453967.1722191,-146
1660134602.81442,1453967.172222,-132
1660134602.81442,1453967.1722248,-109
1660134602.81442,1453967.1722278,-88
1660134602.81442,1453967.1722307,-83
1660134602.81442,1453967.1722336,-97
1660134602.81442,1453967.1722366,-92
1660134602.81442,1453967.1722395,-62
1660134602.81442,1453967.1722425,-39
1660134602.81442,1453967.1722453,-32
1660134602.81442,1453967.1722487,-27
1660134602.81442,1453967.1722517,-20
1660134602.81442,1453967.1722545,-23
1660134602.81442,1453967.1722574,-39
1660134602.81442,1453967.1722604,-37
1660134602.81442,1453967.1722633,-11
1660134602.81442,1453967.1722662,-4
1660134602.81442,1453967.1722691,-13
1660134602.81442,1453967.172272,-6
1660134602.81442,1453967.1722749,4
1660134602.81442,1453967.7560652,-2
1660134602.81442,1453967.7560865,-4
1660134602.81442,1453967.7561015,2
1660134602.81442,1453967.7561149,6
1660134602.81442,1453967.7561247,4
1660134602.81442,1453967.7561317,4
1660134602.81442,1453967.7561406,2
1660134602.81442,1453967.756149,2
1660134602.81442,1453967.7561615,9
1660134602.81442,1453967.7561687,23
1660134602.82938,1453967.7561722,32
1660134602.82938,1453967.756181,27
1660134602.82938,1453967.7561915,20
1660134602.82938,1453967.7562052,23
1660134602.82938,1453967.7562191,27
1660134602.82938,1453967.7562308,34
1660134602.82938,1453967.7562389,41
1660134602.82938,1453967.7562474,20
1660134602.82938,1453967.7562552,0
1660134602.82938,1453967.7562635,13
1660134602.82938,1453967.756268,27
1660134602.82938,1453967.7562726,18
1660134602.82938,1453967.7562762,6
1660134602.82938,1453967.7562835,13
1660134602.82938,1453967.7562874,23
1660134602.82938,1453967.7562906,30
1660134602.82938,1453967.7562959,44
1660134602.82938,1453967.7563085,55
1660134602.82938,1453967.7563158,74
1660134602.82938,1453967.7563255,95
1660134602.82938,1453967.7563308,76
1660134602.82938,1453967.7563355,32
1660134602.82938,1453967.7563388,25
1660134602.82938,1453967.7563453,39
1660134603.35974,1453967.75635,20
1660134603.35974,1453967.7563582,-9
1660134603.35974,1453967.7563653,-18
1660134603.35974,1453967.7563726,-16
1660134603.35974,1453967.7563774,-11
1660134603.35974,1453967.7563841,-4
1660134603.35974,1453967.756391,9
1660134603.35974,1453967.756396,11
1660134603.35974,1453967.7564011,0
1660134603.35974,1453967.7564065,113
1660134603.35974,1453967.7564099,686
1660134603.35974,1453967.7564132,1463
1660134603.35974,1453967.7564186,930
1660134603.35974,1453967.7564222,-823
1660134603.35974,1453967.7564271,-1349
1660134603.35974,1453967.7564305,-542
1660134603.35974,1453967.7564361,-136
1660134603.35974,1453967.7564395,-106
1660134603.35974,1453967.7564444,74
1660134603.35974,1453967.7564492,157
1660134603.35974,1453967.7564573,102
1660134603.35974,1453967.7564638,120
1660134603.35974,1453967.7564678,157
1660134603.35974,1453967.7564746,139
1660134603.35974,1453967.7564788,146
1660134603.35974,1453967.7564859,171
1660134603.35974,1453967.7564931,153
1660134603.35974,1453967.7564974,136
1660134603.35974,1453967.7565052,120
1660134603.35974,1453967.7565123,109
1660134603.35974,1453967.7565194,187
1660134603.35974,1453967.7565277,266
1660134603.35974,1453967.7565348,243
1660134603.35974,1453967.7565429,238
1660134603.35974,1453967.7565527,266
1660134603.35974,1453967.7565638,266
1660134603.35974,1453967.7565714,276
1660134603.35974,1453967.7565823,313
1660134603.35974,1453967.756593,336
1660134603.35974,1453968.2921131,359
1660134603.35974,1453968.2921328,408
1660134603.35974,1453968.2921475,438
1660134603.35974,1453968.2921525,419
1660134603.35974,1453968.2921611,410
1660134603.35974,1453968.2921691,422
1660134603.35974,1453968.2921827,375
1660134603.35974,1453968.2921967,282
1660134603.35974,1453968.2922105,204
1660134603.35974,1453968.2922246,99
1660134603.35974,1453968.2922379,-30
1660134603.38481,1453968.2922506,-85
1660134603.38481,1453968.2922577,-104
1660134603.38481,1453968.2922601,-155
1660134603.38481,1453968.2922622,-199
1660134603.38481,1453968.2922643,-220
1660134603.38481,1453968.2922708,-224
1660134603.38481,1453968.2922853,-224
1660134603.38481,1453968.2922982,-215
1660134603.38481,1453968.2923118,-194
1660134603.38481,1453968.2923273,-222
1660134603.38481,1453968.2923417,-252
1660134603.38481,1453968.2923525,-224
1660134603.38481,1453968.2924436,-211
1660134603.38481,1453968.2924592,-213
1660134603.38481,1453968.2924747,-180
1660134603.38481,1453968.2924895,-160
1660134603.38481,1453968.2925455,-183
1660134603.38481,1453968.2925612,-180
1660134603.38481,1453968.2925759,-157
1660134603.38481,1453968.2925866,-160
1660134603.38481,1453968.292594,-155
1660134603.38481,1453968.2926025,-153
1660134603.38481,1453968.2926099,-185
1660134603.38481,1453968.2926124,-194
1660134603.84638,1453968.2926185,-171
1660134603.84638,1453968.292628,-173
1660134603.84638,1453968.2926396,-183
1660134603.84638,1453968.292647,-160
1660134603.84638,1453968.2926515,-148
1660134603.84638,1453968.2926556,-162
1660134603.84638,1453968.2926621,-148
1660134603.84638,1453968.2926665,-120
1660134603.84638,1453968.2926746,-115
1660134603.84638,1453968.2926866,-111
1660134603.84638,1453968.2926973,-106
1660134603.84638,1453968.2927424,-104
1660134603.84638,1453968.2927533,-92
1660134603.84638,1453968.2927588,-78
1660134603.84638,1453968.2927621,-64
1660134603.84638,1453968.2927653,-64
1660134603.84638,1453968.2927699,-76
1660134603.84638,1453968.2927738,-67
1660134603.84638,1453968.2927773,-39
1660134603.84638,1453968.2927808,-20
1660134603.84638,1453968.2928029,-18
1660134603.84638,1453968.2928094,-23
1660134603.84638,1453968.2928157,-16
1660134603.84638,1453968.2928191,-13
1660134603.84638,1453968.292824,-4
1660134603.84638,1453968.2928273,18
1660134603.84638,1453968.2928305,11
1660134603.84638,1453968.2928338,-6
1660134603.84638,1453968.292837,6
1660134603.84638,1453968.2928404,20
1660134603.84638,1453968.2928437,11
1660134603.84638,1453968.2928473,13
1660134603.84638,1453968.2928543,23
1660134603.84638,1453968.292859,39
1660134603.84638,1453968.2928636,64
1660134603.84638,1453968.2928712,71
1660134603.84638,1453968.2928765,53
1660134603.84638,1453968.2928841,48
1660134603.84638,1453968.7792179,55
1660134603.84638,1453968.7792353,48
1660134603.84638,1453968.7792412,46
1660134603.84638,1453968.7792461,55
1660134603.84638,1453968.7792505,55
1660134603.84638,1453968.7792548,62
1660134603.84638,1453968.7792591,71
1660134603.84638,1453968.7792633,69
1660134603.84638,1453968.7792675,39
1660134603.84638,1453968.7792718,51
1660134603.84638,1453968.779276,357
1660134603.84638,1453968.7792802,1110
1660134603.86732,1453968.7792843,1396
1660134603.86732,1453968.7792884,211
1660134603.86732,1453968.7792953,-1064
1660134603.86732,1453968.7793005,-865
1660134603.86732,1453968.7793061,-238
1660134603.86732,1453968.7793101,-132
1660134603.86732,1453968.7793159,-41
1660134603.86732,1453968.7793195,115
1660134603.86732,1453968.7793252,83
1660134603.86732,1453968.7793352,44
1660134603.86732,1453968.7793473,104
1660134603.86732,1453968.7793553,102
1660134603.86732,1453968.7793612,53
1660134603.86732,1453968.7793664,67
1660134603.86732,1453968.7793711,83
1660134603.86732,1453968.7793758,74
1660134603.86732,1453968.7793815,92
1660134603.86732,1453968.7793868,113
1660134603.86732,1453968.7793918,111
1660134603.86732,1453968.7793979,125
1660134603.86732,1453968.7794029,162
1660134603.86732,1453968.7794068,171
1660134603.86732,1453968.7794123,183
1660134603.86732,1453968.779416,211
1660134604.41849,1453968.7794213,231
1660134604.41849,1453968.7794249,259
1660134604.41849,1453968.7794284,306
1660134604.41849,1453968.7794317,345
1660134604.41849,1453968.7794357,387
1660134604.41849,1453968.7794405,431
1660134604.41849,1453968.7794475,459
1660134604.41849,1453968.7794544,468
1660134604.41849,1453968.7794615,461
1660134604.41849,1453968.7794679,447
1660134604.41849,1453968.7794746,405
1660134604.41849,1453968.7794815,322
1660134604.41849,1453968.7794884,220
1660134604.41849,1453968.7794948,113
1660134604.41849,1453968.7794991,18
1660134604.41849,1453968.7795065,-30
1660134604.41849,1453968.7795101,-46
1660134604.41849,1453968.7795184,-78
1660134604.41849,1453968.7795297,-102
1660134604.41849,1453968.7795406,-113
1660134604.41849,1453968.7795497,-120
1660134604.41849,1453968.7795594,-118
1660134604.41849,1453968.7795676,-120
1660134604.41849,1453968.7795741,-132
1660134604.41849,1453968.7795799,-129
1660134604.41849,1453968.779585,-120
1660134604.41849,1453968.7795921,-115
1660134604.41849,1453968.7795993,-95
1660134604.41849,1453968.7796059,-64
1660134604.41849,1453968.7796103,-62
1660134604.41849,1453968.7796141,-67
1660134604.41849,1453968.779618,-55
1660134604.41849,1453968.7796217,-48
1660134604.41849,1453968.7796253,-44
1660134604.41849,1453968.77963,-39
1660134604.41849,1453968.779635,-34
1660134604.41849,1453968.7796403,-32
1660134604.41849,1453969.3646764,-41
1660134604.41849,1453969.3646936,-44
1660134604.41849,1453969.3647022,-30
1660134604.41849,1453969.3647068,-23
1660134604.41849,1453969.364713,-25
1660134604.41849,1453969.3647176,-30
1660134604.41849,1453969.3647238,-34
1660134604.41849,1453969.3647286,-46
1660134604.41849,1453969.3647359,-64
1660134604.41849,1453969.3647463,-64
1660134604.41849,1453969.3647519,-51
1660134604.41849,1453969.3647542,-44
1660134604.41849,1453969.3647574,-53
1660134604.43544,1453969.3647596,-83
1660134604.43544,1453969.3647652,-111
1660134604.43544,1453969.3647791,-104
1660134604.43544,1453969.3647877,-90
1660134604.43544,1453969.3648031,-97
1660134604.43544,1453969.364818,-104
1660134604.43544,1453969.3648327,-88
1660134604.43544,1453969.3648474,-71
1660134604.43544,1453969.3648598,-76
1660134604.43544,1453969.3648655,-69
1660134604.43544,1453969.3648684,-51
1660134604.43544,1453969.3648706,-51
1660134604.43544,1453969.3648726,-44
1660134604.43544,1453969.3648746,-30
1660134604.43544,1453969.3648766,-27
1660134604.43544,1453969.3648787,-25
1660134604.43544,1453969.3648807,-18
1660134604.43544,1453969.3648828,-13
1660134604.43544,1453969.3648856,-6
1660134604.43544,1453969.3648878,0
1660134604.43544,1453969.3648898,0
1660134604.43544,1453969.364892,6
1660134604.43544,1453969.3648941,25
1660134604.43544,1453969.3648962,39
1660134604.91977,1453969.3648983,53
1660134604.91977,1453969.3649057,78
1660134604.91977,1453969.3649159,83
1660134604.91977,1453969.3649278,60
1660134604.91977,1453969.3649333,55
1660134604.91977,1453969.3649357,67
1660134604.91977,1453969.3649377,62
1660134604.91977,1453969.3649396,64
1660134604.91977,1453969.3649436,74
1660134604.91977,1453969.3649499,76
1660134604.91977,1453969.3649551,78
1660134604.91977,1453969.3649625,76
1660134604.91977,1453969.364966,57
1660134604.91977,1453969.3649689,32
1660134604.91977,1453969.3649718,44
1660134604.91977,1453969.3649748,394
1660134604.91977,1453969.3649777,1254
1660134604.91977,1453969.3649806,1484
1660134604.91977,1453969.3649835,109
1660134604.91977,1453969.3649874,-1108
1660134604.91977,1453969.3649895,-749
1660134604.91977,1453969.3649925,-148
1660134604.91977,1453969.3649946,-83
1660134604.91977,1453969.3649967,18
1660134604.91977,1453969.3650273,162
1660134604.91977,1453969.3650314,134
1660134604.91977,1453969.3650336,118
1660134604.91977,1453969.3650358,160
1660134604.91977,1453969.3650379,157
1660134604.91977,1453969.36504,143
1660134604.91977,1453969.365042,162
1660134604.91977,1453969.365044,180
1660134604.91977,1453969.365046,183
1660134604.91977,1453969.3650481,187
1660134604.91977,1453969.3650502,197
1660134604.91977,1453969.3650524,194
1660134604.91977,1453969.8536417,194
1660134604.91977,1453969.8536618,215
1660134604.91977,1453969.8536721,231
1660134604.91977,1453969.8536749,243
1660134604.91977,1453969.8536771,252
1660134604.91977,1453969.8536792,250
1660134604.91977,1453969.8536814,264
1660134604.91977,1453969.8536834,303
1660134604.91977,1453969.8536854,338
1660134604.91977,1453969.8536875,368
1660134604.91977,1453969.8536895,394
1660134604.91977,1453969.8536915,398
1660134604.91977,1453969.8536935,410
1660134604.91977,1453969.8536956,417
1660134604.93673,1453969.8536976,389
1660134604.93673,1453969.8536995,343
1660134604.93673,1453969.8537016,269
1660134604.93673,1453969.8537036,143
1660134604.93673,1453969.8537058,16
1660134604.93673,1453969.8537079,-62
1660134604.93673,1453969.8537099,-106
1660134604.93673,1453969.853712,-139
1660134604.93673,1453969.8537141,-164
1660134604.93673,1453969.8537161,-178
1660134604.93673,1453969.8537181,-169
1660134604.93673,1453969.8537201,-162
1660134604.93673,1453969.8537221,-173
1660134604.93673,1453969.8537403,-178
1660134604.93673,1453969.8537488,-173
1660134604.93673,1453969.8537543,-178
1660134604.93673,1453969.8537614,-192
1660134604.93673,1453969.8537675,-194
1660134604.93673,1453969.8537734,-190
1660134604.93673,1453969.8537775,-176
1660134604.93673,1453969.8537818,-153
1660134604.93673,1453969.853786,-146
1660134604.93673,1453969.8537904,-143
1660134604.93673,1453969.8537946,-127
1660134605.45318,1453969.8537996,-109
1660134605.45318,1453969.8538084,-104
1660134605.45318,1453969.8538183,-122
1660134605.45318,1453969.8538244,-132
1660134605.45318,1453969.8538284,-118
1660134605.45318,1453969.8538351,-111
1660134605.45318,1453969.8538403,-111
1660134605.45318,1453969.8538518,-95
1660134605.45318,1453969.8538572,-95
1660134605.45318,1453969.8538613,-102
1660134605.45318,1453969.8538639,-88
1660134605.45318,1453969.8538661,-81
1660134605.45318,1453969.8538682,-88
1660134605.45318,1453969.8538712,-71
1660134605.45318,1453969.8538828,-60
1660134605.45318,1453969.8538889,-76
1660134605.45318,1453969.8538932,-83
1660134605.45318,1453969.8539081,-55
1660134605.45318,1453969.8539204,-44
1660134605.45318,1453969.8539294,-55
1660134605.45318,1453969.8539355,-55
1660134605.45318,1453969.8539476,-37
1660134605.45318,1453969.8539561,-18
1660134605.45318,1453969.8539608,-20
1660134605.45318,1453969.8539721,-30
1660134605.45318,1453969.853985,-18
1660134605.45318,1453969.8539932,-11
1660134605.45318,1453969.8540022,-16
1660134605.45318,1453969.8540075,-6
1660134605.45318,1453969.854014,0
1660134605.45318,1453969.85402,0
1660134605.45318,1453969.8540301,2
1660134605.45318,1453969.8540425,0
1660134605.45318,1453969.8540506,-13
1660134605.45318,1453969.8540558,-34
1660134605.45318,1453970.3882229,-32
1660134605.45318,1453970.3882429,-16
1660134605.45318,1453970.3882545,-2
1660134605.45318,1453970.3882621,23
1660134605.45318,1453970.3882711,32
1660134605.45318,1453970.388276,25
1660134605.45318,1453970.3882825,25
1660134605.45318,1453970.3882874,2
1660134605.45318,1453970.3882937,-37
1660134605.45318,1453970.388298,-30
1660134605.45318,1453970.3883036,-9
1660134605.45318,1453970.3883084,-13
1660134605.45318,1453970.3883144,-9
1660134605.45318,1453970.3883195,2
1660134605.45318,1453970.3883251,-13
1660134605.47512,1453970.3883298,-23
1660134605.47512,1453970.3883354,0
1660134605.47512,1453970.3883395,132
1660134605.47512,1453970.3883451,665
1660134605.47512,1453970.3883494,1417
1660134605.47512,1453970.388355,844
1660134605.47512,1453970.3883599,-1050
1660134605.47512,1453970.3883659,-1581
1660134605.47512,1453970.3883699,-605
1660134605.47512,1453970.3883741,-160
1660134605.47512,1453970.3883792,-173
1660134605.47512,1453970.3883833,37
1660134605.47512,1453970.3883891,141
1660134605.47512,1453970.3883932,60
1660134605.47512,1453970.388399,76
1660134605.47512,1453970.3884028,125
1660134605.47512,1453970.3884067,102
1660134605.47512,1453970.3884106,95
1660134605.47512,1453970.3884158,118
1660134605.47512,1453970.3884205,118
1660134605.47512,1453970.3884258,118
1660134605.47512,1453970.3884297,141
1660134605.47512,1453970.3884334,155
1660134605.47512,1453970.3884372,155
1660134606.17384,1453970.3884425,160
1660134606.17384,1453970.3884464,169
1660134606.17384,1453970.3884501,183
1660134606.17384,1453970.3884538,208
1660134606.17384,1453970.3884574,236
1660134606.17384,1453970.388461,252
1660134606.17384,1453970.3884646,273
1660134606.17384,1453970.3884685,308
1660134606.17384,1453970.3884723,343
1660134606.17384,1453970.3884777,382
1660134606.17384,1453970.3884815,426
1660134606.17384,1453970.3884871,452
1660134606.17384,1453970.3884907,459
1660134606.17384,1453970.3884944,447
1660134606.17384,1453970.3884995,417
1660134606.17384,1453970.3885049,368
1660134606.17384,1453970.3885099,282
1660134606.17384,1453970.3885138,171
1660134606.17384,1453970.3885188,67
1660134606.17384,1453970.3885244,0
1660134606.17384,1453970.3885301,-44
1660134606.17384,1453970.3885339,-76
1660134606.17384,1453970.3885392,-92
1660134606.17384,1453970.3885428,-95
1660134606.17384,1453970.3885467,-104
1660134606.17384,1453970.3885504,-127
1660134606.17384,1453970.3885558,-143
1660134606.17384,1453970.3885596,-141
1660134606.17384,1453970.3885648,-129
1660134606.17384,1453970.3885684,-115
1660134606.17384,1453970.3885722,-109
1660134606.17384,1453970.388576,-109
1660134606.17384,1453970.3885797,-104
1660134606.17384,1453970.3885851,-92
1660134606.17384,1453971.1197348,-85
1660134606.17384,1453971.1197584,-83
1660134606.17384,1453971.1197719,-83
1660134606.17384,1453971.1197841,-92
1660134606.17384,1453971.1197921,-104
1660134606.17384,1453971.1197987,-115
1660134606.17384,1453971.1198044,-115
1660134606.17384,1453971.119809,-102
1660134606.17384,1453971.119816,-95
1660134606.17384,1453971.1198195,-99
1660134606.17384,1453971.1198255,-115
1660134606.17384,1453971.1198289,-134
1660134606.17384,1453971.1198342,-129
1660134606.17384,1453971.1198383,-115
1660134606.17384,1453971.1198424,-106
1660134606.17384,1453971.1198462,-99
1660134606.1868,1453971.1198501,-99
1660134606.1868,1453971.1198541,-109
1660134606.1868,1453971.1198604,-95
1660134606.1868,1453971.1198647,-81
1660134606.1868,1453971.1198703,-81
1660134606.1868,1453971.1198742,-71
1660134606.1868,1453971.1198779,-71
1660134606.1868,1453971.1198817,-83
1660134606.1868,1453971.1198854,-81
1660134606.1868,1453971.1198891,-71
1660134606.1868,1453971.1198927,-60
1660134606.1868,1453971.1198968,-46
1660134606.1868,1453971.1199004,-39
1660134606.1868,1453971.1199041,-37
1660134606.1868,1453971.1199095,-39
1660134606.1868,1453971.1199134,-34
1660134606.1868,1453971.1199187,-13
1660134606.1868,1453971.1199223,-6
1660134606.1868,1453971.119926,-16
1660134606.1868,1453971.1199296,-18
1660134606.1868,1453971.1199332,-16
1660134606.1868,1453971.1199367,-13
1660134606.1868,1453971.1199421,-4
1660134606.1868,1453971.1199459,11
1660134606.66279,1453971.1199521,27
1660134606.66279,1453971.1199557,41
1660134606.66279,1453971.1199595,53
1660134606.66279,1453971.1199631,51
1660134606.66279,1453971.1199666,46
1660134606.66279,1453971.1199702,46
1660134606.66279,1453971.1199738,48
1660134606.66279,1453971.1199774,48
1660134606.66279,1453971.1199811,46
1660134606.66279,1453971.1199848,51
1660134606.66279,1453971.1199884,53
1660134606.66279,1453971.1199919,46
1660134606.66279,1453971.1199953,57
1660134606.66279,1453971.1199988,62
1660134606.66279,1453971.1200024,18
1660134606.66279,1453971.1200062,46
1660134606.66279,1453971.1200104,521
1660134606.66279,1453971.1200136,1382
1660134606.66279,1453971.120017,1243
1660134606.66279,1453971.1200205,-315
1660134606.66279,1453971.1200242,-1150
1660134606.66279,1453971.1200529,-547
1660134606.66279,1453971.1200639,-85
1660134606.66279,1453971.1200762,-97
1660134606.66279,1453971.1200878,18
1660134606.66279,1453971.1200946,125
1660134606.66279,1453971.1200998,74
1660134606.66279,1453971.1201065,76
1660134606.66279,1453971.1201122,118
1660134606.66279,1453971.1201209,106
1660134606.66279,1453971.1201297,102
1660134606.66279,1453971.1201338,122
1660134606.66279,1453971.1201398,125
1660134606.66279,1453971.6076877,127
1660134606.66279,1453971.6077054,143
1660134606.66279,1453971.6077085,146
1660134606.66279,1453971.6077107,146
1660134606.66279,1453971.6077128,164
1660134606.66279,1453971.6077167,173
1660134606.66279,1453971.607719,183

1660134606.66279,1453971.6077211,204
1660134606.66279,1453971.6077273,218
1660134606.66279,1453971.6077392,229
1660134606.66279,1453971.6077427,259
1660134606.66279,1453971.6077474,294
1660134606.66279,1453971.6077504,329
1660134606.66279,1453971.6077544,357
1660134606.66279,1453971.6077583,385
1660134606.66279,1453971.6077615,412
1660134606.66279,1453971.6077671,431
1660134606.67476,1453971.6077733,433
1660134606.67476,1453971.6077773,415
1660134606.67476,1453971.6077809,371
1660134606.67476,1453971.6077858,289
1660134606.67476,1453971.6077908,192
1660134606.67476,1453971.6077955,106
1660134606.67476,1453971.6078002,46
1660134606.67476,1453971.6078085,2
1660134606.67476,1453971.6078162,-39
1660134606.67476,1453971.6078253,-85
1660134606.67476,1453971.6078294,-120
1660134606.67476,1453971.607837,-125
1660134606.67476,1453971.6078445,-109
1660134606.67476,1453971.6078513,-99
1660134606.67476,1453971.607857,-111
1660134606.67476,1453971.6078644,-134
1660134606.67476,1453971.6078717,-141
1660134606.67476,1453971.6078787,-132
1660134606.67476,1453971.6078819,-122
1660134606.67476,1453971.6078892,-113
1660134606.67476,1453971.6078952,-97
1660134606.67476,1453971.6079058,-88
1660134606.67476,1453971.6079163,-74
1660134606.67476,1453971.6079256,-64
1660134607.1974,1453971.6079349,-69
1660134607.1974,1453971.6079408,-64
1660134607.1974,1453971.6079506,-55
1660134607.1974,1453971.6079592,-62
1660134607.1974,1453971.6079668,-64
1660134607.1974,1453971.6079718,-55
1660134607.1974,1453971.6079807,-55
1660134607.1974,1453971.6079947,-57
1660134607.1974,1453971.6080078,-48
1660134607.1974,1453971.6080212,-51
1660134607.1974,1453971.6080295,-71
1660134607.1974,1453971.6080322,-90
1660134607.1974,1453971.6080342,-76
1660134607.1974,1453971.6080363,-53
1660134607.1974,1453971.6080383,-44
1660134607.1974,1453971.6080404,-44
1660134607.1974,1453971.6080425,-39
1660134607.1974,1453971.6080445,-39
1660134607.1974,1453971.6080465,-32
1660134607.1974,1453971.6080486,-9
1660134607.1974,1453971.6080506,2
1660134607.1974,1453971.6080527,-4
1660134607.1974,1453971.6080549,-6
1660134607.1974,1453971.6080633,2
1660134607.1974,1453971.6080739,13
1660134607.1974,1453971.608078,23
1660134607.1974,1453971.6080801,23
1660134607.1974,1453971.6080823,27
1660134607.1974,1453971.6080843,39
1660134607.1974,1453971.6080864,32
1660134607.1974,1453971.6080943,13
1660134607.1974,1453971.6081047,27
1660134607.1974,1453972.1443256,55
1660134607.1974,1453972.1443431,60
1660134607.1974,1453972.1443488,71
1660134607.1974,1453972.1443665,97
1660134607.1974,1453972.1443728,90
1660134607.1974,1453972.1443781,69
1660134607.1974,1453972.1443872,76
1660134607.1974,1453972.1443938,78
1660134607.1974,1453972.1443975,67
1660134607.1974,1453972.1444009,76
1660134607.1974,1453972.1444042,74
1660134607.1974,1453972.1444077,46
1660134607.1974,1453972.1444111,53
1660134607.1974,1453972.1444144,71
1660134607.1974,1453972.1444184,64
1660134607.1974,1453972.144422,67
1660134607.1974,1453972.1444255,106
1660134607.1974,1453972.1444292,345
1660134607.21036,1453972.144433,964
1660134607.21036,1453972.1444374,1155
1660134607.21036,1453972.1444447,-9
1660134607.21036,1453972.1444497,-1138
1660134607.21036,1453972.1444548,-841
1660134607.21036,1453972.1444615,-231
1660134607.21036,1453972.1444679,-115
1660134607.21036,1453972.1444747,2
1660134607.21036,1453972.1444815,157
1660134607.21036,1453972.144487,150
1660134607.21036,1453972.1444913,146
1660134607.21036,1453972.1444951,194
1660134607.21036,1453972.1444988,180
1660134607.21036,1453972.1445025,150
1660134607.21036,1453972.1445073,171
1660134607.21036,1453972.1445112,190
1660134607.21036,1453972.1445149,190
1660134607.21036,1453972.1445196,199
1660134607.21036,1453972.1445243,218
1660134607.21036,1453972.1445283,220
1660134607.21036,1453972.144533,215
1660134607.21036,1453972.1445376,222
1660134607.21036,1453972.1445416,245
1660134607.21036,1453972.1445466,276
1660134607.88913,1453972.1445507,296
1660134607.88913,1453972.1445551,299
1660134607.88913,1453972.1445589,303
1660134607.88913,1453972.1445642,338
1660134607.88913,1453972.1445688,391
1660134607.88913,1453972.1445759,447
1660134607.88913,1453972.1445813,475
1660134607.88913,1453972.1445848,480
1660134607.88913,1453972.1445912,498
1660134607.88913,1453972.144598,521
1660134607.88913,1453972.1446053,514
1660134607.88913,1453972.1446104,468
1660134607.88913,1453972.1446149,387
1660134607.88913,1453972.1446195,282
1660134607.88913,1453972.1446242,173
1660134607.88913,1453972.1446291,74
1660134607.88913,1453972.1446339,13
1660134607.88913,1453972.1446384,-6
1660134607.88913,1453972.1446436,-25
1660134607.88913,1453972.1446513,-51
1660134607.88913,1453972.1446597,-60
1660134607.88913,1453972.1446672,-51
1660134607.88913,1453972.1446745,-44
1660134607.88913,1453972.1446788,-48
1660134607.88913,1453972.1446838,-41
1660134607.88913,1453972.1446901,-34
1660134607.88913,1453972.1446968,-46
1660134607.88913,1453972.1447013,-51
1660134607.88913,1453972.1447048,-27
1660134607.88913,1453972.1447079,-9
1660134607.88913,1453972.144711,-11
1660134607.88913,1453972.8293418,-4
1660134607.88913,1453972.8293648,11
1660134607.88913,1453972.8293768,13
1660134607.88913,1453972.8293853,18
1660134607.88913,1453972.8293913,27
1660134607.88913,1453972.829398,16
1660134607.88913,1453972.8294045,-2
1660134607.88913,1453972.8294112,2
1660134607.88913,1453972.8294182,4
1660134607.88913,1453972.8294254,-13
1660134607.88913,1453972.8294327,-20
1660134607.88913,1453972.8294379,-11
1660134607.88913,1453972.8294413,-20
1660134607.88913,1453972.8294488,-46
1660134607.88913,1453972.8294572,-69
1660134607.88913,1453972.8294658,-69
1660134607.88913,1453972.8294735,-53
1660134607.88913,1453972.8294802,-46
1660134607.88913,1453972.8294887,-53
1660134607.90157,1453972.8294971,-53
1660134607.90157,1453972.8295041,-55
1660134607.90157,1453972.8295112,-57
1660134607.90157,1453972.8295193,-46
1660134607.90157,1453972.8295242,-39
1660134607.90157,1453972.8295325,-39
1660134607.90157,1453972.8295396,-39
1660134607.90157,1453972.8295466,-53
1660134607.90157,1453972.8295559,-74
1660134607.90157,1453972.8295631,-78
1660134607.90157,1453972.8295703,-60
1660134607.90157,1453972.829577,-37
1660134607.90157,1453972.8295847,-34
1660134607.90157,1453972.829593,-37
1660134607.90157,1453972.8296007,-20
1660134607.90157,1453972.8296089,-9
1660134607.90157,1453972.8296172,-11
1660134607.90157,1453972.8296252,-23
1660134607.90157,1453972.8296332,-37
1660134607.90157,1453972.8296429,-39
1660134607.90157,1453972.8296549,-32
1660134607.90157,1453972.8296686,-25
1660134607.90157,1453972.8296775,-20
1660134607.90157,1453972.8296864,-16
1660134608.41694,1453972.8296942,-4
1660134608.41694,1453972.8296997,9
1660134608.41694,1453972.8297061,4
1660134608.41694,1453972.8297124,2
1660134608.41694,1453972.8297186,118
1660134608.41694,1453972.8297248,621
1660134608.41694,1453972.82973,1243
1660134608.41694,1453972.8297361,686
1660134608.41694,1453972.8297423,-814
1660134608.41694,1453972.8297513,-1138
1660134608.41694,1453972.8297562,-396
1660134608.41694,1453972.8297627,-113
1660134608.41694,1453972.8297735,-113
1660134608.41694,1453972.8297808,74
1660134608.41694,1453972.829788,157
1660134608.41694,1453972.8297928,99
1660134608.41694,1453972.829798,115
1660134608.41694,1453972.8298028,143
1660134608.41694,1453972.8298115,115
1660134608.41694,1453972.8298203,122
1660134608.41694,1453972.8298276,162
1660134608.41694,1453972.8298362,166
1660134608.41694,1453972.8298434,157
1660134608.41694,1453972.8298505,162
1660134608.41694,1453972.829857,169
1660134608.41694,1453972.8298661,183
1660134608.41694,1453972.8298732,194
1660134608.41694,1453972.8298821,199
1660134608.41694,1453972.829889,218
1660134608.41694,1453972.8298957,243
1660134608.41694,1453973.3627974,255
1660134608.41694,1453973.3628192,276
1660134608.41694,1453973.3628334,310
1660134608.41694,1453973.3628435,345
1660134608.41694,1453973.3628536,373
1660134608.41694,1453973.3628634,401
1660134608.41694,1453973.3628986,426
1660134608.41694,1453973.3629057,449
1660134608.41694,1453973.3629116,466
1660134608.41694,1453973.3629174,463
1660134608.41694,1453973.3629208,419
1660134608.41694,1453973.362924,343
1660134608.41694,1453973.3629271,259
1660134608.41694,1453973.3629303,171
1660134608.41694,1453973.3629336,83
1660134608.41694,1453973.3629367,18
1660134608.41694,1453973.36294,-25
1660134608.41694,1453973.3629432,-60
1660134608.41694,1453973.3629464,-85
1660134608.41694,1453973.3629496,-99
1660134608.43554,1453973.3629539,-95
1660134608.43554,1453973.3629572,-85
1660134608.43554,1453973.3629604,-88
1660134608.43554,1453973.3629658,-88
1660134608.43554,1453973.3629692,-76
1660134608.43554,1453973.3629726,-62
1660134608.43554,1453973.3629759,-51
1660134608.43554,1453973.3629797,-41
1660134608.43554,1453973.3629847,-51
1660134608.43554,1453973.3629906,-67
1660134608.43554,1453973.3629951,-60
1660134608.43554,1453973.3629984,-46
1660134608.43554,1453973.3630014,-46
1660134608.43554,1453973.3630043,-51
1660134608.43554,1453973.3630073,-48
1660134608.43554,1453973.3630104,-62
1660134608.43554,1453973.3630133,-85
1660134608.43554,1453973.3630162,-83
1660134608.43554,1453973.363019,-76
1660134608.43554,1453973.3630234,-85
1660134608.43554,1453973.3630273,-83
1660134608.43554,1453973.3630322,-76
1660134608.43554,1453973.3630377,-90
1660134608.43554,1453973.363041,-106
1660134608.81474,1453973.3630451,-95
1660134608.81474,1453973.3630516,-81
1660134608.81474,1453973.3630554,-85
1660134608.81474,1453973.3630606,-78
1660134608.81474,1453973.3630646,-71
1660134608.81474,1453973.3630676,-83
1660134608.81474,1453973.3630707,-88
1660134608.81474,1453973.3630736,-90
1660134608.81474,1453973.3630771,-99
1660134608.81474,1453973.3630804,-99
1660134608.81474,1453973.3630838,-97
1660134608.81474,1453973.3630874,-95
1660134608.81474,1453973.3630909,-92
1660134608.81474,1453973.3630976,-88
1660134608.81474,1453973.3631113,-83
1660134608.81474,1453973.3631224,-85
1660134608.81474,1453973.3631269,-90
1660134608.81474,1453973.363129,-74
1660134608.81474,1453973.3631321,-55
1660134608.81474,1453973.3631427,-55
1660134608.81474,1453973.36315,-46
1660134608.81474,1453973.3631525,-27
1660134608.81474,1453973.3631546,-16
1660134608.81474,1453973.3631566,-11
1660134608.81474,1453973.3631597,-11
1660134608.81474,1453973.3631724,-11
