Time,TimeLsl,Value
1660203163.11763,1522528.2791704,39
1660203163.11763,1522528.2791933,23
1660203163.11763,1522528.2792009,18
1660203163.11763,1522528.2792066,25
1660203163.11763,1522528.2792109,37
1660203163.11763,1522528.2792164,44
1660203163.11763,1522528.2792204,51
1660203163.11763,1522528.279226,51
1660203163.11763,1522528.2792301,37
1660203163.11763,1522528.2792388,14
1660203163.11763,1522528.2792471,11
1660203163.11763,1522528.2792545,21
1660203163.11763,1522528.2792586,25
1660203163.11763,1522528.2792646,32
1660203163.11763,1522528.2792684,32
1660203163.11763,1522528.2792737,28
1660203163.11763,1522528.27928,35
1660203163.11763,1522528.2792899,42
1660203163.11763,1522528.2792994,32
1660203163.11763,1522528.2794109,18
1660203163.11763,1522528.2794232,16
1660203163.11763,1522528.2794301,11
1660203163.11763,1522528.2794341,0
1660203163.11763,1522528.2794393,2
1660203163.11763,1522528.2794429,14
1660203163.11763,1522528.2794483,16
1660203163.11763,1522528.2794521,21
1660203163.11763,1522528.2794569,30
1660203163.11763,1522528.2794606,28
1660203163.11763,1522528.2794698,25
1660203163.11763,1522528.2794755,37
1660203163.11763,1522528.2794793,25
1660203163.11763,1522528.2794847,-4
1660203163.11763,1522528.2794886,-7
1660203163.11763,1522528.2794946,0
1660203163.11763,1522528.2794986,-4
1660203163.11763,1522528.2795038,4
1660203163.11763,1522528.2795115,16
1660203163.11763,1522528.2795169,16
1660203163.11763,1522528.279521,18
1660203163.11763,1522528.2795263,30
1660203163.11763,1522528.2795313,39
1660203163.11763,1522528.279535,51
1660203163.11763,1522528.2795386,65
1660203163.11763,1522528.2795421,72
1660203163.11763,1522528.2795456,87
1660203163.11763,1522528.2795495,202
1660203163.11763,1522528.2795531,458
1660203163.11763,1522528.2795566,682
1660203163.11763,1522528.2795601,649
1660203163.28593,1522528.2795638,345
1660203163.28593,1522528.2795674,75
1660203163.28593,1522528.2795708,65
1660203163.28593,1522528.2795743,108
1660203163.28593,1522528.2795787,49
1660203163.28593,1522528.279582,30
1660203163.28593,1522528.2795862,58
1660203163.28593,1522528.2795919,54
1660203163.28593,1522528.2795969,49
1660203163.28593,1522528.2796024,68
1660203163.28593,1522528.279608,70
1660203163.28593,1522528.2796155,68
1660203163.28593,1522528.2796216,77
1660203163.28593,1522528.2796251,89
1660203163.28593,1522528.2796303,96
1660203163.28593,1522528.2796345,94
1660203163.28593,1522528.2796399,82
1660203163.28593,1522528.2796436,82
1660203163.28593,1522528.2796491,94
1660203163.28593,1522528.2796528,103
1660203163.28593,1522528.2796582,110
1660203163.28593,1522528.2796614,117
1660203163.28593,1522528.2796647,119
1660203163.28593,1522528.8170531,119
1660203163.28593,1522528.8170739,131
1660203163.28593,1522528.817082,145
1660203163.28593,1522528.8170882,155
1660203163.28593,1522528.8170946,169
1660203163.28593,1522528.8171049,181
1660203163.28593,1522528.8171095,185
1660203163.28593,1522528.8171147,188
1660203163.28593,1522528.8171233,199
1660203163.28593,1522528.8171315,206
1660203163.28593,1522528.8171392,211
1660203163.28593,1522528.8171476,209
1660203163.28593,1522528.8171554,183
1660203163.28593,1522528.8171626,148
1660203163.28593,1522528.8171717,131
1660203163.28593,1522528.8171799,103
1660203163.28593,1522528.8171862,63
1660203163.28593,1522528.8171964,32
1660203163.28593,1522528.8172194,-4
1660203163.28593,1522528.8172464,-32
1660203163.28593,1522528.8172567,-30
1660203163.28593,1522528.8172604,-21
1660203163.28593,1522528.8172636,-23
1660203163.28593,1522528.8172665,-16
1660203163.28593,1522528.8172694,-9
1660203163.28593,1522528.8172727,-16
1660203163.28593,1522528.817276,-21
1660203163.33879,1522528.8172816,-7
1660203163.33879,1522528.8172912,2
1660203163.33879,1522528.817297,11
1660203163.33879,1522528.8173003,14
1660203163.33879,1522528.8173034,4
1660203163.33879,1522528.8173064,4
1660203163.33879,1522528.8173094,23
1660203163.33879,1522528.8173124,35
1660203163.33879,1522528.8173166,39
1660203163.33879,1522528.81732,42
1660203163.33879,1522528.817325,35
1660203163.33879,1522528.8173298,28
1660203163.33879,1522528.8173331,37
1660203163.33879,1522528.8173361,47
1660203163.33879,1522528.8173389,47
1660203163.33879,1522528.8173418,39
1660203163.33879,1522528.8173447,37
1660203163.33879,1522528.8173477,37
1660203163.33879,1522528.8173505,44
1660203163.33879,1522528.8173533,49
1660203163.33879,1522528.8173562,51
1660203163.33879,1522528.8173591,49
1660203163.33879,1522528.8173655,44
1660203163.33879,1522528.8173686,32
1660203163.33879,1522528.8173716,28
1660203163.33879,1522528.8173744,39
1660203163.33879,1522528.8173773,54
1660203163.33879,1522528.8173801,63
1660203163.33879,1522528.817383,79
1660203163.33879,1522528.8173859,94
1660203163.33879,1522528.8173888,91
1660203163.33879,1522528.8173925,68
1660203163.33879,1522528.8174063,28
1660203163.33879,1522528.8174157,9
1660203163.33879,1522528.8174288,14
1660203163.33879,1522528.8174359,11
1660203163.33879,1522528.8174408,9
1660203163.33879,1522528.8174473,23
1660203163.33879,1522528.8174506,32
1660203163.33879,1522528.8174637,35
1660203163.33879,1522528.8174763,42
1660203163.33879,1522528.8174884,51
1660203163.33879,1522528.8174979,54
1660203163.33879,1522528.817506,61
1660203163.33879,1522528.8175109,84
1660203163.33879,1522528.8175229,96
1660203163.33879,1522529.4001307,159
1660203163.33879,1522529.4001468,378
1660203163.33879,1522529.4001538,644
1660203163.33879,1522529.4001576,670
1660203163.36125,1522529.4001612,378
1660203163.36125,1522529.4001647,91
1660203163.36125,1522529.4001683,72
1660203163.36125,1522529.4001719,122
1660203163.36125,1522529.4001754,58
1660203163.36125,1522529.4001794,11
1660203163.36125,1522529.4001833,28
1660203163.36125,1522529.4001868,35
1660203163.36125,1522529.400192,21
1660203163.36125,1522529.4001957,30
1660203163.36125,1522529.4002007,44
1660203163.36125,1522529.4002044,28
1660203163.36125,1522529.4002095,18
1660203163.36125,1522529.4002131,30
1660203163.36125,1522529.4002183,39
1660203163.36125,1522529.400222,44
1660203163.36125,1522529.400227,54
1660203163.36125,1522529.4002306,54
1660203163.36125,1522529.4002355,51
1660203163.36125,1522529.4002393,61
1660203163.36125,1522529.4002444,75
1660203163.36125,1522529.4002481,79
1660203163.36125,1522529.4002532,91
1660203163.36125,1522529.4002568,101
1660203163.36125,1522529.400262,105
1660203163.36125,1522529.4002657,112
1660203163.36125,1522529.4002718,124
1660203163.36125,1522529.4002755,134
1660203163.36125,1522529.4002805,138
1660203163.36125,1522529.4002843,145
1660203163.36125,1522529.4002893,157
1660203163.36125,1522529.400293,169
1660203163.36125,1522529.4002981,178
1660203163.36125,1522529.4003018,185
1660203163.36125,1522529.4003068,197
1660203163.36125,1522529.4003104,206
1660203163.36125,1522529.4003142,197
1660203163.36125,1522529.4003197,171
1660203163.36125,1522529.4003235,138
1660203163.36125,1522529.4003287,103
1660203163.36125,1522529.4003323,77
1660203163.36125,1522529.4003359,65
1660203163.36125,1522529.4003396,58
1660203163.36125,1522529.4003449,42
1660203163.36125,1522529.4003486,35
1660203163.36125,1522529.4003537,42
1660203163.36125,1522529.4003572,49
1660203163.36125,1522529.4003609,47
1660203163.36125,1522529.4003658,32
1660203163.36125,1522529.4003694,25
1660203163.37421,1522529.4003746,25
1660203163.37421,1522529.4003783,25
1660203163.37421,1522529.4003833,30
1660203163.37421,1522529.4003869,37
1660203163.37421,1522529.4003919,44
1660203163.37421,1522529.4003955,47
1660203163.37421,1522529.4004006,47
1660203163.37421,1522529.4004042,47
1660203163.37421,1522529.4004107,49
1660203163.37421,1522529.4004167,56
1660203163.37421,1522529.4004242,56
1660203163.37421,1522529.400432,47
1660203163.37421,1522529.4004567,39
1660203163.37421,1522529.4004742,44
1660203163.37421,1522529.4004829,51
1660203163.37421,1522529.4004908,56
1660203163.37421,1522529.4004995,58
1660203163.37421,1522529.4005073,61
1660203163.37421,1522529.4005154,58
1660203163.37421,1522529.939103,63
1660203163.37421,1522529.9391202,72
1660203163.37421,1522529.9391293,75
1660203163.79821,1522529.9391407,68
1660203163.79821,1522529.9391464,61
1660203163.79821,1522529.9391509,51
1660203163.79821,1522529.9391559,37
1660203163.79821,1522529.9391616,37
1660203163.79821,1522529.9391666,51
1660203163.79821,1522529.939172,61
1660203163.79821,1522529.9391813,89
1660203163.79821,1522529.9391869,94
1660203163.79821,1522529.9391907,54
1660203163.79821,1522529.9391942,25
1660203163.79821,1522529.9391978,14
1660203163.79821,1522529.9392015,0
1660203163.79821,1522529.9392051,2
1660203163.79821,1522529.9392088,9
1660203163.79821,1522529.9392127,-11
1660203163.79821,1522529.9392163,-37
1660203163.79821,1522529.9392199,-25
1660203163.79821,1522529.9392235,-4
1660203163.79821,1522529.9392272,2
1660203163.79821,1522529.9392308,0
1660203163.79821,1522529.9392343,-7
1660203163.79821,1522529.9392378,0
1660203163.79821,1522529.9392413,25
1660203163.79821,1522529.9392448,47
1660203163.79821,1522529.9392484,122
1660203163.79821,1522529.9392539,355
1660203163.79821,1522529.9392598,625
1660203163.79821,1522529.9392679,651
1660203163.79821,1522529.9392748,350
1660203163.79821,1522529.9392811,56
1660203163.79821,1522529.9392853,51
1660203163.79821,1522529.9392886,101
1660203163.79821,1522529.9392918,44
1660203163.79821,1522529.9392967,18
1660203163.79821,1522529.9393021,44
1660203163.79821,1522529.9393061,49
1660203163.79821,1522529.9393101,51
1660203163.79821,1522529.939314,58
1660203163.79821,1522529.9393177,63
1660203163.79821,1522529.9393218,72
1660203163.79821,1522529.9393259,72
1660203163.79821,1522529.9393293,63
1660203163.79821,1522529.9393331,68
1660203163.79821,1522529.9393366,84
1660203163.79821,1522529.9393404,89
1660203163.79821,1522529.939344,89
1660203163.79821,1522529.9393474,94
1660203163.79821,1522529.9393508,103
1660203163.79821,1522529.9393544,112
1660203163.81018,1522529.9393623,115
1660203163.81018,1522529.9393704,122
1660203163.81018,1522529.9393785,131
1660203163.81018,1522529.9393845,127
1660203163.81018,1522529.9393902,131
1660203163.81018,1522529.9393941,152
1660203163.81018,1522529.9394012,159
1660203163.81018,1522529.9394091,162
1660203163.81018,1522529.9394169,178
1660203163.81018,1522529.9394268,197
1660203163.81018,1522529.9394348,206
1660203163.81018,1522529.9394415,204
1660203163.81018,1522529.9394482,211
1660203163.81018,1522529.939457,228
1660203163.81018,1522529.9394648,235
1660203163.81018,1522529.9394725,221
1660203163.81018,1522529.9394791,192
1660203163.81018,1522529.939487,159
1660203163.81018,1522529.9394955,124
1660203163.81018,1522529.9395037,98
1660203163.81018,1522530.5212274,84
1660203163.81018,1522530.5212425,72
1660203163.81018,1522530.5212464,61
1660203163.81018,1522530.5212519,54
1660203164.43242,1522530.5212553,54
1660203164.43242,1522530.5212587,56
1660203164.43242,1522530.521262,63
1660203164.43242,1522530.5212653,70
1660203164.43242,1522530.5212686,58
1660203164.43242,1522530.5212718,32
1660203164.43242,1522530.5212751,23
1660203164.43242,1522530.5212785,30
1660203164.43242,1522530.5212818,37
1660203164.43242,1522530.5212851,37
1660203164.43242,1522530.5212885,25
1660203164.43242,1522530.5212918,2
1660203164.43242,1522530.5212955,-16
1660203164.43242,1522530.5212988,-4
1660203164.43242,1522530.5213022,9
1660203164.43242,1522530.5213055,9
1660203164.43242,1522530.5213089,16
1660203164.43242,1522530.5213122,18
1660203164.43242,1522530.5213154,7
1660203164.43242,1522530.521319,9
1660203164.43242,1522530.5213224,21
1660203164.43242,1522530.5213257,25
1660203164.43242,1522530.521329,30
1660203164.43242,1522530.5213322,32
1660203164.43242,1522530.5213356,25
1660203164.43242,1522530.5213389,28
1660203164.43242,1522530.5213421,39
1660203164.43242,1522530.5213454,42
1660203164.43242,1522530.5213501,37
1660203164.43242,1522530.5213554,35
1660203164.43242,1522530.5213598,28
1660203164.43242,1522530.5213648,23
1660203164.43242,1522530.5213685,30
1660203164.43242,1522530.5213734,42
1660203164.43242,1522530.5213768,42
1660203164.43242,1522530.5213819,42
1660203164.43242,1522530.5213854,35
1660203164.43242,1522530.5213903,9
1660203164.43242,1522530.5213943,-9
1660203164.43242,1522530.5213994,-2
1660203164.43242,1522530.5214028,4
1660203164.43242,1522530.5214063,7
1660203164.43242,1522530.521411,4
1660203164.43242,1522530.5214143,2
1660203164.43242,1522530.5214178,9
1660203164.43242,1522530.5214227,16
1660203164.43242,1522530.5214263,21
1660203164.43242,1522530.5214311,32
1660203164.43242,1522530.5214346,47
1660203164.43242,1522530.5214382,56
1660203164.44339,1522530.5214429,68
1660203164.44339,1522530.5214462,127
1660203164.44339,1522530.5214497,303
1660203164.44339,1522530.5214546,543
1660203164.44339,1522530.5214583,646
1660203164.44339,1522530.5214632,465
1660203164.44339,1522530.5214666,157
1660203164.44339,1522530.52147,58
1660203164.44339,1522530.5214751,119
1660203164.44339,1522530.5214787,96
1660203164.44339,1522530.5214839,44
1660203164.44339,1522530.5214876,61
1660203164.44339,1522530.521491,70
1660203164.44339,1522530.5214947,58
1660203164.44339,1522530.5214982,72
1660203164.44339,1522530.5215019,87
1660203164.44339,1522530.5215076,87
1660203164.44339,1522530.5215111,91
1660203164.44339,1522530.5215161,101
1660203164.44339,1522531.1556441,98
1660203164.44339,1522531.1557008,108
1660203164.44339,1522531.155713,122
1660203164.44339,1522531.1557245,127
1660203164.44339,1522531.1557333,129
1660203164.91986,1522531.1557957,129
1660203164.91986,1522531.1558028,119
1660203164.91986,1522531.1558086,127
1660203164.91986,1522531.1558137,138
1660203164.91986,1522531.1558186,134
1660203164.91986,1522531.155824,138
1660203164.91986,1522531.1558298,150
1660203164.91986,1522531.1558359,138
1660203164.91986,1522531.1558399,129
1660203164.91986,1522531.1558467,148
1660203164.91986,1522531.1558569,159
1660203164.91986,1522531.1558631,169
1660203164.91986,1522531.1558691,185
1660203164.91986,1522531.1558751,178
1660203164.91986,1522531.1558833,155
1660203164.91986,1522531.1558881,162
1660203164.91986,1522531.1558966,171
1660203164.91986,1522531.1559056,155
1660203164.91986,1522531.1559133,138
1660203164.91986,1522531.1559208,115
1660203164.91986,1522531.1559247,75
1660203164.91986,1522531.1559302,47
1660203164.91986,1522531.1559357,30
1660203164.91986,1522531.1559429,16
1660203164.91986,1522531.1559493,11
1660203164.91986,1522531.1559569,-2
1660203164.91986,1522531.1559618,-28
1660203164.91986,1522531.1559686,-28
1660203164.91986,1522531.1559748,-9
1660203164.91986,1522531.1559821,0
1660203164.91986,1522531.1559895,7
1660203164.91986,1522531.1559966,14
1660203164.91986,1522531.156003,7
1660203164.91986,1522531.1560123,-9
1660203164.91986,1522531.156019,-2
1660203164.91986,1522531.1560254,14
1660203164.91986,1522531.1560331,18
1660203164.91986,1522531.156044,23
1660203164.91986,1522531.156055,32
1660203164.91986,1522531.1560654,35
1660203164.91986,1522531.1560741,28
1660203164.91986,1522531.1560808,32
1660203164.91986,1522531.1560871,39
1660203164.91986,1522531.1560938,39
1660203164.91986,1522531.1560999,42
1660203164.91986,1522531.1561034,49
1660203164.91986,1522531.1561102,49
1660203164.91986,1522531.1561153,51
1660203164.91986,1522531.1561184,63
1660203164.91986,1522531.1561237,72
1660203164.93183,1522531.1561292,70
1660203164.93183,1522531.1561345,56
1660203164.93183,1522531.156138,49
1660203164.93183,1522531.1561431,56
1660203164.93183,1522531.1561462,61
1660203164.93183,1522531.1561496,63
1660203164.93183,1522531.1561546,63
1660203164.93183,1522531.1561603,51
1660203164.93183,1522531.1561839,39
1660203164.93183,1522531.1561925,44
1660203164.93183,1522531.1561985,49
1660203164.93183,1522531.1562023,54
1660203164.93183,1522531.1562111,75
1660203164.93183,1522531.1562157,96
1660203164.93183,1522531.1562206,98
1660203164.93183,1522531.1562262,91
1660203164.93183,1522531.15623,77
1660203164.93183,1522531.1562355,51
1660203164.93183,1522531.6449693,32
1660203164.93183,1522531.6449912,39
1660203164.93183,1522531.645001,44
1660203164.93183,1522531.6450098,37
1660203164.93183,1522531.6450174,44
1660203164.93183,1522531.6450254,58
1660203165.45369,1522531.6450317,58
1660203165.45369,1522531.6450382,58
1660203165.45369,1522531.6450433,49
1660203165.45369,1522531.6450497,30
1660203165.45369,1522531.6450564,37
1660203165.45369,1522531.6450632,68
1660203165.45369,1522531.6450693,89
1660203165.45369,1522531.6450727,171
1660203165.45369,1522531.6450758,395
1660203165.45369,1522531.6450788,609
1660203165.45369,1522531.6450817,569
1660203165.45369,1522531.6450847,275
1660203165.45369,1522531.6451033,23
1660203165.45369,1522531.6451183,28
1660203165.45369,1522531.645125,75
1660203165.45369,1522531.6451309,21
1660203165.45369,1522531.6451373,-11
1660203165.45369,1522531.6451431,0
1660203165.45369,1522531.645149,2
1660203165.45369,1522531.6451548,7
1660203165.45369,1522531.6451607,21
1660203165.45369,1522531.6451666,28
1660203165.45369,1522531.6451724,30
1660203165.45369,1522531.6451781,30
1660203165.45369,1522531.645184,39
1660203165.45369,1522531.6451898,51
1660203165.45369,1522531.6451962,51
1660203165.45369,1522531.6452018,51
1660203165.45369,1522531.6452074,65
1660203165.45369,1522531.6452132,75
1660203165.45369,1522531.6452188,82
1660203165.45369,1522531.6452246,91
1660203165.45369,1522531.6452302,91
1660203165.45369,1522531.6452362,96
1660203165.45369,1522531.6452401,105
1660203165.45369,1522531.6452447,115
1660203165.45369,1522531.6452476,124
1660203165.45369,1522531.6452505,136
1660203165.45369,1522531.6452534,145
1660203165.45369,1522531.6452563,157
1660203165.45369,1522531.6452591,166
1660203165.45369,1522531.645262,178
1660203165.45369,1522531.6452648,190
1660203165.45369,1522531.6452677,202
1660203165.45369,1522531.6452706,206
1660203165.45369,1522531.6452735,209
1660203165.45369,1522531.6452764,216
1660203165.45369,1522531.6452793,209
1660203165.45369,1522531.6452821,185
1660203165.45369,1522531.6452851,152
1660203165.46665,1522531.6452924,122
1660203165.46665,1522531.6452954,94
1660203165.46665,1522531.6452983,72
1660203165.46665,1522531.6453012,58
1660203165.46665,1522531.6453042,47
1660203165.46665,1522531.6453075,32
1660203165.46665,1522531.6453135,21
1660203165.46665,1522531.6453164,21
1660203165.46665,1522531.6453198,25
1660203165.46665,1522531.6453252,30
1660203165.46665,1522531.6453281,32
1660203165.46665,1522531.6453311,37
1660203165.46665,1522531.6453341,39
1660203165.46665,1522531.645337,47
1660203165.46665,1522531.6453402,51
1660203165.46665,1522531.6453431,49
1660203165.46665,1522531.6453461,44
1660203165.46665,1522532.1789382,54
1660203165.46665,1522532.1789519,65
1660203165.46665,1522532.1789571,70
1660203165.46665,1522532.1789624,72
1660203165.46665,1522532.1789649,70
1660203165.46665,1522532.1789673,58
1660203165.46665,1522532.1789698,58
1660203166.12974,1522532.1789723,68
1660203166.12974,1522532.1789746,72
1660203166.12974,1522532.1789768,70
1660203166.12974,1522532.1789791,70
1660203166.12974,1522532.1789813,56
1660203166.12974,1522532.1789836,21
1660203166.12974,1522532.1789858,4
1660203166.12974,1522532.178988,2
1660203166.12974,1522532.1789909,-14
1660203166.12974,1522532.1789948,-23
1660203166.12974,1522532.1789986,-23
1660203166.12974,1522532.1790007,-49
1660203166.12974,1522532.1790066,-75
1660203166.12974,1522532.179014,-70
1660203166.12974,1522532.1790185,-61
1660203166.12974,1522532.1790223,-51
1660203166.12974,1522532.1790277,-39
1660203166.12974,1522532.1790343,-28
1660203166.12974,1522532.1790416,-4
1660203166.12974,1522532.1790484,14
1660203166.12974,1522532.1790585,16
1660203166.12974,1522532.1790646,4
1660203166.12974,1522532.1790677,-11
1660203166.12974,1522532.17907,-21
1660203166.12974,1522532.1790731,-28
1660203166.12974,1522532.1790858,-28
1660203166.12974,1522532.179092,-9
1660203166.12974,1522532.1790944,2
1660203166.12974,1522532.1790965,9
1660203166.12974,1522532.1790986,14
1660203166.12974,1522532.1791064,11
1660203166.12974,1522532.179117,18
1660203166.12974,1522532.1791214,39
1660203166.12974,1522532.1791237,61
1660203166.12974,1522532.1791259,79
1660203166.12974,1522532.1791281,101
1660203166.12974,1522532.1791302,188
1660203166.12974,1522532.1791323,423
1660203166.12974,1522532.1791351,672
1660203166.12974,1522532.1791373,656
1660203166.12974,1522532.1791394,324
1660203166.12974,1522532.1791416,56
1660203166.12974,1522532.1791438,82
1660203166.12974,1522532.1791459,124
1660203166.12974,1522532.1791481,56
1660203166.12974,1522532.1791502,32
1660203166.12974,1522532.1791523,51
1660203166.12974,1522532.1791545,51
1660203166.12974,1522532.1791566,49
1660203166.12974,1522532.1791588,54
1660203166.14071,1522532.179161,58
1660203166.14071,1522532.1791637,70
1660203166.14071,1522532.1791671,79
1660203166.14071,1522532.1791693,87
1660203166.14071,1522532.1791715,96
1660203166.14071,1522532.1791736,103
1660203166.14071,1522532.1791758,98
1660203166.14071,1522532.1791779,108
1660203166.14071,1522532.1791802,124
1660203166.14071,1522532.1791823,124
1660203166.14071,1522532.1791845,124
1660203166.14071,1522532.1791866,136
1660203166.14071,1522532.1791888,134
1660203166.14071,1522532.179191,138
1660203166.14071,1522532.1791932,162
1660203166.14071,1522532.1791954,164
1660203166.14071,1522532.8614132,164
1660203166.14071,1522532.8614374,178
1660203166.14071,1522532.8614437,185
1660203166.14071,1522532.8614472,190
1660203166.14071,1522532.8614528,206
1660203166.14071,1522532.861456,225
1660203166.14071,1522532.8614611,230
1660203166.14071,1522532.8614655,230
1660203166.61927,1522532.8614707,214
1660203166.61927,1522532.8614738,178
1660203166.61927,1522532.8614771,148
1660203166.61927,1522532.8614804,119
1660203166.61927,1522532.8614836,82
1660203166.61927,1522532.861487,51
1660203166.61927,1522532.8614902,21
1660203166.61927,1522532.8614935,-23
1660203166.61927,1522532.8614967,-47
1660203166.61927,1522532.8614997,-42
1660203166.61927,1522532.8615029,-61
1660203166.61927,1522532.8615062,-82
1660203166.61927,1522532.8615095,-63
1660203166.61927,1522532.8615132,-42
1660203166.61927,1522532.8615165,-42
1660203166.61927,1522532.86152,-37
1660203166.61927,1522532.8615235,-28
1660203166.61927,1522532.8615267,-23
1660203166.61927,1522532.8615302,-11
1660203166.61927,1522532.861534,0
1660203166.61927,1522532.8615379,4
1660203166.61927,1522532.8615491,16
1660203166.61927,1522532.8615526,23
1660203166.61927,1522532.8615561,21
1660203166.61927,1522532.8615595,30
1660203166.61927,1522532.8615627,37
1660203166.61927,1522532.8615687,30
1660203166.61927,1522532.8615722,28
1660203166.61927,1522532.8615758,39
1660203166.61927,1522532.8615788,39
1660203166.61927,1522532.8615817,25
1660203166.61927,1522532.8615845,25
1660203166.61927,1522532.8615877,39
1660203166.61927,1522532.8615905,32
1660203166.61927,1522532.8615946,9
1660203166.61927,1522532.8616005,-7
1660203166.61927,1522532.8616045,-4
1660203166.61927,1522532.8616078,2
1660203166.61927,1522532.8616132,4
1660203166.61927,1522532.8616205,0
1660203166.61927,1522532.8616265,-2
1660203166.61927,1522532.8616304,9
1660203166.61927,1522532.8616336,28
1660203166.61927,1522532.8616366,39
1660203166.61927,1522532.8616411,54
1660203166.61927,1522532.8616476,75
1660203166.61927,1522532.8616546,87
1660203166.61927,1522532.8616616,87
1660203166.61927,1522532.8616684,75
1660203166.61927,1522532.8616745,56
1660203166.63123,1522532.8616807,47
1660203166.63123,1522532.8616872,44
1660203166.63123,1522532.8616944,42
1660203166.63123,1522532.861701,51
1660203166.63123,1522532.8617077,61
1660203166.63123,1522532.8617142,63
1660203166.63123,1522532.8617207,70
1660203166.63123,1522532.8617275,79
1660203166.63123,1522532.861734,82
1660203166.63123,1522532.8617432,89
1660203166.63123,1522532.8617516,103
1660203166.63123,1522532.8617594,124
1660203166.63123,1522532.861766,145
1660203166.63123,1522532.8617746,230
1660203166.63123,1522532.8617829,442
1660203166.63123,1522533.3488801,653
1660203166.63123,1522533.3488973,625
1660203166.63123,1522533.3489025,312
1660203166.63123,1522533.3489071,58
1660203166.63123,1522533.3489112,79
1660203166.63123,1522533.3489151,98
1660203166.63123,1522533.3489191,9
1660203166.63123,1522533.348923,4
1660203166.63123,1522533.3489268,39
1660203167.16376,1522533.3489306,28
1660203167.16376,1522533.3489343,25
1660203167.16376,1522533.3489381,39
1660203167.16376,1522533.3489418,37
1660203167.16376,1522533.3489455,44
1660203167.16376,1522533.3489494,63
1660203167.16376,1522533.3489531,70
1660203167.16376,1522533.3489569,70
1660203167.16376,1522533.3489607,77
1660203167.16376,1522533.3489644,75
1660203167.16376,1522533.3489683,77
1660203167.16376,1522533.3489721,91
1660203167.16376,1522533.3489758,98
1660203167.16376,1522533.3489795,103
1660203167.16376,1522533.3489832,119
1660203167.16376,1522533.3489869,110
1660203167.16376,1522533.3489905,91
1660203167.16376,1522533.3489946,98
1660203167.16376,1522533.3489984,122
1660203167.16376,1522533.349002,134
1660203167.16376,1522533.3490057,143
1660203167.16376,1522533.3490094,155
1660203167.16376,1522533.3490131,166
1660203167.16376,1522533.3490168,176
1660203167.16376,1522533.3490207,181
1660203167.16376,1522533.3490245,181
1660203167.16376,1522533.3490286,183
1660203167.16376,1522533.349034,197
1660203167.16376,1522533.3490377,195
1660203167.16376,1522533.3490413,178
1660203167.16376,1522533.3490451,157
1660203167.16376,1522533.3490489,127
1660203167.16376,1522533.3490525,89
1660203167.16376,1522533.3490562,61
1660203167.16376,1522533.3490598,42
1660203167.16376,1522533.3490634,25
1660203167.16376,1522533.3490671,11
1660203167.16376,1522533.3490709,9
1660203167.16376,1522533.3490746,16
1660203167.16376,1522533.3490785,21
1660203167.16376,1522533.3490839,14
1660203167.16376,1522533.349088,11
1660203167.16376,1522533.3490917,30
1660203167.16376,1522533.3490955,37
1660203167.16376,1522533.3491008,32
1660203167.16376,1522533.3491046,37
1660203167.16376,1522533.3491098,44
1660203167.16376,1522533.3491135,47
1660203167.16376,1522533.3491173,56
1660203167.16376,1522533.3491211,54
1660203167.17571,1522533.3491249,51
1660203167.17571,1522533.3491287,65
1660203167.17571,1522533.3491324,72
1660203167.17571,1522533.3491361,68
1660203167.17571,1522533.34914,63
1660203167.17571,1522533.349145,72
1660203167.17571,1522533.3491488,68
1660203167.17571,1522533.3491546,44
1660203167.17571,1522533.3491592,32
1660203167.17571,1522533.3491648,30
1660203167.17571,1522533.3491688,21
1660203167.17571,1522533.3491743,14
1660203167.17571,1522533.3491782,18
1660203167.17571,1522533.3491834,25
1660203167.17571,1522533.8859939,23
1660203167.17571,1522533.8860098,21
1660203167.17571,1522533.8860154,21
1660203167.17571,1522533.886023,28
1660203167.17571,1522533.8860278,30
1660203167.17571,1522533.8860338,30
1660203167.17571,1522533.8860387,35
1660203167.17571,1522533.8860448,47
1660203167.17571,1522533.8860494,44
1660203167.17571,1522533.8860554,35
1660203167.68892,1522533.8860601,42
1660203167.68892,1522533.8860647,56
1660203167.68892,1522533.8860694,56
1660203167.68892,1522533.886074,35
1660203167.68892,1522533.8860786,14
1660203167.68892,1522533.8860831,4
1660203167.68892,1522533.8860875,4
1660203167.68892,1522533.8860918,9
1660203167.68892,1522533.8860962,11
1660203167.68892,1522533.8861005,16
1660203167.68892,1522533.8861049,21
1660203167.68892,1522533.8861093,7
1660203167.68892,1522533.8861137,-11
1660203167.68892,1522533.8861181,2
1660203167.68892,1522533.8861225,28
1660203167.68892,1522533.8861275,30
1660203167.68892,1522533.8861319,21
1660203167.68892,1522533.8861379,63
1660203167.68892,1522533.8861424,225
1660203167.68892,1522533.8861468,484
1660203167.68892,1522533.8861514,632
1660203167.68892,1522533.8861571,465
1660203167.68892,1522533.8861617,131
1660203167.68892,1522533.8861674,9
1660203167.68892,1522533.8861719,75
1660203167.68892,1522533.8861764,61
1660203167.68892,1522533.8861823,16
1660203167.68892,1522533.8861874,35
1660203167.68892,1522533.8861931,44
1660203167.68892,1522533.8861975,37
1660203167.68892,1522533.886202,37
1660203167.68892,1522533.8862081,39
1660203167.68892,1522533.8862126,49
1660203167.68892,1522533.8862183,68
1660203167.68892,1522533.8862227,79
1660203167.68892,1522533.8862271,82
1660203167.68892,1522533.8862316,77
1660203167.68892,1522533.8862373,82
1660203167.68892,1522533.8862418,94
1660203167.68892,1522533.8862475,103
1660203167.68892,1522533.8862519,115
1660203167.68892,1522533.8862564,122
1660203167.68892,1522533.8862621,122
1660203167.68892,1522533.8862665,124
1660203167.68892,1522533.8862722,134
1660203167.68892,1522533.8862767,143
1660203167.68892,1522533.886281,150
1660203167.68892,1522533.886287,148
1660203167.68892,1522533.8862914,136
1660203167.68892,1522533.8862973,127
1660203167.70089,1522533.8863018,134
1660203167.70089,1522533.8863062,148
1660203167.70089,1522533.8863106,159
1660203167.70089,1522533.8863163,176
1660203167.70089,1522533.8863208,188
1660203167.70089,1522533.8863265,195
1660203167.70089,1522533.8863319,197
1660203167.70089,1522533.8863363,199
1660203167.70089,1522533.8863421,188
1660203167.70089,1522533.8863465,150
1660203167.70089,1522533.8863521,110
1660203167.70089,1522533.8863565,79
1660203167.70089,1522533.886361,47
1660203167.70089,1522534.4219171,18
1660203167.70089,1522534.4219356,16
1660203167.70089,1522534.421946,14
1660203167.70089,1522534.4219512,4
1660203167.70089,1522534.4219575,4
1660203167.70089,1522534.4219641,11
1660203167.70089,1522534.4219728,11
1660203167.70089,1522534.4219785,11
1660203167.70089,1522534.4219861,21
1660203167.70089,1522534.4219926,30
1660203167.70089,1522534.422001,32
1660203168.43151,1522534.422008,21
1660203168.43151,1522534.4220148,0
1660203168.43151,1522534.4220211,-2
1660203168.43151,1522534.4220279,16
1660203168.43151,1522534.4220361,21
1660203168.43151,1522534.4220458,9
1660203168.43151,1522534.4220531,-4
1660203168.43151,1522534.4220641,-23
1660203168.43151,1522534.4220707,-35
1660203168.43151,1522534.4220838,-21
1660203168.43151,1522534.4220922,-16
1660203168.43151,1522534.4220948,-28
1660203168.43151,1522534.422097,-35
1660203168.43151,1522534.4220992,-39
1660203168.43151,1522534.4221013,-42
1660203168.43151,1522534.4221034,-37
1660203168.43151,1522534.4221055,-32
1660203168.43151,1522534.4221077,-28
1660203168.43151,1522534.4221098,-23
1660203168.43151,1522534.4221119,-25
1660203168.43151,1522534.4221141,-23
1660203168.43151,1522534.4221163,-16
1660203168.43151,1522534.4221185,-11
1660203168.43151,1522534.4221206,0
1660203168.43151,1522534.4221228,14
1660203168.43151,1522534.4221249,21
1660203168.43151,1522534.4221272,28
1660203168.43151,1522534.4221293,49
1660203168.43151,1522534.4221315,68
1660203168.43151,1522534.4221335,70
1660203168.43151,1522534.4221356,56
1660203168.43151,1522534.4221377,32
1660203168.43151,1522534.4221398,21
1660203168.43151,1522534.4221419,28
1660203168.43151,1522534.422144,23
1660203168.43151,1522534.4221461,23
1660203168.43151,1522534.4221482,39
1660203168.43151,1522534.4221504,42
1660203168.43151,1522534.4221525,30
1660203168.43151,1522534.4221546,23
1660203168.43151,1522534.4221567,21
1660203168.43151,1522534.4221588,16
1660203168.43151,1522534.4221609,28
1660203168.43151,1522534.422163,49
1660203168.43151,1522534.4221651,65
1660203168.43151,1522534.4221672,115
1660203168.43151,1522534.4221694,308
1660203168.43151,1522534.4221715,587
1660203168.43151,1522534.4221736,691
1660203168.43151,1522534.4221758,460
1660203168.44148,1522534.4221779,131
1660203168.44148,1522534.42218,44
1660203168.44148,1522534.4221822,103
1660203168.44148,1522534.4221843,68
1660203168.44148,1522534.4221864,30
1660203168.44148,1522534.4221885,58
1660203168.44148,1522534.4221906,68
1660203168.44148,1522534.4221927,56
1660203168.44148,1522534.4221947,63
1660203168.44148,1522534.4221968,75
1660203168.44148,1522534.422199,75
1660203168.44148,1522534.4222011,82
1660203168.44148,1522535.1531013,98
1660203168.44148,1522535.1531227,108
1660203168.44148,1522535.1531375,96
1660203168.44148,1522535.1531517,98
1660203168.44148,1522535.1531669,122
1660203168.44148,1522535.153207,129
1660203168.44148,1522535.1532155,127
1660203168.44148,1522535.1532194,129
1660203168.44148,1522535.1532237,110
1660203168.44148,1522535.153228,79
1660203168.44148,1522535.1532338,87
1660203168.44148,1522535.1532404,110
1660203168.91282,1522535.1532451,119
1660203168.91282,1522535.1532506,124
1660203168.91282,1522535.1532566,127
1660203168.91282,1522535.153261,115
1660203168.91282,1522535.1532647,119
1660203168.91282,1522535.1532706,152
1660203168.91282,1522535.1532748,166
1660203168.91282,1522535.1532783,159
1660203168.91282,1522535.1532818,169
1660203168.91282,1522535.1532853,183
1660203168.91282,1522535.153289,185
1660203168.91282,1522535.1532923,188
1660203168.91282,1522535.1532969,169
1660203168.91282,1522535.153301,124
1660203168.91282,1522535.153305,87
1660203168.91282,1522535.1533087,61
1660203168.91282,1522535.1533123,37
1660203168.91282,1522535.1533169,21
1660203168.91282,1522535.1533213,14
1660203168.91282,1522535.1533259,4
1660203168.91282,1522535.1533294,-7
1660203168.91282,1522535.1533329,-4
1660203168.91282,1522535.1533363,4
1660203168.91282,1522535.1533412,11
1660203168.91282,1522535.153345,25
1660203168.91282,1522535.1533487,32
1660203168.91282,1522535.153352,25
1660203168.91282,1522535.1533549,23
1660203168.91282,1522535.1533579,21
1660203168.91282,1522535.1533609,16
1660203168.91282,1522535.1533638,23
1660203168.91282,1522535.1533668,32
1660203168.91282,1522535.1533699,18
1660203168.91282,1522535.1533729,2
1660203168.91282,1522535.1533762,9
1660203168.91282,1522535.1533795,21
1660203168.91282,1522535.1533828,18
1660203168.91282,1522535.1533858,21
1660203168.91282,1522535.1533889,28
1660203168.91282,1522535.1533922,23
1660203168.91282,1522535.1533952,14
1660203168.91282,1522535.1533983,11
1660203168.91282,1522535.153402,9
1660203168.91282,1522535.1534054,7
1660203168.91282,1522535.153409,4
1660203168.91282,1522535.1534128,9
1660203168.91282,1522535.1534159,14
1660203168.91282,1522535.1534193,14
1660203168.91282,1522535.1534228,18
1660203168.91282,1522535.1534261,23
1660203168.92279,1522535.1534499,18
1660203168.92279,1522535.1534528,25
1660203168.92279,1522535.1534555,39
1660203168.92279,1522535.1534582,49
1660203168.92279,1522535.1534607,70
1660203168.92279,1522535.1534634,91
1660203168.92279,1522535.153466,96
1660203168.92279,1522535.1534686,87
1660203168.92279,1522535.1534713,56
1660203168.92279,1522535.1534739,30
1660203168.92279,1522535.1534767,30
1660203168.92279,1522535.6416135,37
1660203168.92279,1522535.641629,35
1660203168.92279,1522535.6416336,37
1660203168.92279,1522535.6416373,49
1660203168.92279,1522535.6416408,54
1660203168.92279,1522535.6416438,56
1660203168.92279,1522535.6416482,63
1660203168.92279,1522535.6416527,70
1660203168.92279,1522535.6416568,77
1660203168.92279,1522535.6416602,87
1660203168.92279,1522535.6416642,110
1660203168.92279,1522535.6416695,159
1660203168.92279,1522535.6416739,322
1660203169.35586,1522535.6416787,566
1660203169.35586,1522535.6416823,682
1660203169.35586,1522535.6416857,486
1660203169.35586,1522535.641689,159
1660203169.35586,1522535.641693,65
1660203169.35586,1522535.641697,108
1660203169.35586,1522535.6417004,51
1660203169.35586,1522535.6417044,16
1660203169.35586,1522535.6417079,49
1660203169.35586,1522535.6417115,51
1660203169.35586,1522535.6417148,37
1660203169.35586,1522535.6417186,35
1660203169.35586,1522535.6417232,28
1660203169.35586,1522535.6417294,28
1660203169.35586,1522535.641735,39
1660203169.35586,1522535.6417407,49
1660203169.35586,1522535.6417459,63
1660203169.35586,1522535.6417519,70
1660203169.35586,1522535.641757,61
1660203169.35586,1522535.6417614,63
1660203169.35586,1522535.6417647,79
1660203169.35586,1522535.6417677,91
1660203169.35586,1522535.6417718,101
1660203169.35586,1522535.641775,98
1660203169.35586,1522535.6417782,82
1660203169.35586,1522535.6417819,79
1660203169.35586,1522535.6417863,98
1660203169.35586,1522535.6417901,115
1660203169.35586,1522535.6417933,129
1660203169.35586,1522535.6417965,143
1660203169.35586,1522535.6417997,148
1660203169.35586,1522535.6418032,152
1660203169.35586,1522535.6418068,169
1660203169.35586,1522535.6418102,188
1660203169.35586,1522535.6418139,197
1660203169.35586,1522535.64182,209
1660203169.35586,1522535.6418261,216
1660203169.35586,1522535.6418298,214

1660203169.35586,1522535.6418356,209
1660203169.35586,1522535.6418409,190
1660203169.35586,1522535.6418456,152
1660203169.35586,1522535.6418496,110
1660203169.35586,1522535.6418556,82
1660203169.35586,1522535.6418601,61
1660203169.35586,1522535.6418655,44
1660203169.35586,1522535.6418711,42
1660203169.35586,1522535.6418774,42
1660203169.35586,1522535.6418832,30
1660203169.35586,1522535.6418897,21
1660203169.35586,1522535.6418938,18
1660203169.36683,1522535.6418977,18
1660203169.36683,1522535.6419029,18
1660203169.36683,1522535.641909,30
1660203169.36683,1522535.6419123,39
1660203169.36683,1522535.6419172,37
1660203169.36683,1522535.6419214,37
1660203169.36683,1522535.6419266,44
1660203169.36683,1522535.6419304,51
1660203169.36683,1522535.6419358,58
1660203169.36683,1522535.6419392,63
1660203169.36683,1522536.0795234,63
1660203169.36683,1522536.0795482,58
1660203169.36683,1522536.0795595,56
1660203169.36683,1522536.0795639,61
1660203169.36683,1522536.0795746,68
1660203169.36683,1522536.0795804,72
1660203169.36683,1522536.0795886,70
1660203169.36683,1522536.0795977,68
1660203169.36683,1522536.0796031,49
1660203169.36683,1522536.0796109,21
1660203169.36683,1522536.0796174,16
1660203169.36683,1522536.0796236,21
1660203169.36683,1522536.0796278,18
1660203169.36683,1522536.0796333,18
1660203170.03553,1522536.0796376,2
1660203170.03553,1522536.0796459,-23
1660203170.03553,1522536.0796501,-25
1660203170.03553,1522536.0796543,-14
1660203170.03553,1522536.0796582,-11
1660203170.03553,1522536.0796621,-4
1660203170.03553,1522536.0796664,9
1660203170.03553,1522536.0796704,16
1660203170.03553,1522536.079675,25
1660203170.03553,1522536.0796795,47
1660203170.03553,1522536.079684,56
1660203170.03553,1522536.0796886,51
1660203170.03553,1522536.0796946,35
1660203170.03553,1522536.0796994,16
1660203170.03553,1522536.0797054,2
1660203170.03553,1522536.0797106,-9
1660203170.03553,1522536.0797177,-21
1660203170.03553,1522536.0797237,-11
1660203170.03553,1522536.0797344,2
1660203170.03553,1522536.0797403,4
1660203170.03553,1522536.0797427,4
1660203170.03553,1522536.079745,16
1660203170.03553,1522536.0797471,25
1660203170.03553,1522536.0797492,42
1660203170.03553,1522536.0797513,58
1660203170.03553,1522536.0797534,68
1660203170.03553,1522536.0797555,96
1660203170.03553,1522536.0797576,251
1660203170.03553,1522536.0797597,517
1660203170.03553,1522536.0797618,660
1660203170.03553,1522536.0797639,510
1660203170.03553,1522536.079766,199
1660203170.03553,1522536.0797681,58
1660203170.03553,1522536.0797701,96
1660203170.03553,1522536.0797722,87
1660203170.03553,1522536.0797743,44
1660203170.03553,1522536.0797764,58
1660203170.03553,1522536.0797785,75
1660203170.03553,1522536.0797806,68
1660203170.03553,1522536.0797828,68
1660203170.03553,1522536.0797849,68
1660203170.03553,1522536.079787,68
1660203170.03553,1522536.0797891,77
1660203170.03553,1522536.0797911,89
1660203170.03553,1522536.0797932,94
1660203170.03553,1522536.0797953,96
1660203170.03553,1522536.0797974,91
1660203170.03553,1522536.0797995,98
1660203170.03553,1522536.0798015,115
1660203170.03553,1522536.0798036,119
1660203170.05049,1522536.0798057,124
1660203170.05049,1522536.0798078,131
1660203170.05049,1522536.0798099,134
1660203170.05049,1522536.079812,134
1660203170.05049,1522536.0798142,145
1660203170.05049,1522536.0798163,157
1660203170.05049,1522536.0798184,166
1660203170.05049,1522536.0798204,176
1660203170.05049,1522536.0798226,181
1660203170.05049,1522536.7647971,185
1660203170.05049,1522536.7648134,199
1660203170.05049,1522536.7648185,216
1660203170.05049,1522536.7648247,230
1660203170.05049,1522536.7648292,235
1660203170.05049,1522536.7648352,214
1660203170.05049,1522536.7648396,192
1660203170.05049,1522536.7649951,197
1660203170.05049,1522536.7650679,190
1660203170.05049,1522536.7650817,148
1660203170.05049,1522536.7650891,103
1660203170.05049,1522536.7650949,58
1660203170.05049,1522536.765099,9
1660203170.05049,1522536.765105,-18
1660203170.05049,1522536.7651125,-21
1660203170.47326,1522536.7651195,-32
1660203170.47326,1522536.7651243,-49
1660203170.47326,1522536.7651299,-49
1660203170.47326,1522536.7651346,-42
1660203170.47326,1522536.7651392,-35
1660203170.47326,1522536.765144,-25
1660203170.47326,1522536.7651491,-21
1660203170.47326,1522536.7651531,-28
1660203170.47326,1522536.7651571,-42
1660203170.47326,1522536.7651624,-39
1660203170.47326,1522536.7651694,-25
1660203170.47326,1522536.7652122,-16
1660203170.47326,1522536.7652186,-11
1660203170.47326,1522536.7652232,-2
1660203170.47326,1522536.7652276,7
1660203170.47326,1522536.7652322,11
1660203170.47326,1522536.7652367,14
1660203170.47326,1522536.7653237,16
1660203170.47326,1522536.7653319,16
1660203170.47326,1522536.7653386,23
1660203170.47326,1522536.7653452,32
1660203170.47326,1522536.7653535,30
1660203170.47326,1522536.7653598,23
1660203170.47326,1522536.7653666,18
1660203170.47326,1522536.7653734,11
1660203170.47326,1522536.7653796,7
1660203170.47326,1522536.7653862,9
1660203170.47326,1522536.7653928,14
1660203170.47326,1522536.7654016,18
1660203170.47326,1522536.765408,14
1660203170.47326,1522536.7654162,4
1660203170.47326,1522536.765425,4
1660203170.47326,1522536.7654318,11
1660203170.47326,1522536.7654403,23
1660203170.47326,1522536.765449,25
1660203170.47326,1522536.7654572,35
1660203170.47326,1522536.7654661,68
1660203170.47326,1522536.7654748,91
1660203170.47326,1522536.7654815,82
1660203170.47326,1522536.7654883,63
1660203170.47326,1522536.7654967,42
1660203170.47326,1522536.765505,35
1660203170.47326,1522536.7655134,39
1660203170.47326,1522536.765522,39
1660203170.47326,1522536.7655306,39
1660203170.47326,1522536.7655397,51
1660203170.47326,1522536.7655482,61
1660203170.47326,1522536.7655551,54
1660203170.47326,1522536.7655634,47
1660203170.47326,1522536.7655717,63
1660203170.48423,1522536.7655785,79
1660203170.48423,1522536.765596,89
1660203170.48423,1522536.7656047,108
1660203170.48423,1522536.7656113,124
1660203170.48423,1522536.76562,195
1660203170.48423,1522536.7656291,430
1660203170.48423,1522536.7656371,705
1660203170.48423,1522536.7656439,712
1660203170.48423,1522537.1999186,385
1660203170.48423,1522537.19994,94
1660203170.48423,1522537.1999549,101
1660203170.48423,1522537.199969,148
1660203170.48423,1522537.1999826,72
1660203170.48423,1522537.1999956,39
1660203170.48423,1522537.2000088,72
1660203170.48423,1522537.2000218,70
1660203170.48423,1522537.2000347,44
1660203170.48423,1522537.2000444,37
1660203170.48423,1522537.2000469,47
1660203170.48423,1522537.2000492,54
1660203170.48423,1522537.2000513,58
1660203170.48423,1522537.2000535,68
1660203170.48423,1522537.2000556,63
1660203170.48423,1522537.2000578,47
1660203171.06188,1522537.2000599,56
1660203171.06188,1522537.200062,77
1660203171.06188,1522537.200064,82
1660203171.06188,1522537.200066,91
1660203171.06188,1522537.2000679,101
1660203171.06188,1522537.2000699,103
1660203171.06188,1522537.2000718,103
1660203171.06188,1522537.2000738,119
1660203171.06188,1522537.2000757,136
1660203171.06188,1522537.2000776,145
1660203171.06188,1522537.2000796,162
1660203171.06188,1522537.2000815,157
1660203171.06188,1522537.2000835,129
1660203171.06188,1522537.2000854,129
1660203171.06188,1522537.2000873,164
1660203171.06188,1522537.2000892,183
1660203171.06188,1522537.2000913,185
1660203171.06188,1522537.2000934,190
1660203171.06188,1522537.2001003,202
1660203171.06188,1522537.2001108,199
1660203171.06188,1522537.2001155,176
1660203171.06188,1522537.2001278,145
1660203171.06188,1522537.2001355,119
1660203171.06188,1522537.2001411,79
1660203171.06188,1522537.2001518,39
1660203171.06188,1522537.2001565,23
1660203171.06188,1522537.2001586,25
1660203171.06188,1522537.2001612,21
1660203171.06188,1522537.2001633,11
1660203171.06188,1522537.2001655,2
1660203171.06188,1522537.2001678,0
1660203171.06188,1522537.20017,4
1660203171.06188,1522537.2001721,14
1660203171.06188,1522537.2001743,18
1660203171.06188,1522537.2001764,23
1660203171.06188,1522537.2001786,28
1660203171.06188,1522537.2001809,28
1660203171.06188,1522537.200183,28
1660203171.06188,1522537.2001852,37
1660203171.06188,1522537.2001873,44
1660203171.06188,1522537.2001895,51
1660203171.06188,1522537.2001916,58
1660203171.06188,1522537.2001937,61
1660203171.06188,1522537.2001959,51
1660203171.06188,1522537.2001982,49
1660203171.06188,1522537.2002003,61
1660203171.06188,1522537.2002025,68
1660203171.06188,1522537.2002046,65
1660203171.06188,1522537.2002068,65
1660203171.06188,1522537.2002089,61
1660203171.07299,1522537.2002111,49
1660203171.07299,1522537.2002133,39
1660203171.07299,1522537.2002154,35
1660203171.07299,1522537.2002176,25
1660203171.07299,1522537.2002198,16
1660203171.07299,1522537.2002219,18
1660203171.07299,1522537.2002241,21
1660203171.07299,1522537.7851847,21
1660203171.07299,1522537.7852053,23
1660203171.07299,1522537.785221,28
1660203171.07299,1522537.785234,32
1660203171.07299,1522537.7852479,37
1660203171.07299,1522537.7852617,39
1660203171.07299,1522537.7852746,39
1660203171.07299,1522537.7852877,32
1660203171.07299,1522537.7853006,9
1660203171.07299,1522537.7853139,-18
1660203171.07299,1522537.7853271,-28
1660203171.07299,1522537.7853414,-47
1660203171.07299,1522537.7853546,-72
1660203171.07299,1522537.7853677,-63
1660203171.07299,1522537.7853818,-39
1660203171.07299,1522537.7853951,-39
1660203171.07299,1522537.7854083,-37
1660203171.64306,1522537.7854214,-25
1660203171.64306,1522537.7854289,-23
1660203171.64306,1522537.7854379,-14
1660203171.64306,1522537.7854468,7
1660203171.64306,1522537.7854596,30
1660203171.64306,1522537.7854725,47
1660203171.64306,1522537.7854869,91
1660203171.64306,1522537.7855,261
1660203171.64306,1522537.7855132,515
1660203171.64306,1522537.7855265,618
1660203171.64306,1522537.7855381,399
1660203171.64306,1522537.7855431,70
1660203171.64306,1522537.7855504,7
1660203171.64306,1522537.7855574,79
1660203171.64306,1522537.7855631,44
1660203171.64306,1522537.7855668,7
1660203171.64306,1522537.7855703,32
1660203171.64306,1522537.7855739,37
1660203171.64306,1522537.7855774,35
1660203171.64306,1522537.7855808,51
1660203171.64306,1522537.7855844,63
1660203171.64306,1522537.7855885,58
1660203171.64306,1522537.7855919,61
1660203171.64306,1522537.7855954,72
1660203171.64306,1522537.785604,87
1660203171.64306,1522537.7856102,94
1660203171.64306,1522537.7856173,101
1660203171.64306,1522537.7856235,105
1660203171.64306,1522537.7856292,103
1660203171.64306,1522537.7856344,110
1660203171.64306,1522537.7856386,127
1660203171.64306,1522537.7856429,136
1660203171.64306,1522537.7856469,136
1660203171.64306,1522537.7856521,141
1660203171.64306,1522537.7856565,145
1660203171.64306,1522537.785661,159
1660203171.64306,1522537.7856656,174
1660203171.64306,1522537.7856701,181
1660203171.64306,1522537.7856747,192
1660203171.64306,1522537.7856808,202
1660203171.64306,1522537.7856864,211
1660203171.64306,1522537.7856957,223
1660203171.64306,1522537.7857026,228
1660203171.64306,1522537.785707,228
1660203171.64306,1522537.785711,237
1660203171.64306,1522537.7857148,237
1660203171.64306,1522537.7857186,211
1660203171.64306,1522537.7857222,192
1660203171.64306,1522537.7857257,166
1660203171.64306,1522537.7857293,129
1660203171.65403,1522537.785733,96
1660203171.65403,1522537.7857365,75
1660203171.65403,1522537.7857401,56
1660203171.65403,1522537.7857437,49
1660203171.65403,1522537.7857471,54
1660203171.65403,1522537.7857504,44
1660203171.65403,1522538.370078,21
1660203171.65403,1522538.3700987,9
1660203171.65403,1522538.3701056,18
1660203171.65403,1522538.3701092,23
1660203171.65403,1522538.3701125,21
1660203171.65403,1522538.3701172,28
1660203171.65403,1522538.3701219,42
1660203171.65403,1522538.3701252,39
1660203171.65403,1522538.3701351,14
1660203171.65403,1522538.3701411,-4
1660203171.65403,1522538.3701447,7
1660203171.65403,1522538.3701481,21
1660203171.65403,1522538.3701532,25
1660203171.65403,1522538.3701598,28
1660203171.65403,1522538.3701665,14
1660203171.65403,1522538.3701722,-11
1660203171.65403,1522538.3701782,-9
1660203171.65403,1522538.3701866,7
1660203172.18388,1522538.3701945,0
1660203172.18388,1522538.3702012,-11
1660203172.18388,1522538.3702079,-7
1660203172.18388,1522538.3702144,-9
1660203172.18388,1522538.370221,-21
1660203172.18388,1522538.370227,-18
1660203172.18388,1522538.3702338,-14
1660203172.18388,1522538.3702394,-21
1660203172.18388,1522538.3702447,-18
1660203172.18388,1522538.3702485,-9
1660203172.18388,1522538.3702519,-9
1660203172.18388,1522538.370257,-4
1660203172.18388,1522538.3702637,4
1660203172.18388,1522538.3702712,7
1660203172.18388,1522538.3702775,25
1660203172.18388,1522538.3702814,56
1660203172.18388,1522538.3702877,70
1660203172.18388,1522538.3702909,65
1660203172.18388,1522538.370294,58
1660203172.18388,1522538.370297,39
1660203172.18388,1522538.3703027,25
1660203172.18388,1522538.3703058,25
1660203172.18388,1522538.3703089,23
1660203172.18388,1522538.370316,25
1660203172.18388,1522538.3703227,39
1660203172.18388,1522538.3703331,44
1660203172.18388,1522538.37034,49
1660203172.18388,1522538.3703432,58
1660203172.18388,1522538.3703506,56
1660203172.18388,1522538.3703545,63
1660203172.18388,1522538.3703577,84
1660203172.18388,1522538.3703606,94
1660203172.18388,1522538.3703639,94
1660203172.18388,1522538.3703698,183
1660203172.18388,1522538.370373,423
1660203172.18388,1522538.3703759,646
1660203172.18388,1522538.3703788,609
1660203172.18388,1522538.3703816,310
1660203172.18388,1522538.3703845,72
1660203172.18388,1522538.3703873,87
1660203172.18388,1522538.3703901,127
1660203172.18388,1522538.370393,68
1660203172.18388,1522538.3703959,49
1660203172.18388,1522538.3703987,77
1660203172.18388,1522538.3704017,75
1660203172.18388,1522538.3704045,70
1660203172.18388,1522538.3704075,87
1660203172.18388,1522538.3704104,91
1660203172.18388,1522538.3704132,77
1660203172.18388,1522538.3704161,68
1660203172.19485,1522538.3704189,79
1660203172.19485,1522538.3704218,91
1660203172.19485,1522538.3704247,96
1660203172.19485,1522538.3704275,108
1660203172.19485,1522538.3704303,112
1660203172.19485,1522538.9077039,110
1660203172.19485,1522538.9077236,112
1660203172.19485,1522538.9077329,124
1660203172.19485,1522538.907739,136
1660203172.19485,1522538.9077462,145
1660203172.19485,1522538.9077517,150
1660203172.19485,1522538.9077586,152
1660203172.19485,1522538.9077639,157
1660203172.19485,1522538.9077708,166
1660203172.19485,1522538.9077762,174
1660203172.19485,1522538.9077836,171
1660203172.19485,1522538.9077894,166
1660203172.19485,1522538.9077966,157
1660203172.19485,1522538.9078386,159
1660203172.19485,1522538.9078463,176
1660203172.19485,1522538.9078885,190
1660203172.19485,1522538.9078993,195
1660203172.19485,1522538.907907,190
1660203172.19485,1522538.9079128,152
1660203172.72156,1522538.9079186,103
1660203172.72156,1522538.9079224,77
1660203172.72156,1522538.9079256,56
1660203172.72156,1522538.9079288,30
1660203172.72156,1522538.9079321,14
1660203172.72156,1522538.9079353,0
1660203172.72156,1522538.9079387,-11
1660203172.72156,1522538.9079421,-7
1660203172.72156,1522538.9079453,2
1660203172.72156,1522538.9079484,0
1660203172.72156,1522538.9079515,0
1660203172.72156,1522538.9079558,4
1660203172.72156,1522538.9079593,2
1660203172.72156,1522538.9079649,7
1660203172.72156,1522538.9079681,16
1660203172.72156,1522538.9079715,25
1660203172.72156,1522538.9079751,30
1660203172.72156,1522538.9079787,30
1660203172.72156,1522538.9079841,30
1660203172.72156,1522538.9079879,37
1660203172.72156,1522538.9079928,49
1660203172.72156,1522538.9079983,54
1660203172.72156,1522538.9080021,47
1660203172.72156,1522538.9080057,37
1660203172.72156,1522538.9080431,42
1660203172.72156,1522538.9080518,42
1660203172.72156,1522538.9080557,39
1660203172.72156,1522538.9080612,44
1660203172.72156,1522538.9080658,49
1660203172.72156,1522538.9080709,47
1660203172.72156,1522538.9080741,49
1660203172.72156,1522538.9080777,42
1660203172.72156,1522538.9080841,32
1660203172.72156,1522538.908089,35
1660203172.72156,1522538.9080943,39
1660203172.72156,1522538.9080978,35
1660203172.72156,1522538.9081013,30
1660203172.72156,1522538.9081049,28
1660203172.72156,1522538.9081085,32
1660203172.72156,1522538.908114,42
1660203172.72156,1522538.9081176,49
1660203172.72156,1522538.9081217,58
1660203172.72156,1522538.9081267,61
1660203172.72156,1522538.9081304,54
1660203172.72156,1522538.9081356,35
1660203172.72156,1522538.90814,16
1660203172.72156,1522538.9081456,11
1660203172.72156,1522538.9081492,14
1660203172.72156,1522538.9081549,11
1660203172.72156,1522538.9081594,14
1660203172.73253,1522538.9081648,21
1660203172.73253,1522538.9081692,30
1660203172.73253,1522538.9081745,42
1660203172.73253,1522538.9081777,44
1660203172.73253,1522539.4433473,37
1660203172.73253,1522539.4433603,35
1660203172.73253,1522539.4433642,49
1660203172.73253,1522539.4433682,61
1660203172.73253,1522539.4433712,98
1660203172.73253,1522539.4433741,265
1660203172.73253,1522539.4433772,543
1660203172.73253,1522539.44338,693
1660203172.73253,1522539.443383,500
1660203172.73253,1522539.4433859,131
1660203172.73253,1522539.443389,0
1660203172.73253,1522539.4433916,77
1660203172.73253,1522539.4433942,56
1660203172.73253,1522539.443397,-7
1660203172.73253,1522539.4433999,2
1660203172.73253,1522539.4434027,4
1660203172.73253,1522539.4434057,-7
1660203172.73253,1522539.4434085,11
1660203172.73253,1522539.4434114,21
1660203172.73253,1522539.4434143,18
1660203173.3467,1522539.4434172,25
1660203173.3467,1522539.4434209,30
1660203173.3467,1522539.4434304,30
1660203173.3467,1522539.443437,39
1660203173.3467,1522539.443446,51
1660203173.3467,1522539.4434575,58
1660203173.3467,1522539.4434696,72
1660203173.3467,1522539.4434779,89
1660203173.3467,1522539.4434806,91
1660203173.3467,1522539.4434829,91
1660203173.3467,1522539.4434851,98
1660203173.3467,1522539.4434932,108
1660203173.3467,1522539.4435037,108
1660203173.3467,1522539.443508,105
1660203173.3467,1522539.44351,117
1660203173.3467,1522539.4435123,134
1660203173.3467,1522539.4435145,143
1660203173.3467,1522539.4435166,155
1660203173.3467,1522539.4435188,178
1660203173.3467,1522539.4435209,190
1660203173.3467,1522539.4435231,197
1660203173.3467,1522539.4435253,206
1660203173.3467,1522539.4435274,211
1660203173.3467,1522539.4435295,211
1660203173.3467,1522539.4435316,216
1660203173.3467,1522539.4435337,197
1660203173.3467,1522539.4435359,157
1660203173.3467,1522539.443538,119
1660203173.3467,1522539.4435401,89
1660203173.3467,1522539.4435423,65
1660203173.3467,1522539.4435444,54
1660203173.3467,1522539.4435465,42
1660203173.3467,1522539.4435496,18
1660203173.3467,1522539.4435517,4
1660203173.3467,1522539.4435545,14
1660203173.3467,1522539.4435574,25
1660203173.3467,1522539.4435596,30
1660203173.3467,1522539.4435618,28
1660203173.3467,1522539.4435643,25
1660203173.3467,1522539.443573,32
1660203173.3467,1522539.4435844,39
1660203173.3467,1522539.4435899,39
1660203173.3467,1522539.443593,39
1660203173.3467,1522539.4435958,44
1660203173.3467,1522539.4436042,44
1660203173.3467,1522539.4436148,30
1660203173.3467,1522539.4436236,25
1660203173.3467,1522539.4436261,37
1660203173.3467,1522539.4436289,44
1660203173.3467,1522539.4436377,47
1660203173.35468,1522539.4436465,49
1660203173.35468,1522539.4436519,49
1660203173.35468,1522539.4436592,47
1660203173.35468,1522540.0769218,54
1660203173.35468,1522540.0769419,61
1660203173.35468,1522540.0769506,65
1660203173.35468,1522540.0769596,72
1660203173.35468,1522540.0769687,61
1660203173.35468,1522540.0770254,25
1660203173.35468,1522540.0770367,4
1660203173.35468,1522540.077045,18
1660203173.35468,1522540.0770529,25
1660203173.35468,1522540.0770631,14
1660203173.35468,1522540.077072,23
1660203173.35468,1522540.0770852,39
1660203173.35468,1522540.0770989,28
1660203173.35468,1522540.0771113,28
1660203173.35468,1522540.0771229,35
1660203173.35468,1522540.0771363,7
1660203173.35468,1522540.0771508,-18
1660203173.35468,1522540.0771643,-23
1660203173.35468,1522540.0771778,-32
1660203173.35468,1522540.0771921,-32
1660203173.35468,1522540.0772057,-16
1660203173.95565,1522540.077218,-2
1660203173.95565,1522540.0772297,2
1660203173.95565,1522540.0772377,-2
1660203173.95565,1522540.0772475,-11
1660203173.95565,1522540.0772613,2
1660203173.95565,1522540.077271,30
1660203173.95565,1522540.0772802,47
1660203173.95565,1522540.0772867,58
1660203173.95565,1522540.0772974,115
1660203173.95565,1522540.0773088,301
1660203173.95565,1522540.0773201,545
1660203173.95565,1522540.0773289,620
1660203173.95565,1522540.0773661,385
1660203173.95565,1522540.0773853,87
1660203173.95565,1522540.0773936,51
1660203173.95565,1522540.0773989,115
1660203173.95565,1522540.0774027,65
1660203173.95565,1522540.0774078,35
1660203173.95565,1522540.0774108,63
1660203173.95565,1522540.0774139,65
1660203173.95565,1522540.0774167,58
1660203173.95565,1522540.0774195,68
1660203173.95565,1522540.0774224,68
1660203173.95565,1522540.0774253,56
1660203173.95565,1522540.0774295,54
1660203173.95565,1522540.077433,68
1660203173.95565,1522540.0774385,77
1660203173.95565,1522540.0774416,77
1660203173.95565,1522540.0774452,84
1660203173.95565,1522540.0774481,96
1660203173.95565,1522540.0774514,103
1660203173.95565,1522540.0774546,103
1660203173.95565,1522540.0774582,110
1660203173.95565,1522540.0774639,124
1660203173.95565,1522540.0774703,129
1660203173.95565,1522540.0774764,127
1660203173.95565,1522540.0774802,131
1660203173.95565,1522540.0774855,143
1660203173.95565,1522540.0774891,150
1660203173.95565,1522540.0774944,164
1660203173.95565,1522540.0774989,188
1660203173.95565,1522540.0775032,197
1660203173.95565,1522540.0775082,199
1660203173.95565,1522540.0775116,218
1660203173.95565,1522540.0775151,228
1660203173.95565,1522540.0775205,230
1660203173.95565,1522540.0775256,242
1660203173.95565,1522540.0775304,249
1660203173.95565,1522540.0775357,225
1660203173.95565,1522540.07754,183
1660203173.97421,1522540.0775451,145
1660203173.97421,1522540.0775499,119
1660203173.97421,1522540.6159375,98
1660203173.97421,1522540.6159567,84
1660203173.97421,1522540.6159828,68
1660203173.97421,1522540.615989,56
1660203173.97421,1522540.6160053,51
1660203173.97421,1522540.6160197,56
1660203173.97421,1522540.6160293,68
1660203173.97421,1522540.6160339,70
1660203173.97421,1522540.6160378,47
1660203173.97421,1522540.6160411,28
1660203173.97421,1522540.6160441,37
1660203173.97421,1522540.616047,49
1660203173.97421,1522540.6160499,51
1660203173.97421,1522540.6160527,49
1660203173.97421,1522540.6160556,44
1660203173.97421,1522540.6160584,37
1660203173.97421,1522540.6160613,35
1660203173.97421,1522540.6160641,35
1660203173.97421,1522540.6160674,42
1660203173.97421,1522540.6160702,54
1660203173.97421,1522540.6160731,44
1660203173.97421,1522540.6160759,18
1660203174.42665,1522540.6160787,4
1660203174.42665,1522540.6160815,14
1660203174.42665,1522540.6160843,23
1660203174.42665,1522540.6160872,30
1660203174.42665,1522540.6160902,32
1660203174.42665,1522540.6160933,28
1660203174.42665,1522540.6160965,23
1660203174.42665,1522540.6160998,35
1660203174.42665,1522540.6161033,49
1660203174.42665,1522540.6161179,49
1660203174.42665,1522540.6161213,47
1660203174.42665,1522540.6161246,51
1660203174.42665,1522540.6161302,61
1660203174.42665,1522540.6161347,79
1660203174.42665,1522540.6161408,91
1660203174.42665,1522540.6161469,75
1660203174.42665,1522540.616153,47
1660203174.42665,1522540.6161595,18
1660203174.42665,1522540.6161661,-4
1660203174.42665,1522540.6161727,-4
1660203174.42665,1522540.6161946,4
1660203174.42665,1522540.6162033,7
1660203174.42665,1522540.6162143,11
1660203174.42665,1522540.6162282,21
1660203174.42665,1522540.616241,18
1660203174.42665,1522540.6162542,11
1660203174.42665,1522540.6162672,18
1660203174.42665,1522540.6162805,35
1660203174.42665,1522540.6162936,47
1660203174.42665,1522540.616307,58
1660203174.42665,1522540.6163204,63
1660203174.42665,1522540.6163334,122
1660203174.42665,1522540.6163456,336
1660203174.42665,1522540.6163547,595
1660203174.42665,1522540.6163665,642
1660203174.42665,1522540.6163754,399
1660203174.42665,1522540.6163829,115
1660203174.42665,1522540.6163912,54
1660203174.42665,1522540.6164003,101
1660203174.42665,1522540.616411,72
1660203174.42665,1522540.6164184,51
1660203174.42665,1522540.6164297,70
1660203174.42665,1522540.6164399,63
1660203174.42665,1522540.6164487,58
1660203174.42665,1522540.6164589,72
1660203174.42665,1522540.6164706,79
1660203174.42665,1522540.6164797,82
1660203174.42665,1522540.6164858,94
1660203174.42665,1522540.6164906,105
1660203174.42665,1522540.6164944,108
1660203174.43862,1522540.616498,105
1660203174.43862,1522541.1494945,108
1660203174.43862,1522541.1495218,119
1660203174.43862,1522541.1495334,127
1660203174.43862,1522541.1495412,131
1660203174.43862,1522541.1495506,138
1660203174.43862,1522541.149557,143
1660203174.43862,1522541.1495662,141
1660203174.43862,1522541.149573,143
1660203174.43862,1522541.1495813,155
1660203174.43862,1522541.1495895,162
1660203174.43862,1522541.1495961,162
1660203174.43862,1522541.1496048,155
1660203174.43862,1522541.1496147,145
1660203174.43862,1522541.14962,157
1660203174.43862,1522541.1496241,178
1660203174.43862,1522541.1496264,178
1660203174.43862,1522541.1496341,185
1660203174.43862,1522541.1496459,197
1660203174.43862,1522541.1496549,178
1660203174.43862,1522541.1496631,157
1660203174.43862,1522541.1496718,157
1660203174.43862,1522541.1496846,127
1660203174.43862,1522541.1496953,82
1660203175.05154,1522541.1497032,58
1660203175.05154,1522541.149712,35
1660203175.05154,1522541.1497149,11
1660203175.05154,1522541.1497171,7
1660203175.05154,1522541.149719,7
1660203175.05154,1522541.149721,4
1660203175.05154,1522541.1497232,-7
1660203175.05154,1522541.1497263,-21
1660203175.05154,1522541.1497595,-16
1660203175.05154,1522541.1497696,0
1660203175.05154,1522541.149796,2
1660203175.05154,1522541.1498108,9
1660203175.05154,1522541.1498194,21
1660203175.05154,1522541.149832,25
1660203175.05154,1522541.1498401,23
1660203175.05154,1522541.1498491,23
1660203175.05154,1522541.1498558,21
1660203175.05154,1522541.149861,21
1660203175.05154,1522541.1498663,23
1660203175.05154,1522541.1498707,30
1660203175.05154,1522541.1498759,23
1660203175.05154,1522541.1498794,21
1660203175.05154,1522541.1498847,28
1660203175.05154,1522541.1498888,30
1660203175.05154,1522541.1499314,32
1660203175.05154,1522541.1499611,39
1660203175.05154,1522541.1499698,47
1660203175.05154,1522541.1499747,44
1660203175.05154,1522541.1499815,44
1660203175.05154,1522541.1499868,44
1660203175.05154,1522541.1499927,51
1660203175.05154,1522541.1499979,63
1660203175.05154,1522541.1500035,70
1660203175.05154,1522541.1500071,63
1660203175.05154,1522541.150011,63
1660203175.05154,1522541.1500153,89
1660203175.05154,1522541.1500213,119
1660203175.05154,1522541.1500257,127
1660203175.05154,1522541.1500313,124
1660203175.05154,1522541.1500356,105
1660203175.05154,1522541.1500417,65
1660203175.05154,1522541.1500475,42
1660203175.05154,1522541.150053,39
1660203175.05154,1522541.15006,42
1660203175.05154,1522541.1500648,42
1660203175.05154,1522541.1500704,37
1660203175.05154,1522541.1500745,23
1660203175.05154,1522541.1500795,14
1660203175.05154,1522541.1500831,21
1660203175.05154,1522541.150088,37
1660203175.0635,1522541.7839181,44
1660203175.0635,1522541.7839385,47
1660203175.0635,1522541.7839477,51
1660203175.0635,1522541.783951,56
1660203175.0635,1522541.7839551,129
1660203175.0635,1522541.7839798,362
1660203175.0635,1522541.7839892,635
1660203175.0635,1522541.7839939,651
1660203175.0635,1522541.7839998,326
1660203175.0635,1522541.7840038,21
1660203175.0635,1522541.7840089,25
1660203175.0635,1522541.7840129,84
1660203175.0635,1522541.7840184,23
1660203175.0635,1522541.7840224,0
1660203175.0635,1522541.7840278,7
1660203175.0635,1522541.7840317,-28
1660203175.0635,1522541.78406,-35
1660203175.0635,1522541.78407,0
1660203175.0635,1522541.7840773,14
1660203175.0635,1522541.7840805,11
1660203175.0635,1522541.7840868,21
1660203175.0635,1522541.7840941,14
1660203175.0635,1522541.7841032,-4
1660203175.0635,1522541.7841076,0
1660203175.59842,1522541.7841163,23
1660203175.59842,1522541.7841234,39
1660203175.59842,1522541.78413,39
1660203175.59842,1522541.7841358,32
1660203175.59842,1522541.7841407,44
1660203175.59842,1522541.7841473,58
1660203175.59842,1522541.7841535,61
1660203175.59842,1522541.7841732,70
1660203175.59842,1522541.7841804,84
1660203175.59842,1522541.7841875,87
1660203175.59842,1522541.7841934,87
1660203175.59842,1522541.7841969,108
1660203175.59842,1522541.7842003,138
1660203175.59842,1522541.7842039,159
1660203175.59842,1522541.7842074,157
1660203175.59842,1522541.7842107,159
1660203175.59842,1522541.7842138,181
1660203175.59842,1522541.7842173,204
1660203175.59842,1522541.7842211,204
1660203175.59842,1522541.7842246,199
1660203175.59842,1522541.7842283,183
1660203175.59842,1522541.7842318,145
1660203175.59842,1522541.7842407,105
1660203175.59842,1522541.7842568,84
1660203175.59842,1522541.7842651,72
1660203175.59842,1522541.7842721,54
1660203175.59842,1522541.7842788,35
1660203175.59842,1522541.7842854,37
1660203175.59842,1522541.7842893,47
1660203175.59842,1522541.7842932,39
1660203175.59842,1522541.7842976,39
1660203175.59842,1522541.7843016,54
1660203175.59842,1522541.7843057,61
1660203175.59842,1522541.7843096,61
1660203175.59842,1522541.7843129,72
1660203175.59842,1522541.7843166,77
1660203175.59842,1522541.7843203,70
1660203175.59842,1522541.7843239,63
1660203175.59842,1522541.7843277,61
1660203175.59842,1522541.7843314,68
1660203175.59842,1522541.784335,77
1660203175.59842,1522541.7843385,79
1660203175.59842,1522541.7843422,77
1660203175.59842,1522541.7843458,75
1660203175.59842,1522541.7843496,68
1660203175.59842,1522541.7843533,63
1660203175.59842,1522541.7843569,68
1660203175.59842,1522541.7843606,70
1660203175.59842,1522541.7843643,68
1660203175.59842,1522542.3199213,75
1660203175.6084,1522542.3199343,77
1660203175.6084,1522542.3199371,72
1660203175.6084,1522542.3199393,75
1660203175.6084,1522542.3199415,82
1660203175.6084,1522542.3199437,77
1660203175.6084,1522542.3199459,87
1660203175.6084,1522542.3199479,115
1660203175.6084,1522542.31995,129
1660203175.6084,1522542.3199521,134
1660203175.6084,1522542.3199542,129
1660203175.6084,1522542.3199562,91
1660203175.6084,1522542.3199582,39
1660203175.6084,1522542.3199603,25
1660203175.6084,1522542.3199624,25
1660203175.6084,1522542.3199656,7
1660203175.6084,1522542.3199788,-2
1660203175.6084,1522542.3199875,-2
1660203175.6084,1522542.31999,-18
1660203175.6084,1522542.3199921,-30
1660203175.6084,1522542.3199942,-28
1660203175.6084,1522542.3199964,-25
1660203175.6084,1522542.3200062,-18
1660203175.6084,1522542.320014,-9
1660203175.6084,1522542.3200164,-18
1660203176.13062,1522542.3200247,-28
1660203176.13062,1522542.3200334,63
1660203176.13062,1522542.3200403,303
1660203176.13062,1522542.3200502,540
1660203176.13062,1522542.3200592,515
1660203176.13062,1522542.3200666,197
1660203176.13062,1522542.320079,-47
1660203176.13062,1522542.3200872,-4
1660203176.13062,1522542.3200943,37
1660203176.13062,1522542.3201015,-25
1660203176.13062,1522542.320106,-25
1660203176.13062,1522542.3201099,7
1660203176.13062,1522542.3201144,-2
1660203176.13062,1522542.3201176,-7
1660203176.13062,1522542.3201205,9
1660203176.13062,1522542.3201235,21
1660203176.13062,1522542.3201266,25
1660203176.13062,1522542.3201312,32
1660203176.13062,1522542.3201346,37
1660203176.13062,1522542.3201383,44
1660203176.13062,1522542.320142,61
1660203176.13062,1522542.3201453,72
1660203176.13062,1522542.3201487,79
1660203176.13062,1522542.3201527,87
1660203176.13062,1522542.3201578,91
1660203176.13062,1522542.3201616,96
1660203176.13062,1522542.3201671,105
1660203176.13062,1522542.3201708,105
1660203176.13062,1522542.3201743,103
1660203176.13062,1522542.3201781,117
1660203176.13062,1522542.3201816,124
1660203176.13062,1522542.3201851,127
1660203176.13062,1522542.3201886,148
1660203176.13062,1522542.320192,166
1660203176.13062,1522542.3201956,176
1660203176.13062,1522542.3201996,190
1660203176.13062,1522542.3202032,199
1660203176.13062,1522542.3202068,202
1660203176.13062,1522542.3202105,209
1660203176.13062,1522542.320216,223
1660203176.13062,1522542.3202204,221
1660203176.13062,1522542.3202263,190
1660203176.13062,1522542.3202303,145
1660203176.13062,1522542.320234,110
1660203176.13062,1522542.3202375,87
1660203176.13062,1522542.3202411,68
1660203176.13062,1522542.3202447,56
1660203176.13062,1522542.3202486,51
1660203176.13062,1522542.8569897,47
1660203176.13062,1522542.8570117,47
1660203176.1406,1522542.8570212,54
1660203176.1406,1522542.8570341,54
1660203176.1406,1522542.8570474,58
1660203176.1406,1522542.8570595,70
1660203176.1406,1522542.8570672,72
1660203176.1406,1522542.8570708,68
1660203176.1406,1522542.8570748,63
1660203176.1406,1522542.8570783,61
1660203176.1406,1522542.8570825,61
1660203176.1406,1522542.8570861,58
1660203176.1406,1522542.8570895,58
1660203176.1406,1522542.8570942,58
1660203176.1406,1522542.8570981,47
1660203176.1406,1522542.8571015,35
1660203176.1406,1522542.8571068,39
1660203176.1406,1522542.8571194,51
1660203176.1406,1522542.8571323,54
1660203176.1406,1522542.8571425,51
1660203176.1406,1522542.8571466,42
1660203176.1406,1522542.8571487,16
1660203176.1406,1522542.857154,4
1660203176.1406,1522542.8571562,7
1660203176.1406,1522542.8571589,9
1660203176.1406,1522542.8571612,16
1660203176.65956,1522542.8571633,18
1660203176.65956,1522542.8571653,9
1660203176.65956,1522542.8571672,4
1660203176.65956,1522542.8571691,28
1660203176.65956,1522542.857171,56
1660203176.65956,1522542.8571729,65
1660203176.65956,1522542.8571748,77
1660203176.65956,1522542.8571767,91
1660203176.65956,1522542.8571786,68
1660203176.65956,1522542.8571805,32
1660203176.65956,1522542.8571824,30
1660203176.65956,1522542.8571844,35
1660203176.65956,1522542.8571866,35
1660203176.65956,1522542.8571886,42
1660203176.65956,1522542.8571907,47
1660203176.65956,1522542.8571927,44
1660203176.65956,1522542.8571948,42
1660203176.65956,1522542.8571981,37
1660203176.65956,1522542.8572003,37
1660203176.65956,1522542.8572023,42
1660203176.65956,1522542.8572044,39
1660203176.65956,1522542.8572065,32
1660203176.65956,1522542.8572086,47
1660203176.65956,1522542.8572111,174
1660203176.65956,1522542.8572189,437
1660203176.65956,1522542.8572319,632
1660203176.65956,1522542.8572447,543
1660203176.65956,1522542.8572547,230
1660203176.65956,1522542.857258,25
1660203176.65956,1522542.8572662,54
1660203176.65956,1522542.8572707,75
1660203176.65956,1522542.857275,25
1660203176.65956,1522542.8572854,25
1660203176.65956,1522542.8572918,44
1660203176.65956,1522542.8573111,32
1660203176.65956,1522542.8573431,30
1660203176.65956,1522542.857359,44
1660203176.65956,1522542.8573667,56
1660203176.65956,1522542.8573723,58
1660203176.65956,1522542.8573777,58
1660203176.65956,1522542.857382,63
1660203176.65956,1522542.8573869,75
1660203176.65956,1522542.8573947,89
1660203176.65956,1522542.8574038,94
1660203176.65956,1522542.8574102,96
1660203176.65956,1522542.8574165,105
1660203176.65956,1522542.8574214,105
1660203176.65956,1522543.3915693,96
1660203176.65956,1522543.3915872,87
1660203176.65956,1522543.3915974,87
1660203176.67209,1522543.3916059,91
1660203176.67209,1522543.3916134,94
1660203176.67209,1522543.3916207,98
1660203176.67209,1522543.391628,115
1660203176.67209,1522543.3916362,127
1660203176.67209,1522543.391651,141
1660203176.67209,1522543.3916579,159
1660203176.67209,1522543.391667,174
1660203176.67209,1522543.3916798,159
1660203176.67209,1522543.3916892,150
1660203176.67209,1522543.3916987,166
1660203176.67209,1522543.3917082,181
1660203176.67209,1522543.3917145,166
1660203176.67209,1522543.3917207,141
1660203176.67209,1522543.3917282,89
1660203176.67209,1522543.3917356,25
1660203176.67209,1522543.3917419,0
1660203176.67209,1522543.3917776,-2
1660203176.67209,1522543.3917875,-9
1660203176.67209,1522543.3918058,-14
1660203176.67209,1522543.3918168,-21
1660203176.67209,1522543.3918264,-39
1660203176.67209,1522543.3918339,-42
1660203176.67209,1522543.3918399,-23
1660203177.20494,1522543.3918528,-7
1660203177.20494,1522543.391882,-2

1660203177.20494,1522543.3918898,2
1660203177.20494,1522543.3918946,9
1660203177.20494,1522543.3918978,16
1660203177.20494,1522543.3919008,23
1660203177.20494,1522543.3919037,28
1660203177.20494,1522543.3919068,28
1660203177.20494,1522543.3919096,30
1660203177.20494,1522543.3919125,30
1660203177.20494,1522543.3919154,32
1660203177.20494,1522543.3919183,37
1660203177.20494,1522543.3919212,44
1660203177.20494,1522543.3919242,51
1660203177.20494,1522543.391927,54
1660203177.20494,1522543.3919299,58
1660203177.20494,1522543.3919328,58
1660203177.20494,1522543.3919427,61
1660203177.20494,1522543.3919635,63
1660203177.20494,1522543.3919774,58
1660203177.20494,1522543.3919908,56
1660203177.20494,1522543.3920043,63
1660203177.20494,1522543.3920176,63
1660203177.20494,1522543.392031,56
1660203177.20494,1522543.392044,58
1660203177.20494,1522543.3920571,70
1660203177.20494,1522543.39207,79
1660203177.20494,1522543.3920828,103
1660203177.20494,1522543.3920958,124
1660203177.20494,1522543.3921089,129
1660203177.20494,1522543.3921222,129
1660203177.20494,1522543.3921353,108
1660203177.20494,1522543.3921491,79
1660203177.20494,1522543.3921623,72
1660203177.20494,1522543.3921752,77
1660203177.20494,1522543.3921894,72
1660203177.20494,1522543.3921955,75
1660203177.20494,1522543.3921992,79
1660203177.20494,1522543.3922061,65
1660203177.20494,1522543.3922111,44
1660203177.20494,1522543.3922179,35
1660203177.20494,1522543.3922516,32
1660203177.20494,1522543.3922604,35
1660203177.20494,1522543.3922666,39
1660203177.20494,1522543.3922722,35
1660203177.20494,1522543.392276,58
1660203177.20494,1522543.9280212,223
1660203177.20494,1522543.9280405,500
1660203177.20494,1522543.9280455,642
1660203177.20494,1522543.9280498,465
1660203177.21491,1522543.9280541,141
1660203177.21491,1522543.9280644,18
1660203177.21491,1522543.928074,77
1660203177.21491,1522543.9280834,56
1660203177.21491,1522543.928113,-21
1660203177.21491,1522543.9281206,-30
1660203177.21491,1522543.9281314,-14
1660203177.21491,1522543.9281408,-11
1660203177.21491,1522543.9281473,-2
1660203177.21491,1522543.928154,7
1660203177.21491,1522543.9281575,-7
1660203177.21491,1522543.928161,-25
1660203177.21491,1522543.9281643,-18
1660203177.21491,1522543.9281676,0
1660203177.21491,1522543.9281728,11
1660203177.21491,1522543.928176,18
1660203177.21491,1522543.9281807,30
1660203177.21491,1522543.9281863,32
1660203177.21491,1522543.9281905,37
1660203177.21491,1522543.9281939,51
1660203177.21491,1522543.9281971,61
1660203177.21491,1522543.9282027,63
1660203177.21491,1522543.9282059,65
1660203177.21491,1522543.9282092,65
1660203177.83723,1522543.9282177,70
1660203177.83723,1522543.9282233,89
1660203177.83723,1522543.9282269,108
1660203177.83723,1522543.9282298,124
1660203177.83723,1522543.9282325,138
1660203177.83723,1522543.9282356,150
1660203177.83723,1522543.9282389,157
1660203177.83723,1522543.9282426,166
1660203177.83723,1522543.9282472,181
1660203177.83723,1522543.9282521,199
1660203177.83723,1522543.9282645,204
1660203177.83723,1522543.9282776,178
1660203177.83723,1522543.9282894,141
1660203177.83723,1522543.9282987,108
1660203177.83723,1522543.9283064,79
1660203177.83723,1522543.9283131,61
1660203177.83723,1522543.9283193,54
1660203177.83723,1522543.9283235,49
1660203177.83723,1522543.9283289,35
1660203177.83723,1522543.9283345,25
1660203177.83723,1522543.9283388,35
1660203177.83723,1522543.9283449,32
1660203177.83723,1522543.9283499,39
1660203177.83723,1522543.928356,58
1660203177.83723,1522543.9283615,63
1660203177.83723,1522543.9283676,56
1660203177.83723,1522543.9283724,63
1660203177.83723,1522543.9283771,79
1660203177.83723,1522543.9283833,79
1660203177.83723,1522543.9283889,72
1660203177.83723,1522543.9283934,63
1660203177.83723,1522543.9283994,49
1660203177.83723,1522543.9284041,49
1660203177.83723,1522543.9284121,68
1660203177.83723,1522543.9284214,79
1660203177.83723,1522543.9284273,77
1660203177.83723,1522543.9284303,65
1660203177.83723,1522543.9284325,65
1660203177.83723,1522543.9284347,77
1660203177.83723,1522543.9284368,84
1660203177.83723,1522543.928439,84
1660203177.83723,1522543.9284412,77
1660203177.83723,1522543.9284434,77
1660203177.83723,1522543.9284455,77
1660203177.83723,1522543.9284477,68
1660203177.83723,1522544.561558,65
1660203177.83723,1522544.5615705,82
1660203177.83723,1522544.5615739,82
1660203177.83723,1522544.5615763,72
1660203177.83723,1522544.5615784,87
1660203177.8472,1522544.5615805,94
1660203177.8472,1522544.5615826,89
1660203177.8472,1522544.5615846,98
1660203177.8472,1522544.5615868,98
1660203177.8472,1522544.5615889,72
1660203177.8472,1522544.561591,44
1660203177.8472,1522544.5615935,21
1660203177.8472,1522544.5616008,4
1660203177.8472,1522544.5616108,11
1660203177.8472,1522544.5616166,23
1660203177.8472,1522544.5616238,16
1660203177.8472,1522544.5616278,11
1660203177.8472,1522544.5616339,7
1660203177.8472,1522544.5616371,7
1660203177.8472,1522544.5616423,16
1660203177.8472,1522544.5616563,28
1660203177.8472,1522544.5616681,25
1660203177.8472,1522544.5616766,23
1660203177.8472,1522544.5616852,68
1660203177.8472,1522544.5616977,237
1660203177.8472,1522544.5617097,508
1660203177.8472,1522544.5617158,642
1660203177.8472,1522544.561725,442
1660203177.8472,1522544.561737,98
1660203178.37033,1522544.5617404,4
1660203178.37033,1522544.5617425,68
1660203178.37033,1522544.5617455,35
1660203178.37033,1522544.5617645,-2
1660203178.37033,1522544.561769,23
1660203178.37033,1522544.5617721,28
1660203178.37033,1522544.5617828,16
1660203178.37033,1522544.5617945,23
1660203178.37033,1522544.5618031,32
1660203178.37033,1522544.5618096,35
1660203178.37033,1522544.5618175,44
1660203178.37033,1522544.5618216,56
1660203178.37033,1522544.5618239,70
1660203178.37033,1522544.5618261,79
1660203178.37033,1522544.5618283,77
1660203178.37033,1522544.5618304,72
1660203178.37033,1522544.5618325,89
1660203178.37033,1522544.5618347,108
1660203178.37033,1522544.5618368,110
1660203178.37033,1522544.5618388,105
1660203178.37033,1522544.561841,103
1660203178.37033,1522544.561843,98
1660203178.37033,1522544.5618452,91
1660203178.37033,1522544.5618473,94
1660203178.37033,1522544.5618494,115
1660203178.37033,1522544.5618519,131
1660203178.37033,1522544.5618541,138
1660203178.37033,1522544.5618562,148
1660203178.37033,1522544.5618583,159
1660203178.37033,1522544.5618604,171
1660203178.37033,1522544.5618631,192
1660203178.37033,1522544.5618653,204
1660203178.37033,1522544.5618674,202
1660203178.37033,1522544.5618696,197
1660203178.37033,1522544.5618717,176
1660203178.37033,1522544.5618759,141
1660203178.37033,1522544.5618781,110
1660203178.37033,1522544.5618843,89
1660203178.37033,1522544.5618952,63
1660203178.37033,1522544.561905,37
1660203178.37033,1522544.5619121,28
1660203178.37033,1522544.5619152,23
1660203178.37033,1522544.5619182,25
1660203178.37033,1522544.5619212,35
1660203178.37033,1522545.0985816,39
1660203178.37033,1522545.0986007,39
1660203178.37033,1522545.0986072,44
1660203178.37033,1522545.0986117,47
1660203178.37033,1522545.0986178,58
1660203178.37033,1522545.0986219,70
1660203178.3803,1522545.0986276,75
1660203178.3803,1522545.0986318,75
1660203178.3803,1522545.0986386,70
1660203178.3803,1522545.0986428,68
1660203178.3803,1522545.0986476,77
1660203178.3803,1522545.0986516,89
1660203178.3803,1522545.0986556,91
1660203178.3803,1522545.0986597,89
1660203178.3803,1522545.0986643,65
1660203178.3803,1522545.0986681,42
1660203178.3803,1522545.0986727,54
1660203178.3803,1522545.0986763,65
1660203178.3803,1522545.0986798,58
1660203178.3803,1522545.0986839,61
1660203178.3803,1522545.0986901,54
1660203178.3803,1522545.0986953,21
1660203178.3803,1522545.0986995,7
1660203178.3803,1522545.0987056,18
1660203178.3803,1522545.0987094,25
1660203178.3803,1522545.0987141,23
1660203178.3803,1522545.0987187,28
1660203178.3803,1522545.0987224,32
1660203178.3803,1522545.0987263,32
1660203178.3803,1522545.0987327,42
1660203178.90752,1522545.0987388,68
1660203178.90752,1522545.0987439,98
1660203178.90752,1522545.0987487,108
1660203178.90752,1522545.0987527,91
1660203178.90752,1522545.0987564,68
1660203178.90752,1522545.0987603,47
1660203178.90752,1522545.0987644,39
1660203178.90752,1522545.0987687,42
1660203178.90752,1522545.0987724,44
1660203178.90752,1522545.098776,44
1660203178.90752,1522545.0987797,39
1660203178.90752,1522545.0987833,39
1660203178.90752,1522545.0987869,42
1660203178.90752,1522545.0987902,28
1660203178.90752,1522545.0987936,7
1660203178.90752,1522545.0987973,4
1660203178.90752,1522545.0988013,7
1660203178.90752,1522545.0988052,18
1660203178.90752,1522545.0988095,47
1660203178.90752,1522545.0988135,174
1660203178.90752,1522545.0988172,430
1660203178.90752,1522545.0988438,618
1660203178.90752,1522545.0988521,517
1660203178.90752,1522545.0988562,204
1660203178.90752,1522545.0988597,16
1660203178.90752,1522545.0988631,44
1660203178.90752,1522545.0988665,49
1660203178.90752,1522545.09887,2
1660203178.90752,1522545.0988735,11
1660203178.90752,1522545.0988771,28
1660203178.90752,1522545.0988808,11
1660203178.90752,1522545.0988868,9
1660203178.90752,1522545.0988906,25
1660203178.90752,1522545.0988957,37
1660203178.90752,1522545.0988994,44
1660203178.90752,1522545.098903,49
1660203178.90752,1522545.0989066,51
1660203178.90752,1522545.0989117,58
1660203178.90752,1522545.0989153,68
1660203178.90752,1522545.0989202,79
1660203178.90752,1522545.0989238,89
1660203178.90752,1522545.0989289,91
1660203178.90752,1522545.0989331,91
1660203178.90752,1522545.634323,89
1660203178.90752,1522545.6343465,87
1660203178.90752,1522545.6343586,101
1660203178.90752,1522545.6343691,119
1660203178.90752,1522545.6343768,131
1660203178.90752,1522545.6343855,134
1660203178.90752,1522545.6343935,141
1660203178.91849,1522545.6344013,155
1660203178.91849,1522545.6344096,169
1660203178.91849,1522545.6344179,181
1660203178.91849,1522545.6344262,188
1660203178.91849,1522545.6344342,171
1660203178.91849,1522545.6344425,155
1660203178.91849,1522545.6344499,166
1660203178.91849,1522545.6344581,181
1660203178.91849,1522545.6344661,169
1660203178.91849,1522545.6344734,143
1660203178.91849,1522545.6344805,101
1660203178.91849,1522545.6344899,32
1660203178.91849,1522545.6344988,-2
1660203178.91849,1522545.6345066,-4
1660203178.91849,1522545.6345129,-11
1660203178.91849,1522545.6345178,-14
1660203178.91849,1522545.6345232,-7
1660203178.91849,1522545.6345313,-18
1660203178.91849,1522545.6345388,-23
1660203178.91849,1522545.6345478,-2
1660203178.91849,1522545.6345531,14
1660203178.91849,1522545.6345601,14
1660203178.91849,1522545.6345676,18
1660203178.91849,1522545.634576,30
1660203179.54082,1522545.6345817,30
1660203179.54082,1522545.6345876,25
1660203179.54082,1522545.6345933,39
1660203179.54082,1522545.6345984,54
1660203179.54082,1522545.6346041,51
1660203179.54082,1522545.6346095,37
1660203179.54082,1522545.6346148,28
1660203179.54082,1522545.6346218,35
1660203179.54082,1522545.6346285,47
1660203179.54082,1522545.6346351,54
1660203179.54082,1522545.6346407,56
1660203179.54082,1522545.6346475,51
1660203179.54082,1522545.6346535,44
1660203179.54082,1522545.6346615,47
1660203179.54082,1522545.6346667,49
1660203179.54082,1522545.634675,51
1660203179.54082,1522545.6346822,58
1660203179.54082,1522545.6346905,58
1660203179.54082,1522545.6346961,54
1660203179.54082,1522545.6347024,56
1660203179.54082,1522545.6347055,65
1660203179.54082,1522545.6347085,75
1660203179.54082,1522545.6347117,82
1660203179.54082,1522545.6347161,84
1660203179.54082,1522545.6347212,91
1660203179.54082,1522545.634728,115
1660203179.54082,1522545.6347352,138
1660203179.54082,1522545.6347436,138
1660203179.54082,1522545.6347483,131
1660203179.54082,1522545.634757,110
1660203179.54082,1522545.634764,82
1660203179.54082,1522545.6347719,72
1660203179.54082,1522545.6347784,70
1660203179.54082,1522545.634784,58
1660203179.54082,1522545.6347904,56
1660203179.54082,1522545.6347962,61
1660203179.54082,1522545.6348023,56
1660203179.54082,1522545.6348098,39
1660203179.54082,1522545.6348169,35
1660203179.54082,1522545.6348242,51
1660203179.54082,1522545.6348328,70
1660203179.54082,1522545.6348383,77
1660203179.54082,1522546.2684096,77
1660203179.54082,1522546.268428,124
1660203179.54082,1522546.2684351,322
1660203179.54082,1522546.2684412,609
1660203179.54082,1522546.2684463,696
1660203179.54082,1522546.2684526,432
1660203179.54082,1522546.268486,105
1660203179.54082,1522546.2685031,42
1660203179.55079,1522546.2685131,84
1660203179.55079,1522546.268521,23
1660203179.55079,1522546.2685284,-9
1660203179.55079,1522546.2685349,23
1660203179.55079,1522546.2685418,21
1660203179.55079,1522546.2685475,7
1660203179.55079,1522546.2685557,4
1660203179.55079,1522546.2685636,-2
1660203179.55079,1522546.2685687,2
1660203179.55079,1522546.2685732,16
1660203179.55079,1522546.2685931,18
1660203179.55079,1522546.268598,30
1660203179.55079,1522546.2686141,37
1660203179.55079,1522546.2686289,35
1660203179.55079,1522546.268633,37
1660203179.55079,1522546.2686364,44
1660203179.55079,1522546.2686398,49
1660203179.55079,1522546.2686434,56
1660203179.55079,1522546.2686472,68
1660203179.55079,1522546.2686532,77
1660203179.55079,1522546.2686833,84
1660203179.55079,1522546.2686898,77
1660203179.55079,1522546.2686951,61
1660203179.55079,1522546.2686989,72
1660203180.07375,1522546.2687142,98
1660203180.07375,1522546.268719,112
1660203180.07375,1522546.2687226,129
1660203180.07375,1522546.2687266,150
1660203180.07375,1522546.2687303,152
1660203180.07375,1522546.2687338,159
1660203180.07375,1522546.2687371,178
1660203180.07375,1522546.2687401,185
1660203180.07375,1522546.2687431,178
1660203180.07375,1522546.2687467,169
1660203180.07375,1522546.2687506,141
1660203180.07375,1522546.2687538,98
1660203180.07375,1522546.2687568,70
1660203180.07375,1522546.2687608,51
1660203180.07375,1522546.2687663,28
1660203180.07375,1522546.2687794,16
1660203180.07375,1522546.2687863,21
1660203180.07375,1522546.2687943,28
1660203180.07375,1522546.2687992,35
1660203180.07375,1522546.2688036,37
1660203180.07375,1522546.2688131,35
1660203180.07375,1522546.2688175,32
1660203180.07375,1522546.2688214,30
1660203180.07375,1522546.2688257,35
1660203180.07375,1522546.2688298,47
1660203180.07375,1522546.2688335,51
1660203180.07375,1522546.2688371,58
1660203180.07375,1522546.2688406,63
1660203180.07375,1522546.2688442,56
1660203180.07375,1522546.2688478,58
1660203180.07375,1522546.2688515,77
1660203180.07375,1522546.2688551,84
1660203180.07375,1522546.2688587,75
1660203180.07375,1522546.2688623,65
1660203180.07375,1522546.2688658,68
1660203180.07375,1522546.2688762,72
1660203180.07375,1522546.2688815,70
1660203180.07375,1522546.2688864,61
1660203180.07375,1522546.2688914,61
1660203180.07375,1522546.2688963,70
1660203180.07375,1522546.2689049,75
1660203180.07375,1522546.8049001,72
1660203180.07375,1522546.8049267,68
1660203180.07375,1522546.8049365,68
1660203180.07375,1522546.8049428,77
1660203180.07375,1522546.8049484,75
1660203180.07375,1522546.8049522,65
1660203180.07375,1522546.8049583,70
1660203180.07375,1522546.804962,84
1660203180.07375,1522546.8049674,98
1660203180.08472,1522546.8049709,112
1660203180.08472,1522546.8049762,124
1660203180.08472,1522546.8049801,110
1660203180.08472,1522546.8049856,89
1660203180.08472,1522546.8049896,82
1660203180.08472,1522546.8049952,51
1660203180.08472,1522546.8049993,16
1660203180.08472,1522546.8050049,9
1660203180.08472,1522546.8050095,-2
1660203180.08472,1522546.805014,-11
1660203180.08472,1522546.8050199,0
1660203180.08472,1522546.8050238,2
1660203180.08472,1522546.8050294,-4
1660203180.08472,1522546.8050337,-4
1660203180.08472,1522546.8050394,-25
1660203180.08472,1522546.8050441,-54
1660203180.08472,1522546.8050496,-47
1660203180.08472,1522546.8050566,-11
1660203180.08472,1522546.8050684,0
1660203180.08472,1522546.8050763,49
1660203180.08472,1522546.8050821,239
1660203180.08472,1522546.8050863,508
1660203180.08472,1522546.8050918,632
1660203180.08472,1522546.8050957,444
1660203180.56224,1522546.8051141,103
1660203180.56224,1522546.8051269,-11
1660203180.56224,1522546.8051324,49
1660203180.56224,1522546.8051366,23
1660203180.56224,1522546.8051412,-21
1660203180.56224,1522546.8051458,-2
1660203180.56224,1522546.8051503,14
1660203180.56224,1522546.8051549,16
1660203180.56224,1522546.8051595,28
1660203180.56224,1522546.805164,28
1660203180.56224,1522546.8051689,28
1660203180.56224,1522546.8051723,39
1660203180.56224,1522546.8051757,44
1660203180.56224,1522546.8051787,35
1660203180.56224,1522546.805183,44
1660203180.56224,1522546.8051866,63
1660203180.56224,1522546.8051903,68
1660203180.56224,1522546.8051942,68
1660203180.56224,1522546.8051994,77
1660203180.56224,1522546.8052054,89
1660203180.56224,1522546.8052119,96
1660203180.56224,1522546.8052186,112
1660203180.56224,1522546.8052247,117
1660203180.56224,1522546.8052312,122
1660203180.56224,1522546.8052481,141
1660203180.56224,1522546.8052616,155
1660203180.56224,1522546.8052685,152
1660203180.56224,1522546.8052746,166
1660203180.56224,1522546.8052807,192
1660203180.56224,1522546.8052879,206
1660203180.56224,1522546.8052942,211
1660203180.56224,1522546.8053011,216
1660203180.56224,1522546.8053061,223
1660203180.56224,1522546.8053123,235
1660203180.56224,1522546.8053184,237
1660203180.56224,1522546.8053244,211
1660203180.56224,1522546.8053305,176
1660203180.56224,1522546.805337,145
1660203180.56224,1522546.8053418,108
1660203180.56224,1522546.805348,82
1660203180.56224,1522547.2933018,75
1660203180.56224,1522547.2933202,58
1660203180.56224,1522547.293327,39
1660203180.56224,1522547.2933352,47
1660203180.56224,1522547.2933434,44
1660203180.56224,1522547.2933487,25
1660203180.56224,1522547.2933557,30
1660203180.56224,1522547.2933622,32
1660203180.56224,1522547.293368,16
1660203180.56224,1522547.2933712,9
1660203180.57122,1522547.2933755,21
1660203180.57122,1522547.2933817,25
1660203180.57122,1522547.2933882,30
1660203180.57122,1522547.2933989,39
1660203180.57122,1522547.2934068,35
1660203180.57122,1522547.2934103,16
1660203180.57122,1522547.293415,14
1660203180.57122,1522547.2934182,21
1660203180.57122,1522547.2934215,28
1660203180.57122,1522547.2934275,35
1660203180.57122,1522547.2934334,16
1660203180.57122,1522547.2934391,-16
1660203180.57122,1522547.2934426,-18
1660203180.57122,1522547.2934457,-2
1660203180.57122,1522547.293449,4
1660203180.57122,1522547.2934523,11
1660203180.57122,1522547.2934557,16
1660203180.57122,1522547.2934589,9
1660203180.57122,1522547.2934619,4
1660203180.57122,1522547.2934653,14
1660203180.57122,1522547.2934688,25
1660203180.57122,1522547.2934725,32
1660203180.57122,1522547.293476,42
1660203180.57122,1522547.2934818,44
1660203181.20257,1522547.2934855,39
1660203181.20257,1522547.2934893,39
1660203181.20257,1522547.2934931,44
1660203181.20257,1522547.293497,65
1660203181.20257,1522547.2935009,84
1660203181.20257,1522547.2935045,77
1660203181.20257,1522547.2935079,51
1660203181.20257,1522547.2935113,23
1660203181.20257,1522547.2935149,9
1660203181.20257,1522547.2935185,11
1660203181.20257,1522547.293522,9
1660203181.20257,1522547.2935255,4
1660203181.20257,1522547.2935302,4
1660203181.20257,1522547.2935381,14
1660203181.20257,1522547.2935443,23
1660203181.20257,1522547.2935542,25
1660203181.20257,1522547.2935586,28
1660203181.20257,1522547.293564,35
1660203181.20257,1522547.2935701,42
1660203181.20257,1522547.2935928,54
1660203181.20257,1522547.2936033,68
1660203181.20257,1522547.2936084,117
1660203181.20257,1522547.2936146,293
1660203181.20257,1522547.2936185,555
1660203181.20257,1522547.2936239,674
1660203181.20257,1522547.2936272,491
1660203181.20257,1522547.2936599,164
1660203181.20257,1522547.293742,47
1660203181.20257,1522547.2937495,112
1660203181.20257,1522547.2937537,96
1660203181.20257,1522547.2937596,42
1660203181.20257,1522547.2937634,51
1660203181.20257,1522547.2937671,63
1660203181.20257,1522547.2937775,54
1660203181.20257,1522547.2937885,58
1660203181.20257,1522547.2938005,63
1660203181.20257,1522547.2938043,61
1660203181.20257,1522547.2938065,65
1660203181.20257,1522547.2938088,72
1660203181.20257,1522547.9276129,77
1660203181.20257,1522547.9276392,87
1660203181.20257,1522547.9276503,96
1660203181.20257,1522547.9276556,98
1660203181.20257,1522547.9276622,89
1660203181.20257,1522547.9276684,70
1660203181.20257,1522547.9276747,63
1660203181.20257,1522547.9277026,68
1660203181.20257,1522547.9277182,65
1660203181.20257,1522547.9277244,68
1660203181.20257,1522547.9277291,77
1660203181.21452,1522547.9277333,72
1660203181.21452,1522547.9277375,75
1660203181.21452,1522547.9277415,101
1660203181.21452,1522547.9277464,119
1660203181.21452,1522547.9277505,127
1660203181.21452,1522547.9277542,138
1660203181.21452,1522547.9277576,143
1660203181.21452,1522547.9277611,138
1660203181.21452,1522547.9277644,148
1660203181.21452,1522547.9277681,162
1660203181.21452,1522547.9277718,166
1660203181.21452,1522547.927776,155
1660203181.21452,1522547.92778,131
1660203181.21452,1522547.927784,94
1660203181.21452,1522547.9277906,54
1660203181.21452,1522547.9277946,30
1660203181.21452,1522547.9278005,9
1660203181.21452,1522547.9278047,-9
1660203181.21452,1522547.9278104,-9
1660203181.21452,1522547.9278146,-2
1660203181.21452,1522547.9278205,2
1660203181.21452,1522547.9278246,2
1660203181.21452,1522547.9278307,4
1660203181.21452,1522547.9278368,16
1660203181.7395,1522547.9278426,35
1660203181.7395,1522547.9278461,39
1660203181.7395,1522547.92785,32
1660203181.7395,1522547.9278533,42
1660203181.7395,1522547.9278568,56
1660203181.7395,1522547.9278604,58
1660203181.7395,1522547.9278641,58
1660203181.7395,1522547.9278679,58
1660203181.7395,1522547.9278717,56
1660203181.7395,1522547.9278755,61
1660203181.7395,1522547.9278815,65
1660203181.7395,1522547.9278857,63
1660203181.7395,1522547.9278923,63
1660203181.7395,1522547.9278963,72
1660203181.7395,1522547.9279089,75
1660203181.7395,1522547.9279148,75
1660203181.7395,1522547.9279201,82
1660203181.7395,1522547.927924,84
1660203181.7395,1522547.9279273,77
1660203181.7395,1522547.9279317,79
1660203181.7395,1522547.9279374,89
1660203181.7395,1522547.9279419,91
1660203181.7395,1522547.927947,91
1660203181.7395,1522547.9279522,94
1660203181.7395,1522547.9279575,89
1660203181.7395,1522547.9279632,84
1660203181.7395,1522547.9279674,84
1660203181.7395,1522547.9279733,77
1660203181.7395,1522547.9279773,72
1660203181.7395,1522547.9279827,77
1660203181.7395,1522547.927986,77
1660203181.7395,1522547.9279904,94
1660203181.7395,1522547.9279984,122
1660203181.7395,1522547.9280075,122
1660203181.7395,1522547.9280157,101
1660203181.7395,1522547.9280225,79
1660203181.7395,1522547.9280307,65
1660203181.7395,1522547.9280434,61
1660203181.7395,1522548.4621863,35
1660203181.7395,1522548.4622054,11
1660203181.7395,1522548.4622097,18
1660203181.7395,1522548.462213,25
1660203181.7395,1522548.4622164,28
1660203181.7395,1522548.4622196,39
1660203181.7395,1522548.4622249,54
1660203181.7395,1522548.4622298,61
1660203181.7395,1522548.4622328,61
1660203181.7395,1522548.4622362,72
1660203181.7395,1522548.4622396,94
1660203181.7395,1522548.4622449,136
1660203181.75002,1522548.4622514,326
1660203181.75002,1522548.4622578,635
1660203181.75002,1522548.462264,722
1660203181.75002,1522548.4622695,439
1660203181.75002,1522548.4622776,108
1660203181.75002,1522548.4622823,49
1660203181.75002,1522548.462287,103
1660203181.75002,1522548.4622936,47
1660203181.75002,1522548.4623003,-4
1660203181.75002,1522548.4623069,18
1660203181.75002,1522548.4623137,32
1660203181.75002,1522548.4623338,23
1660203181.75002,1522548.4623513,30
1660203181.75002,1522548.4623601,42
1660203181.75002,1522548.462367,37
1660203181.75002,1522548.4623724,11
1660203181.75002,1522548.4623804,9
1660203181.75002,1522548.4623868,37
1660203181.75002,1522548.4623917,54
1660203181.75002,1522548.4623976,58
1660203181.75002,1522548.4624034,61
1660203181.75002,1522548.4624165,61
1660203181.75002,1522548.462421,70
1660203181.75002,1522548.4624255,84
1660203182.26869,1522548.4624318,91
1660203182.26869,1522548.4624362,94
1660203182.26869,1522548.4624406,105
1660203182.26869,1522548.4624452,122
1660203182.26869,1522548.4624497,124
1660203182.26869,1522548.4624546,127
1660203182.26869,1522548.4624587,152
1660203182.26869,1522548.4624625,176
1660203182.26869,1522548.4624671,176
1660203182.26869,1522548.4624703,171
1660203182.26869,1522548.4624739,185
1660203182.26869,1522548.4624777,204
1660203182.26869,1522548.4624813,214
1660203182.26869,1522548.4624869,218
1660203182.26869,1522548.4624918,214
1660203182.26869,1522548.4624955,190
1660203182.26869,1522548.4624991,150
1660203182.26869,1522548.4625027,110
1660203182.26869,1522548.4625065,82
1660203182.26869,1522548.4625101,56
1660203182.26869,1522548.4625137,32
1660203182.26869,1522548.4625173,21
1660203182.26869,1522548.4625208,21
1660203182.26869,1522548.4625245,16
1660203182.26869,1522548.4625282,16
1660203182.26869,1522548.4625318,23
1660203182.26869,1522548.4625354,30
1660203182.26869,1522548.462539,32
1660203182.26869,1522548.4625428,37
1660203182.26869,1522548.4625466,39
1660203182.26869,1522548.4625505,25
1660203182.26869,1522548.4625543,11
1660203182.26869,1522548.462558,18
1660203182.26869,1522548.4625617,25
1660203182.26869,1522548.4625656,18
1660203182.26869,1522548.4625693,25
1660203182.26869,1522548.462573,42
1660203182.26869,1522548.998554,37
1660203182.26869,1522548.9985723,30
1660203182.26869,1522548.9985787,47
1660203182.26869,1522548.9985843,63
1660203182.26869,1522548.9985897,49
1660203182.26869,1522548.9985952,37
1660203182.26869,1522548.9985989,49
1660203182.26869,1522548.9986026,58
1660203182.26869,1522548.9986061,56
1660203182.26869,1522548.9986099,56
1660203182.26869,1522548.9986135,39
1660203182.26869,1522548.9986174,7
1660203182.26869,1522548.9986214,-9
1660203182.27866,1522548.9986253,4
1660203182.27866,1522548.9986292,4
1660203182.27866,1522548.9986331,-7
1660203182.27866,1522548.9986369,-7
1660203182.27866,1522548.9986416,-25
1660203182.27866,1522548.9986455,-49
1660203182.27866,1522548.9986494,-32
1660203182.27866,1522548.9986543,-2
1660203182.27866,1522548.9986582,11
1660203182.27866,1522548.9986615,18
1660203182.27866,1522548.9986647,4
1660203182.27866,1522548.9986684,-18
1660203182.27866,1522548.998672,-30
1660203182.27866,1522548.9986756,-25
1660203182.27866,1522548.9986792,-25
1660203182.27866,1522548.9986827,-30
1660203182.27866,1522548.998686,-23
1660203182.27866,1522548.9986895,-14
1660203182.27866,1522548.998693,-14
1660203182.27866,1522548.9986967,-9
1660203182.27866,1522548.9987002,4
1660203182.27866,1522548.9987069,16
1660203182.27866,1522548.9987123,30
1660203182.27866,1522548.9987158,44
1660203182.90785,1522548.9987196,54
1660203182.90785,1522548.9987232,84
1660203182.90785,1522548.998727,225
1660203182.90785,1522548.9987304,496
1660203182.90785,1522548.9987336,691
1660203182.90785,1522548.9987365,564
1660203182.90785,1522548.9987395,185
1660203182.90785,1522548.9987437,0
1660203182.90785,1522548.9987476,82
1660203182.90785,1522548.9987507,89
1660203182.90785,1522548.9987539,16
1660203182.90785,1522548.9987571,28
1660203182.90785,1522548.9987604,61
1660203182.90785,1522548.9987644,56
1660203182.90785,1522548.998768,61
1660203182.90785,1522548.998772,72
1660203182.90785,1522548.9987762,75
1660203182.90785,1522548.9987803,87
1660203182.90785,1522548.9987842,101
1660203182.90785,1522548.9987877,98
1660203182.90785,1522548.9987905,98
1660203182.90785,1522548.9987934,98
1660203182.90785,1522548.9987962,91
1660203182.90785,1522548.998799,94
1660203182.90785,1522548.9988018,101
1660203182.90785,1522548.9988047,101
1660203182.90785,1522548.9988076,105
1660203182.90785,1522548.9988104,117
1660203182.90785,1522548.9988132,124
1660203182.90785,1522548.998816,129
1660203182.90785,1522548.9988187,129
1660203182.90785,1522548.9988215,141
1660203182.90785,1522548.9988242,157
1660203182.90785,1522548.9988269,169
1660203182.90785,1522548.9988297,183
1660203182.90785,1522548.9988325,199
1660203182.90785,1522549.6316524,204
1660203182.90785,1522549.6316718,195
1660203182.90785,1522549.6316806,197
1660203182.90785,1522549.631685,214
1660203182.90785,1522549.631689,225
1660203182.90785,1522549.6316982,211
1660203182.90785,1522549.6317082,178
1660203182.90785,1522549.6317168,129
1660203182.90785,1522549.6317243,63
1660203182.90785,1522549.6317306,25
1660203182.90785,1522549.6317428,23
1660203182.90785,1522549.6317558,4
1660203182.90785,1522549.6317639,-14
1660203182.90785,1522549.6317733,-9
1660203182.91683,1522549.6317811,-16
1660203182.91683,1522549.6317861,-28
1660203182.91683,1522549.6317913,-18
1660203182.91683,1522549.6317959,-18
1660203182.91683,1522549.6317996,-30
1660203182.91683,1522549.63181,-23
1660203182.91683,1522549.6318136,-14
1660203182.91683,1522549.6318174,-21
1660203182.91683,1522549.6318197,-23
1660203182.91683,1522549.6318218,-9
1660203182.91683,1522549.631824,4
1660203182.91683,1522549.6318261,9
1660203182.91683,1522549.6318283,7
1660203182.91683,1522549.6318304,4
1660203182.91683,1522549.6318325,21
1660203182.91683,1522549.6318347,30
1660203182.91683,1522549.6318368,30
1660203182.91683,1522549.6318441,32
1660203182.91683,1522549.6318796,35
1660203182.91683,1522549.6318888,32
1660203182.91683,1522549.6318914,25
1660203182.91683,1522549.6318935,30
1660203182.91683,1522549.6318955,37
1660203182.91683,1522549.6318976,37
1660203183.44538,1522549.6318997,47
1660203183.44538,1522549.6319017,51
1660203183.44538,1522549.6319037,44
1660203183.44538,1522549.6319056,44
1660203183.44538,1522549.6319076,51
1660203183.44538,1522549.6319096,49
1660203183.44538,1522549.6319115,49
1660203183.44538,1522549.6319179,47
1660203183.44538,1522549.6319249,44
1660203183.44538,1522549.631929,65
1660203183.44538,1522549.6319324,98
1660203183.44538,1522549.6319359,112
1660203183.44538,1522549.6319391,103
1660203183.44538,1522549.6319434,79
1660203183.44538,1522549.6319505,39
1660203183.44538,1522549.6319584,14
1660203183.44538,1522549.6319621,16
1660203183.44538,1522549.6319671,16
1660203183.44538,1522549.6319774,16
1660203183.44538,1522549.6319826,23
1660203183.44538,1522549.6319847,18
1660203183.44538,1522549.6319868,7
1660203183.44538,1522549.631989,4
1660203183.44538,1522549.631991,16
1660203183.44538,1522549.6319932,28
1660203183.44538,1522549.6319953,42
1660203183.44538,1522549.6319975,54
1660203183.44538,1522549.6319996,49
1660203183.44538,1522549.6320016,101
1660203183.44538,1522549.6320038,319
1660203183.44538,1522549.6320058,597
1660203183.44538,1522549.6320079,667
1660203183.44538,1522549.6320099,420
1660203183.44538,1522549.632012,103
1660203183.44538,1522549.632014,42
1660203183.44538,1522550.1687619,108
1660203183.44538,1522550.1687792,75
1660203183.44538,1522550.1687855,35
1660203183.44538,1522550.1687938,61
1660203183.44538,1522550.1687998,70
1660203183.44538,1522550.1688051,54
1660203183.44538,1522550.1688115,61
1660203183.44538,1522550.1688182,84
1660203183.44538,1522550.1688243,91
1660203183.44538,1522550.1688302,89
1660203183.44538,1522550.1688359,84
1660203183.44538,1522550.1688427,72
1660203183.44538,1522550.1688516,65
1660203183.44538,1522550.1688583,82
1660203183.44538,1522550.1688649,101
1660203183.45635,1522550.1688715,108
1660203183.45635,1522550.1688778,96
1660203183.45635,1522550.1688841,65
1660203183.45635,1522550.1688876,65
1660203183.45635,1522550.168893,101
1660203183.45635,1522550.1688964,108
1660203183.45635,1522550.1689024,101
1660203183.45635,1522550.1689085,122
1660203183.45635,1522550.1689223,136
1660203183.45635,1522550.1689344,129
1660203183.45635,1522550.1689463,129
1660203183.45635,1522550.1689542,148
1660203183.45635,1522550.1689635,174
1660203183.45635,1522550.1689757,188
1660203183.45635,1522550.1689834,190
1660203183.45635,1522550.1689926,188
1660203183.45635,1522550.1690016,190
1660203183.45635,1522550.1690106,202
1660203183.45635,1522550.1690228,197
1660203183.45635,1522550.1690369,159
1660203183.45635,1522550.1690459,119
1660203183.45635,1522550.1690519,91
1660203183.45635,1522550.169058,68
1660203183.45635,1522550.1690616,47
1660203183.93251,1522550.1690657,35
1660203183.93251,1522550.1690703,37
1660203183.93251,1522550.1690761,44
1660203183.93251,1522550.1690809,47
1660203183.93251,1522550.1690844,28
1660203183.93251,1522550.1690877,7
1660203183.93251,1522550.1690912,11
1660203183.93251,1522550.1690946,14
1660203183.93251,1522550.169098,4
1660203183.93251,1522550.1691014,18
1660203183.93251,1522550.1691047,39
1660203183.93251,1522550.169108,35
1660203183.93251,1522550.1691115,37
1660203183.93251,1522550.1691149,42
1660203183.93251,1522550.1691182,35
1660203183.93251,1522550.1691216,39
1660203183.93251,1522550.1691572,54
1660203183.93251,1522550.1691652,44
1660203183.93251,1522550.1691997,30
1660203183.93251,1522550.1692074,35
1660203183.93251,1522550.1692125,37
1660203183.93251,1522550.1692173,42
1660203183.93251,1522550.1692218,44
1660203183.93251,1522550.1692263,47
1660203183.93251,1522550.1692481,51
1660203183.93251,1522550.1692566,54
1660203183.93251,1522550.1692624,51
1660203183.93251,1522550.1692677,51
1660203183.93251,1522550.1692715,39
1660203183.93251,1522550.1692747,30
1660203183.93251,1522550.1692792,32
1660203183.93251,1522550.169284,30
1660203183.93251,1522550.1692876,28
1660203183.93251,1522550.1692946,30
1660203183.93251,1522550.6561205,39
1660203183.93251,1522550.6561375,68
1660203183.93251,1522550.6561418,89
1660203183.93251,1522550.6561473,82
1660203183.93251,1522550.6561509,61
1660203183.93251,1522550.6561546,37
1660203183.93251,1522550.6561607,21
1660203183.93251,1522550.656166,4
1660203183.93251,1522550.6562854,-18
1660203183.93251,1522550.6562956,-23
1660203183.93251,1522550.6563027,-11
1660203183.93251,1522550.6563075,-4
1660203183.93251,1522550.656314,2
1660203183.93251,1522550.6563186,11
1660203183.93251,1522550.6563313,18
1660203183.93251,1522550.6563365,14
1660203183.9445,1522550.6563411,14
1660203183.9445,1522550.6563457,25
1660203183.9445,1522550.6563502,39
1660203183.9445,1522550.656355,112
1660203183.9445,1522550.6563596,336
1660203183.9445,1522550.6563641,613
1660203183.9445,1522550.6563753,663
1660203183.9445,1522550.6563819,345
1660203183.9445,1522550.6563857,7
1660203183.9445,1522550.6563893,4
1660203183.9445,1522550.6563927,70
1660203183.9445,1522550.6563962,-2
1660203183.9445,1522550.6563998,-28
1660203183.9445,1522550.6564035,14
1660203183.9445,1522550.6564071,7
1660203183.9445,1522550.6564116,-7
1660203183.9445,1522550.6564152,4
1660203183.9445,1522550.6564187,14
1660203183.9445,1522550.6564222,16
1660203183.9445,1522550.6564257,14
1660203183.9445,1522550.6564293,4
1660203183.9445,1522550.6564328,23
1660203183.9445,1522550.6564362,54
1660203183.9445,1522550.6564397,42
1660203184.65656,1522550.6564434,35
1660203184.65656,1522550.6564468,56
1660203184.65656,1522550.6564503,61
1660203184.65656,1522550.6564538,61
1660203184.65656,1522550.6564572,82
1660203184.65656,1522550.6564606,91
1660203184.65656,1522550.6564641,87
1660203184.65656,1522550.6564676,89
1660203184.65656,1522550.656471,91
1660203184.65656,1522550.6564745,108
1660203184.65656,1522550.6564779,131
1660203184.65656,1522550.6564814,134
1660203184.65656,1522550.6564848,134
1660203184.65656,1522550.6564883,152
1660203184.65656,1522550.6564917,166
1660203184.65656,1522550.6564951,176
1660203184.65656,1522550.6564986,188
1660203184.65656,1522550.6565021,190
1660203184.65656,1522550.6565055,171
1660203184.65656,1522550.656509,152
1660203184.65656,1522550.6565126,145
1660203184.65656,1522550.656516,122
1660203184.65656,1522550.6565195,75
1660203184.65656,1522550.656523,42
1660203184.65656,1522550.6565264,37
1660203184.65656,1522550.6565299,25
1660203184.65656,1522550.6565333,21
1660203184.65656,1522550.6565367,42
1660203184.65656,1522550.6565403,49
1660203184.65656,1522550.6565437,30
1660203184.65656,1522550.6565472,30
1660203184.65656,1522550.6565659,51
1660203184.65656,1522550.656575,44
1660203184.65656,1522551.3880925,32
1660203184.65656,1522551.3881119,47
1660203184.65656,1522551.3881203,63
1660203184.65656,1522551.3881255,61
1660203184.65656,1522551.3881292,35
1660203184.65656,1522551.3881344,9
1660203184.65656,1522551.3881383,11

1660203184.65656,1522551.3881438,23
1660203184.65656,1522551.3881479,14
1660203184.65656,1522551.3881527,9
1660203184.65656,1522551.3881567,30
1660203184.65656,1522551.3881626,23
1660203184.65656,1522551.3881717,-11
1660203184.65656,1522551.3881762,-11
1660203184.65656,1522551.3881872,-2
1660203184.65656,1522551.3882184,2
1660203184.65656,1522551.3882258,18
1660203184.66753,1522551.3882304,23
1660203184.66753,1522551.388234,32
1660203184.66753,1522551.3882369,51
1660203184.66753,1522551.3882399,39
1660203184.66753,1522551.3882429,9
1660203184.66753,1522551.3882637,25
1660203184.66753,1522551.3882748,70
1660203184.66753,1522551.3882798,75
1660203184.66753,1522551.3882865,61
1660203184.66753,1522551.3882957,56
1660203184.66753,1522551.388332,30
1660203184.66753,1522551.3883453,-11
1660203184.66753,1522551.3883522,-28
1660203184.66753,1522551.3883564,-28
1660203184.66753,1522551.3883602,-14
1660203184.66753,1522551.388364,4
1660203184.66753,1522551.3883676,-7
1660203184.66753,1522551.3883713,-4
1660203184.66753,1522551.3883752,18
1660203184.66753,1522551.388379,18
1660203184.66753,1522551.388386,21
1660203184.66753,1522551.3883907,39
1660203184.66753,1522551.3883959,42
1660203184.66753,1522551.3883997,32
1660203185.0939,1522551.3884049,70
1660203185.0939,1522551.3884085,246
1660203185.0939,1522551.3884122,547
1660203185.0939,1522551.3884158,764
1660203185.0939,1522551.3884194,609
1660203185.0939,1522551.3884231,176
1660203185.0939,1522551.3884268,-2
1660203185.0939,1522551.3884302,98
1660203185.0939,1522551.3884337,70
1660203185.0939,1522551.3884377,-9
1660203185.0939,1522551.3884419,28
1660203185.0939,1522551.3884454,54
1660203185.0939,1522551.3884488,39
1660203185.0939,1522551.3884522,54
1660203185.0939,1522551.3884556,65
1660203185.0939,1522551.3884591,56
1660203185.0939,1522551.3884625,58
1660203185.0939,1522551.388466,77
1660203185.0939,1522551.3884695,89
1660203185.0939,1522551.3884729,96
1660203185.0939,1522551.3884763,105
1660203185.0939,1522551.3884798,112
1660203185.0939,1522551.3884832,117
1660203185.0939,1522551.3884866,122
1660203185.0939,1522551.38849,117
1660203185.0939,1522551.3884934,129
1660203185.0939,1522551.3884972,155
1660203185.0939,1522551.3885006,157
1660203185.0939,1522551.388504,150
1660203185.0939,1522551.3885077,148
1660203185.0939,1522551.3885111,150
1660203185.0939,1522551.3885145,174
1660203185.0939,1522551.8262494,199
1660203185.0939,1522551.826268,202
1660203185.0939,1522551.8262759,199
1660203185.0939,1522551.8262804,218
1660203185.0939,1522551.8262869,242
1660203185.0939,1522551.8262922,251
1660203185.0939,1522551.8262961,270
1660203185.0939,1522551.8263,277
1660203185.0939,1522551.8263041,244
1660203185.0939,1522551.826308,195
1660203185.0939,1522551.8263117,174
1660203185.0939,1522551.8263158,157
1660203185.0939,1522551.8263197,110
1660203185.0939,1522551.8263235,68
1660203185.0939,1522551.8263272,75
1660203185.0939,1522551.826331,98
1660203185.0939,1522551.8263349,89
1660203185.0939,1522551.8263388,70
1660203185.10387,1522551.8263426,65
1660203185.10387,1522551.8263463,68
1660203185.10387,1522551.82635,68
1660203185.10387,1522551.8263539,47
1660203185.10387,1522551.8263577,30
1660203185.10387,1522551.8263617,47
1660203185.10387,1522551.8263654,47
1660203185.10387,1522551.8263714,39
1660203185.10387,1522551.8263756,37
1660203185.10387,1522551.8263812,23
1660203185.10387,1522551.8263852,7
1660203185.10387,1522551.8263909,-2
1660203185.10387,1522551.8263951,-9
1660203185.10387,1522551.8264005,-4
1660203185.10387,1522551.8264047,-14
1660203185.10387,1522551.8264085,-44
1660203185.10387,1522551.8264124,-54
1660203185.10387,1522551.8264178,-37
1660203185.10387,1522551.8264218,-21
1660203185.10387,1522551.8264271,-16
1660203185.10387,1522551.826431,-18
1660203185.10387,1522551.8264351,-37
1660203185.10387,1522551.8264391,-51
1660203185.10387,1522551.8264452,-25
1660203185.63699,1522551.8264492,11
1660203185.63699,1522551.8264531,18
1660203185.63699,1522551.8264571,-2
1660203185.63699,1522551.826461,-18
1660203185.63699,1522551.8264646,14
1660203185.63699,1522551.8264683,65
1660203185.63699,1522551.8264723,70
1660203185.63699,1522551.8264761,51
1660203185.63699,1522551.8264799,47
1660203185.63699,1522551.8264837,32
1660203185.63699,1522551.826489,-2
1660203185.63699,1522551.8264941,-14
1660203185.63699,1522551.8264978,7
1660203185.63699,1522551.8265017,21
1660203185.63699,1522551.8265076,25
1660203185.63699,1522551.8265128,35
1660203185.63699,1522551.8265296,30
1660203185.63699,1522551.8265359,35
1660203185.63699,1522551.8265401,56
1660203185.63699,1522551.8265461,65
1660203185.63699,1522551.8265499,54
1660203185.63699,1522551.8265553,54
1660203185.63699,1522551.8265592,75
1660203185.63699,1522551.8265647,112
1660203185.63699,1522551.8265686,235
1660203185.63699,1522551.826574,515
1660203185.63699,1522551.826578,794
1660203185.63699,1522551.8265837,757
1660203185.63699,1522551.8265877,355
1660203185.63699,1522551.8265932,49
1660203185.63699,1522551.8265989,96
1660203185.63699,1522552.3623533,150
1660203185.63699,1522552.3623746,75
1660203185.63699,1522552.3623896,56
1660203185.63699,1522552.3624043,79
1660203185.63699,1522552.362418,68
1660203185.63699,1522552.3624312,61
1660203185.63699,1522552.3624448,75
1660203185.63699,1522552.3624578,72
1660203185.63699,1522552.3624671,68
1660203185.63699,1522552.36247,84
1660203185.63699,1522552.3624723,79
1660203185.63699,1522552.3624745,42
1660203185.63699,1522552.3624767,28
1660203185.63699,1522552.3624788,47
1660203185.63699,1522552.362481,49
1660203185.63699,1522552.3624831,35
1660203185.63699,1522552.3624853,35
1660203185.63699,1522552.3624876,16
1660203185.63699,1522552.3624899,-7
1660203185.64896,1522552.3624922,16
1660203185.64896,1522552.3624943,44
1660203185.64896,1522552.3624964,35
1660203185.64896,1522552.3624986,32
1660203185.64896,1522552.3625007,42
1660203185.64896,1522552.3625034,42
1660203185.64896,1522552.3625056,56
1660203185.64896,1522552.3625077,96
1660203185.64896,1522552.3625099,127
1660203185.64896,1522552.362512,145
1660203185.64896,1522552.3625142,157
1660203185.64896,1522552.3625163,145
1660203185.64896,1522552.3625184,131
1660203185.64896,1522552.3625206,145
1660203185.64896,1522552.3625227,138
1660203185.64896,1522552.3625322,87
1660203185.64896,1522552.3625343,51
1660203185.64896,1522552.3625372,32
1660203185.64896,1522552.3625394,11
1660203185.64896,1522552.3625416,-7
1660203185.64896,1522552.3625437,-16
1660203185.64896,1522552.3625459,-7
1660203185.64896,1522552.3625481,11
1660203185.64896,1522552.3625503,9
1660203186.21878,1522552.3625524,-2
1660203186.21878,1522552.3625545,9
1660203186.21878,1522552.3625565,32
1660203186.21878,1522552.3625587,47
1660203186.21878,1522552.3625606,61
1660203186.21878,1522552.3625625,68
1660203186.21878,1522552.3625644,56
1660203186.21878,1522552.3625664,72
1660203186.21878,1522552.3625684,112
1660203186.21878,1522552.3625703,103
1660203186.21878,1522552.3625723,68
1660203186.21878,1522552.3625743,72
1660203186.21878,1522552.3625763,87
1660203186.21878,1522552.3625796,94
1660203186.21878,1522552.3625889,117
1660203186.21878,1522552.3625969,91
1660203186.21878,1522552.3626036,32
1660203186.21878,1522552.3626179,51
1660203186.21878,1522552.3626303,61
1660203186.21878,1522552.3626384,16
1660203186.21878,1522552.3626425,35
1660203186.21878,1522552.3626507,77
1660203186.21878,1522552.3626593,39
1660203186.21878,1522552.362666,7
1660203186.21878,1522552.3626698,32
1660203186.21878,1522552.3626818,58
1660203186.21878,1522552.362687,72
1660203186.21878,1522552.3626914,84
1660203186.21878,1522552.3626966,91
1660203186.21878,1522552.3627034,108
1660203186.21878,1522552.948897,91
1660203186.21878,1522552.948916,54
1660203186.21878,1522552.9489244,51
1660203186.21878,1522552.9489293,58
1660203186.21878,1522552.9489331,39
1660203186.21878,1522552.9489368,42
1660203186.21878,1522552.9489412,44
1660203186.21878,1522552.9489447,0
1660203186.21878,1522552.9489483,-16
1660203186.21878,1522552.9489519,21
1660203186.21878,1522552.9489564,2
1660203186.21878,1522552.9489628,-44
1660203186.21878,1522552.9489673,-21
1660203186.21878,1522552.9489733,4
1660203186.21878,1522552.9490064,-32
1660203186.21878,1522552.949013,4
1660203186.21878,1522552.949017,225
1660203186.21878,1522552.9490211,531
1660203186.21878,1522552.9490273,705
1660203186.21878,1522552.9490312,519
1660203186.22975,1522552.9490369,112
1660203186.22975,1522552.949042,-47
1660203186.22975,1522552.9490464,7
1660203186.22975,1522552.9490519,-32
1660203186.22975,1522552.9490563,-89
1660203186.22975,1522552.9490617,-56
1660203186.22975,1522552.9490666,-9
1660203186.22975,1522552.9490726,0
1660203186.22975,1522552.9490774,-21
1660203186.22975,1522552.9490813,-18
1660203186.22975,1522552.9490869,28
1660203186.22975,1522552.9490904,44
1660203186.22975,1522552.949094,18
1660203186.22975,1522552.9490989,-11
1660203186.22975,1522552.9491026,4
1660203186.22975,1522552.9491063,58
1660203186.22975,1522552.9491116,63
1660203186.22975,1522552.9491148,49
1660203186.22975,1522552.9491183,84
1660203186.22975,1522552.9491235,108
1660203186.22975,1522552.9491282,110
1660203186.22975,1522552.9491332,105
1660203186.22975,1522552.9491377,54
1660203186.22975,1522552.9491436,54
1660203186.76326,1522552.9491472,143
1660203186.76326,1522552.9491507,157
1660203186.76326,1522552.9491541,127
1660203186.76326,1522552.9491577,141
1660203186.76326,1522552.9491612,141
1660203186.76326,1522552.9491654,138
1660203186.76326,1522552.9491688,166
1660203186.76326,1522552.9491724,185
1660203186.76326,1522552.949176,199
1660203186.76326,1522552.9491796,206
1660203186.76326,1522552.9491832,199
1660203186.76326,1522552.949187,206
1660203186.76326,1522552.9491929,183
1660203186.76326,1522552.9491967,98
1660203186.76326,1522552.9492026,28
1660203186.76326,1522552.9492063,39
1660203186.76326,1522552.9492117,87
1660203186.76326,1522552.9492163,96
1660203186.76326,1522552.9492221,35
1660203186.76326,1522552.9492269,-9
1660203186.76326,1522552.9492326,44
1660203186.76326,1522552.9492362,84
1660203186.76326,1522552.9492397,87
1660203186.76326,1522552.9492435,91
1660203186.76326,1522552.9492495,35
1660203186.76326,1522552.949253,23
1660203186.76326,1522552.9492567,75
1660203186.76326,1522552.9492604,82
1660203186.76326,1522552.9492665,68
1660203186.76326,1522553.4834361,77
1660203186.76326,1522553.4834591,87
1660203186.76326,1522553.4834728,82
1660203186.76326,1522553.483486,70
1660203186.76326,1522553.4834991,61
1660203186.76326,1522553.4835122,77
1660203186.76326,1522553.4835219,101
1660203186.76326,1522553.4835302,91
1660203186.76326,1522553.4835377,91
1660203186.76326,1522553.4835503,105
1660203186.76326,1522553.4835597,61
1660203186.76326,1522553.4835681,25
1660203186.76326,1522553.4835782,61
1660203186.76326,1522553.4835891,82
1660203186.76326,1522553.4835984,51
1660203186.76326,1522553.4836087,25
1660203186.76326,1522553.4836192,47
1660203186.76326,1522553.4836283,44
1660203186.76326,1522553.4836344,14
1660203186.76326,1522553.4836386,47
1660203186.76326,1522553.4836408,136
1660203186.77722,1522553.4836429,122
1660203186.77722,1522553.4836452,-23
1660203186.77722,1522553.4836473,-77
1660203186.77722,1522553.4836495,-14
1660203186.77722,1522553.4836516,-2
1660203186.77722,1522553.4836537,-4
1660203186.77722,1522553.4836559,37
1660203186.77722,1522553.483658,49
1660203186.77722,1522553.4836608,23
1660203186.77722,1522553.483663,14
1660203186.77722,1522553.4836651,21
1660203186.77722,1522553.4836673,30
1660203186.77722,1522553.4836695,49
1660203186.77722,1522553.4836716,44
1660203186.77722,1522553.4836737,28
1660203186.77722,1522553.4836758,112
1660203186.77722,1522553.4836779,376
1660203186.77722,1522553.48368,686
1660203186.77722,1522553.4836828,759
1660203186.77722,1522553.4836849,423
1660203186.77722,1522553.4836872,-9
1660203186.77722,1522553.4836893,-65
