Time,TimeLsl,Value
1660201842.54384,1521207.4086245,68
1660201842.54384,1521207.4086466,89
1660201842.54384,1521207.4086543,94
1660201842.54384,1521207.4086596,91
1660201842.54384,1521207.4086655,91
1660201842.54384,1521207.4086691,96
1660201842.54384,1521207.4086746,101
1660201842.54384,1521207.4086782,108
1660201842.54384,1521207.408684,122
1660201842.54384,1521207.4086877,131
1660201842.54384,1521207.4086928,119
1660201842.54384,1521207.4086962,94
1660201842.54384,1521207.4086999,96
1660201842.54384,1521207.4087034,119
1660201842.54384,1521207.4087072,141
1660201842.54384,1521207.4087124,155
1660201842.54384,1521207.4087158,169
1660201842.54384,1521207.4087193,171
1660201842.54384,1521207.4087235,176
1660201842.54384,1521207.4087293,195
1660201842.54384,1521207.4087344,197
1660201842.54384,1521207.4087398,178
1660201842.54384,1521207.4087462,148
1660201842.54384,1521207.4087549,101
1660201842.54384,1521207.4087634,58
1660201842.54384,1521207.4087725,42
1660201842.54384,1521207.4088337,32
1660201842.54384,1521207.4088419,23
1660201842.54384,1521207.4088463,9
1660201842.54384,1521207.4088511,-7
1660201842.54384,1521207.4088554,-7
1660201842.54384,1521207.4088607,4
1660201842.54384,1521207.4088674,16
1660201842.54384,1521207.408872,7
1660201842.54384,1521207.4088784,-25
1660201842.54384,1521207.4088832,-44
1660201842.54384,1521207.4088898,-44
1660201842.54384,1521207.408898,-44
1660201842.54384,1521207.4089048,-37
1660201842.54384,1521207.4089095,-25
1660201842.54384,1521207.4089163,-18
1660201842.54384,1521207.4089213,-16
1660201842.54384,1521207.4089279,-21
1660201842.54384,1521207.4089345,-21
1660201842.54384,1521207.408941,-9
1660201842.54384,1521207.4089476,2
1660201842.54384,1521207.4089524,7
1660201842.54384,1521207.4089569,4
1660201842.54384,1521207.4089613,2
1660201842.54384,1521207.408966,14
1660201842.7739,1521207.4089704,32
1660201842.7739,1521207.4089753,30
1660201842.7739,1521207.4089799,16
1660201842.7739,1521207.408985,23
1660201842.7739,1521207.4089919,42
1660201842.7739,1521207.408998,37
1660201842.7739,1521207.4090042,18
1660201842.7739,1521207.4090105,18
1660201842.7739,1521207.4090151,16
1660201842.7739,1521207.409021,-7
1660201842.7739,1521207.4090256,-7
1660201842.7739,1521207.4090299,4
1660201842.7739,1521207.4090344,28
1660201842.7739,1521207.4090388,68
1660201842.7739,1521207.4090432,65
1660201842.7739,1521207.4090492,32
1660201842.7739,1521207.4090537,16
1660201842.7739,1521207.4090981,-2
1660201842.7739,1521207.4091117,-7
1660201842.7739,1521207.4091184,11
1660201842.7739,1521207.4091243,16
1660201842.7739,1521207.4091292,4
1660201842.7739,1521207.4091355,7
1660201842.7739,1521207.9432383,18
1660201842.7739,1521207.9432591,23
1660201842.7739,1521207.9432639,32
1660201842.7739,1521207.9432681,39
1660201842.7739,1521207.9432717,49
1660201842.7739,1521207.9432752,65
1660201842.7739,1521207.943279,77
1660201842.7739,1521207.9432827,101
1660201842.7739,1521207.9432864,246
1660201842.7739,1521207.9432903,508
1660201842.7739,1521207.9432944,616
1660201842.7739,1521207.9432979,388
1660201842.7739,1521207.9433017,70
1660201842.7739,1521207.9433054,-16
1660201842.7739,1521207.9433091,4
1660201842.7739,1521207.9433129,-30
1660201842.7739,1521207.9433168,-47
1660201842.7739,1521207.9433207,-30
1660201842.7739,1521207.9433246,-32
1660201842.7739,1521207.9433287,-47
1660201842.7739,1521207.9433325,-35
1660201842.7739,1521207.9433363,-14
1660201842.7739,1521207.9433398,-11
1660201842.7739,1521207.9433433,-7
1660201842.7739,1521207.9433472,9
1660201842.7739,1521207.9433511,18
1660201842.7739,1521207.9433552,18
1660201842.84023,1521207.9433589,7
1660201842.84023,1521207.9433645,4
1660201842.84023,1521207.9433687,23
1660201842.84023,1521207.943375,42
1660201842.84023,1521207.9433791,54
1660201842.84023,1521207.9433853,58
1660201842.84023,1521207.9433913,61
1660201842.84023,1521207.9433961,65
1660201842.84023,1521207.9433998,75
1660201842.84023,1521207.9434039,94
1660201842.84023,1521207.9434079,115
1660201842.84023,1521207.9434119,129
1660201842.84023,1521207.9434161,129
1660201842.84023,1521207.9434219,138
1660201842.84023,1521207.9434266,166
1660201842.84023,1521207.9434306,188
1660201842.84023,1521207.9434346,204
1660201842.84023,1521207.9434385,223
1660201842.84023,1521207.9434425,225
1660201842.84023,1521207.9434465,218
1660201842.84023,1521207.9434505,216
1660201842.84023,1521207.9434545,190
1660201842.84023,1521207.9434588,141
1660201842.84023,1521207.9434629,96
1660201842.84023,1521207.9434669,56
1660201842.84023,1521207.9434711,28
1660201842.84023,1521207.9434752,21
1660201842.84023,1521207.9434791,23
1660201842.84023,1521207.9434831,28
1660201842.84023,1521207.9434871,39
1660201842.84023,1521207.9434912,47
1660201842.84023,1521207.9434957,32
1660201842.84023,1521207.9435016,23
1660201842.84023,1521207.9435063,42
1660201842.84023,1521207.9435105,54
1660201842.84023,1521207.9435146,54
1660201842.84023,1521207.9435187,56
1660201842.84023,1521207.9435226,51
1660201842.84023,1521207.9435267,44
1660201842.84023,1521207.9435327,51
1660201842.84023,1521207.943537,61
1660201842.84023,1521207.9435427,61
1660201842.84023,1521207.9435476,63
1660201842.84023,1521207.9435526,65
1660201842.84023,1521207.9435572,63
1660201842.84023,1521207.943562,70
1660201842.84023,1521208.5781602,75
1660201842.84023,1521208.5781773,70
1660201842.84023,1521208.5781862,70
1660201842.84023,1521208.5781905,68
1660201842.8605,1521208.5781948,35
1660201842.8605,1521208.5781991,18
1660201842.8605,1521208.5782033,37
1660201842.8605,1521208.5782075,49
1660201842.8605,1521208.5782115,42
1660201842.8605,1521208.5782155,30
1660201842.8605,1521208.5782197,-11
1660201842.8605,1521208.5782241,-54
1660201842.8605,1521208.5782327,-49
1660201842.8605,1521208.578241,-18
1660201842.8605,1521208.5782495,7
1660201842.8605,1521208.5782592,18
1660201842.8605,1521208.5782664,11
1660201842.8605,1521208.5782738,0
1660201842.8605,1521208.5782822,-14
1660201842.8605,1521208.5782876,-47
1660201842.8605,1521208.5782951,-70
1660201842.8605,1521208.5783027,-63
1660201842.8605,1521208.5783089,-56
1660201842.8605,1521208.5783183,-61
1660201842.8605,1521208.5783334,-47
1660201842.8605,1521208.5783429,-25
1660201842.8605,1521208.5783467,-28
1660201842.8605,1521208.5783584,-30
1660201842.8605,1521208.5783701,-9
1660201842.8605,1521208.5783755,11
1660201842.8605,1521208.5783838,16
1660201842.8605,1521208.5783985,28
1660201842.8605,1521208.5784091,47
1660201842.8605,1521208.5784169,145
1660201842.8605,1521208.5784226,373
1660201842.8605,1521208.5784313,569
1660201842.8605,1521208.5784389,526
1660201842.8605,1521208.5784448,246
1660201842.8605,1521208.5784533,28
1660201842.8605,1521208.578458,32
1660201842.8605,1521208.5784717,56
1660201842.8605,1521208.578484,2
1660201842.8605,1521208.5784933,-9
1660201842.8605,1521208.5785054,14
1660201842.8605,1521208.5785327,18
1660201842.8605,1521208.5785431,21
1660201842.8605,1521208.578548,28
1660201842.8605,1521208.578553,28
1660201842.8605,1521208.5785604,42
1660201842.8605,1521208.5785648,58
1660201842.8605,1521208.5785699,61
1660201842.8605,1521208.5785756,61
1660201842.8605,1521208.5785799,70
1660201842.8605,1521208.5785845,79
1660201842.87146,1521208.5785877,84
1660201842.87146,1521208.5785911,91
1660201842.87146,1521208.5785945,101
1660201842.87146,1521208.5785978,108
1660201842.87146,1521208.5786013,115
1660201842.87146,1521208.578606,122
1660201842.87146,1521208.5786096,131
1660201842.87146,1521208.5786128,134
1660201842.87146,1521208.5786167,138
1660201842.87146,1521208.57862,150
1660201842.87146,1521208.5786244,166
1660201842.87146,1521208.5786291,181
1660201842.87146,1521208.5786362,197
1660201842.87146,1521208.5786437,214
1660201842.87146,1521208.5786476,218
1660201842.87146,1521208.578652,221
1660201842.87146,1521208.5786565,235
1660201842.87146,1521208.5786613,251
1660201842.87146,1521208.5786651,249
1660201842.87146,1521209.1633843,218
1660201842.87146,1521209.1634049,174
1660201842.87146,1521209.1634126,138
1660201843.0844,1521209.1634193,105
1660201843.0844,1521209.1634257,82
1660201843.0844,1521209.1634304,72
1660201843.0844,1521209.1634352,68
1660201843.0844,1521209.1634403,61
1660201843.0844,1521209.1634449,65
1660201843.0844,1521209.1634495,72
1660201843.0844,1521209.1634541,68
1660201843.0844,1521209.1634588,68
1660201843.0844,1521209.1634637,63
1660201843.0844,1521209.163469,39
1660201843.0844,1521209.1634737,4
1660201843.0844,1521209.1634787,-7
1660201843.0844,1521209.1634836,4
1660201843.0844,1521209.1634886,14
1660201843.0844,1521209.1634936,18
1660201843.0844,1521209.1635005,11
1660201843.0844,1521209.1635053,-23
1660201843.0844,1521209.1635104,-37
1660201843.0844,1521209.1635153,-7
1660201843.0844,1521209.1635203,11
1660201843.0844,1521209.1635251,9
1660201843.0844,1521209.1635297,11
1660201843.0844,1521209.1635344,9
1660201843.0844,1521209.1635392,2
1660201843.0844,1521209.1635442,7
1660201843.0844,1521209.163551,30
1660201843.0844,1521209.1635559,54
1660201843.0844,1521209.1635607,39
1660201843.0844,1521209.1635656,11
1660201843.0844,1521209.1635702,14
1660201843.0844,1521209.1635756,35
1660201843.0844,1521209.1635805,47
1660201843.0844,1521209.1635851,47
1660201843.0844,1521209.1635898,47
1660201843.0844,1521209.1635949,44
1660201843.0844,1521209.1636047,30
1660201843.0844,1521209.1636113,30
1660201843.0844,1521209.163618,58
1660201843.0844,1521209.1636244,79
1660201843.0844,1521209.1636308,77
1660201843.0844,1521209.1636356,47
1660201843.0844,1521209.1636416,21
1660201843.0844,1521209.1636458,16
1660201843.0844,1521209.1636517,21
1660201843.0844,1521209.1636566,32
1660201843.0844,1521209.1636771,47
1660201843.0844,1521209.1636849,39
1660201843.0844,1521209.1636901,30
1660201843.0844,1521209.1636933,39
1660201843.14424,1521209.1636962,61
1660201843.14424,1521209.1636992,89
1660201843.14424,1521209.1637023,94
1660201843.14424,1521209.1637052,79
1660201843.14424,1521209.1637085,82
1660201843.14424,1521209.1637114,157
1660201843.14424,1521209.1637142,376
1660201843.14424,1521209.163718,616
1660201843.14424,1521209.1637209,637
1660201843.14424,1521209.1637238,383
1660201843.14424,1521209.1637272,103
1660201843.14424,1521209.1637302,63
1660201843.14424,1521209.1637333,124
1660201843.14424,1521209.163739,79
1660201843.14424,1521209.1637422,30
1660201843.14424,1521209.1637474,54
1660201843.14424,1521209.1637507,72
1660201843.14424,1521209.1637537,63
1660201843.14424,1521209.1637573,65
1660201843.14424,1521209.1637613,79
1660201843.14424,1521209.6520739,98
1660201843.14424,1521209.6521058,110
1660201843.14424,1521209.6521225,108
1660201843.14424,1521209.6521384,119
1660201843.55392,1521209.6521552,115
1660201843.55392,1521209.65217,77
1660201843.55392,1521209.6521827,79
1660201843.55392,1521209.652196,110
1660201843.55392,1521209.6522414,115
1660201843.55392,1521209.6522619,98
1660201843.55392,1521209.6522735,61
1660201843.55392,1521209.6522868,49
1660201843.55392,1521209.6523101,94
1660201843.55392,1521209.6523229,108
1660201843.55392,1521209.652333,82
1660201843.55392,1521209.6523396,98
1660201843.55392,1521209.6523479,122
1660201843.55392,1521209.6523584,89
1660201843.55392,1521209.6523708,79
1660201843.55392,1521209.652383,119
1660201843.55392,1521209.6523918,145
1660201843.55392,1521209.6523987,150
1660201843.55392,1521209.6524086,159
1660201843.55392,1521209.6524137,176
1660201843.55392,1521209.6524222,169
1660201843.55392,1521209.6524293,150
1660201843.55392,1521209.6524385,129
1660201843.55392,1521209.6524477,103
1660201843.55392,1521209.652459,68
1660201843.55392,1521209.6524658,21
1660201843.55392,1521209.6524772,-4
1660201843.55392,1521209.6524874,2
1660201843.55392,1521209.6524925,14
1660201843.55392,1521209.6524965,11
1660201843.55392,1521209.6525001,14
1660201843.55392,1521209.6525038,23
1660201843.55392,1521209.6525129,32
1660201843.55392,1521209.6525236,35
1660201843.55392,1521209.652532,30
1660201843.55392,1521209.6525406,35
1660201843.55392,1521209.6525513,47
1660201843.55392,1521209.6525604,51
1660201843.55392,1521209.6525703,37
1660201843.55392,1521209.6525777,37
1660201843.55392,1521209.6525924,54
1660201843.55392,1521209.6526051,51
1660201843.55392,1521209.6526204,39
1660201843.55392,1521209.6526305,58
1660201843.55392,1521209.6526409,70
1660201843.55392,1521209.6526517,63
1660201843.55392,1521209.6526642,70
1660201843.55392,1521209.6526805,82
1660201843.55392,1521209.6526988,84
1660201843.55392,1521209.6527144,89
1660201843.56689,1521209.6527302,94
1660201843.56689,1521209.6527485,89
1660201843.56689,1521209.6527633,87
1660201843.56689,1521209.6527776,91
1660201843.56689,1521209.6527946,91
1660201843.56689,1521209.652823,87
1660201843.56689,1521209.6528503,77
1660201843.56689,1521209.6528745,91
1660201843.56689,1521209.6528907,131
1660201843.56689,1521209.6529089,138
1660201843.56689,1521209.6529258,129
1660201843.56689,1521209.6529408,131
1660201843.56689,1521209.6529539,89
1660201843.56689,1521209.6529728,32
1660201843.56689,1521209.6529938,35
1660201843.56689,1521209.6530121,39
1660201843.56689,1521209.6530265,18
1660201843.56689,1521209.6530423,23
1660201843.56689,1521209.6530615,32
1660201843.56689,1521210.2856069,11
1660201843.56689,1521210.2856349,0
1660201843.56689,1521210.2856436,11
1660201843.56689,1521210.2856486,23
1660201843.56689,1521210.2856558,47
1660201844.04572,1521210.2856642,70
1660201844.04572,1521210.2856717,72
1660201844.04572,1521210.2856783,51
1660201844.04572,1521210.2856839,134
1660201844.04572,1521210.2856887,402
1660201844.04572,1521210.2856938,597
1660201844.04572,1521210.2857001,449
1660201844.04572,1521210.2857054,122
1660201844.04572,1521210.2857101,-28
1660201844.04572,1521210.2857182,-18
1660201844.04572,1521210.2857253,-21
1660201844.04572,1521210.2857307,-18
1660201844.04572,1521210.2857384,-9
1660201844.04572,1521210.2857461,-28
1660201844.04572,1521210.2857695,-39
1660201844.04572,1521210.2857798,-16
1660201844.04572,1521210.2857889,0
1660201844.04572,1521210.2857996,7
1660201844.04572,1521210.2858483,28
1660201844.04572,1521210.285856,25
1660201844.04572,1521210.2858607,14
1660201844.04572,1521210.2858671,39
1660201844.04572,1521210.2858725,70
1660201844.04572,1521210.2858788,77
1660201844.04572,1521210.285883,72
1660201844.04572,1521210.2858891,72
1660201844.04572,1521210.2858939,87
1660201844.04572,1521210.2859001,94
1660201844.04572,1521210.2859048,94
1660201844.04572,1521210.2859112,110
1660201844.04572,1521210.2859158,134
1660201844.04572,1521210.2859222,157
1660201844.04572,1521210.2859287,166
1660201844.04572,1521210.2859356,164
1660201844.04572,1521210.2859416,183
1660201844.04572,1521210.2859461,209
1660201844.04572,1521210.2859519,214
1660201844.04572,1521210.2860596,223
1660201844.04572,1521210.286157,254
1660201844.04572,1521210.2861642,289
1660201844.04572,1521210.2861688,298
1660201844.04572,1521210.2861745,275
1660201844.04572,1521210.2861787,251
1660201844.04572,1521210.2861883,237
1660201844.04572,1521210.286194,190
1660201844.04572,1521210.2861981,138
1660201844.04572,1521210.2862037,131
1660201844.04572,1521210.2862074,131
1660201844.04572,1521210.286213,103
1660201844.04572,1521210.2862167,72
1660201844.0562,1521210.2862219,75
1660201844.0562,1521210.2862257,87
1660201844.0562,1521210.286232,96
1660201844.0562,1521210.2862356,115
1660201844.0562,1521210.2862409,119
1660201844.0562,1521210.2862451,96
1660201844.0562,1521210.2862503,94
1660201844.0562,1521210.2862539,101
1660201844.0562,1521210.2862598,84
1660201844.0562,1521210.2862654,70
1660201844.0562,1521210.2862691,79
1660201844.0562,1521210.2862747,77
1660201844.0562,1521210.2862784,79
1660201844.0562,1521210.286284,87
1660201844.0562,1521210.2862898,82
1660201844.0562,1521210.286294,84
1660201844.0562,1521210.2862997,91
1660201844.0562,1521210.2863036,87
1660201844.0562,1521210.7710018,82
1660201844.0562,1521210.7710203,82
1660201844.0562,1521210.7710258,94
1660201844.0562,1521210.7710306,101
1660201844.0562,1521210.7710349,89
1660201844.0562,1521210.7710393,77
1660201844.57645,1521210.7710435,65
1660201844.57645,1521210.7710477,58
1660201844.57645,1521210.7710519,96
1660201844.57645,1521210.7710563,145
1660201844.57645,1521210.7710604,117
1660201844.57645,1521210.7710648,51
1660201844.57645,1521210.7710692,65
1660201844.57645,1521210.7710735,110
1660201844.57645,1521210.7710779,91
1660201844.57645,1521210.7710822,49
1660201844.57645,1521210.7710892,49
1660201844.57645,1521210.7710953,42
1660201844.57645,1521210.771175,18
1660201844.57645,1521210.7711861,30
1660201844.57645,1521210.7711903,44
1660201844.57645,1521210.7711938,30
1660201844.57645,1521210.7711988,11
1660201844.57645,1521210.7712029,-7
1660201844.57645,1521210.7712079,-23
1660201844.57645,1521210.7712138,-28
1660201844.57645,1521210.7712175,-2
1660201844.57645,1521210.7712253,35
1660201844.57645,1521210.7712335,65
1660201844.57645,1521210.7712405,148
1660201844.57645,1521210.7712463,366
1660201844.57645,1521210.771251,618
1660201844.57645,1521210.7712578,571
1660201844.57645,1521210.7712622,171
1660201844.57645,1521210.7712666,-61
1660201844.57645,1521210.7712722,39
1660201844.57645,1521210.7712762,58
1660201844.57645,1521210.7712802,-30
1660201844.57645,1521210.7712845,-21
1660201844.57645,1521210.7713342,30
1660201844.57645,1521210.7713546,11
1660201844.57645,1521210.77137,-47
1660201844.57645,1521210.7713762,-39
1660201844.57645,1521210.7713815,18
1660201844.57645,1521210.7713862,42
1660201844.57645,1521210.7713906,35
1660201844.57645,1521210.771395,37
1660201844.57645,1521210.7713993,28
1660201844.57645,1521210.7714038,21
1660201844.57645,1521210.771408,44
1660201844.57645,1521210.7714123,58
1660201844.57645,1521210.7714167,65
1660201844.57645,1521210.771421,82
1660201844.57645,1521210.7714251,79
1660201844.57645,1521210.7714293,65
1660201844.57645,1521210.7714332,65
1660201844.58742,1521210.7714372,68
1660201844.58742,1521210.7714423,77
1660201844.58742,1521210.7714461,94
1660201844.58742,1521210.7714508,119
1660201844.58742,1521210.7714548,129
1660201844.58742,1521210.7714598,112
1660201844.58742,1521210.7714647,122
1660201844.58742,1521210.7714688,145
1660201844.58742,1521210.7714729,162
1660201844.58742,1521210.7714774,197
1660201844.58742,1521210.7714819,218
1660201844.58742,1521210.7714861,211
1660201844.58742,1521210.7714903,223
1660201844.58742,1521210.7714946,211
1660201844.58742,1521210.7714988,138
1660201844.58742,1521210.7715032,91
1660201844.58742,1521210.7715076,75
1660201844.58742,1521211.3079576,30
1660201844.58742,1521211.3079759,2
1660201844.58742,1521211.3079835,32
1660201844.58742,1521211.3079876,47
1660201844.58742,1521211.3079913,-9
1660201844.58742,1521211.307995,-35
1660201844.58742,1521211.3079986,9
1660201845.30863,1521211.3080022,4
1660201845.30863,1521211.3080058,-44
1660201845.30863,1521211.3080097,-35
1660201845.30863,1521211.3080133,-2
1660201845.30863,1521211.3080169,0
1660201845.30863,1521211.3080209,9
1660201845.30863,1521211.3080246,4
1660201845.30863,1521211.3080295,-37
1660201845.30863,1521211.3080334,-42
1660201845.30863,1521211.3080373,-21
1660201845.30863,1521211.3080409,-18
1660201845.30863,1521211.3080446,-4
1660201845.30863,1521211.3080483,-11
1660201845.30863,1521211.3080523,-37
1660201845.30863,1521211.3080559,-9
1660201845.30863,1521211.3080595,23
1660201845.30863,1521211.3080631,0
1660201845.30863,1521211.3080667,-25
1660201845.30863,1521211.3080703,14
1660201845.30863,1521211.3080741,65
1660201845.30863,1521211.3080777,49
1660201845.30863,1521211.3080814,14
1660201845.30863,1521211.3080851,23
1660201845.30863,1521211.3080892,35
1660201845.30863,1521211.308095,42
1660201845.30863,1521211.3080991,35
1660201845.30863,1521211.3081084,-21
1660201845.30863,1521211.308114,-44
1660201845.30863,1521211.308118,-7
1660201845.30863,1521211.3081232,14
1660201845.30863,1521211.3081271,14
1660201845.30863,1521211.3081324,21
1660201845.30863,1521211.3081361,18
1660201845.30863,1521211.3081413,25
1660201845.30863,1521211.3081451,47
1660201845.30863,1521211.3081502,65
1660201845.30863,1521211.3081538,77
1660201845.30863,1521211.3081591,65
1660201845.30863,1521211.3081629,56
1660201845.30863,1521211.3081684,150
1660201845.30863,1521211.3081722,404
1660201845.30863,1521211.3081774,665
1660201845.30863,1521211.3081814,627
1660201845.30863,1521211.308187,230
1660201845.30863,1521211.3081907,-79
1660201845.30863,1521211.3081958,-42
1660201845.30863,1521211.3081997,9
1660201845.30863,1521211.3082049,-37
1660201845.30863,1521211.3082087,-18
1660201845.30863,1521211.308214,0
1660201845.3196,1521211.3082179,-30
1660201845.3196,1521211.3082232,-32
1660201845.3196,1521211.3082286,4
1660201845.3196,1521211.308234,2
1660201845.3196,1521211.3082396,-28
1660201845.3196,1521211.3082434,-9
1660201845.3196,1521211.3082489,18
1660201845.3196,1521211.3082525,4
1660201845.3196,1521211.3082579,9
1660201845.3196,1521211.3082617,47
1660201845.3196,1521211.3082671,61
1660201845.3196,1521211.3082711,51
1660201845.3196,1521211.3082765,58
1660201845.3196,1521211.3082803,61
1660201845.3196,1521211.3082856,58
1660201845.3196,1521211.3082894,77
1660201845.3196,1521212.0385292,89
1660201845.3196,1521212.0385484,91
1660201845.3196,1521212.0385533,119
1660201845.3196,1521212.0385574,136
1660201845.3196,1521212.0385613,101
1660201845.3196,1521212.0385652,96
1660201845.3196,1521212.0385691,143
1660201845.3196,1521212.0385732,162
1660201845.75153,1521212.0385772,159
1660201845.75153,1521212.038581,176
1660201845.75153,1521212.0385851,178
1660201845.75153,1521212.0385893,164
1660201845.75153,1521212.0385934,155
1660201845.75153,1521212.0385974,131
1660201845.75153,1521212.0386014,108
1660201845.75153,1521212.0386052,82
1660201845.75153,1521212.0386092,30
1660201845.75153,1521212.0386129,14
1660201845.75153,1521212.0386169,32
1660201845.75153,1521212.0386215,-2
1660201845.75153,1521212.0386253,-54
1660201845.75153,1521212.038629,-28
1660201845.75153,1521212.0386328,16
1660201845.75153,1521212.0386367,4
1660201845.75153,1521212.0386406,-2
1660201845.75153,1521212.0386443,21
1660201845.75153,1521212.038648,28
1660201845.75153,1521212.0386519,30
1660201845.75153,1521212.0387182,47
1660201845.75153,1521212.0387857,56
1660201845.75153,1521212.0387928,44
1660201845.75153,1521212.0387967,56
1660201845.75153,1521212.0388005,79
1660201845.75153,1521212.0388042,82
1660201845.75153,1521212.0388077,75
1660201845.75153,1521212.0388115,75
1660201845.75153,1521212.0388151,87
1660201845.75153,1521212.0388187,98
1660201845.75153,1521212.0388226,91
1660201845.75153,1521212.0388265,84
1660201845.75153,1521212.0388842,84
1660201845.75153,1521212.0388905,65
1660201845.75153,1521212.0388944,51
1660201845.75153,1521212.0388983,77
1660201845.75153,1521212.0389019,110
1660201845.75153,1521212.0389055,115
1660201845.75153,1521212.0389096,108
1660201845.75153,1521212.038913,115
1660201845.75153,1521212.038916,115
1660201845.75153,1521212.0389189,91
1660201845.75153,1521212.0389221,65
1660201845.75153,1521212.0389252,49
1660201845.75153,1521212.0389283,37
1660201845.75153,1521212.0389325,30
1660201845.75153,1521212.0389358,32
1660201845.75153,1521212.0389389,42
1660201845.75153,1521212.0389422,49
1660201845.75153,1521212.0389453,42
1660201845.7635,1521212.0389484,32
1660201845.7635,1521212.0389513,44
1660201845.7635,1521212.0389544,58
1660201845.7635,1521212.0389585,61
1660201845.7635,1521212.0389618,54
1660201845.7635,1521212.0389651,51
1660201845.7635,1521212.038968,152
1660201845.7635,1521212.0389711,425
1660201845.7635,1521212.0389743,717
1660201845.7635,1521212.0389775,731
1660201845.7635,1521212.0389806,352
1660201845.7635,1521212.0389837,-21
1660201845.7635,1521212.0389869,-21
1660201845.7635,1521212.0389907,61
1660201845.7635,1521212.0389939,-14
1660201845.7635,1521212.4769791,-56
1660201845.7635,1521212.4769986,-30
1660201845.7635,1521212.4770041,-37
1660201845.7635,1521212.4770088,-47
1660201845.7635,1521212.4770139,-28
1660201845.7635,1521212.4770184,-21
1660201845.7635,1521212.4770245,-25
1660201845.7635,1521212.4770289,-21
1660201845.7635,1521212.4770334,-14
1660201846.28655,1521212.477038,-11
1660201846.28655,1521212.4770424,-18
1660201846.28655,1521212.4770484,-30
1660201846.28655,1521212.4770552,-39
1660201846.28655,1521212.4770601,-47
1660201846.28655,1521212.477065,-56
1660201846.28655,1521212.4770697,-56
1660201846.28655,1521212.4770741,-42
1660201846.28655,1521212.4770786,-32
1660201846.28655,1521212.4770833,-14
1660201846.28655,1521212.477088,-11
1660201846.28655,1521212.4770948,-32
1660201846.28655,1521212.4770992,-21
1660201846.28655,1521212.4771034,16
1660201846.28655,1521212.4771078,37
1660201846.28655,1521212.4771119,54
1660201846.28655,1521212.4771161,61
1660201846.28655,1521212.4771203,39
1660201846.28655,1521212.4771242,37
1660201846.28655,1521212.4771284,75
1660201846.28655,1521212.4771325,89
1660201846.28655,1521212.477137,77
1660201846.28655,1521212.4771413,56
1660201846.28655,1521212.4771454,11
1660201846.28655,1521212.4771493,-37
1660201846.28655,1521212.4771537,-63
1660201846.28655,1521212.4771581,-84
1660201846.28655,1521212.4771628,-101
1660201846.28655,1521212.4771677,-105
1660201846.28655,1521212.4771728,-98
1660201846.28655,1521212.4771778,-84
1660201846.28655,1521212.4771822,-79
1660201846.28655,1521212.4771865,-77
1660201846.28655,1521212.4771912,-68
1660201846.28655,1521212.4771965,-68
1660201846.28655,1521212.4772301,-79
1660201846.28655,1521212.4772518,-82
1660201846.28655,1521212.4772635,-58
1660201846.28655,1521212.4772687,-23
1660201846.28655,1521212.4772732,-25
1660201846.28655,1521212.4772775,-32
1660201846.28655,1521212.477282,-18
1660201846.28655,1521212.4772869,-23
1660201846.28655,1521212.4772915,-35
1660201846.28655,1521212.4772974,-18
1660201846.28655,1521212.4773048,0
1660201846.28655,1521212.4773094,4
1660201846.28655,1521212.4773153,9
1660201846.28655,1521212.4773198,2
1660201846.28655,1521212.4773262,-2
1660201846.29752,1521212.4773357,16
1660201846.29752,1521212.4773426,37
1660201846.29752,1521212.4773459,56
1660201846.29752,1521212.4773582,68
1660201846.29752,1521212.4773645,72
1660201846.29752,1521212.4773683,84
1660201846.29752,1521212.4773734,87
1660201846.29752,1521212.4773767,65
1660201846.29752,1521212.477385,30
1660201846.29752,1521212.4773962,16
1660201846.29752,1521212.4774099,35
1660201846.29752,1521212.4774193,47
1660201846.29752,1521212.4775211,32
1660201846.29752,1521212.4775316,35
1660201846.29752,1521213.0153945,47
1660201846.29752,1521213.0154109,28
1660201846.29752,1521213.0154146,2
1660201846.29752,1521213.0154209,4
1660201846.29752,1521213.0154267,21
1660201846.29752,1521213.0154364,28
1660201846.29752,1521213.0154907,28
1660201846.29752,1521213.0155011,21
1660201846.29752,1521213.0155073,98
1660201846.29752,1521213.0155115,369
1660201846.97423,1521213.0155173,679
1660201846.97423,1521213.0155213,729
1660201846.97423,1521213.015563,392
1660201846.97423,1521213.0155702,4
1660201846.97423,1521213.0155749,-42
1660201846.97423,1521213.015579,25
1660201846.97423,1521213.015583,-54
1660201846.97423,1521213.0155871,-110
1660201846.97423,1521213.0155911,-72
1660201846.97423,1521213.0155949,-58
1660201846.97423,1521213.0155988,-63
1660201846.97423,1521213.0156256,-51
1660201846.97423,1521213.0156322,-56
1660201846.97423,1521213.0156362,-70
1660201846.97423,1521213.0156401,-68
1660201846.97423,1521213.0156441,-72
1660201846.97423,1521213.0156478,-87
1660201846.97423,1521213.0156515,-79
1660201846.97423,1521213.0156553,-54
1660201846.97423,1521213.0156592,-61
1660201846.97423,1521213.0156632,-70
1660201846.97423,1521213.0156673,-51
1660201846.97423,1521213.0156712,-51
1660201846.97423,1521213.015675,-51
1660201846.97423,1521213.015679,-28
1660201846.97423,1521213.015683,-23
1660201846.97423,1521213.0156865,-32
1660201846.97423,1521213.0156902,-14
1660201846.97423,1521213.0156938,21
1660201846.97423,1521213.0156974,51
1660201846.97423,1521213.0157012,68
1660201846.97423,1521213.015705,70
1660201846.97423,1521213.0157089,82
1660201846.97423,1521213.015713,105
1660201846.97423,1521213.0157169,124
1660201846.97423,1521213.0157211,141
1660201846.97423,1521213.0157249,157
1660201846.97423,1521213.0157562,157
1660201846.97423,1521213.015767,117
1660201846.97423,1521213.0157737,63
1660201846.97423,1521213.0157797,39
1660201846.97423,1521213.0158784,28
1660201846.97423,1521213.0158887,7
1660201846.97423,1521213.0158957,-7
1660201846.97423,1521213.0159023,-11
1660201846.97423,1521213.0159092,-21
1660201846.97423,1521213.0159154,-14
1660201846.97423,1521213.0159222,7
1660201846.97423,1521213.0159273,14
1660201846.97423,1521213.015931,16
1660201846.9852,1521213.0159354,28
1660201846.9852,1521213.0159386,35
1660201846.9852,1521213.0159434,32
1660201846.9852,1521213.0159474,42
1660201846.9852,1521213.0159515,58
1660201846.9852,1521213.0159554,70
1660201846.9852,1521213.01596,56
1660201846.9852,1521213.0159642,39
1660201846.9852,1521213.0159698,44
1660201846.9852,1521213.0159764,51
1660201846.9852,1521213.0159854,51
1660201846.9852,1521213.0159944,65
1660201846.9852,1521213.0159998,75
1660201846.9852,1521213.6981357,75
1660201846.9852,1521213.6981589,68
1660201846.9852,1521213.6981644,65
1660201846.9852,1521213.6981707,82
1660201846.9852,1521213.698176,94
1660201846.9852,1521213.6981795,82
1660201846.9852,1521213.6981861,61
1660201846.9852,1521213.6981895,44
1660201846.9852,1521213.6981956,65
1660201846.9852,1521213.6981988,101
1660201846.9852,1521213.6982047,103
1660201847.50713,1521213.6982112,98
1660201847.50713,1521213.6982176,98
1660201847.50713,1521213.698221,51
1660201847.50713,1521213.6982339,-9
1660201847.50713,1521213.6982382,-7
1660201847.50713,1521213.6982416,23
1660201847.50713,1521213.698245,28
1660201847.50713,1521213.6982481,14
1660201847.50713,1521213.698253,-9
1660201847.50713,1521213.6982576,-25
1660201847.50713,1521213.6982611,-7
1660201847.50713,1521213.6982671,9
1660201847.50713,1521213.6982719,-4
1660201847.50713,1521213.6982755,-2
1660201847.50713,1521213.6982786,14
1660201847.50713,1521213.6982818,4
1660201847.50713,1521213.698285,25
1660201847.50713,1521213.6982883,202
1660201847.50713,1521213.6982914,515
1660201847.50713,1521213.6982946,733
1660201847.50713,1521213.6982987,602
1660201847.50713,1521213.6983021,181
1660201847.50713,1521213.6983052,-47
1660201847.50713,1521213.6983089,25
1660201847.50713,1521213.6983155,37
1660201847.50713,1521213.6983184,-37
1660201847.50713,1521213.6983214,-16
1660201847.50713,1521213.6983243,18
1660201847.50713,1521213.6983272,-7
1660201847.50713,1521213.6983303,-2
1660201847.50713,1521213.6983332,25
1660201847.50713,1521213.6983361,21
1660201847.50713,1521213.6983389,18
1660201847.50713,1521213.6983418,23
1660201847.50713,1521213.6983446,14
1660201847.50713,1521213.6983475,11
1660201847.50713,1521213.6983505,23
1660201847.50713,1521213.6983534,25
1660201847.50713,1521213.6983564,11
1660201847.50713,1521213.6983594,4
1660201847.50713,1521213.6983625,18
1660201847.50713,1521213.6983682,35
1660201847.50713,1521213.6983723,37
1660201847.50713,1521213.6983773,32
1660201847.50713,1521213.6983807,47
1660201847.50713,1521213.6983842,63
1660201847.50713,1521213.6983877,61
1660201847.50713,1521213.6983931,63
1660201847.50713,1521213.6983967,79
1660201847.50713,1521213.6984059,94
1660201847.5181,1521213.6984128,112
1660201847.5181,1521213.6984217,134
1660201847.5181,1521213.6984356,148
1660201847.5181,1521213.6984474,155
1660201847.5181,1521213.6984551,162
1660201847.5181,1521213.698462,166
1660201847.5181,1521213.6984655,150
1660201847.5181,1521213.6984777,117
1660201847.5181,1521213.6984851,79
1660201847.5181,1521213.6984974,49
1660201847.5181,1521213.6985102,25
1660201847.5181,1521213.6985178,9
1660201847.5181,1521214.2333723,7
1660201847.5181,1521214.2333908,7
1660201847.5181,1521214.2333978,7
1660201847.5181,1521214.233403,7
1660201847.5181,1521214.233409,14
1660201847.5181,1521214.2334137,21
1660201847.5181,1521214.2334201,28
1660201847.5181,1521214.2334251,30
1660201847.5181,1521214.2334334,30
1660201847.5181,1521214.2334391,44
1660201847.5181,1521214.2334433,58
1660201847.5181,1521214.2334494,54
1660201847.94098,1521214.2334533,32
1660201847.94098,1521214.233457,21
1660201847.94098,1521214.2334608,35
1660201847.94098,1521214.2334645,49
1660201847.94098,1521214.2334682,35
1660201847.94098,1521214.2334719,21
1660201847.94098,1521214.2334756,35
1660201847.94098,1521214.2334795,54
1660201847.94098,1521214.2334827,56
1660201847.94098,1521214.2334862,49
1660201847.94098,1521214.2334899,35
1660201847.94098,1521214.2334943,9
1660201847.94098,1521214.2334981,2
1660201847.94098,1521214.2335025,23
1660201847.94098,1521214.2335082,35
1660201847.94098,1521214.2335119,37
1660201847.94098,1521214.2335156,30
1660201847.94098,1521214.233519,7
1660201847.94098,1521214.2335227,-9
1660201847.94098,1521214.2335267,14
1660201847.94098,1521214.2335304,23
1660201847.94098,1521214.2335339,21
1660201847.94098,1521214.2335378,35
1660201847.94098,1521214.2335416,39
1660201847.94098,1521214.2335453,32
1660201847.94098,1521214.2335487,47
1660201847.94098,1521214.2335548,58
1660201847.94098,1521214.2335598,58
1660201847.94098,1521214.2335675,51
1660201847.94098,1521214.2335727,21
1660201847.94098,1521214.2335785,-2
1660201847.94098,1521214.2335828,7
1660201847.94098,1521214.2335889,16
1660201847.94098,1521214.2335931,14
1660201847.94098,1521214.2335984,4
1660201847.94098,1521214.233603,4
1660201847.94098,1521214.233608,11
1660201847.94098,1521214.2336139,16
1660201847.94098,1521214.2336188,23
1660201847.94098,1521214.2336247,35
1660201847.94098,1521214.233631,30
1660201847.94098,1521214.2336346,35
1660201847.94098,1521214.2336395,75
1660201847.94098,1521214.233645,237
1660201847.94098,1521214.2336514,538
1660201847.94098,1521214.2336558,766
1660201847.94098,1521214.2336596,644
1660201847.94098,1521214.2336646,237
1660201847.94098,1521214.2336691,-4
1660201847.94098,1521214.2336742,32
1660201847.95095,1521214.2336786,47
1660201847.95095,1521214.2336834,-4
1660201847.95095,1521214.2336896,0
1660201847.95095,1521214.2336959,11
1660201847.95095,1521214.2336997,-7
1660201847.95095,1521214.2337045,-11
1660201847.95095,1521214.2337086,-9
1660201847.95095,1521214.2337118,-7
1660201847.95095,1521214.2337151,2
1660201847.95095,1521214.2337204,9
1660201847.95095,1521214.2337249,11
1660201847.95095,1521214.6722093,11
1660201847.95095,1521214.6722265,11
1660201847.95095,1521214.672232,21
1660201847.95095,1521214.6722403,25
1660201847.95095,1521214.672245,16
1660201847.95095,1521214.6722502,9
1660201847.95095,1521214.6722551,9
1660201847.95095,1521214.6722601,9
1660201847.95095,1521214.6722638,11
1660201847.95095,1521214.6722685,25
1660201847.95095,1521214.6722739,42
1660201847.95095,1521214.6722776,49
1660201847.95095,1521214.6722813,70
1660201848.57396,1521214.6722867,91
1660201848.57396,1521214.6722903,91
1660201848.57396,1521214.6722939,98
1660201848.57396,1521214.6722975,127
1660201848.57396,1521214.672301,155
1660201848.57396,1521214.6723047,159
1660201848.57396,1521214.6723083,136
1660201848.57396,1521214.6723118,105
1660201848.57396,1521214.6723154,105
1660201848.57396,1521214.6723191,98
1660201848.57396,1521214.6723227,61
1660201848.57396,1521214.6723263,23
1660201848.57396,1521214.6723299,-4
1660201848.57396,1521214.6723334,-30
1660201848.57396,1521214.672337,-44
1660201848.57396,1521214.6723405,-56
1660201848.57396,1521214.6723439,-54
1660201848.57396,1521214.672347,-39
1660201848.57396,1521214.6723546,-32
1660201848.57396,1521214.6723601,-39
1660201848.57396,1521214.6723639,-49
1660201848.57396,1521214.6723692,-39
1660201848.57396,1521214.672374,-23
1660201848.57396,1521214.6723792,-9
1660201848.57396,1521214.6723834,4
1660201848.57396,1521214.6723908,4
1660201848.57396,1521214.6723949,-14
1660201848.57396,1521214.6724005,-28
1660201848.57396,1521214.6724044,-7
1660201848.57396,1521214.6724093,16
1660201848.57396,1521214.6724144,16
1660201848.57396,1521214.672418,4
1660201848.57396,1521214.6724217,9
1660201848.57396,1521214.672427,21
1660201848.57396,1521214.6724307,35
1660201848.57396,1521214.6724358,44
1660201848.57396,1521214.6724405,44
1660201848.57396,1521214.6724458,47

1660201848.57396,1521214.6724501,44
1660201848.57396,1521214.6724563,32
1660201848.57396,1521214.6724616,49
1660201848.57396,1521214.6724814,79
1660201848.57396,1521214.6724921,79
1660201848.57396,1521214.67251,72
1660201848.57396,1521214.6725163,68
1660201848.57396,1521214.6725214,58
1660201848.57396,1521214.6725263,70
1660201848.57396,1521214.6725298,91
1660201848.57396,1521214.6725376,79
1660201848.57396,1521214.6725421,70
1660201848.58637,1521214.6725484,87
1660201848.58637,1521214.6725518,101
1660201848.58637,1521214.6725583,117
1660201848.58637,1521214.6725623,141
1660201848.58637,1521214.6725695,143
1660201848.58637,1521214.6725753,115
1660201848.58637,1521214.6725783,70
1660201848.58637,1521214.6725812,28
1660201848.58637,1521214.6725842,2
1660201848.58637,1521214.6725871,4
1660201848.58637,1521215.3054729,18
1660201848.58637,1521215.3055039,37
1660201848.58637,1521215.3055139,39
1660201848.58637,1521215.3055193,16
1660201848.58637,1521215.3055227,2
1660201848.58637,1521215.3055277,7
1660201848.58637,1521215.3055311,16
1660201848.58637,1521215.3055343,25
1660201848.58637,1521215.3055373,42
1660201848.58637,1521215.3055405,42
1660201848.58637,1521215.305544,101
1660201848.58637,1521215.3055492,333
1660201848.58637,1521215.3055526,625
1660201848.58637,1521215.3055557,686
1660201849.11997,1521215.3055588,390
1660201849.11997,1521215.3055618,11
1660201849.11997,1521215.305565,-82
1660201849.11997,1521215.305568,-25
1660201849.11997,1521215.3055719,-56
1660201849.11997,1521215.3055753,-82
1660201849.11997,1521215.3055805,-54
1660201849.11997,1521215.3055844,-49
1660201849.11997,1521215.3055873,-58
1660201849.11997,1521215.3055906,-42
1660201849.11997,1521215.3055942,-23
1660201849.11997,1521215.3055978,-16
1660201849.11997,1521215.3056036,-7
1660201849.11997,1521215.3056085,-2
1660201849.11997,1521215.3056137,9
1660201849.11997,1521215.3056201,23
1660201849.11997,1521215.3056234,14
1660201849.11997,1521215.3056279,2
1660201849.11997,1521215.3056338,11
1660201849.11997,1521215.3056385,30
1660201849.11997,1521215.3056462,42
1660201849.11997,1521215.3056555,47
1660201849.11997,1521215.3056617,58
1660201849.11997,1521215.3056657,72
1660201849.11997,1521215.3056709,84
1660201849.11997,1521215.3056765,84
1660201849.11997,1521215.3056828,96
1660201849.11997,1521215.3056858,122
1660201849.11997,1521215.3056889,138
1660201849.11997,1521215.3056919,152
1660201849.11997,1521215.3056947,178
1660201849.11997,1521215.3056976,199
1660201849.11997,1521215.3057004,209
1660201849.11997,1521215.3057033,221
1660201849.11997,1521215.3057061,228
1660201849.11997,1521215.305709,225
1660201849.11997,1521215.3057118,204
1660201849.11997,1521215.3057146,166
1660201849.11997,1521215.3057174,127
1660201849.11997,1521215.3057205,89
1660201849.11997,1521215.3057233,63
1660201849.11997,1521215.3057262,54
1660201849.11997,1521215.3057291,49
1660201849.11997,1521215.305732,35
1660201849.11997,1521215.3057348,35
1660201849.11997,1521215.3057377,39
1660201849.11997,1521215.3057407,47
1660201849.11997,1521215.3057436,51
1660201849.11997,1521215.3057465,47
1660201849.11997,1521215.3057494,30
1660201849.13194,1521215.3057522,28
1660201849.13194,1521215.3057552,44
1660201849.13194,1521215.305758,56
1660201849.13194,1521215.3057608,51
1660201849.13194,1521215.3057637,51
1660201849.13194,1521215.3057665,58
1660201849.13194,1521215.3057693,63
1660201849.13194,1521215.3057722,77
1660201849.13194,1521215.3057756,89
1660201849.13194,1521215.842113,87
1660201849.13194,1521215.8421329,79
1660201849.13194,1521215.8421425,79
1660201849.13194,1521215.8421494,70
1660201849.13194,1521215.8421585,84
1660201849.13194,1521215.8421676,103
1660201849.13194,1521215.8421761,87
1660201849.13194,1521215.8421846,65
1660201849.13194,1521215.8421928,70
1660201849.13194,1521215.8422016,72
1660201849.13194,1521215.8422097,75
1660201849.13194,1521215.8422183,79
1660201849.13194,1521215.8422279,65
1660201849.13194,1521215.8422366,39
1660201849.13194,1521215.842245,28
1660201849.64994,1521215.8422538,23
1660201849.64994,1521215.8422603,25
1660201849.64994,1521215.8422668,37
1660201849.64994,1521215.842274,49
1660201849.64994,1521215.842281,23
1660201849.64994,1521215.8422878,-18
1660201849.64994,1521215.842295,-18
1660201849.64994,1521215.8423017,4
1660201849.64994,1521215.8423084,23
1660201849.64994,1521215.8423156,51
1660201849.64994,1521215.8423241,65
1660201849.64994,1521215.8423332,47
1660201849.64994,1521215.8423419,25
1660201849.64994,1521215.8423501,9
1660201849.64994,1521215.8423576,-4
1660201849.64994,1521215.8423662,-23
1660201849.64994,1521215.8423749,-39
1660201849.64994,1521215.8423936,-37
1660201849.64994,1521215.8424006,-32
1660201849.64994,1521215.8424076,-30
1660201849.64994,1521215.8424165,-14
1660201849.64994,1521215.8424253,0
1660201849.64994,1521215.842434,-2
1660201849.64994,1521215.8424426,0
1660201849.64994,1521215.8424512,9
1660201849.64994,1521215.84246,21
1660201849.64994,1521215.8424688,47
1660201849.64994,1521215.8424751,129
1660201849.64994,1521215.8424822,350
1660201849.64994,1521215.8424906,656
1660201849.64994,1521215.8424974,783
1660201849.64994,1521215.8425039,533
1660201849.64994,1521215.8425109,136
1660201849.64994,1521215.8425195,9
1660201849.64994,1521215.8425286,72
1660201849.64994,1521215.842537,39
1660201849.64994,1521215.8425453,-7
1660201849.64994,1521215.8425545,18
1660201849.64994,1521215.8425613,37
1660201849.64994,1521215.8425707,16
1660201849.64994,1521215.8425782,-4
1660201849.64994,1521215.8425876,-9
1660201849.64994,1521215.842594,-2
1660201849.64994,1521215.8426027,9
1660201849.64994,1521215.8426093,18
1660201849.64994,1521215.842618,39
1660201849.64994,1521215.8426247,61
1660201849.64994,1521215.8426332,42
1660201849.64994,1521215.8426402,28
1660201849.64994,1521215.842649,58
1660201849.6619,1521215.8426561,79
1660201849.6619,1521215.8426646,72
1660201849.6619,1521215.8426718,72
1660201849.6619,1521215.8426801,101
1660201849.6619,1521215.8426871,122
1660201849.6619,1521215.842695,108
1660201849.6619,1521215.8427025,103
1660201849.6619,1521215.8427108,136
1660201849.6619,1521216.3798781,159
1660201849.6619,1521216.3799016,178
1660201849.6619,1521216.3799114,202
1660201849.6619,1521216.3799195,192
1660201849.6619,1521216.3799264,185
1660201849.6619,1521216.3799512,216
1660201849.6619,1521216.3799594,246
1660201849.6619,1521216.3799648,261
1660201849.6619,1521216.3799681,277
1660201849.6619,1521216.3799728,251
1660201849.6619,1521216.3799762,174
1660201849.6619,1521216.379981,124
1660201849.6619,1521216.3799844,87
1660201849.6619,1521216.3799891,16
1660201849.6619,1521216.3799932,-18
1660201849.6619,1521216.3799981,-14
1660201850.23816,1521216.3800015,-30
1660201850.23816,1521216.3800055,-39
1660201850.23816,1521216.3800112,-28
1660201850.23816,1521216.3800157,-47
1660201850.23816,1521216.3800197,-61
1660201850.23816,1521216.3800242,-21
1660201850.23816,1521216.3800282,7
1660201850.23816,1521216.3800312,0
1660201850.23816,1521216.3800344,-14
1660201850.23816,1521216.3800379,-25
1660201850.23816,1521216.3800411,-4
1660201850.23816,1521216.3800458,23
1660201850.23816,1521216.3800506,25
1660201850.23816,1521216.3800541,25
1660201850.23816,1521216.3800607,32
1660201850.23816,1521216.3800657,44
1660201850.23816,1521216.3800695,56
1660201850.23816,1521216.380073,61
1660201850.23816,1521216.3800772,56
1660201850.23816,1521216.3800806,49
1660201850.23816,1521216.3800837,58
1660201850.23816,1521216.3800865,77
1660201850.23816,1521216.3800894,96
1660201850.23816,1521216.3800924,108
1660201850.23816,1521216.3800984,103
1660201850.23816,1521216.3801034,91
1660201850.23816,1521216.3801076,82
1660201850.23816,1521216.3801119,87
1660201850.23816,1521216.3801164,84
1660201850.23816,1521216.3801234,75
1660201850.23816,1521216.380129,65
1660201850.23816,1521216.3801326,61
1660201850.23816,1521216.3801365,37
1660201850.23816,1521216.3801436,7
1660201850.23816,1521216.3801494,4
1660201850.23816,1521216.3801556,32
1660201850.23816,1521216.38016,47
1660201850.23816,1521216.3801662,49
1660201850.23816,1521216.3801723,42
1660201850.23816,1521216.3801801,35
1660201850.23816,1521216.3801884,51
1660201850.23816,1521216.3801952,58
1660201850.23816,1521216.3802006,42
1660201850.23816,1521216.3802042,49
1660201850.23816,1521216.3802096,77
1660201850.23816,1521216.3802129,91
1660201850.23816,1521216.3802192,98
1660201850.23816,1521216.3802248,124
1660201850.23816,1521216.3802278,141
1660201850.23816,1521216.3802306,136
1660201850.25212,1521216.3802334,112
1660201850.25212,1521216.3802363,84
1660201850.25212,1521216.3802396,77
1660201850.25212,1521216.3802439,98
1660201850.25212,1521216.3802468,112
1660201850.25212,1521216.38025,103
1660201850.25212,1521216.3802547,96
1660201850.25212,1521216.9634131,103
1660201850.25212,1521216.9634335,108
1660201850.25212,1521216.9634425,112
1660201850.25212,1521216.9634488,127
1660201850.25212,1521216.9634546,134
1660201850.25212,1521216.9634604,127
1660201850.25212,1521216.9634646,110
1660201850.25212,1521216.9634701,127
1660201850.25212,1521216.9634756,284
1660201850.25212,1521216.9634836,580
1660201850.25212,1521216.9634886,783
1660201850.25212,1521216.9634969,627
1660201850.25212,1521216.9635056,211
1660201850.25212,1521216.9635135,16
1660201850.25212,1521216.9635204,96
1660201850.25212,1521216.9635257,98
1660201850.25212,1521216.963535,28
1660201850.87215,1521216.9635394,35
1660201850.87215,1521216.9635501,65
1660201850.87215,1521216.9635581,42
1660201850.87215,1521216.9635669,2
1660201850.87215,1521216.963575,14
1660201850.87215,1521216.9635797,47
1660201850.87215,1521216.9635843,54
1660201850.87215,1521216.9635911,56
1660201850.87215,1521216.9635958,63
1660201850.87215,1521216.9636048,68
1660201850.87215,1521216.9636123,72
1660201850.87215,1521216.9636148,82
1660201850.87215,1521216.9636172,96
1660201850.87215,1521216.9636251,94
1660201850.87215,1521216.9636356,82
1660201850.87215,1521216.9636389,89
1660201850.87215,1521216.9636419,101
1660201850.87215,1521216.9636453,108
1660201850.87215,1521216.9636578,124
1660201850.87215,1521216.9636644,127
1660201850.87215,1521216.9636673,105
1660201850.87215,1521216.9636694,108
1660201850.87215,1521216.9636715,138
1660201850.87215,1521216.9636792,164
1660201850.87215,1521216.9636908,155
1660201850.87215,1521216.9637,136
1660201850.87215,1521216.9637085,143
1660201850.87215,1521216.963721,157
1660201850.87215,1521216.9637339,171
1660201850.87215,1521216.9637468,183
1660201850.87215,1521216.9637597,185
1660201850.87215,1521216.9637729,162
1660201850.87215,1521216.9637848,127
1660201850.87215,1521216.9637943,89
1660201850.87215,1521216.9638026,51
1660201850.87215,1521216.9638115,21
1660201850.87215,1521216.9638182,7
1660201850.87215,1521216.9638272,-2
1660201850.87215,1521216.9638372,-7
1660201850.87215,1521216.9638473,-4
1660201850.87215,1521216.9638535,2
1660201850.87215,1521216.9638588,11
1660201850.87215,1521216.9638662,16
1660201850.87215,1521216.9638718,7
1660201850.87215,1521216.96388,7
1660201850.87215,1521216.9638892,28
1660201850.87215,1521216.9638981,32
1660201850.87215,1521216.9639118,25
1660201850.87215,1521216.9639244,32
1660201850.87215,1521216.9639377,32
1660201850.88222,1521216.963951,-2
1660201850.88222,1521216.9639642,-25
1660201850.88222,1521216.963977,-16
1660201850.88222,1521216.9639895,-9
1660201850.88222,1521216.9640026,-18
1660201850.88222,1521216.9640108,-23
1660201850.88222,1521217.5960539,-21
1660201850.88222,1521217.5961062,-4
1660201850.88222,1521217.5961168,4
1660201850.88222,1521217.5961212,0
1660201850.88222,1521217.5961253,2
1660201850.88222,1521217.5961288,4
1660201850.88222,1521217.5961321,2
1660201850.88222,1521217.5961356,9
1660201850.88222,1521217.59614,25
1660201850.88222,1521217.5961441,18
1660201850.88222,1521217.5961479,-4
1660201850.88222,1521217.5961518,-2
1660201850.88222,1521217.5961555,21
1660201850.88222,1521217.5961592,28
1660201850.88222,1521217.5961632,35
1660201850.88222,1521217.5961741,35
1660201850.88222,1521217.5961779,-7
1660201850.88222,1521217.5961818,-37
1660201851.35244,1521217.5961863,-11
1660201851.35244,1521217.5961902,7
1660201851.35244,1521217.5961932,4
1660201851.35244,1521217.5961964,21
1660201851.35244,1521217.5962,25
1660201851.35244,1521217.5962038,-2
1660201851.35244,1521217.5962075,0
1660201851.35244,1521217.5962115,16
1660201851.35244,1521217.5962152,11
1660201851.35244,1521217.596219,11
1660201851.35244,1521217.5962228,7
1660201851.35244,1521217.5962305,-7
1660201851.35244,1521217.5962346,7
1660201851.35244,1521217.5962381,47
1660201851.35244,1521217.5962415,70
1660201851.35244,1521217.5962452,72
1660201851.35244,1521217.5962489,65
1660201851.35244,1521217.5962528,39
1660201851.35244,1521217.5962606,54
1660201851.35244,1521217.5962642,89
1660201851.35244,1521217.5962677,54
1660201851.35244,1521217.5962714,9
1660201851.35244,1521217.5962758,25
1660201851.35244,1521217.5962794,16
1660201851.35244,1521217.596283,9
1660201851.35244,1521217.5962866,42
1660201851.35244,1521217.5962902,49
1660201851.35244,1521217.5962938,44
1660201851.35244,1521217.5962977,51
1660201851.35244,1521217.5963019,47
1660201851.35244,1521217.5963051,47
1660201851.35244,1521217.5963081,70
1660201851.35244,1521217.5963111,91
1660201851.35244,1521217.5963156,103
1660201851.35244,1521217.5963206,216
1660201851.35244,1521217.5963248,493
1660201851.35244,1521217.5963284,747
1660201851.35244,1521217.5963336,717
1660201851.35244,1521217.5963401,373
1660201851.35244,1521217.5963467,65
1660201851.35244,1521217.5963514,35
1660201851.35244,1521217.5963557,51
1660201851.35244,1521217.5963588,-9
1660201851.35244,1521217.5963626,-21
1660201851.35244,1521217.5963674,0
1660201851.35244,1521217.5963712,-7
1660201851.35244,1521217.5963745,-4
1660201851.35244,1521217.5963777,18
1660201851.35244,1521217.5963811,28
1660201851.35244,1521217.596385,23
1660201851.36242,1521217.5963901,32
1660201851.36242,1521217.5963941,51
1660201851.36242,1521217.5963993,44
1660201851.36242,1521217.5964046,25
1660201851.36242,1521217.5964081,28
1660201851.36242,1521218.0840259,47
1660201851.36242,1521218.0840465,49
1660201851.36242,1521218.0841012,51
1660201851.36242,1521218.0841123,63
1660201851.36242,1521218.0841195,63
1660201851.36242,1521218.0841285,63
1660201851.36242,1521218.0841351,65
1660201851.36242,1521218.0841436,47
1660201851.36242,1521218.0841507,54
1660201851.36242,1521218.0841594,84
1660201851.36242,1521218.0841646,84
1660201851.36242,1521218.0841722,87
1660201851.36242,1521218.0841759,110
1660201851.36242,1521218.0841791,127
1660201851.36242,1521218.0841844,143
1660201851.36242,1521218.0841978,174
1660201851.36242,1521218.0842107,188
1660201851.36242,1521218.0842214,190
1660201851.36242,1521218.0842272,176
1660201851.94245,1521218.0842341,127
1660201851.94245,1521218.0842391,68
1660201851.94245,1521218.0842475,35
1660201851.94245,1521218.0842541,0
1660201851.94245,1521218.0842589,-35
1660201851.94245,1521218.0842661,-51
1660201851.94245,1521218.0842694,-61
1660201851.94245,1521218.0842753,-77
1660201851.94245,1521218.0842784,-105
1660201851.94245,1521218.0842834,-115
1660201851.94245,1521218.0842964,-91
1660201851.94245,1521218.0843093,-68
1660201851.94245,1521218.084338,-56
1660201851.94245,1521218.0843471,-47
1660201851.94245,1521218.0843543,-42
1660201851.94245,1521218.0843633,-39
1660201851.94245,1521218.0843718,-28
1660201851.94245,1521218.0843805,-23
1660201851.94245,1521218.0843889,-23
1660201851.94245,1521218.0843956,-4
1660201851.94245,1521218.0844027,11
1660201851.94245,1521218.0844063,21
1660201851.94245,1521218.0844185,28
1660201851.94245,1521218.0844261,30
1660201851.94245,1521218.0844304,35
1660201851.94245,1521218.0844342,44
1660201851.94245,1521218.0844376,63
1660201851.94245,1521218.0844424,63
1660201851.94245,1521218.0844477,47
1660201851.94245,1521218.0844526,63
1660201851.94245,1521218.0844583,91
1660201851.94245,1521218.0844635,65
1660201851.94245,1521218.0844702,42
1660201851.94245,1521218.0844749,68
1660201851.94245,1521218.0844806,82
1660201851.94245,1521218.0844852,79
1660201851.94245,1521218.0844916,101
1660201851.94245,1521218.0844995,112
1660201851.94245,1521218.0845046,105
1660201851.94245,1521218.0845112,115
1660201851.94245,1521218.0845174,122
1660201851.94245,1521218.084522,124
1660201851.94245,1521218.0845282,134
1660201851.94245,1521218.0845323,141
1660201851.94245,1521218.0845391,138
1660201851.94245,1521218.0845433,136
1660201851.94245,1521218.0845495,152
1660201851.94245,1521218.084554,169
1660201851.94245,1521218.0845599,169
1660201851.94245,1521218.0845646,164
1660201851.95342,1521218.0845709,176
1660201851.95342,1521218.084576,190
1660201851.95342,1521218.0845818,181
1660201851.95342,1521218.0845867,174
1660201851.95342,1521218.6717597,183
1660201851.95342,1521218.6717801,192
1660201851.95342,1521218.6717955,188
1660201851.95342,1521218.671809,174
1660201851.95342,1521218.6718203,174
1660201851.95342,1521218.6718273,181
1660201851.95342,1521218.6718338,176
1660201851.95342,1521218.6718417,185
1660201851.95342,1521218.6718514,181
1660201851.95342,1521218.6718599,134
1660201851.95342,1521218.6718665,117
1660201851.95342,1521218.6718765,138
1660201851.95342,1521218.6718851,136
1660201851.95342,1521218.6718921,117
1660201851.95342,1521218.6718977,115
1660201851.95342,1521218.6719039,119
1660201851.95342,1521218.6719086,101
1660201851.95342,1521218.6719165,87
1660201851.95342,1521218.6719236,96
1660201851.95342,1521218.6719297,77
1660201852.48104,1521218.6719368,65
1660201852.48104,1521218.6719403,82
1660201852.48104,1521218.6719436,101
1660201852.48104,1521218.6719473,230
1660201852.48104,1521218.6719527,524
1660201852.48104,1521218.6719594,759
1660201852.48104,1521218.6719662,658
1660201852.48104,1521218.6719733,244
1660201852.48104,1521218.6719813,-28
1660201852.48104,1521218.6719878,30
1660201852.48104,1521218.671995,65
1660201852.48104,1521218.6720015,-9
1660201852.48104,1521218.6720098,-4
1660201852.48104,1521218.6720181,30
1660201852.48104,1521218.6720245,16
1660201852.48104,1521218.6720328,14
1660201852.48104,1521218.6720394,44
1660201852.48104,1521218.6720481,58
1660201852.48104,1521218.6720571,37
1660201852.48104,1521218.6720618,25
1660201852.48104,1521218.6720689,39
1660201852.48104,1521218.6720753,54
1660201852.48104,1521218.672084,54
1660201852.48104,1521218.6720905,56
1660201852.48104,1521218.6720993,65
1660201852.48104,1521218.6721058,75
1660201852.48104,1521218.6721146,77
1660201852.48104,1521218.6721866,65
1660201852.48104,1521218.6722008,58
1660201852.48104,1521218.6722084,68
1660201852.48104,1521218.6722151,65
1660201852.48104,1521218.6722215,56
1660201852.48104,1521218.6722279,75
1660201852.48104,1521218.672234,94
1660201852.48104,1521218.6722558,89
1660201852.48104,1521218.6722674,96
1660201852.48104,1521218.6722745,119
1660201852.48104,1521218.6722805,138
1660201852.48104,1521218.6722858,141
1660201852.48104,1521218.6722896,157
1660201852.48104,1521218.6722951,188
1660201852.48104,1521218.6722991,190
1660201852.48104,1521218.6723045,178
1660201852.48104,1521218.6723082,185
1660201852.48104,1521218.6723137,164
1660201852.48104,1521218.6723175,115
1660201852.48104,1521218.6723227,68
1660201852.48104,1521218.672326,25
1660201852.48104,1521218.6723339,4
1660201852.48104,1521218.6723378,4
1660201852.49301,1521218.6723415,9
1660201852.49301,1521218.6723616,14
1660201852.49301,1521218.6723665,-2
1660201852.49301,1521219.2052642,-30
1660201852.49301,1521219.2053592,-25
1660201852.49301,1521219.2053727,7
1660201852.49301,1521219.2053823,7
1660201852.49301,1521219.2054277,-2
1660201852.49301,1521219.2054392,21
1660201852.49301,1521219.2054453,30
1660201852.49301,1521219.2054509,9
1660201852.49301,1521219.205456,11
1660201852.49301,1521219.2054595,32
1660201852.49301,1521219.2054643,39
1660201852.49301,1521219.2054677,23
1660201852.49301,1521219.2054727,0
1660201852.49301,1521219.2055101,-11
1660201852.49301,1521219.2055212,-4
1660201852.49301,1521219.20553,11
1660201852.49301,1521219.2055374,18
1660201852.49301,1521219.2055465,14
1660201852.49301,1521219.2055535,4
1660201852.49301,1521219.2055587,-18
1660201852.49301,1521219.205568,-37
1660201853.01384,1521219.2055753,-25
1660201853.01384,1521219.2055803,-4
1660201853.01384,1521219.2056079,4
1660201853.01384,1521219.2056184,9
1660201853.01384,1521219.2056226,-9
1660201853.01384,1521219.2056286,-42
1660201853.01384,1521219.2056322,-51
1660201853.01384,1521219.2056356,-25
1660201853.01384,1521219.2056388,-14
1660201853.01384,1521219.2056441,-18
1660201853.01384,1521219.2056474,-9
1660201853.01384,1521219.2056507,-9
1660201853.01384,1521219.2056538,-21
1660201853.01384,1521219.205657,-9
1660201853.01384,1521219.2056602,21
1660201853.01384,1521219.2056633,18
1660201853.01384,1521219.2056667,-2
1660201853.01384,1521219.2056699,-4
1660201853.01384,1521219.2056733,2
1660201853.01384,1521219.2056766,18
1660201853.01384,1521219.2056798,37
1660201853.01384,1521219.2056827,32
1660201853.01384,1521219.2056856,23
1660201853.01384,1521219.2056888,32
1660201853.01384,1521219.2056923,58
1660201853.01384,1521219.2056978,75
1660201853.01384,1521219.205701,103
1660201853.01384,1521219.2057044,136
1660201853.01384,1521219.2057076,124
1660201853.01384,1521219.2057112,89
1660201853.01384,1521219.2057169,72
1660201853.01384,1521219.2057202,65
1660201853.01384,1521219.2057246,65
1660201853.01384,1521219.2057296,75
1660201853.01384,1521219.2057335,68
1660201853.01384,1521219.2057386,68
1660201853.01384,1521219.205742,72
1660201853.01384,1521219.2057454,58
1660201853.01384,1521219.2057499,51
1660201853.01384,1521219.2057533,77
1660201853.01384,1521219.2057565,94
1660201853.01384,1521219.2057598,79
1660201853.01384,1521219.2057649,87
1660201853.01384,1521219.2057694,98
1660201853.01384,1521219.2057727,119
1660201853.01384,1521219.2057761,275
1660201853.01384,1521219.2057795,559
1660201853.01384,1521219.2057844,764
1660201853.01384,1521219.2057874,677
1660201853.01384,1521219.2057908,308
1660201853.02382,1521219.2057956,37
1660201853.02382,1521219.2057993,56
1660201853.02382,1521219.7429298,77
1660201853.02382,1521219.7429554,14
1660201853.02382,1521219.7429624,18
1660201853.02382,1521219.7429683,39
1660201853.02382,1521219.7429743,21
1660201853.02382,1521219.7429788,9
1660201853.02382,1521219.7429834,9
1660201853.02382,1521219.742988,2
1660201853.02382,1521219.7429926,-7
1660201853.02382,1521219.742997,-30
1660201853.02382,1521219.7430025,-63
1660201853.02382,1521219.743008,-63
1660201853.02382,1521219.7430124,-37
1660201853.02382,1521219.7430165,-28
1660201853.02382,1521219.7430207,-28
1660201853.02382,1521219.7430247,-21
1660201853.02382,1521219.7430286,-39
1660201853.02382,1521219.7430326,-61
1660201853.02382,1521219.7430364,-44
1660201853.02382,1521219.7430404,-25
1660201853.02382,1521219.7430448,-23
1660201853.02382,1521219.7430492,-11
1660201853.59561,1521219.743053,-4
1660201853.59561,1521219.7430568,0
1660201853.59561,1521219.7430607,16
1660201853.59561,1521219.7430645,39
1660201853.59561,1521219.7430682,54
1660201853.59561,1521219.7430719,70
1660201853.59561,1521219.7430757,96
1660201853.59561,1521219.7430796,105
1660201853.59561,1521219.7430837,119
1660201853.59561,1521219.7430877,148
1660201853.59561,1521219.7430935,159
1660201853.59561,1521219.7430975,143
1660201853.59561,1521219.7431032,105
1660201853.59561,1521219.743107,63
1660201853.59561,1521219.7431115,21
1660201853.59561,1521219.7431155,-16
1660201853.59561,1521219.7431192,-35
1660201853.59561,1521219.7431231,-30
1660201853.59561,1521219.7431267,-32
1660201853.59561,1521219.7431318,-47
1660201853.59561,1521219.7431354,-49
1660201853.59561,1521219.7431391,-30
1660201853.59561,1521219.7431426,-11
1660201853.59561,1521219.7431464,-9
1660201853.59561,1521219.7431501,-4
1660201853.59561,1521219.7431538,7
1660201853.59561,1521219.7431574,11
1660201853.59561,1521219.7431609,14
1660201853.59561,1521219.7431641,28
1660201853.59561,1521219.7431678,32
1660201853.59561,1521219.7431711,39
1660201853.59561,1521219.7431743,61
1660201853.59561,1521219.7431782,58
1660201853.59561,1521219.7431821,28
1660201853.59561,1521219.743186,25
1660201853.59561,1521219.7431899,39
1660201853.59561,1521219.7431942,51
1660201853.59561,1521219.7431979,61
1660201853.59561,1521219.7432016,51
1660201853.59561,1521219.7432052,42
1660201853.59561,1521219.7432088,58
1660201853.59561,1521219.7432127,72
1660201853.59561,1521219.7432171,72
1660201853.59561,1521219.7432208,72
1660201853.59561,1521219.7432249,77
1660201853.59561,1521219.7432291,79
1660201853.59561,1521219.7432327,72
1660201853.59561,1521219.7432364,70
1660201853.59561,1521219.7432405,82
1660201853.59561,1521219.7432443,79
1660201853.60957,1521219.7432481,58
1660201853.60957,1521220.3271511,56
1660201853.60957,1521220.3271716,68
1660201853.60957,1521220.3271815,75
1660201853.60957,1521220.3271904,72
1660201853.60957,1521220.3271988,65
1660201853.60957,1521220.3272077,75
1660201853.60957,1521220.3272399,65
1660201853.60957,1521220.3272505,30
1660201853.60957,1521220.3272572,30
1660201853.60957,1521220.3272632,51
1660201853.60957,1521220.3272684,61
1660201853.60957,1521220.3272746,70
1660201853.60957,1521220.3272813,75
1660201853.60957,1521220.3272891,56
1660201853.60957,1521220.3272951,49
1660201853.60957,1521220.3273015,77
1660201853.60957,1521220.3273062,110
1660201853.60957,1521220.3273115,110
1660201853.60957,1521220.3273151,89
1660201853.60957,1521220.327322,58
1660201853.60957,1521220.3273272,23
1660201853.60957,1521220.3273353,14
1660201853.60957,1521220.3273482,23
1660201854.1432,1521220.3273577,14
1660201854.1432,1521220.3273644,9
1660201854.1432,1521220.3273691,16
1660201854.1432,1521220.3273738,14
1660201854.1432,1521220.327383,21
1660201854.1432,1521220.3273894,35
1660201854.1432,1521220.3273965,30
1660201854.1432,1521220.3274039,28
1660201854.1432,1521220.3274119,54
1660201854.1432,1521220.3274182,75
1660201854.1432,1521220.327426,82
1660201854.1432,1521220.3274319,155
1660201854.1432,1521220.3274404,369
1660201854.1432,1521220.3274469,616
1660201854.1432,1521220.3274503,698
1660201854.1432,1521220.327456,491
1660201854.1432,1521220.3274646,148
1660201854.1432,1521220.3274751,32
1660201854.1432,1521220.3274852,98
1660201854.1432,1521220.3275134,58
1660201854.1432,1521220.3275216,-4
1660201854.1432,1521220.3275294,18
1660201854.1432,1521220.3275342,32
1660201854.1432,1521220.3275413,23
1660201854.1432,1521220.3275502,16
1660201854.1432,1521220.3275601,-11
1660201854.1432,1521220.3275705,-21
1660201854.1432,1521220.327581,4
1660201854.1432,1521220.3275873,21
1660201854.1432,1521220.3275927,18
1660201854.1432,1521220.3275963,16
1660201854.1432,1521220.3276019,28
1660201854.1432,1521220.3276101,37
1660201854.1432,1521220.3276184,42
1660201854.1432,1521220.3276267,47
1660201854.1432,1521220.3276342,49
1660201854.1432,1521220.3276419,51
1660201854.1432,1521220.3276497,51
1660201854.1432,1521220.3276573,54
1660201854.1432,1521220.3276663,75
1660201854.1432,1521220.327674,94
1660201854.1432,1521220.3276817,87
1660201854.1432,1521220.3276903,72
1660201854.1432,1521220.327698,79
1660201854.1432,1521220.3277046,103
1660201854.1432,1521220.3277124,134
1660201854.1432,1521220.3277204,150
1660201854.1432,1521220.3277288,164
1660201854.1432,1521220.3277367,190
1660201854.1432,1521220.3277443,197
1660201854.15418,1521220.8650156,185
1660201854.15418,1521220.8650334,185
1660201854.15418,1521220.8650701,183
1660201854.15418,1521220.8650806,157
1660201854.15418,1521220.8650849,108
1660201854.15418,1521220.8650898,49
1660201854.15418,1521220.8650931,7
1660201854.15418,1521220.8650964,0
1660201854.15418,1521220.8650997,7
1660201854.15418,1521220.8651146,-18
1660201854.15418,1521220.8651203,-56
1660201854.15418,1521220.8651237,-49
1660201854.15418,1521220.8651271,-28
1660201854.15418,1521220.8651304,-18
1660201854.15418,1521220.8651336,-18
1660201854.15418,1521220.8651368,-18
1660201854.15418,1521220.8651404,-35
1660201854.15418,1521220.8651442,-44
1660201854.15418,1521220.8651479,-28
1660201854.15418,1521220.8651514,-7
1660201854.15418,1521220.8651549,7
1660201854.15418,1521220.8651585,9
1660201854.15418,1521220.865162,-4
1660201854.15418,1521220.8651654,-14
1660201854.67481,1521220.865169,7
1660201854.67481,1521220.8651727,35
1660201854.67481,1521220.8651765,39
1660201854.67481,1521220.8651806,39
1660201854.67481,1521220.8651845,49
1660201854.67481,1521220.8651882,42
1660201854.67481,1521220.865192,37
1660201854.67481,1521220.8651957,56
1660201854.67481,1521220.8651996,68
1660201854.67481,1521220.8652034,72
1660201854.67481,1521220.8652078,70
1660201854.67481,1521220.8652115,58
1660201854.67481,1521220.8652152,61
1660201854.67481,1521220.8652189,77
1660201854.67481,1521220.8652229,72
1660201854.67481,1521220.8652268,61
1660201854.67481,1521220.8652309,72
1660201854.67481,1521220.8652347,77
1660201854.67481,1521220.8652378,70
1660201854.67481,1521220.8652405,72
1660201854.67481,1521220.8652433,77
1660201854.67481,1521220.8652462,91
1660201854.67481,1521220.865249,96
1660201854.67481,1521220.8652519,82
1660201854.67481,1521220.8652547,82
1660201854.67481,1521220.8652574,94
1660201854.67481,1521220.8652602,98
1660201854.67481,1521220.8652683,105
1660201854.67481,1521220.8652736,115
1660201854.67481,1521220.8652767,105
1660201854.67481,1521220.8652795,98
1660201854.67481,1521220.8652825,105
1660201854.67481,1521220.8652853,110
1660201854.67481,1521220.8652932,108
1660201854.67481,1521220.8652969,96
1660201854.67481,1521220.8652997,101
1660201854.67481,1521220.8653025,124
1660201854.67481,1521220.8653055,131
1660201854.67481,1521220.8653083,122
1660201854.67481,1521220.8653169,117
1660201854.67481,1521220.8653215,103
1660201854.67481,1521220.8653263,87
1660201854.67481,1521220.8653292,77
1660201854.67481,1521220.8653321,75
1660201854.67481,1521220.8653352,70
1660201854.67481,1521220.8653385,77
1660201854.67481,1521220.865342,72
1660201854.67481,1521220.8653451,37
1660201854.67481,1521220.8653485,32
1660201854.67481,1521221.3984999,61
1660201854.68578,1521221.3985178,75
1660201854.68578,1521221.3985278,77
1660201854.68578,1521221.3985362,91
1660201854.68578,1521221.3985419,112
1660201854.68578,1521221.3985486,185
1660201854.68578,1521221.3985573,381
1660201854.68578,1521221.3985629,602
1660201854.68578,1521221.3985694,646
1660201854.68578,1521221.3985766,399
1660201854.68578,1521221.3985851,75
1660201854.68578,1521221.3985918,16
1660201854.68578,1521221.3986003,75
1660201854.68578,1521221.3986085,23
1660201854.68578,1521221.3986177,-2
1660201854.68578,1521221.3986256,30
1660201854.68578,1521221.3986364,7
1660201854.68578,1521221.3986408,-21
1660201854.68578,1521221.3986466,-7
1660201854.68578,1521221.398652,-23
1660201854.68578,1521221.3986597,-49
1660201854.68578,1521221.3986673,-28
1660201854.68578,1521221.3986751,-7
1660201854.68578,1521221.3986844,-16
1660201854.68578,1521221.3986924,-14
1660201855.30715,1521221.3987007,4
1660201855.30715,1521221.3987091,11
1660201855.30715,1521221.3988061,7
1660201855.30715,1521221.3988176,9
1660201855.30715,1521221.3988233,9
1660201855.30715,1521221.3988279,7
1660201855.30715,1521221.3988324,11
1660201855.30715,1521221.3988369,23
1660201855.30715,1521221.3988411,32
1660201855.30715,1521221.3988468,39
1660201855.30715,1521221.3988525,54
1660201855.30715,1521221.3988571,72
1660201855.30715,1521221.3988603,91
1660201855.30715,1521221.3988639,108
1660201855.30715,1521221.398867,117
1660201855.30715,1521221.3988704,119
1660201855.30715,1521221.3988735,141
1660201855.30715,1521221.3988764,183
1660201855.30715,1521221.3988795,195
1660201855.30715,1521221.3988827,178
1660201855.30715,1521221.3988857,178
1660201855.30715,1521221.3988889,178
1660201855.30715,1521221.3989546,152
1660201855.30715,1521221.398962,105
1660201855.30715,1521221.3989684,39
1660201855.30715,1521221.3989726,-11
1660201855.30715,1521221.3989765,-21
1660201855.30715,1521221.3989801,-28
1660201855.30715,1521221.3989839,-30
1660201855.30715,1521221.3989876,-9
1660201855.30715,1521221.3989914,0
1660201855.30715,1521221.3989957,-9
1660201855.30715,1521221.3989993,-2
1660201855.30715,1521221.399003,14
1660201855.30715,1521221.3990068,7
1660201855.30715,1521221.3990232,-4
1660201855.30715,1521221.3990371,7
1660201855.30715,1521221.3990455,21
1660201855.30715,1521221.3990525,23
1660201855.30715,1521221.3990578,28
1660201855.30715,1521221.3990617,28
1660201855.30715,1521221.3990659,28
1660201855.30715,1521221.3990725,32
1660201855.30715,1521221.3990782,51
1660201855.30715,1521221.3990813,61
1660201855.30715,1521221.3990842,47
1660201855.30715,1521221.399087,42
1660201855.30715,1521221.3990899,56
1660201855.30715,1521222.0322938,68
1660201855.30715,1521222.0323162,68
1660201855.31712,1521222.032331,61
1660201855.31712,1521222.0323485,39
1660201855.31712,1521222.0323601,25
1660201855.31712,1521222.0323692,25
1660201855.31712,1521222.0323778,18
1660201855.31712,1521222.032386,30
1660201855.31712,1521222.0323916,51
1660201855.31712,1521222.0324045,23
1660201855.31712,1521222.0324142,-4
1660201855.31712,1521222.0324208,14
1660201855.31712,1521222.0324333,18
1660201855.31712,1521222.0324429,2
1660201855.31712,1521222.0324512,14
1660201855.31712,1521222.0324608,30
1660201855.31712,1521222.0324663,18
1660201855.31712,1521222.0324736,16
1660201855.31712,1521222.03248,37
1660201855.31712,1521222.0324839,44
1660201855.31712,1521222.0324878,28
1660201855.31712,1521222.0324932,18
1660201855.31712,1521222.0324993,21
1660201855.31712,1521222.0325037,23
1660201855.31712,1521222.0325083,28
1660201855.31712,1521222.0325141,37
1660201855.84147,1521222.0325184,58
1660201855.84147,1521222.032523,65
1660201855.84147,1521222.0325272,72
1660201855.84147,1521222.0325315,96
1660201855.84147,1521222.0325354,108
1660201855.84147,1521222.0325393,89
1660201855.84147,1521222.0325431,61
1660201855.84147,1521222.0325469,63
1660201855.84147,1521222.0325506,75
1660201855.84147,1521222.0325546,54
1660201855.84147,1521222.0325585,51
1660201855.84147,1521222.0325628,72
1660201855.84147,1521222.0325688,37
1660201855.84147,1521222.032573,16
1660201855.84147,1521222.0325768,54
1660201855.84147,1521222.0325808,63
1660201855.84147,1521222.0325914,47
1660201855.84147,1521222.0325949,42
1660201855.84147,1521222.0325987,49
1660201855.84147,1521222.0326017,70
1660201855.84147,1521222.0326124,129
1660201855.84147,1521222.03262,315
1660201855.84147,1521222.0326224,580
1660201855.84147,1521222.0326246,682
1660201855.84147,1521222.0326267,444
1660201855.84147,1521222.0326326,89
1660201855.84147,1521222.0326437,-7
1660201855.84147,1521222.0326489,51
1660201855.84147,1521222.0326511,14
1660201855.84147,1521222.0326532,-23
1660201855.84147,1521222.0326599,11
1660201855.84147,1521222.0326709,21
1660201855.84147,1521222.0326811,0
1660201855.84147,1521222.0326949,9
1660201855.84147,1521222.0327079,11
1660201855.84147,1521222.0327212,-2
1660201855.84147,1521222.0327347,2
1660201855.84147,1521222.0327476,7
1660201855.84147,1521222.0327609,7
1660201855.84147,1521222.0327741,23
1660201855.84147,1521222.0327873,30
1660201855.84147,1521222.0328367,14
1660201855.84147,1521222.0328672,18
1660201855.84147,1521222.0328742,44
1660201855.84147,1521222.0328793,56
1660201855.84147,1521222.0328859,58
1660201855.84147,1521222.0328915,54
1660201855.84147,1521222.5700338,51
1660201855.84147,1521222.5700508,70
1660201855.84147,1521222.5700547,82
1660201855.85144,1521222.570058,84
1660201855.85144,1521222.5700632,105
1660201855.85144,1521222.5700665,131
1660201855.85144,1521222.5700699,134
1660201855.85144,1521222.570075,136
1660201855.85144,1521222.5700785,159
1660201855.85144,1521222.5700837,185
1660201855.85144,1521222.5700874,197
1660201855.85144,1521222.5700924,190
1660201855.85144,1521222.5700957,183
1660201855.85144,1521222.5701014,164
1660201855.85144,1521222.5701048,131
1660201855.85144,1521222.5701082,101
1660201855.85144,1521222.5701116,70
1660201855.85144,1521222.5701168,35
1660201855.85144,1521222.5701207,-7
1660201855.85144,1521222.5701258,-37
1660201855.85144,1521222.5701311,-56
1660201855.85144,1521222.570136,-75
1660201855.85144,1521222.570139,-77
1660201855.85144,1521222.5701418,-42
1660201855.85144,1521222.5701445,-30
1660201855.85144,1521222.5701474,-47
1660201855.85144,1521222.5701502,-35
1660201856.38725,1521222.570153,-11
1660201856.38725,1521222.5701559,-9

1660201856.38725,1521222.5701586,-2
1660201856.38725,1521222.5701613,23
1660201856.38725,1521222.570164,32
1660201856.38725,1521222.5701666,21
1660201856.38725,1521222.5701693,23
1660201856.38725,1521222.5701719,44
1660201856.38725,1521222.5701747,35
1660201856.38725,1521222.5701774,4
1660201856.38725,1521222.5701801,7
1660201856.38725,1521222.5701828,30
1660201856.38725,1521222.5701854,35
1660201856.38725,1521222.5701881,44
1660201856.38725,1521222.5701908,58
1660201856.38725,1521222.5701935,54
1660201856.38725,1521222.5701962,37
1660201856.38725,1521222.5701988,28
1660201856.38725,1521222.5702014,28
1660201856.38725,1521222.5702041,42
1660201856.38725,1521222.5702067,51
1660201856.38725,1521222.5702094,56
1660201856.38725,1521222.570213,68
1660201856.38725,1521222.5702167,70
1660201856.38725,1521222.5702197,61
1660201856.38725,1521222.5702226,68
1660201856.38725,1521222.570226,91
1660201856.38725,1521222.5702293,91
1660201856.38725,1521222.5702345,79
1660201856.38725,1521222.5702376,87
1660201856.38725,1521222.5702408,91
1660201856.38725,1521222.5702463,89
1660201856.38725,1521222.5702494,101
1660201856.38725,1521222.5702545,103
1660201856.38725,1521222.5702577,98
1660201856.38725,1521222.5702612,108
1660201856.38725,1521222.5702676,105
1660201856.38725,1521222.5702707,108
1660201856.38725,1521222.5702828,127
1660201856.38725,1521222.5702909,138
1660201856.38725,1521222.5702947,152
1660201856.38725,1521222.5703009,176
1660201856.38725,1521222.5703041,181
1660201856.38725,1521222.5703161,169
1660201856.38725,1521222.5703298,150
1660201856.38725,1521222.5703372,122
1660201856.38725,1521223.1055178,101
1660201856.38725,1521223.1055414,108
1660201856.38725,1521223.1055515,105
1660201856.38725,1521223.1055649,91
1660201856.40121,1521223.1055714,94
1660201856.40121,1521223.105576,105
1660201856.40121,1521223.1055806,110
1660201856.40121,1521223.1055839,103
1660201856.40121,1521223.1055891,91
1660201856.40121,1521223.1055923,79
1660201856.40121,1521223.1055975,65
1660201856.40121,1521223.1056014,63
1660201856.40121,1521223.1056069,105
1660201856.40121,1521223.1056108,254
1660201856.40121,1521223.1056199,486
1660201856.40121,1521223.1056328,639
1660201856.40121,1521223.1056422,515
1660201856.40121,1521223.1056481,174
1660201856.40121,1521223.1056584,-14
1660201856.40121,1521223.1056701,28
1660201856.40121,1521223.1056826,35
1660201856.40121,1521223.1056916,-14
1660201856.40121,1521223.1056958,-14
1660201856.40121,1521223.1057019,2
1660201856.40121,1521223.1057068,-2
1660201856.40121,1521223.1057129,4
1660201856.40121,1521223.1057175,25
1660201856.40121,1521223.1057255,30
1660201857.01172,1521223.1057344,16
1660201857.01172,1521223.1057413,2
1660201857.01172,1521223.1057464,-2
1660201857.01172,1521223.105752,-4
1660201857.01172,1521223.105763,0
1660201857.01172,1521223.1057719,4
1660201857.01172,1521223.1057771,-2
1660201857.01172,1521223.1057833,-4
1660201857.01172,1521223.1057905,0
1660201857.01172,1521223.1057977,4
1660201857.01172,1521223.1058054,14
1660201857.01172,1521223.1058134,28
1660201857.01172,1521223.1058227,30
1660201857.01172,1521223.1058292,25
1660201857.01172,1521223.1058352,37
1660201857.01172,1521223.1058409,54
1660201857.01172,1521223.105851,65
1660201857.01172,1521223.1058606,87
1660201857.01172,1521223.1058685,112
1660201857.01172,1521223.1058763,127
1660201857.01172,1521223.1058846,131
1660201857.01172,1521223.1058927,143
1660201857.01172,1521223.1058992,164
1660201857.01172,1521223.1059048,183
1660201857.01172,1521223.1059078,197
1660201857.01172,1521223.1059119,181
1660201857.01172,1521223.1059172,136
1660201857.01172,1521223.1059204,98
1660201857.01172,1521223.1059236,68
1660201857.01172,1521223.1059294,47
1660201857.01172,1521223.1059338,28
1660201857.01172,1521223.1059389,-2
1660201857.01172,1521223.105943,-4
1660201857.01172,1521223.1059491,14
1660201857.01172,1521223.1059524,16
1660201857.01172,1521223.1059575,23
1660201857.01172,1521223.1059614,35
1660201857.01172,1521223.1059675,39
1660201857.01172,1521223.1059712,35
1660201857.01172,1521223.1059763,28
1660201857.01172,1521223.1059796,35
1660201857.01172,1521223.1059858,47
1660201857.01172,1521223.1059914,54
1660201857.01172,1521223.1059947,63
1660201857.01172,1521223.1059995,70
1660201857.01172,1521223.7392028,63
1660201857.01172,1521223.7392213,65
1660201857.01172,1521223.7392299,87
1660201857.01172,1521223.7392372,89
1660201857.01172,1521223.7392453,79
1660201857.02169,1521223.7392534,82
1660201857.02169,1521223.7392614,61
1660201857.02169,1521223.7392695,30
1660201857.02169,1521223.7392775,42
1660201857.02169,1521223.739285,58
1660201857.02169,1521223.7392911,44
1660201857.02169,1521223.7392984,47
1660201857.02169,1521223.7393042,51
1660201857.02169,1521223.7393109,21
1660201857.02169,1521223.7393196,11
1660201857.02169,1521223.7393281,35
1660201857.02169,1521223.7393387,37
1660201857.02169,1521223.7393483,32
1660201857.02169,1521223.739355,47
1660201857.02169,1521223.739361,44
1660201857.02169,1521223.7393675,32
1660201857.02169,1521223.7393779,39
1660201857.02169,1521223.7393878,32
1660201857.02169,1521223.7393975,21
1660201857.02169,1521223.7394058,35
1660201857.02169,1521223.7394133,37
1660201857.02169,1521223.7394209,16
1660201857.02169,1521223.7394263,18
1660201857.02169,1521223.739432,51
1660201857.5595,1521223.7394397,61
1660201857.5595,1521223.7394458,51
1660201857.5595,1521223.7394498,75
1660201857.5595,1521223.7394534,105
1660201857.5595,1521223.7394584,115
1660201857.5595,1521223.7394627,112
1660201857.5595,1521223.739468,89
1660201857.5595,1521223.7394742,63
1660201857.5595,1521223.739482,68
1660201857.5595,1521223.7394928,70
1660201857.5595,1521223.739503,65
1660201857.5595,1521223.7395121,65
1660201857.5595,1521223.7395203,72
1660201857.5595,1521223.7395272,82
1660201857.5595,1521223.7395363,84
1660201857.5595,1521223.7395435,79
1660201857.5595,1521223.7395496,84
1660201857.5595,1521223.7395543,110
1660201857.5595,1521223.7396766,129
1660201857.5595,1521223.7396887,117
1660201857.5595,1521223.7396953,143
1660201857.5595,1521223.7397021,308
1660201857.5595,1521223.7397077,555
1660201857.5595,1521223.7397144,677
1660201857.5595,1521223.7397333,526
1660201857.5595,1521223.7398251,206
1660201857.5595,1521223.7398322,51
1660201857.5595,1521223.7398376,98
1660201857.5595,1521223.7398427,87
1660201857.5595,1521223.7398844,21
1660201857.5595,1521223.7398902,32
1660201857.5595,1521223.7398939,54
1660201857.5595,1521223.7398994,42
1660201857.5595,1521223.7399035,54
1660201857.5595,1521223.7399085,65
1660201857.5595,1521223.7399117,51
1660201857.5595,1521223.7399173,54
1660201857.5595,1521223.7399217,65
1660201857.5595,1521223.7399271,72
1660201857.5595,1521223.7399315,79
1660201857.5595,1521223.7399379,87
1660201857.5595,1521223.7399468,79
1660201857.5595,1521223.7399556,75
1660201857.5595,1521223.7399631,72
1660201857.5595,1521224.2780385,70
1660201857.5595,1521224.278063,70
1660201857.5595,1521224.2780713,70
1660201857.5595,1521224.2780782,58
1660201857.5595,1521224.2781644,47
1660201857.5595,1521224.2781989,56
1660201857.57646,1521224.2782136,82
1660201857.57646,1521224.2782208,105
1660201857.57646,1521224.2782276,101
1660201857.57646,1521224.278234,72
1660201857.57646,1521224.2782409,58
1660201857.57646,1521224.2782475,84
1660201857.57646,1521224.2782541,112
1660201857.57646,1521224.2782605,110
1660201857.57646,1521224.2782673,103
1660201857.57646,1521224.2782756,115
1660201857.57646,1521224.2782847,108
1660201857.57646,1521224.2782908,87
1660201857.57646,1521224.2782962,75
1660201857.57646,1521224.2783,42
1660201857.57646,1521224.2783053,0
1660201857.57646,1521224.2783135,-28
1660201857.57646,1521224.2783225,-72
1660201857.57646,1521224.2783288,-112
1660201857.57646,1521224.2783355,-94
1660201857.57646,1521224.2783512,-68
1660201857.57646,1521224.2783675,-77
1660201857.57646,1521224.2783761,-75
1660201857.57646,1521224.2783824,-63
1660201857.57646,1521224.2783881,-68
1660201858.08123,1521224.2783917,-51
1660201858.08123,1521224.2783983,-21
1660201858.08123,1521224.2784048,-30
1660201858.08123,1521224.2784137,-35
1660201858.08123,1521224.2784208,-14
1660201858.08123,1521224.2784256,-9
1660201858.08123,1521224.2784324,-14
1660201858.08123,1521224.2784562,4
1660201858.08123,1521224.2784647,28
1660201858.08123,1521224.2784703,30
1660201858.08123,1521224.2784939,25
1660201858.08123,1521224.2785007,28
1660201858.08123,1521224.2785051,30
1660201858.08123,1521224.2785084,35
1660201858.08123,1521224.2785116,37
1660201858.08123,1521224.2785151,32
1660201858.08123,1521224.2785183,39
1660201858.08123,1521224.2785216,44
1660201858.08123,1521224.2785254,37
1660201858.08123,1521224.2785288,37
1660201858.08123,1521224.2785323,54
1660201858.08123,1521224.2785358,44
1660201858.08123,1521224.2785389,32
1660201858.08123,1521224.2785419,42
1660201858.08123,1521224.2785453,49
1660201858.08123,1521224.2785486,51
1660201858.08123,1521224.2785523,54
1660201858.08123,1521224.2785557,63
1660201858.08123,1521224.2785602,77
1660201858.08123,1521224.2785645,70
1660201858.08123,1521224.2785682,56
1660201858.08123,1521224.2785763,61
1660201858.08123,1521224.2785819,79
1660201858.08123,1521224.2785863,108
1660201858.08123,1521224.2785902,127
1660201858.08123,1521224.2785943,129
1660201858.08123,1521224.2785983,129
1660201858.08123,1521224.2786026,110
1660201858.08123,1521224.2786066,82
1660201858.08123,1521224.2786106,70
1660201858.08123,1521224.2786145,75
1660201858.08123,1521224.2786194,68
1660201858.08123,1521224.2786261,72
1660201858.08123,1521224.8116916,94
1660201858.08123,1521224.8117348,91
1660201858.08123,1521224.8117455,75
1660201858.08123,1521224.8117507,75
1660201858.08123,1521224.8117549,98
1660201858.08123,1521224.8117589,117
1660201858.08123,1521224.8117629,96
1660201858.09319,1521224.8117668,63
1660201858.09319,1521224.8117708,79
1660201858.09319,1521224.8117746,155
1660201858.09319,1521224.8117786,336
1660201858.09319,1521224.8117824,609
1660201858.09319,1521224.8117863,712
1660201858.09319,1521224.8117902,423
1660201858.09319,1521224.8117941,44
1660201858.09319,1521224.8117981,-4
1660201858.09319,1521224.8118042,63
1660201858.09319,1521224.8118081,-7
1660201858.09319,1521224.8118132,-44
1660201858.09319,1521224.8118169,-23
1660201858.09319,1521224.8118218,-44
1660201858.09319,1521224.8118254,-51
1660201858.09319,1521224.8118307,-30
1660201858.09319,1521224.8118343,-42
1660201858.09319,1521224.8118393,-42
1660201858.09319,1521224.8118427,-11
1660201858.09319,1521224.8118757,-7
1660201858.09319,1521224.8118812,-11
1660201858.09319,1521224.8118856,-2
1660201858.09319,1521224.8118909,4
1660201858.09319,1521224.8118943,14
1660201858.71621,1521224.8118979,30
1660201858.71621,1521224.8119014,37
1660201858.71621,1521224.8119048,30
1660201858.71621,1521224.8119082,35
1660201858.71621,1521224.8119117,56
1660201858.71621,1521224.8119152,68
1660201858.71621,1521224.8119186,77
1660201858.71621,1521224.811922,79
1660201858.71621,1521224.8119253,77
1660201858.71621,1521224.8119292,84
1660201858.71621,1521224.8119334,91
1660201858.71621,1521224.8119375,101
1660201858.71621,1521224.8119408,124
1660201858.71621,1521224.8119442,122
1660201858.71621,1521224.8119497,110
1660201858.71621,1521224.8119539,127
1660201858.71621,1521224.8119606,145
1660201858.71621,1521224.8119646,152
1660201858.71621,1521224.8119701,166
1660201858.71621,1521224.8119754,162
1660201858.71621,1521224.8119804,105
1660201858.71621,1521224.8119846,49
1660201858.71621,1521224.8119898,30
1660201858.71621,1521224.8119932,11
1660201858.71621,1521224.8119971,-7
1660201858.71621,1521224.8120046,-11
1660201858.71621,1521224.8120119,-11
1660201858.71621,1521224.8120168,-23
1660201858.71621,1521224.8120242,-28
1660201858.71621,1521224.8120318,0
1660201858.71621,1521224.8120361,16
1660201858.71621,1521224.8120419,9
1660201858.71621,1521224.812045,16
1660201858.71621,1521224.812049,23
1660201858.71621,1521224.812054,25
1660201858.71621,1521224.8120576,47
1660201858.71621,1521224.8120637,65
1660201858.71621,1521224.8120677,68
1660201858.71621,1521224.8120709,49
1660201858.71621,1521224.8120762,37
1660201858.71621,1521224.8120794,61
1660201858.71621,1521224.8120833,58
1660201858.71621,1521225.4458328,35
1660201858.71621,1521225.4458481,49
1660201858.71621,1521225.4458524,61
1660201858.71621,1521225.4459356,44
1660201858.71621,1521225.4459494,39
1660201858.71621,1521225.4459549,63
1660201858.71621,1521225.4459594,82
1660201858.71621,1521225.445964,84
1660201858.72618,1521225.4459687,79
1660201858.72618,1521225.4459731,49
1660201858.72618,1521225.4459778,23
1660201858.72618,1521225.4459846,39
1660201858.72618,1521225.4459891,65
1660201858.72618,1521225.4459942,54
1660201858.72618,1521225.4460015,42
1660201858.72618,1521225.4460251,42
1660201858.72618,1521225.4460348,30
1660201858.72618,1521225.4460479,28
1660201858.72618,1521225.4460559,42
1660201858.72618,1521225.4460686,44
1660201858.72618,1521225.4460792,54
1660201858.72618,1521225.4461196,72
1660201858.72618,1521225.4461316,79
1660201858.72618,1521225.4461367,89
1660201858.72618,1521225.4461414,112
1660201858.72618,1521225.4461463,136
1660201858.72618,1521225.4461741,119
1660201858.72618,1521225.4461822,61
1660201858.72618,1521225.446186,39
1660201858.72618,1521225.4461897,63
1660201858.72618,1521225.4461932,70
1660201858.72618,1521225.4461965,61
1660201859.25436,1521225.4461999,56
1660201859.25436,1521225.4462067,56
1660201859.25436,1521225.4462137,68
1660201859.25436,1521225.4462207,68
1660201859.25436,1521225.4462261,68
1660201859.25436,1521225.4462301,98
1660201859.25436,1521225.4462336,127
1660201859.25436,1521225.446237,124
1660201859.25436,1521225.446241,134
1660201859.25436,1521225.4462444,239
1660201859.25436,1521225.4462478,486
1660201859.25436,1521225.4462511,710
1660201859.25436,1521225.4462545,663
1660201859.25436,1521225.4462579,343
1660201859.25436,1521225.4462614,89
1660201859.25436,1521225.446265,94
1660201859.25436,1521225.4462683,131
1660201859.25436,1521225.446272,75
1660201859.25436,1521225.4462759,58
1660201859.25436,1521225.4462798,94
1660201859.25436,1521225.4462837,103
1660201859.25436,1521225.4462878,110
1660201859.25436,1521225.4462919,108
1660201859.25436,1521225.446296,87
1660201859.25436,1521225.4463005,82
1660201859.25436,1521225.4463045,84
1660201859.25436,1521225.4463082,110
1660201859.25436,1521225.4463118,162
1660201859.25436,1521225.4463152,178
1660201859.25436,1521225.4463188,115
1660201859.25436,1521225.4463235,44
1660201859.25436,1521225.4463271,35
1660201859.25436,1521225.4463317,42
1660201859.25436,1521225.4463351,14
1660201859.25436,1521225.4463389,2
1660201859.25436,1521225.4463448,25
1660201859.25436,1521225.4463515,30
1660201859.25436,1521225.4463551,21
1660201859.25436,1521225.4463587,0
1660201859.25436,1521225.4463623,-11
1660201859.25436,1521225.4463658,2
1660201859.25436,1521225.9815187,-4
1660201859.25436,1521225.9815346,-2
1660201859.25436,1521225.9815392,30
1660201859.25436,1521225.9815453,49
1660201859.25436,1521225.9815485,51
1660201859.25436,1521225.9815516,61
1660201859.25436,1521225.981555,65
1660201859.25436,1521225.9815591,65
1660201859.25436,1521225.9815632,68
1660201859.26533,1521225.9815697,47
1660201859.26533,1521225.9815737,0
1660201859.26533,1521225.981579,-37
1660201859.26533,1521225.9815828,-77
1660201859.26533,1521225.9815882,-129
1660201859.26533,1521225.9815914,-157
1660201859.26533,1521225.9815968,-145
1660201859.26533,1521225.9816,-129
1660201859.26533,1521225.9816033,-117
1660201859.26533,1521225.9816084,-103
1660201859.26533,1521225.9816132,-94
1660201859.26533,1521225.9816195,-89
1660201859.26533,1521225.9816227,-79
1660201859.26533,1521225.9816267,-77
1660201859.26533,1521225.9816306,-87
1660201859.26533,1521225.981636,-84
1660201859.26533,1521225.9816395,-75
1660201859.26533,1521225.9816455,-79
1660201859.26533,1521225.9816489,-75
1660201859.26533,1521225.9816539,-61
1660201859.26533,1521225.981657,-42
1660201859.26533,1521225.9816602,-37
1660201859.26533,1521225.9816635,-37
1660201859.26533,1521225.9816686,-18
1660201859.7462,1521225.9816722,2
1660201859.7462,1521225.9816754,14
1660201859.7462,1521225.9816786,30
1660201859.7462,1521225.9816817,37
1660201859.7462,1521225.9816851,25
1660201859.7462,1521225.9816886,23
1660201859.7462,1521225.9816918,51
1660201859.7462,1521225.9816952,84
1660201859.7462,1521225.9816991,82
1660201859.7462,1521225.9817024,68
1660201859.7462,1521225.9817056,63
1660201859.7462,1521225.9817087,68
1660201859.7462,1521225.9817118,82
1660201859.7462,1521225.981721,101
1660201859.7462,1521225.98173,112
1660201859.7462,1521225.9817368,110
1660201859.7462,1521225.9817411,105
1660201859.7462,1521225.9817453,119
1660201859.7462,1521225.9817494,122
1660201859.7462,1521225.9817533,145
1660201859.7462,1521225.9817572,199
1660201859.7462,1521225.981761,181
1660201859.7462,1521225.981765,138
1660201859.7462,1521225.981769,145
1660201859.7462,1521225.9817731,101
1660201859.7462,1521225.981777,35
1660201859.7462,1521225.9817811,63
1660201859.7462,1521225.9817853,87
1660201859.7462,1521225.9817894,77
1660201859.7462,1521225.9817935,110
1660201859.7462,1521225.9817976,103
1660201859.7462,1521225.9818027,42
1660201859.7462,1521225.9818064,49
1660201859.7462,1521225.9818102,98
1660201859.7462,1521225.981814,119
1660201859.7462,1521225.981818,122
1660201859.7462,1521225.9818215,124
1660201859.7462,1521225.9818254,157
1660201859.7462,1521225.9818291,263
1660201859.7462,1521225.9818328,482
1660201859.7462,1521226.4700275,733
1660201859.7462,1521226.4700478,754
1660201859.7462,1521226.4700572,418
1660201859.7462,1521226.4700633,84
1660201859.7462,1521226.4700697,65
1660201859.7462,1521226.4700749,127
1660201859.7462,1521226.4700811,77
1660201859.7462,1521226.4700853,30
1660201859.7462,1521226.4700909,58
1660201859.7462,1521226.4700962,87
1660201859.75618,1521226.4701054,70
1660201859.75618,1521226.4701969,58
1660201859.75618,1521226.470203,68
1660201859.75618,1521226.4702094,75
1660201859.75618,1521226.4702144,63
1660201859.75618,1521226.4702223,37
1660201859.75618,1521226.4702285,30
1660201859.75618,1521226.4702333,51
1660201859.75618,1521226.4702382,51
1660201859.75618,1521226.470243,32
1660201859.75618,1521226.4702482,37
1660201859.75618,1521226.4702527,44
1660201859.75618,1521226.4702573,39
1660201859.75618,1521226.4702624,35
1660201859.75618,1521226.4702673,39
1660201859.75618,1521226.4702723,49
1660201859.75618,1521226.4702772,56
1660201859.75618,1521226.4702819,79
1660201859.75618,1521226.4702866,77
1660201859.75618,1521226.4702922,37
1660201859.75618,1521226.4702974,56
1660201859.75618,1521226.4703023,108
1660201859.75618,1521226.4703082,117
1660201859.75618,1521226.470313,127
1660201860.32745,1521226.4703183,127
1660201860.32745,1521226.4703238,115
1660201860.32745,1521226.4703284,143
1660201860.32745,1521226.4703331,176
1660201860.32745,1521226.4703379,176
1660201860.32745,1521226.4703423,131
1660201860.32745,1521226.4703471,65
1660201860.32745,1521226.4703515,42
1660201860.32745,1521226.4703561,39
1660201860.32745,1521226.4703606,23
1660201860.32745,1521226.4703663,4
1660201860.32745,1521226.4705575,-23
1660201860.32745,1521226.4705651,-32
1660201860.32745,1521226.4705693,-21
1660201860.32745,1521226.4705725,-28
1660201860.32745,1521226.4705758,-49
1660201860.32745,1521226.4705794,-47
1660201860.32745,1521226.4705829,-37
1660201860.32745,1521226.4705864,-35
1660201860.32745,1521226.4705896,-39
1660201860.32745,1521226.470593,-56
1660201860.32745,1521226.4705965,-51
1660201860.32745,1521226.4706002,-28
1660201860.32745,1521226.4706038,-16
1660201860.32745,1521226.4706074,-4
1660201860.32745,1521226.4706112,-4
1660201860.32745,1521226.4706149,-21
1660201860.32745,1521226.4706181,-11
1660201860.32745,1521226.4706218,16
1660201860.32745,1521226.4706254,23
1660201860.32745,1521226.4706289,16
1660201860.32745,1521226.4706326,14
1660201860.32745,1521226.4706379,18
1660201860.32745,1521226.4706444,23
1660201860.32745,1521226.4706483,25
1660201860.32745,1521226.4706537,35
1660201860.32745,1521226.4706571,56
1660201860.32745,1521226.47066,63
1660201860.32745,1521226.470663,47
1660201860.32745,1521227.0541541,44
1660201860.32745,1521227.0541708,70
1660201860.32745,1521227.0541755,79
1660201860.32745,1521227.0541812,68
1660201860.32745,1521227.0541851,49
1660201860.32745,1521227.0541905,44
1660201860.32745,1521227.0541943,65
1660201860.32745,1521227.0541996,77
1660201860.32745,1521227.0542036,72
1660201860.32745,1521227.0542088,68
1660201860.32745,1521227.0542126,54
1660201860.34142,1521227.0542163,25
1660201860.34142,1521227.05422,0
1660201860.34142,1521227.0542237,-14
1660201860.34142,1521227.0542274,-7
1660201860.34142,1521227.0542311,11
1660201860.34142,1521227.0542349,18
1660201860.34142,1521227.0542401,18
1660201860.34142,1521227.0542437,11
1660201860.34142,1521227.0542472,11
1660201860.34142,1521227.0542506,25
1660201860.34142,1521227.0542542,21
1660201860.34142,1521227.0542578,32
1660201860.34142,1521227.0542613,75
1660201860.34142,1521227.0542651,87
1660201860.34142,1521227.0542688,152
1660201860.34142,1521227.0542741,385
1660201860.34142,1521227.0542778,656
1660201860.34142,1521227.054283,672
1660201860.34142,1521227.0542868,348
1660201860.34142,1521227.054292,47
1660201860.34142,1521227.0542958,56
1660201860.34142,1521227.0543012,105
1660201860.34142,1521227.0543049,37
1660201860.34142,1521227.0543113,23
1660201860.9083,1521227.0543173,61
1660201860.9083,1521227.0543204,54
1660201860.9083,1521227.0543234,37
1660201860.9083,1521227.0543284,37
1660201860.9083,1521227.0543331,37
1660201860.9083,1521227.0543385,54
1660201860.9083,1521227.0543444,77
1660201860.9083,1521227.0543821,61
1660201860.9083,1521227.0543955,32
1660201860.9083,1521227.0544001,37
1660201860.9083,1521227.0544037,56
1660201860.9083,1521227.0544071,63
1660201860.9083,1521227.0544128,77
1660201860.9083,1521227.0544186,87
1660201860.9083,1521227.0544234,77
1660201860.9083,1521227.0544298,79
1660201860.9083,1521227.0544346,94
1660201860.9083,1521227.0544403,98
1660201860.9083,1521227.0544465,112
1660201860.9083,1521227.0544498,131
1660201860.9083,1521227.0544543,138
1660201860.9083,1521227.0544578,150
1660201860.9083,1521227.054461,169
1660201860.9083,1521227.0544642,188
1660201860.9083,1521227.0544672,188
1660201860.9083,1521227.0544706,192
1660201860.9083,1521227.0544739,223
1660201860.9083,1521227.0544774,235
1660201860.9083,1521227.0544809,228
1660201860.9083,1521227.0544844,230
1660201860.9083,1521227.0544879,214
1660201860.9083,1521227.0544913,169
1660201860.9083,1521227.0544948,134
1660201860.9083,1521227.0544983,101
1660201860.9083,1521227.054502,68
1660201860.9083,1521227.0545056,37
1660201860.9083,1521227.0545095,16
1660201860.9083,1521227.0545134,16
1660201860.9083,1521227.6390075,18
1660201860.9083,1521227.639029,18
1660201860.9083,1521227.6390385,28
1660201860.9083,1521227.6390474,30
1660201860.9083,1521227.6390566,44
1660201860.9083,1521227.6390628,47
1660201860.9083,1521227.6390671,37
1660201860.9083,1521227.6390768,56
1660201860.9083,1521227.6390833,68
1660201860.9083,1521227.6390903,39
1660201860.9083,1521227.6391036,14
1660201860.9083,1521227.6391151,30
1660201860.92227,1521227.6391242,47
1660201860.92227,1521227.639131,32
1660201860.92227,1521227.6391368,25
1660201860.92227,1521227.6391447,14
1660201860.92227,1521227.6391528,-25
1660201860.92227,1521227.6391622,-35
1660201860.92227,1521227.639169,-14
1660201860.92227,1521227.6391815,-35
1660201860.92227,1521227.6392214,-44
1660201860.92227,1521227.6392336,-9
1660201860.92227,1521227.6392409,7
1660201860.92227,1521227.6392483,0
1660201860.92227,1521227.6392517,-11
1660201860.92227,1521227.6392551,-7
1660201860.92227,1521227.6392601,11
1660201860.92227,1521227.6392657,7
1660201860.92227,1521227.6392733,-11
1660201860.92227,1521227.6392806,-9
1660201860.92227,1521227.6392882,4
1660201860.92227,1521227.639296,7
1660201860.92227,1521227.639302,7
1660201860.92227,1521227.639307,23
1660201860.92227,1521227.6393145,35
1660201860.92227,1521227.6393233,18
1660201861.54467,1521227.6393273,9
1660201861.54467,1521227.6393305,35
1660201861.54467,1521227.6393338,58
1660201861.54467,1521227.6393374,70
1660201861.54467,1521227.6393409,91
1660201861.54467,1521227.6393444,87
1660201861.54467,1521227.6393478,61
1660201861.54467,1521227.6393513,58
1660201861.54467,1521227.6393543,70
1660201861.54467,1521227.6393576,47
1660201861.54467,1521227.6393608,23
1660201861.54467,1521227.639364,47
1660201861.54467,1521227.6393685,75
1660201861.54467,1521227.6393752,70
1660201861.54467,1521227.6393801,72
1660201861.54467,1521227.6393844,96
1660201861.54467,1521227.6393889,112
1660201861.54467,1521227.6393936,103
1660201861.54467,1521227.6393991,98
1660201861.54467,1521227.6394034,119
1660201861.54467,1521227.6394091,174
1660201861.54467,1521227.6394165,331
1660201861.54467,1521227.6394236,592
1660201861.54467,1521227.6394324,757
1660201861.54467,1521227.6394427,590
1660201861.54467,1521227.6394495,235
1660201861.54467,1521227.639456,87
1660201861.54467,1521227.639465,136
1660201861.54467,1521227.6394714,122
1660201861.54467,1521227.6394785,82
1660201861.54467,1521227.6394874,101
1660201861.54467,1521227.6394941,108
1660201861.54467,1521227.6395006,94
1660201861.54467,1521227.6395114,105
1660201861.54467,1521227.639518,127
1660201861.54467,1521227.6395267,129
1660201861.54467,1521227.6395333,131
1660201861.54467,1521228.2731597,131
1660201861.54467,1521228.2731782,138
1660201861.54467,1521228.2731926,157
1660201861.54467,1521228.2732019,148
1660201861.54467,1521228.2732077,119
1660201861.54467,1521228.273216,119
1660201861.54467,1521228.2732226,124
1660201861.54467,1521228.2732292,101
1660201861.54467,1521228.2732326,103
1660201861.54467,1521228.2732358,129
1660201861.54467,1521228.2732421,136
1660201861.54467,1521228.2732496,122
1660201861.54467,1521228.2732575,105
1660201861.55564,1521228.2732666,101
1660201861.55564,1521228.2732746,122
1660201861.55564,1521228.2732822,131
1660201861.55564,1521228.2732914,119
1660201861.55564,1521228.2732943,129
1660201861.55564,1521228.2732965,155
1660201861.55564,1521228.2732987,162
1660201861.55564,1521228.2733008,169
1660201861.55564,1521228.2733078,195
1660201861.55564,1521228.2733202,206
1660201861.55564,1521228.2733281,197
1660201861.55564,1521228.2733305,171
1660201861.55564,1521228.2733327,134
1660201861.55564,1521228.2733353,91
1660201861.55564,1521228.2733436,42
1660201861.55564,1521228.2733557,0
1660201861.55564,1521228.2733621,-9
1660201861.55564,1521228.2733712,-2
1660201861.55564,1521228.2733829,-16
1660201861.55564,1521228.2733882,-35
1660201861.55564,1521228.2733904,-23
1660201861.55564,1521228.2733925,-9
1660201861.55564,1521228.2733947,-14
1660201861.55564,1521228.2733976,7
1660201862.03525,1521228.2734083,28
1660201862.03525,1521228.2734142,11
1660201862.03525,1521228.2734164,11
1660201862.03525,1521228.2734203,39
1660201862.03525,1521228.27343,61
1660201862.03525,1521228.2734373,63
1660201862.03525,1521228.2734432,49
1660201862.03525,1521228.273475,39
1660201862.03525,1521228.2734834,49
1660201862.03525,1521228.2734902,58
1660201862.03525,1521228.2734958,47
1660201862.03525,1521228.2735022,28
1660201862.03525,1521228.2735075,18
1660201862.03525,1521228.2735139,28
1660201862.03525,1521228.2735189,32
1660201862.03525,1521228.2735248,18
1660201862.03525,1521228.2735303,16
1660201862.03525,1521228.2735364,21
1660201862.03525,1521228.2735409,9
1660201862.03525,1521228.2735488,30
1660201862.03525,1521228.2735538,47
1660201862.03525,1521228.2735845,18
1660201862.03525,1521228.2735893,14
1660201862.03525,1521228.2735927,44
1660201862.03525,1521228.273596,49
1660201862.03525,1521228.2736007,47
1660201862.03525,1521228.2736068,51
1660201862.03525,1521228.2736128,47
1660201862.03525,1521228.2736261,56
1660201862.03525,1521228.2736335,63
1660201862.03525,1521228.2736383,54
1660201862.03525,1521228.2736427,63
1660201862.03525,1521228.2736467,82
1660201862.03525,1521228.2736508,91
1660201862.03525,1521228.2736673,103
1660201862.03525,1521228.2736774,127
1660201862.03525,1521228.7599386,131
1660201862.03525,1521228.759951,117
1660201862.03525,1521228.7599559,96
1660201862.03525,1521228.7599601,77
1660201862.03525,1521228.7599626,72
1660201862.03525,1521228.7599651,70
1660201862.03525,1521228.7599677,65
1660201862.03525,1521228.7599702,79
1660201862.03525,1521228.7599727,98
1660201862.03525,1521228.7599752,87
1660201862.03525,1521228.7599776,75
1660201862.03525,1521228.7599801,82
1660201862.03525,1521228.7599824,82
1660201862.03525,1521228.7599849,75
1660201862.04622,1521228.7599874,94
1660201862.04622,1521228.7599899,94
1660201862.04622,1521228.7599924,94
1660201862.04622,1521228.7599946,268
1660201862.04622,1521228.7599968,573
1660201862.04622,1521228.759999,733
1660201862.04622,1521228.7600012,543
1660201862.04622,1521228.7600034,150
1660201862.04622,1521228.7600057,-18
1660201862.04622,1521228.7600082,42
1660201862.04622,1521228.7600106,30
1660201862.04622,1521228.7600129,-14
1660201862.04622,1521228.760015,14
1660201862.04622,1521228.7600172,11
1660201862.04622,1521228.7600196,-44
1660201862.04622,1521228.7600219,-49
1660201862.04622,1521228.7600239,-9
1660201862.04622,1521228.7600262,0
1660201862.04622,1521228.7600282,0
1660201862.04622,1521228.7600303,14
1660201862.04622,1521228.7600325,21
1660201862.04622,1521228.7600345,4
1660201862.04622,1521228.7600367,-4
1660201862.04622,1521228.7600389,18
1660201862.57081,1521228.7600412,35
1660201862.57081,1521228.7600434,30
1660201862.57081,1521228.7600455,35
1660201862.57081,1521228.7600476,42
1660201862.57081,1521228.7600497,39
1660201862.57081,1521228.7600517,42
1660201862.57081,1521228.7600539,44
1660201862.57081,1521228.7600561,54
1660201862.57081,1521228.7600584,77
1660201862.57081,1521228.7600606,96
1660201862.57081,1521228.7600627,103
1660201862.57081,1521228.7600648,105
1660201862.57081,1521228.7600668,115
1660201862.57081,1521228.7600689,129
1660201862.57081,1521228.760071,152
1660201862.57081,1521228.7600731,171
1660201862.57081,1521228.7600752,174
1660201862.57081,1521228.7600774,155
1660201862.57081,1521228.7600794,122
1660201862.57081,1521228.7600819,112
1660201862.57081,1521228.7600841,101
1660201862.57081,1521228.7600862,61
1660201862.57081,1521228.7600884,18
1660201862.57081,1521228.7600907,-7
1660201862.57081,1521228.7600929,-23
1660201862.57081,1521228.7600948,-37
1660201862.57081,1521228.7600969,-49
1660201862.57081,1521228.760099,-47
1660201862.57081,1521228.760101,-42
1660201862.57081,1521228.760103,-44
1660201862.57081,1521228.7601051,-30
1660201862.57081,1521228.7601071,-16
1660201862.57081,1521228.7601092,-16
1660201862.57081,1521228.7601113,-11
1660201862.57081,1521228.7601134,2
1660201862.57081,1521229.2968068,-4
1660201862.57081,1521229.2968235,-21
1660201862.57081,1521229.2968306,-18
1660201862.57081,1521229.2968401,-11
1660201862.57081,1521229.2968499,-14
1660201862.57081,1521229.2968549,-21
1660201862.57081,1521229.29686,-35
1660201862.57081,1521229.2968691,-54
1660201862.57081,1521229.2968759,-68
1660201862.57081,1521229.296882,-75
1660201862.57081,1521229.2970395,-65
1660201862.57081,1521229.2970556,-49
1660201862.57081,1521229.2970612,-68
1660201862.57081,1521229.2970693,-124
1660201862.57081,1521229.297079,-150
1660201862.58179,1521229.2970861,-129
1660201862.58179,1521229.297094,-103
1660201862.58179,1521229.2971019,-115
1660201862.58179,1521229.2971211,-155
1660201862.58179,1521229.2971287,-181
1660201862.58179,1521229.297134,-174
1660201862.58179,1521229.2971415,-152
1660201862.58179,1521229.2971468,-129
1660201862.58179,1521229.2971592,-94
1660201862.58179,1521229.2971664,-72
1660201862.58179,1521229.2971746,-72
1660201862.58179,1521229.2971809,-70
1660201862.58179,1521229.2971873,-77
1660201862.58179,1521229.297194,-105
1660201862.58179,1521229.2972008,-110
1660201862.58179,1521229.2972072,-87
1660201862.58179,1521229.2972122,-82
1660201862.58179,1521229.2972187,-101
1660201862.58179,1521229.2972236,-101
1660201862.58179,1521229.2972275,-87
1660201862.58179,1521229.2972311,-84
1660201862.58179,1521229.2972376,-68
1660201862.58179,1521229.2972443,-42
1660201862.58179,1521229.2972504,-44
1660201863.15826,1521229.2972562,-44
1660201863.15826,1521229.2972627,-37
1660201863.15826,1521229.2972692,-23
1660201863.15826,1521229.2972761,35
1660201863.15826,1521229.297283,202
1660201863.15826,1521229.2972896,460
1660201863.15826,1521229.2972954,639
1660201863.15826,1521229.2973002,463
1660201863.15826,1521229.2973069,49
1660201863.15826,1521229.297314,-87
1660201863.15826,1521229.2973218,18
1660201863.15826,1521229.297328,-23
1660201863.15826,1521229.2973374,-101
1660201863.15826,1521229.2973421,-51
1660201863.15826,1521229.2973455,-9
1660201863.15826,1521229.2973494,-28
1660201863.15826,1521229.2973587,-35
1660201863.15826,1521229.2973641,-18
1660201863.15826,1521229.2973699,-7
1660201863.15826,1521229.2973758,0
1660201863.15826,1521229.2973811,2
1660201863.15826,1521229.2973873,7
1660201863.15826,1521229.2973999,16
1660201863.15826,1521229.2974065,32
1660201863.15826,1521229.2974107,39
1660201863.15826,1521229.2974145,32
1660201863.15826,1521229.2974193,23
1660201863.15826,1521229.2974239,37
1660201863.15826,1521229.2974307,54
1660201863.15826,1521229.2974346,47
1660201863.15826,1521229.29744,44
1660201863.15826,1521229.2974468,63
1660201863.15826,1521229.2974527,82
1660201863.15826,1521229.2974566,96
1660201863.15826,1521229.8812773,110
1660201863.15826,1521229.8812968,117
1660201863.15826,1521229.8813095,127
1660201863.15826,1521229.8813151,141
1660201863.15826,1521229.8813182,148
1660201863.15826,1521229.8813204,155
1660201863.15826,1521229.8813226,155
1660201863.15826,1521229.8813247,157
1660201863.15826,1521229.8813269,171
1660201863.15826,1521229.8813289,148
1660201863.15826,1521229.881331,89
1660201863.15826,1521229.8813332,68
1660201863.15826,1521229.8813353,54
1660201863.15826,1521229.8813374,-7
1660201863.15826,1521229.8813399,-58
1660201863.15826,1521229.8813461,-79
1660201863.17023,1521229.8813558,-103
1660201863.17023,1521229.8813606,-108
1660201863.17023,1521229.881369,-84
1660201863.17023,1521229.8813753,-84
1660201863.17023,1521229.8813796,-89
1660201863.17023,1521229.881383,-63
1660201863.17023,1521229.8813961,-47
1660201863.17023,1521229.8814053,-54
1660201863.17023,1521229.8814106,-65
1660201863.17023,1521229.8814185,-79
1660201863.17023,1521229.881424,-58
1660201863.17023,1521229.8814276,-16
1660201863.17023,1521229.8814359,-14
1660201863.17023,1521229.8814476,-35
1660201863.17023,1521229.8814552,-28
1660201863.17023,1521229.8814597,-16
1660201863.17023,1521229.8814663,-14
1660201863.17023,1521229.8814742,2
1660201863.17023,1521229.881486,11
1660201863.17023,1521229.8814944,-7
1660201863.17023,1521229.8814998,-18
1660201863.17023,1521229.8815106,-14
1660201863.17023,1521229.8815231,-25
1660201863.17023,1521229.8815295,-35
1660201863.6872,1521229.8815392,-9
1660201863.6872,1521229.8815475,18
1660201863.6872,1521229.8815584,7
1660201863.6872,1521229.8815664,-14
1660201863.6872,1521229.8815722,2
1660201863.6872,1521229.881576,18
1660201863.6872,1521229.8815826,2
1660201863.6872,1521229.8815918,2
1660201863.6872,1521229.8815984,25
1660201863.6872,1521229.8816104,35
1660201863.6872,1521229.8816216,37
1660201863.6872,1521229.8816309,61
1660201863.6872,1521229.8816388,87
1660201863.6872,1521229.88165,101
1660201863.6872,1521229.8816591,87
1660201863.6872,1521229.8816642,58
1660201863.6872,1521229.8816748,30
1660201863.6872,1521229.8816858,-7
1660201863.6872,1521229.8816949,-2
1660201863.6872,1521229.8817029,32
1660201863.6872,1521229.8817107,35
1660201863.6872,1521229.8817181,30
1660201863.6872,1521229.8817271,51
1660201863.6872,1521229.8817326,63
1660201863.6872,1521229.8817349,58
1660201863.6872,1521229.8817412,68
1660201863.6872,1521229.8817527,70
1660201863.6872,1521229.8817658,68
1660201863.6872,1521229.8817746,75
1660201863.6872,1521229.8817821,98
1660201863.6872,1521229.8817893,216
1660201863.6872,1521229.8817995,493
1660201863.6872,1521229.8818106,759
1660201863.6872,1521230.4194264,670
1660201863.6872,1521230.4194429,235
1660201863.6872,1521230.419451,-21
1660201863.6872,1521230.4194554,91
1660201863.6872,1521230.4194611,157
1660201863.6872,1521230.419467,42
1660201863.6872,1521230.4194731,-37

1660201863.6872,1521230.4194795,-11
1660201863.6872,1521230.4194866,35
1660201863.6872,1521230.4194917,54
1660201863.6872,1521230.4194971,51
1660201863.6872,1521230.419501,47
1660201863.6872,1521230.4195061,28
1660201863.6872,1521230.4195098,7
1660201863.6872,1521230.4195136,16
1660201863.6872,1521230.419519,30
1660201863.6872,1521230.4195235,35
1660201863.69916,1521230.4195289,42
1660201863.69916,1521230.4195341,7
1660201863.69916,1521230.4195379,-30
1660201863.69916,1521230.4195418,2
1660201863.69916,1521230.4195465,44
1660201863.69916,1521230.4195515,42
1660201863.69916,1521230.4195552,44
1660201863.69916,1521230.4195589,56
1660201863.69916,1521230.4195627,61
1660201863.69916,1521230.4195679,75
1660201863.69916,1521230.4195729,91
1660201863.69916,1521230.4195775,101
1660201863.69916,1521230.4195813,124
1660201863.69916,1521230.419585,143
1660201863.69916,1521230.4195903,150
1660201863.69916,1521230.4195938,164
1660201863.69916,1521230.4195986,183
1660201863.69916,1521230.4196031,202
1660201863.69916,1521230.4196067,211
1660201863.69916,1521230.4196102,209
1660201863.69916,1521230.4196135,197
1660201863.69916,1521230.4196182,164
1660201863.69916,1521230.4196218,124
1660201863.69916,1521230.4196269,94
1660201864.22457,1521230.4196315,65
1660201864.22457,1521230.4196349,35
1660201864.22457,1521230.4196382,16
1660201864.22457,1521230.419642,7
1660201864.22457,1521230.4196455,9
1660201864.22457,1521230.4196491,18
1660201864.22457,1521230.4196524,16
1660201864.22457,1521230.4196559,14
1660201864.22457,1521230.4196593,18
1660201864.22457,1521230.4196629,25
1660201864.22457,1521230.4196724,28
1660201864.22457,1521230.4196785,35
1660201864.22457,1521230.4196837,51
1660201864.22457,1521230.4196931,61
1660201864.22457,1521230.4196995,65
1660201864.22457,1521230.4197093,65
1660201864.22457,1521230.4197157,68
1660201864.22457,1521230.4197197,77
1660201864.22457,1521230.419725,87
1660201864.22457,1521230.4197335,87
1660201864.22457,1521230.4197421,89
1660201864.22457,1521230.4197489,77
1660201864.22457,1521230.4197551,63
1660201864.22457,1521230.4197616,58
1660201864.22457,1521230.4197699,39
1660201864.22457,1521230.4197805,4
1660201864.22457,1521230.4197916,-4
1660201864.22457,1521230.4198035,18
1660201864.22457,1521230.4198155,28
1660201864.22457,1521230.4198217,7
1660201864.22457,1521230.4198319,0
1660201864.22457,1521230.4198462,16
1660201864.22457,1521230.9543921,32
1660201864.22457,1521230.9544079,47
1660201864.22457,1521230.9544128,61
1660201864.22457,1521230.9544185,68
1660201864.22457,1521230.9544228,77
1660201864.22457,1521230.9544284,72
1660201864.22457,1521230.9544323,25
1660201864.22457,1521230.9544361,-11
1660201864.22457,1521230.9544399,2
1660201864.22457,1521230.9544436,4
1660201864.22457,1521230.9544506,-16
1660201864.22457,1521230.9544544,-7
1660201864.22457,1521230.9544831,4
1660201864.22457,1521230.9544997,9
1660201864.22457,1521230.9545089,18
1660201864.22457,1521230.954515,-16
1660201864.22457,1521230.9545208,-49
1660201864.22457,1521230.9545263,-11
1660201864.23653,1521230.9545307,9
1660201864.23653,1521230.9545344,0
1660201864.23653,1521230.9545379,25
1660201864.23653,1521230.9545415,119
1660201864.23653,1521230.954547,348
1660201864.23653,1521230.9545505,658
1660201864.23653,1521230.9545543,769
1660201864.23653,1521230.9545578,446
1660201864.23653,1521230.954562,16
1660201864.23653,1521230.9545669,-47
1660201864.23653,1521230.9546569,28
1660201864.23653,1521230.9546652,-39
1660201864.23653,1521230.9546701,-82
1660201864.23653,1521230.9546742,-44
1660201864.23653,1521230.9546781,-14
1660201864.23653,1521230.9546819,-11
1660201864.23653,1521230.9546858,-23
1660201864.23653,1521230.9546897,-25
1660201864.23653,1521230.9546934,-7
1660201864.23653,1521230.9546972,9
1660201864.23653,1521230.9547017,2
1660201864.23653,1521230.9547053,-4
1660201864.23653,1521230.9547092,11
1660201864.23653,1521230.9547132,23
1660201864.81238,1521230.9547169,35
1660201864.81238,1521230.9547208,35
1660201864.81238,1521230.9547249,23
1660201864.81238,1521230.9547287,42
1660201864.81238,1521230.9547324,77
1660201864.81238,1521230.9547361,87
1660201864.81238,1521230.9547397,82
1660201864.81238,1521230.9547438,79
1660201864.81238,1521230.9547474,89
1660201864.81238,1521230.9547513,115
1660201864.81238,1521230.954755,143
1660201864.81238,1521230.9547589,141
1660201864.81238,1521230.9547629,136
1660201864.81238,1521230.9547666,166
1660201864.81238,1521230.9547714,214
1660201864.81238,1521230.9547753,254
1660201864.81238,1521230.9547791,246
1660201864.81238,1521230.9547833,188
1660201864.81238,1521230.9547872,159
1660201864.81238,1521230.9547911,185
1660201864.81238,1521230.954799,174
1660201864.81238,1521230.9548029,117
1660201864.81238,1521230.9548069,54
1660201864.81238,1521230.9548107,-2
1660201864.81238,1521230.9548145,-25
1660201864.81238,1521230.9548233,-23
1660201864.81238,1521230.95483,-16
1660201864.81238,1521230.9548344,-21
1660201864.81238,1521230.9548404,-47
1660201864.81238,1521230.9548441,-77
1660201864.81238,1521230.9548492,-61
1660201864.81238,1521231.540038,-28
1660201864.81238,1521231.5400587,-42
1660201864.81238,1521231.5400735,-56
1660201864.81238,1521231.5400884,-44
1660201864.81238,1521231.5401046,-11
1660201864.81238,1521231.5401203,7
1660201864.81238,1521231.5401279,-44
1660201864.81238,1521231.5401326,-79
1660201864.81238,1521231.5401387,-49
1660201864.81238,1521231.5401441,-28
1660201864.81238,1521231.5401503,-25
1660201864.81238,1521231.5401563,-14
1660201864.81238,1521231.5401649,-11
1660201864.81238,1521231.5401722,-35
1660201864.81238,1521231.5401788,-51
1660201864.81238,1521231.5401877,-37
1660201864.81238,1521231.5401926,-28
1660201864.81238,1521231.5401948,-35
1660201864.81238,1521231.5401969,-35
1660201864.82135,1521231.540199,-18
1660201864.82135,1521231.5402011,4
1660201864.82135,1521231.5402032,16
1660201864.82135,1521231.5402051,7
1660201864.82135,1521231.5402072,4
1660201864.82135,1521231.5402092,7
1660201864.82135,1521231.5402112,-14
1660201864.82135,1521231.5402133,-35
1660201864.82135,1521231.5402153,-35
1660201864.82135,1521231.5402173,-51
1660201864.82135,1521231.5402194,-61
1660201864.82135,1521231.5402213,-54
1660201864.82135,1521231.5402234,-58
1660201864.82135,1521231.5402254,-63
1660201864.82135,1521231.5402275,-39
1660201864.82135,1521231.5402295,-9
1660201864.82135,1521231.5402316,7
1660201864.82135,1521231.5402336,0
1660201864.82135,1521231.5402357,9
1660201864.82135,1521231.5402377,30
1660201864.82135,1521231.5402398,16
1660201864.82135,1521231.5402418,94
1660201864.82135,1521231.5402439,395
1660201864.82135,1521231.5402459,743
1660201865.39726,1521231.5402479,820
1660201865.39726,1521231.54025,479
1660201865.39726,1521231.5402519,44
1660201865.39726,1521231.5402538,-28
1660201865.39726,1521231.5402577,61
1660201865.39726,1521231.5402598,11
1660201865.39726,1521231.5402666,-16
1660201865.39726,1521231.5402744,21
1660201865.39726,1521231.5402806,23
1660201865.39726,1521231.5402842,14
1660201865.39726,1521231.5402885,2
1660201865.39726,1521231.5402929,-16
1660201865.39726,1521231.5402988,4
1660201865.39726,1521231.5403055,42
1660201865.39726,1521231.5403206,42
1660201865.39726,1521231.5403539,47
1660201865.39726,1521231.5403641,56
1660201865.39726,1521231.5403699,49
1660201865.39726,1521231.540377,49
1660201865.39726,1521231.5403863,61
1660201865.39726,1521231.5403931,58
1660201865.39726,1521231.5403979,56
1660201865.39726,1521231.5404016,72
1660201865.39726,1521231.5404075,94
1660201865.39726,1521231.5404113,103
1660201865.39726,1521231.5404164,122
1660201865.39726,1521231.5404205,119
1660201865.39726,1521231.5404258,112
1660201865.39726,1521231.5404306,162
1660201865.39726,1521231.5404361,199
1660201865.39726,1521232.1242691,190
1660201865.39726,1521232.124291,216
1660201865.39726,1521232.1242995,249
1660201865.39726,1521232.1243036,228
1660201865.39726,1521232.1243081,228
1660201865.39726,1521232.1243195,256
1660201865.39726,1521232.1243235,237
1660201865.39726,1521232.1243369,209
1660201865.39726,1521232.1243445,185
1660201865.39726,1521232.1243507,117
1660201865.39726,1521232.1243564,47
1660201865.39726,1521232.1243617,18
1660201865.39726,1521232.1243647,14
1660201865.39726,1521232.1243677,-2
1660201865.39726,1521232.1243706,-37
1660201865.39726,1521232.1243736,-63
1660201865.39726,1521232.1243765,-61
1660201865.39726,1521232.1243795,-30
1660201865.39726,1521232.1243844,-11
1660201865.39726,1521232.1243888,-11
1660201865.40823,1521232.1243944,-9
1660201865.40823,1521232.1243988,-18
1660201865.40823,1521232.1244063,-30
1660201865.40823,1521232.1244119,-21
1660201865.40823,1521232.1244151,-18
1660201865.40823,1521232.124418,-9
1660201865.40823,1521232.124421,16
1660201865.40823,1521232.1244241,25
1660201865.40823,1521232.1244272,14
1660201865.40823,1521232.1244305,11
1660201865.40823,1521232.1244335,25
1660201865.40823,1521232.1244383,28
1660201865.40823,1521232.1244414,18
1660201865.40823,1521232.1244443,14
1660201865.40823,1521232.1244474,9
1660201865.40823,1521232.1244521,16
1660201865.40823,1521232.1244567,37
1660201865.40823,1521232.1244618,32
1660201865.40823,1521232.1244651,25
1660201865.40823,1521232.1244701,47
1660201865.40823,1521232.1244733,54
1660201865.40823,1521232.1244781,44
1660201865.40823,1521232.1244845,37
1660201865.40823,1521232.12449,39
1660201865.93226,1521232.1244959,58
1660201865.93226,1521232.1244999,63
1660201865.93226,1521232.1245036,56
1660201865.93226,1521232.1245074,58
1660201865.93226,1521232.1245112,42
1660201865.93226,1521232.1245167,7
1660201865.93226,1521232.1245207,11
1660201865.93226,1521232.124524,35
1660201865.93226,1521232.124529,21
1660201865.93226,1521232.124532,9
1660201865.93226,1521232.1245353,14
1660201865.93226,1521232.1245401,2
1660201865.93226,1521232.1245432,-14
1660201865.93226,1521232.1245466,-9
1660201865.93226,1521232.1245524,7
1660201865.93226,1521232.124557,16
1660201865.93226,1521232.1245619,9
1660201865.93226,1521232.1245654,-2
1660201865.93226,1521232.1245689,9
1660201865.93226,1521232.1245782,79
1660201865.93226,1521232.1245915,310
1660201865.93226,1521232.1245959,658
1660201865.93226,1521232.1246053,813
1660201865.93226,1521232.1246131,550
1660201865.93226,1521232.1246257,117
1660201865.93226,1521232.1246343,-47
1660201865.93226,1521232.1246369,21
1660201865.93226,1521232.1246391,30
1660201865.93226,1521232.1246413,-4
1660201865.93226,1521232.6602579,7
1660201865.93226,1521232.6602779,9
1660201865.93226,1521232.6602925,0
1660201865.93226,1521232.6603068,16
1660201865.93226,1521232.660321,39
1660201865.93226,1521232.6603341,39
1660201865.93226,1521232.6603474,28
1660201865.93226,1521232.6603596,28
1660201865.93226,1521232.6603698,42
1660201865.93226,1521232.6603785,54
1660201865.93226,1521232.6603849,58
1660201865.93226,1521232.6603931,56
1660201865.93226,1521232.6603956,25
1660201865.93226,1521232.6603978,-4
1660201865.93226,1521232.6603998,2
1660201865.93226,1521232.660402,16
1660201865.93226,1521232.660404,21
1660201865.93226,1521232.660406,42
1660201865.93226,1521232.6604081,65
1660201865.93226,1521232.6604101,61
1660201865.93226,1521232.6604122,42
1660201865.94422,1521232.6604142,47
1660201865.94422,1521232.6604162,77
1660201865.94422,1521232.6604182,110
1660201865.94422,1521232.6604203,129
1660201865.94422,1521232.6604223,138
1660201865.94422,1521232.6604244,155
1660201865.94422,1521232.6604265,178
1660201865.94422,1521232.6604285,190
1660201865.94422,1521232.6604306,181
1660201865.94422,1521232.6604326,166
1660201865.94422,1521232.6604347,155
1660201865.94422,1521232.6604366,138
1660201865.94422,1521232.6604387,91
1660201865.94422,1521232.6604407,30
1660201865.94422,1521232.6604427,7
1660201865.94422,1521232.6604448,4
1660201865.94422,1521232.6604468,-25
1660201865.94422,1521232.6604489,-42
1660201865.94422,1521232.660451,-23
1660201865.94422,1521232.6604531,-7
1660201865.94422,1521232.6604552,2
1660201865.94422,1521232.6604572,14
