Time,TimeLsl,Value
1660211154.45571,1530519.6219215,205
1660211154.45571,1530519.6219433,212
1660211154.45571,1530519.6219499,198
1660211154.45571,1530519.6219561,200
1660211154.45571,1530519.6219627,210
1660211154.45571,1530519.6219692,189
1660211154.45571,1530519.6219757,193
1660211154.45571,1530519.6219825,207
1660211154.45571,1530519.6219872,165
1660211154.45571,1530519.6219924,119
1660211154.45571,1530519.6219991,123
1660211154.45571,1530519.6220072,133
1660211154.45571,1530519.622016,98
1660211154.45571,1530519.622024,65
1660211154.45571,1530519.6220284,67
1660211154.45571,1530519.6220315,46
1660211154.45571,1530519.6220344,18
1660211154.45571,1530519.6220373,30
1660211154.45571,1530519.6220402,35
1660211154.45571,1530519.6220538,23
1660211154.45571,1530519.6220615,37
1660211154.45571,1530519.6220668,35
1660211154.45571,1530519.6220707,4
1660211154.45571,1530519.6220835,-2
1660211154.45571,1530519.6220969,4
1660211154.45571,1530519.6221091,-4
1660211154.45571,1530519.622115,14
1660211154.45571,1530519.6221172,42
1660211154.45571,1530519.6221242,32
1660211154.45571,1530519.6221372,44
1660211154.45571,1530519.6221485,79
1660211154.45571,1530519.6221592,63
1660211154.45571,1530519.6221681,42
1660211154.45571,1530519.6221706,37
1660211154.45571,1530519.6221728,7
1660211154.45571,1530519.6221749,-2
1660211154.45571,1530519.622182,32
1660211154.45571,1530519.6221923,44
1660211154.45571,1530519.6221978,63
1660211154.45571,1530519.6222071,109
1660211154.45571,1530519.6222125,119
1660211154.45571,1530519.6222174,79
1660211154.45571,1530519.6222251,58
1660211154.45571,1530519.6222322,65
1660211154.45571,1530519.6222398,32
1660211154.45571,1530519.6222468,-16
1660211154.45571,1530519.6222547,-16
1660211154.45571,1530519.6222622,0
1660211154.45571,1530519.6222698,7
1660211154.45571,1530519.6222771,9
1660211154.58603,1530519.6222851,-4
1660211154.58603,1530519.6222982,-2
1660211154.58603,1530519.6223114,18
1660211154.58603,1530519.6223244,7
1660211154.58603,1530519.6223365,-30
1660211154.58603,1530519.6223718,-23
1660211154.58603,1530519.6223846,130
1660211154.58603,1530519.622392,476
1660211154.58603,1530519.6223988,635
1660211154.58603,1530519.6224056,116
1660211154.58603,1530519.6224112,-509
1660211154.58603,1530519.6224174,-373
1660211154.58603,1530519.6224248,32
1660211154.58603,1530519.6224334,51
1660211154.58603,1530519.6224432,9
1660211154.58603,1530519.6224498,88
1660211154.58603,1530519.6224548,95
1660211154.58603,1530519.6224596,70
1660211154.58603,1530519.6224653,91
1660211154.58603,1530519.6224694,100
1660211154.58603,1530519.6224735,60
1660211154.58603,1530519.6224776,63
1660211154.58603,1530519.6224817,126
1660211154.58603,1530520.207331,154
1660211154.58603,1530520.2073516,137
1660211154.58603,1530520.2073594,142
1660211154.58603,1530520.207366,156
1660211154.58603,1530520.207459,158
1660211154.58603,1530520.2074679,156
1660211154.58603,1530520.2074863,147
1660211154.58603,1530520.2074959,137
1660211154.58603,1530520.2075008,170
1660211154.58603,1530520.2075047,214
1660211154.58603,1530520.2075082,214
1660211154.58603,1530520.2075114,198
1660211154.58603,1530520.2075149,186
1660211154.58603,1530520.2075182,168
1660211154.58603,1530520.2075217,149
1660211154.58603,1530520.207525,123
1660211154.58603,1530520.2075282,121
1660211154.58603,1530520.2075321,154
1660211154.58603,1530520.2075358,140
1660211154.58603,1530520.2075391,88
1660211154.58603,1530520.2075425,84
1660211154.58603,1530520.2075459,102
1660211154.58603,1530520.20755,84
1660211154.58603,1530520.2075533,65
1660211154.58603,1530520.2075569,49
1660211154.58603,1530520.2075604,0
1660211154.58603,1530520.2075639,-18
1660211154.62992,1530520.2075681,30
1660211154.62992,1530520.2075721,53
1660211154.62992,1530520.2075761,39
1660211154.62992,1530520.2075799,51
1660211154.62992,1530520.207584,44
1660211154.62992,1530520.2075874,35
1660211154.62992,1530520.2075914,44
1660211154.62992,1530520.2075955,25
1660211154.62992,1530520.2075988,14
1660211154.62992,1530520.2076021,72
1660211154.62992,1530520.2076055,109
1660211154.62992,1530520.2076086,74
1660211154.62992,1530520.2076122,58
1660211154.62992,1530520.2076159,53
1660211154.62992,1530520.2076195,35
1660211154.62992,1530520.2076227,42
1660211154.62992,1530520.2076259,56
1660211154.62992,1530520.2076296,28
1660211154.62992,1530520.2076331,-11
1660211154.62992,1530520.2076364,2
1660211154.62992,1530520.2076398,51
1660211154.62992,1530520.2076433,70
1660211154.62992,1530520.207647,49
1660211154.62992,1530520.2076505,21
1660211154.62992,1530520.2076544,14
1660211154.62992,1530520.2076578,44
1660211154.62992,1530520.2076613,79
1660211154.62992,1530520.2076649,91
1660211154.62992,1530520.2076681,63
1660211154.62992,1530520.2076708,39
1660211154.62992,1530520.2076736,46
1660211154.62992,1530520.2076766,49
1660211154.62992,1530520.2076793,28
1660211154.62992,1530520.2076822,18
1660211154.62992,1530520.2076849,14
1660211154.62992,1530520.2076876,14
1660211154.62992,1530520.2076905,28
1660211154.62992,1530520.2076932,46
1660211154.62992,1530520.2076963,21
1660211154.62992,1530520.2076992,-23
1660211154.62992,1530520.207702,9
1660211154.62992,1530520.2077051,67
1660211154.62992,1530520.2077078,107
1660211154.62992,1530520.2077106,317
1660211154.62992,1530520.2077137,705
1660211154.62992,1530520.2077165,714
1660211154.62992,1530520.6961179,-37
1660211154.62992,1530520.6961373,-672
1660211154.62992,1530520.6961442,-380
1660211154.62992,1530520.6961497,35
1660211154.6482,1530520.6961542,0
1660211154.6482,1530520.6961572,-7
1660211154.6482,1530520.6961604,95
1660211154.6482,1530520.6961638,93
1660211154.6482,1530520.6961669,65
1660211154.6482,1530520.69617,60
1660211154.6482,1530520.6961737,53
1660211154.6482,1530520.6961774,58
1660211154.6482,1530520.6961811,70
1660211154.6482,1530520.6961847,81
1660211154.6482,1530520.6961883,88
1660211154.6482,1530520.6961919,91
1660211154.6482,1530520.6961954,86
1660211154.6482,1530520.6962011,84
1660211154.6482,1530520.6962048,114
1660211154.6482,1530520.6962083,140
1660211154.6482,1530520.6962118,142
1660211154.6482,1530520.6962153,142
1660211154.6482,1530520.6962189,137
1660211154.6482,1530520.6962226,140
1660211154.6482,1530520.6962261,142
1660211154.6482,1530520.6962298,135
1660211154.6482,1530520.6962337,161
1660211154.6482,1530520.6962403,193
1660211154.6482,1530520.696244,165
1660211154.6482,1530520.6962494,123
1660211154.6482,1530520.6962575,105
1660211154.6482,1530520.6962612,93
1660211154.6482,1530520.6962655,91
1660211154.6482,1530520.6962771,91
1660211154.6482,1530520.6962859,79
1660211154.6482,1530520.6962939,67
1660211154.6482,1530520.6963,46
1660211154.6482,1530520.6963064,16
1660211154.6482,1530520.6963144,4
1660211154.6482,1530520.6963646,16
1660211154.6482,1530520.6963749,18
1660211154.6482,1530520.6963803,16
1660211154.6482,1530520.696387,30
1660211154.6482,1530520.6963908,35
1660211154.6482,1530520.6963955,35
1660211154.6482,1530520.6963993,46
1660211154.6482,1530520.6964035,56
1660211154.6482,1530520.6964089,53
1660211154.6482,1530520.6964143,42
1660211154.6482,1530520.6964182,46
1660211154.6482,1530520.6964234,67
1660211154.6482,1530520.6964289,93
1660211154.6482,1530520.6964332,119
1660211154.6482,1530520.6964376,119
1660211154.65917,1530520.6964414,93
1660211154.65917,1530520.6964461,91
1660211154.65917,1530520.69645,105
1660211154.65917,1530520.6964547,100
1660211154.65917,1530520.6964587,91
1660211154.65917,1530520.696463,86
1660211154.65917,1530520.6964687,70
1660211154.65917,1530520.6964748,42
1660211154.65917,1530520.6964816,28
1660211154.65917,1530520.696488,30
1660211154.65917,1530520.6964918,28
1660211154.65917,1530520.6964958,28
1660211154.65917,1530520.6964998,30
1660211154.65917,1530520.6965037,21
1660211154.65917,1530520.6965082,23
1660211154.65917,1530520.6965145,56
1660211154.65917,1530520.6965207,84
1660211154.65917,1530520.6965272,86
1660211154.65917,1530520.696533,72
1660211154.65917,1530521.3295733,63
1660211154.65917,1530521.329589,84
1660211154.65917,1530521.3295967,102
1660211155.09699,1530521.3296031,79
1660211155.09699,1530521.3296097,58
1660211155.09699,1530521.3296162,46
1660211155.09699,1530521.329623,21
1660211155.09699,1530521.3296298,14
1660211155.09699,1530521.3296353,37
1660211155.09699,1530521.3296393,56
1660211155.09699,1530521.3296428,44
1660211155.09699,1530521.3296463,23
1660211155.09699,1530521.3296504,4
1660211155.09699,1530521.3296534,11
1660211155.09699,1530521.3296565,140
1660211155.09699,1530521.3296593,446
1660211155.09699,1530521.3296624,696
1660211155.09699,1530521.3296653,373
1660211155.09699,1530521.3296706,-399
1660211155.09699,1530521.3296747,-600
1660211155.09699,1530521.3296825,-154
1660211155.09699,1530521.3296908,32
1660211155.09699,1530521.3296977,-60
1660211155.09699,1530521.3297033,-16
1660211155.09699,1530521.3297089,46
1660211155.09699,1530521.329712,11
1660211155.09699,1530521.3297174,11
1660211155.09699,1530521.3297245,44
1660211155.09699,1530521.3297298,42
1660211155.09699,1530521.3297328,49
1660211155.09699,1530521.3297358,74
1660211155.09699,1530521.3297386,72
1660211155.09699,1530521.3297415,60
1660211155.09699,1530521.3297443,79
1660211155.09699,1530521.3297471,102
1660211155.09699,1530521.32975,114
1660211155.09699,1530521.3297528,123
1660211155.09699,1530521.3297558,140
1660211155.09699,1530521.3297586,151
1660211155.09699,1530521.3297616,154
1660211155.09699,1530521.3297644,168
1660211155.09699,1530521.3297672,182
1660211155.09699,1530521.3297701,189
1660211155.09699,1530521.3297728,193
1660211155.09699,1530521.3297757,189
1660211155.09699,1530521.3297785,177
1660211155.09699,1530521.3297813,163
1660211155.09699,1530521.3297841,156
1660211155.09699,1530521.3297869,158
1660211155.09699,1530521.3297898,165
1660211155.09699,1530521.3297927,161
1660211155.09699,1530521.3297956,149
1660211155.09699,1530521.3297985,147
1660211155.10896,1530521.3298013,130
1660211155.10896,1530521.3298042,100
1660211155.10896,1530521.3298069,86
1660211155.10896,1530521.3298098,86
1660211155.10896,1530521.3298126,72
1660211155.10896,1530521.3298154,63
1660211155.10896,1530521.3298182,63
1660211155.10896,1530521.3298211,65
1660211155.10896,1530521.3298239,84
1660211155.10896,1530521.3298267,105
1660211155.10896,1530521.3298296,95
1660211155.10896,1530521.3298324,84
1660211155.10896,1530521.3298353,88
1660211155.10896,1530521.3298381,102
1660211155.10896,1530521.3298411,116
1660211155.10896,1530521.329844,114
1660211155.10896,1530521.3298469,95
1660211155.10896,1530521.3298498,77
1660211155.10896,1530521.3298527,79
1660211155.10896,1530521.3298555,98
1660211155.10896,1530521.8173762,93
1660211155.10896,1530521.8173947,77
1660211155.10896,1530521.8174014,74
1660211155.10896,1530521.8174077,77
1660211155.82228,1530521.8174155,79
1660211155.82228,1530521.8174219,81
1660211155.82228,1530521.8174281,81
1660211155.82228,1530521.8175988,84
1660211155.82228,1530521.8176963,77
1660211155.82228,1530521.817713,67
1660211155.82228,1530521.8177445,63
1660211155.82228,1530521.8177499,63
1660211155.82228,1530521.8177542,70
1660211155.82228,1530521.8177577,67
1660211155.82228,1530521.8177634,46
1660211155.82228,1530521.8177696,16
1660211155.82228,1530521.8177757,14
1660211155.82228,1530521.8177846,44
1660211155.82228,1530521.8177895,77
1660211155.82228,1530521.8177955,91
1660211155.82228,1530521.8177999,86
1660211155.82228,1530521.8178041,70
1660211155.82228,1530521.817812,65
1660211155.82228,1530521.8178165,60
1660211155.82228,1530521.8178197,46
1660211155.82228,1530521.8178237,42
1660211155.82228,1530521.8178286,44
1660211155.82228,1530521.8178333,42
1660211155.82228,1530521.8178376,28
1660211155.82228,1530521.8178405,25
1660211155.82228,1530521.8178436,35
1660211155.82228,1530521.8178465,46
1660211155.82228,1530521.8178492,56
1660211155.82228,1530521.8178521,56
1660211155.82228,1530521.817855,109
1660211155.82228,1530521.8178578,301
1660211155.82228,1530521.8178607,607
1660211155.82228,1530521.8178647,674
1660211155.82228,1530521.8178727,107
1660211155.82228,1530521.8178763,-504
1660211155.82228,1530521.8178795,-352
1660211155.82228,1530521.8178828,30
1660211155.82228,1530521.81789,46
1660211155.82228,1530521.8178962,32
1660211155.82228,1530521.8179044,114
1660211155.82228,1530521.8179106,109
1660211155.82228,1530521.8179168,77
1660211155.82228,1530521.8179201,95
1660211155.82228,1530521.8179247,105
1660211155.82228,1530521.8179315,95
1660211155.82228,1530521.8179457,105
1660211155.82228,1530521.8179545,116
1660211155.82228,1530521.8179683,119
1660211155.82228,1530521.8179805,121
1660211155.83325,1530521.8179878,130
1660211155.83325,1530521.8179968,130
1660211155.83325,1530521.8180043,128
1660211155.83325,1530521.8180131,144
1660211155.83325,1530521.8180211,172
1660211155.83325,1530521.8180347,170
1660211155.83325,1530521.8180421,163
1660211155.83325,1530521.8180474,177
1660211155.83325,1530521.8180598,196
1660211155.83325,1530521.8180668,205
1660211155.83325,1530521.8180721,207
1660211155.83325,1530521.8180774,207
1660211155.83325,1530521.8180831,196
1660211155.83325,1530521.8180936,182
1660211155.83325,1530521.8181018,172
1660211155.83325,1530521.8181097,168
1660211155.83325,1530521.8181145,163
1660211155.83325,1530521.8181236,161
1660211155.83325,1530521.8181304,151
1660211155.83325,1530522.5507068,133
1660211155.83325,1530522.5507246,119
1660211155.83325,1530522.5507295,107
1660211155.83325,1530522.5507356,86
1660211155.83325,1530522.5507417,63
1660211156.31016,1530522.5507456,35
1660211156.31016,1530522.5507495,-16
1660211156.31016,1530522.5507532,-49
1660211156.31016,1530522.5507567,-42
1660211156.31016,1530522.5507604,-32
1660211156.31016,1530522.5507641,-39
1660211156.31016,1530522.5507691,-35
1660211156.31016,1530522.5507731,-35
1660211156.31016,1530522.5507769,-51
1660211156.31016,1530522.5507807,-53
1660211156.31016,1530522.5507848,-35
1660211156.31016,1530522.5507888,-23
1660211156.31016,1530522.5507925,-16
1660211156.31016,1530522.5507976,-11
1660211156.31016,1530522.5508234,-11
1660211156.31016,1530522.5508368,-7
1660211156.31016,1530522.5508452,2
1660211156.31016,1530522.5508526,4
1660211156.31016,1530522.5508598,0
1660211156.31016,1530522.5508668,0
1660211156.31016,1530522.5508739,9
1660211156.31016,1530522.5508808,14
1660211156.31016,1530522.5509271,14
1660211156.31016,1530522.5509394,16
1660211156.31016,1530522.5509502,23
1660211156.31016,1530522.5509584,28
1660211156.31016,1530522.5509675,35
1660211156.31016,1530522.5510138,37
1660211156.31016,1530522.551023,42
1660211156.31016,1530522.5510304,39
1660211156.31016,1530522.551035,49
1660211156.31016,1530522.5510402,67
1660211156.31016,1530522.5510454,77
1660211156.31016,1530522.5510508,93
1660211156.31016,1530522.5510554,107
1660211156.31016,1530522.5510618,98
1660211156.31016,1530522.5510666,95
1660211156.31016,1530522.5510729,107
1660211156.31016,1530522.5510789,105
1660211156.31016,1530522.5510859,79
1660211156.31016,1530522.5510927,63
1660211156.31016,1530522.5510972,67
1660211156.31016,1530522.551102,74
1660211156.31016,1530522.5511068,77
1660211156.31016,1530522.5511149,81
1660211156.31016,1530522.5511216,81
1660211156.31016,1530522.5511251,77
1660211156.31016,1530522.5511285,74
1660211156.31016,1530522.551132,74
1660211156.31016,1530522.5511356,147
1660211156.32911,1530522.5511393,383
1660211156.32911,1530522.5511431,712
1660211156.32911,1530522.5511487,742
1660211156.32911,1530522.5511576,98
1660211156.32911,1530522.5511645,-537
1660211156.32911,1530522.5511736,-333
1660211156.32911,1530522.5511842,72
1660211156.32911,1530522.5511915,70
1660211156.32911,1530522.5511964,35
1660211156.32911,1530522.5512062,105
1660211156.32911,1530522.5512168,95
1660211156.32911,1530522.5512248,81
1660211156.32911,1530522.5512314,114
1660211156.32911,1530522.5512386,119
1660211156.32911,1530522.5512423,102
1660211156.32911,1530522.5512487,105
1660211156.32911,1530522.5512518,109
1660211156.32911,1530522.5512546,95
1660211156.32911,1530523.034076,86
1660211156.32911,1530523.0340997,93
1660211156.32911,1530523.0341068,95
1660211156.32911,1530523.034114,102
1660211156.32911,1530523.034121,121
1660211156.32911,1530523.0341281,130
1660211156.84241,1530523.0341353,137
1660211156.84241,1530523.0341417,151
1660211156.84241,1530523.0341457,154
1660211156.84241,1530523.0341513,149
1660211156.84241,1530523.034156,158
1660211156.84241,1530523.0341625,172
1660211156.84241,1530523.0341694,177
1660211156.84241,1530523.0341764,170
1660211156.84241,1530523.034181,149
1660211156.84241,1530523.0341859,114
1660211156.84241,1530523.0341896,81
1660211156.84241,1530523.0341944,74
1660211156.84241,1530523.0342002,88
1660211156.84241,1530523.0342041,93
1660211156.84241,1530523.0342075,77
1660211156.84241,1530523.0342116,56
1660211156.84241,1530523.0342148,44
1660211156.84241,1530523.0342181,44
1660211156.84241,1530523.0342212,35
1660211156.84241,1530523.0342242,4
1660211156.84241,1530523.0342275,-14
1660211156.84241,1530523.0342309,4
1660211156.84241,1530523.0342343,16
1660211156.84241,1530523.0342376,9
1660211156.84241,1530523.034241,16
1660211156.84241,1530523.0342443,28
1660211156.84241,1530523.0342476,28
1660211156.84241,1530523.034251,25
1660211156.84241,1530523.034254,21
1660211156.84241,1530523.0342572,9
1660211156.84241,1530523.0342603,9
1660211156.84241,1530523.0342642,16
1660211156.84241,1530523.0342677,18
1660211156.84241,1530523.034271,23
1660211156.84241,1530523.0342748,21
1660211156.84241,1530523.0342813,-4
1660211156.84241,1530523.0342884,-18
1660211156.84241,1530523.0342939,-2
1660211156.84241,1530523.0342993,0
1660211156.84241,1530523.0343032,-7
1660211156.84241,1530523.0343088,7
1660211156.84241,1530523.0343122,16
1660211156.84241,1530523.0343154,18
1660211156.84241,1530523.0343189,23
1660211156.84241,1530523.0343229,28
1660211156.84241,1530523.034326,37
1660211156.84241,1530523.0343292,44
1660211156.84241,1530523.0343324,30
1660211156.84241,1530523.0343357,25
1660211156.84241,1530523.034339,60
1660211156.85339,1530523.034342,98
1660211156.85339,1530523.034345,114
1660211156.85339,1530523.034348,112
1660211156.85339,1530523.0343514,107
1660211156.85339,1530523.034355,109
1660211156.85339,1530523.0343582,105
1660211156.85339,1530523.0343613,79
1660211156.85339,1530523.0343705,60
1660211156.85339,1530523.0343751,53
1660211156.85339,1530523.0343805,44
1660211156.85339,1530523.0343842,39
1660211156.85339,1530523.0343906,46
1660211156.85339,1530523.0343943,51
1660211156.85339,1530523.0343997,60
1660211156.85339,1530523.0344035,70
1660211156.85339,1530523.0344089,63
1660211156.85339,1530523.0344126,72
1660211156.85339,1530523.5708998,198
1660211156.85339,1530523.5709168,485
1660211156.85339,1530523.5709238,777
1660211156.85339,1530523.5709278,562
1660211156.85339,1530523.5709363,-249
1660211156.85339,1530523.5709432,-623
1660211156.85339,1530523.5709489,-184
1660211157.33288,1530523.5709533,95
1660211157.33288,1530523.5709899,11
1660211157.33288,1530523.5710039,53
1660211157.33288,1530523.5710112,130
1660211157.33288,1530523.5710177,93
1660211157.33288,1530523.5710243,74
1660211157.33288,1530523.5710303,86
1660211157.33288,1530523.5710367,81
1660211157.33288,1530523.5710431,84
1660211157.33288,1530523.5710497,98
1660211157.33288,1530523.5710558,109
1660211157.33288,1530523.5710619,114
1660211157.33288,1530523.5710679,114
1660211157.33288,1530523.5710739,112
1660211157.33288,1530523.57108,119
1660211157.33288,1530523.5710861,140
1660211157.33288,1530523.5710928,154
1660211157.33288,1530523.5711025,140
1660211157.33288,1530523.5711141,119
1660211157.33288,1530523.57112,121
1660211157.33288,1530523.5711229,140
1660211157.33288,1530523.5711258,156
1660211157.33288,1530523.5711288,163
1660211157.33288,1530523.5711319,163
1660211157.33288,1530523.5711352,151
1660211157.33288,1530523.5711381,140
1660211157.33288,1530523.5711413,135
1660211157.33288,1530523.5711444,126
1660211157.33288,1530523.5711474,116
1660211157.33288,1530523.5711507,105
1660211157.33288,1530523.5711539,91
1660211157.33288,1530523.5711568,79
1660211157.33288,1530523.5711597,74
1660211157.33288,1530523.5711628,60
1660211157.33288,1530523.5711659,44
1660211157.33288,1530523.5711699,32
1660211157.33288,1530523.5711735,28
1660211157.33288,1530523.571178,23
1660211157.33288,1530523.5711827,25
1660211157.33288,1530523.5711861,44
1660211157.33288,1530523.5711901,58
1660211157.33288,1530523.5711947,58
1660211157.33288,1530523.5711987,53
1660211157.33288,1530523.5712021,46
1660211157.33288,1530523.5712054,46
1660211157.33288,1530523.5712087,53
1660211157.33288,1530523.5712119,58
1660211157.33288,1530523.5712157,63
1660211157.33288,1530523.5712191,77
1660211157.33288,1530523.5712223,79
1660211157.34584,1530523.5712254,65
1660211157.34584,1530523.5712288,58
1660211157.34584,1530523.5712341,58
1660211157.34584,1530523.5712399,65
1660211157.34584,1530523.5712429,67
1660211157.34584,1530523.571246,67
1660211157.34584,1530523.5712498,65
1660211157.34584,1530523.5712544,67
1660211157.34584,1530523.5712608,72
1660211157.34584,1530523.5712672,81
1660211157.34584,1530523.5712736,79
1660211157.34584,1530523.5712769,60
1660211157.34584,1530523.5712802,58
1660211157.34584,1530523.5712836,95
1660211157.34584,1530523.571287,133
1660211157.34584,1530523.5712903,147
1660211157.34584,1530524.0584513,142
1660211157.34584,1530524.0584681,133
1660211157.34584,1530524.0584741,135
1660211157.34584,1530524.0584778,130
1660211157.34584,1530524.0584827,112
1660211157.34584,1530524.0584863,109
1660211157.34584,1530524.0584896,109
1660211157.34584,1530524.058493,102
1660211157.92441,1530524.0584963,95
1660211157.92441,1530524.0584995,112
1660211157.92441,1530524.0585026,130
1660211157.92441,1530524.0585058,109
1660211157.92441,1530524.0585091,77
1660211157.92441,1530524.0585124,77
1660211157.92441,1530524.0585157,140
1660211157.92441,1530524.058519,336
1660211157.92441,1530524.0585224,651
1660211157.92441,1530524.0585257,705
1660211157.92441,1530524.0585293,56
1660211157.92441,1530524.0585328,-609
1660211157.92441,1530524.0585362,-406
1660211157.92441,1530524.0585396,11
1660211157.92441,1530524.0585429,7
1660211157.92441,1530524.0585464,-14
1660211157.92441,1530524.0585498,72
1660211157.92441,1530524.0585531,74
1660211157.92441,1530524.0585565,63
1660211157.92441,1530524.0585597,93
1660211157.92441,1530524.0585632,95
1660211157.92441,1530524.0585675,86
1660211157.92441,1530524.0585727,91
1660211157.92441,1530524.0585761,93
1660211157.92441,1530524.0585795,95
1660211157.92441,1530524.0585842,112
1660211157.92441,1530524.0585884,121
1660211157.92441,1530524.0585934,121
1660211157.92441,1530524.0586008,140
1660211157.92441,1530524.0586073,158
1660211157.92441,1530524.0586119,161
1660211157.92441,1530524.058615,158
1660211157.92441,1530524.0586185,165
1660211157.92441,1530524.058622,170
1660211157.92441,1530524.0586257,168
1660211157.92441,1530524.0586312,158
1660211157.92441,1530524.0586345,163
1660211157.92441,1530524.0586376,182
1660211157.92441,1530524.0586415,184
1660211157.92441,1530524.0586448,147
1660211157.92441,1530524.0586484,119
1660211157.92441,1530524.0586545,123
1660211157.92441,1530524.0586598,123
1660211157.92441,1530524.0586676,100
1660211157.92441,1530524.0586738,77
1660211157.92441,1530524.0586806,58
1660211157.92441,1530524.0586889,44
1660211157.92441,1530524.0586945,25
1660211157.92441,1530524.058699,11
1660211157.92441,1530524.058704,0
1660211157.93788,1530524.0587081,-16
1660211157.93788,1530524.0587131,-21
1660211157.93788,1530524.0587168,-11
1660211157.93788,1530524.0587214,4
1660211157.93788,1530524.0587252,18
1660211157.93788,1530524.0587283,21
1660211157.93788,1530524.0587317,28
1660211157.93788,1530524.0587352,42
1660211157.93788,1530524.0587387,44
1660211157.93788,1530524.0587422,35
1660211157.93788,1530524.0587455,42
1660211157.93788,1530524.0587492,60
1660211157.93788,1530524.0587564,56
1660211157.93788,1530524.0587619,35
1660211157.93788,1530524.0587656,46
1660211157.93788,1530524.6443695,84
1660211157.93788,1530524.644395,84
1660211157.93788,1530524.6444033,53
1660211157.93788,1530524.6444099,51
1660211157.93788,1530524.6444182,63
1660211157.93788,1530524.6444264,46
1660211157.93788,1530524.6444349,18
1660211157.93788,1530524.6444421,14
1660211157.93788,1530524.6444477,25
1660211158.45,1530524.6444506,23
1660211158.45,1530524.6444536,16
1660211158.45,1530524.6444596,37
1660211158.45,1530524.6444658,70
1660211158.45,1530524.6444702,72
1660211158.45,1530524.6444752,63
1660211158.45,1530524.6444787,67
1660211158.45,1530524.6444817,74
1660211158.45,1530524.644485,65
1660211158.45,1530524.6444882,42
1660211158.45,1530524.6444928,30
1660211158.45,1530524.6444978,39
1660211158.45,1530524.6445021,44
1660211158.45,1530524.6445075,44
1660211158.45,1530524.6445115,51
1660211158.45,1530524.6445152,63
1660211158.45,1530524.6445186,72
1660211158.45,1530524.644523,81
1660211158.45,1530524.6445264,74
1660211158.45,1530524.6445301,123
1660211158.45,1530524.6445376,345
1660211158.45,1530524.6445452,703
1660211158.45,1530524.6445514,763
1660211158.45,1530524.6445544,93
1660211158.45,1530524.6445575,-590
1660211158.45,1530524.6445605,-397
1660211158.45,1530524.6445634,37
1660211158.45,1530524.6445664,53
1660211158.45,1530524.6445693,28
1660211158.45,1530524.6445721,109
1660211158.45,1530524.644575,114
1660211158.45,1530524.6445779,95
1660211158.45,1530524.6445808,112
1660211158.45,1530524.6445837,114
1660211158.45,1530524.6445867,112
1660211158.45,1530524.6445897,116
1660211158.45,1530524.6445926,116
1660211158.45,1530524.6445955,116
1660211158.45,1530524.6445983,121
1660211158.45,1530524.6446012,123
1660211158.45,1530524.6446041,130
1660211158.45,1530524.644607,140
1660211158.45,1530524.6446101,147
1660211158.45,1530524.644613,151
1660211158.45,1530524.6446158,165
1660211158.45,1530524.6446187,179
1660211158.45,1530524.6446215,182
1660211158.45,1530524.6446245,186
1660211158.45,1530524.6446273,191
1660211158.45,1530524.6446303,182
1660211158.46097,1530524.6446332,172
1660211158.46097,1530524.6446363,168
1660211158.46097,1530524.6446391,147
1660211158.46097,1530524.6446419,128
1660211158.46097,1530524.6446449,126
1660211158.46097,1530524.6446477,119
1660211158.46097,1530524.6446507,100
1660211158.46097,1530524.6446541,79
1660211158.46097,1530524.6446598,67
1660211158.46097,1530524.6446629,60
1660211158.46097,1530524.6446657,46
1660211158.46097,1530524.6446687,18
1660211158.46097,1530524.6446715,7
1660211158.46097,1530524.6446744,28
1660211158.46097,1530525.1798329,49
1660211158.46097,1530525.1798524,44
1660211158.46097,1530525.1798666,35
1660211158.46097,1530525.1798777,37
1660211158.46097,1530525.1798836,37
1660211158.46097,1530525.1798893,37
1660211158.46097,1530525.1798978,53
1660211158.46097,1530525.179905,65
1660211158.46097,1530525.1799073,58
1660211158.46097,1530525.1799106,32
1660211159.0958,1530525.1799165,18
1660211159.0958,1530525.1799195,42
1660211159.0958,1530525.1799246,56
1660211159.0958,1530525.1799344,51
1660211159.0958,1530525.1799398,53
1660211159.0958,1530525.17995,39
1660211159.0958,1530525.179957,14
1660211159.0958,1530525.1799695,16
1660211159.0958,1530525.1799802,28
1660211159.0958,1530525.179988,25
1660211159.0958,1530525.1799948,11
1660211159.0958,1530525.1799981,16
1660211159.0958,1530525.1800054,44
1660211159.0958,1530525.1800195,60
1660211159.0958,1530525.1800326,70
1660211159.0958,1530525.1800411,74
1660211159.0958,1530525.1800436,67
1660211159.0958,1530525.1800457,74
1660211159.0958,1530525.1800477,88
1660211159.0958,1530525.1800498,81
1660211159.0958,1530525.1800519,42
1660211159.0958,1530525.1800539,7
1660211159.0958,1530525.180056,35
1660211159.0958,1530525.1800582,84
1660211159.0958,1530525.1800603,84
1660211159.0958,1530525.1800623,70
1660211159.0958,1530525.1800644,79
1660211159.0958,1530525.1800665,81
1660211159.0958,1530525.1800685,58
1660211159.0958,1530525.1800706,37
1660211159.0958,1530525.1800726,107
1660211159.0958,1530525.1800747,357
1660211159.0958,1530525.1800768,731
1660211159.0958,1530525.1800789,761
1660211159.0958,1530525.180081,77
1660211159.0958,1530525.1800832,-534
1660211159.0958,1530525.1800852,-280
1660211159.0958,1530525.1800873,114
1660211159.0958,1530525.1800893,84
1660211159.0958,1530525.1800913,51
1660211159.0958,1530525.1800934,133
1660211159.0958,1530525.1800954,142
1660211159.0958,1530525.1800974,135
1660211159.0958,1530525.1800995,161
1660211159.0958,1530525.1801016,158
1660211159.0958,1530525.1801042,168
1660211159.0958,1530525.1801067,191
1660211159.0958,1530525.1801087,154
1660211159.0958,1530525.1801108,109
1660211159.0958,1530525.1801128,114
1660211159.10777,1530525.180115,140
1660211159.10777,1530525.1801169,147
1660211159.10777,1530525.180119,144
1660211159.10777,1530525.1801211,154
1660211159.10777,1530525.1801231,175
1660211159.10777,1530525.1801252,189
1660211159.10777,1530525.1801273,191
1660211159.10777,1530525.1801293,200
1660211159.10777,1530525.1801314,233
1660211159.10777,1530525.1801334,245
1660211159.10777,1530525.1801355,224
1660211159.10777,1530525.1801375,221
1660211159.10777,1530525.1801396,233
1660211159.10777,1530525.8137219,219
1660211159.10777,1530525.8137391,189
1660211159.10777,1530525.8137548,168
1660211159.10777,1530525.8137654,154
1660211159.10777,1530525.8137717,137
1660211159.10777,1530525.8137802,126
1660211159.10777,1530525.8137886,112
1660211159.10777,1530525.8138012,84
1660211159.10777,1530525.813812,63
1660211159.10777,1530525.8138155,53
1660211159.10777,1530525.8138185,35
1660211159.717,1530525.8138215,14
1660211159.717,1530525.8138245,2
1660211159.717,1530525.8138278,4
1660211159.717,1530525.8138381,11
1660211159.717,1530525.8138483,-9
1660211159.717,1530525.8138543,-28
1660211159.717,1530525.8138587,-14
1660211159.717,1530525.813865,4
1660211159.717,1530525.8138706,2
1660211159.717,1530525.8138753,7
1660211159.717,1530525.8138826,23
1660211159.717,1530525.8139143,32
1660211159.717,1530525.8139263,30
1660211159.717,1530525.8139372,35
1660211159.717,1530525.8139412,42
1660211159.717,1530525.8139434,25
1660211159.717,1530525.8139508,4
1660211159.717,1530525.8139615,23
1660211159.717,1530525.8139682,46
1660211159.717,1530525.8139729,35
1660211159.717,1530525.8139828,18
1660211159.717,1530525.8139967,25
1660211159.717,1530525.81401,44
1660211159.717,1530525.8140223,70
1660211159.717,1530525.8140365,102
1660211159.717,1530525.8140495,109
1660211159.717,1530525.8140635,93
1660211159.717,1530525.8140767,91
1660211159.717,1530525.8140897,81
1660211159.717,1530525.814103,46
1660211159.717,1530525.8141163,35
1660211159.717,1530525.8141292,65
1660211159.717,1530525.8141422,79
1660211159.717,1530525.8141555,65
1660211159.717,1530525.8141687,77
1660211159.717,1530525.8141816,93
1660211159.717,1530525.8141955,86
1660211159.717,1530525.8142111,77
1660211159.717,1530525.8142226,67
1660211159.717,1530525.814229,53
1660211159.717,1530525.8142437,126
1660211159.717,1530525.8142562,376
1660211159.717,1530525.8142668,651
1660211159.717,1530525.8142801,478
1660211159.717,1530525.8142941,-184
1660211159.717,1530525.8143032,-467
1660211159.717,1530525.8143079,-114
1660211159.717,1530525.8143124,109
1660211159.717,1530525.8143196,58
1660211159.717,1530525.8143259,95
1660211159.72797,1530525.8143333,156
1660211159.72797,1530525.8143422,128
1660211159.72797,1530525.8143537,107
1660211159.72797,1530525.8143619,116
1660211159.72797,1530525.8143661,128
1660211159.72797,1530525.8143737,154
1660211159.72797,1530525.814381,172
1660211159.72797,1530525.8143861,165
1660211159.72797,1530525.8143892,154
1660211159.72797,1530525.8143922,151
1660211159.72797,1530525.8143983,158
1660211159.72797,1530525.8144044,177
1660211159.72797,1530526.4465794,196
1660211159.72797,1530526.4465941,189
1660211159.72797,1530526.4465988,165
1660211159.72797,1530526.4466044,158
1660211159.72797,1530526.4466077,184
1660211159.72797,1530526.4466113,214
1660211159.72797,1530526.4466143,219
1660211159.72797,1530526.4466173,205
1660211159.72797,1530526.4466203,191
1660211159.72797,1530526.4466232,161
1660211159.72797,1530526.4466264,130
1660211159.72797,1530526.446634,123
1660211160.20782,1530526.4466455,119
1660211160.20782,1530526.446649,116
1660211160.20782,1530526.4466511,119
1660211160.20782,1530526.4466531,93
1660211160.20782,1530526.446655,79
1660211160.20782,1530526.4466569,102
1660211160.20782,1530526.4466587,79
1660211160.20782,1530526.4466606,32
1660211160.20782,1530526.4466625,32
1660211160.20782,1530526.4466643,37
1660211160.20782,1530526.4466669,11
1660211160.20782,1530526.446669,-4
1660211160.20782,1530526.446671,-2
1660211160.20782,1530526.4466731,-7
1660211160.20782,1530526.446677,-7
1660211160.20782,1530526.4466838,4
1660211160.20782,1530526.4466896,7
1660211160.20782,1530526.4466918,14
1660211160.20782,1530526.4466946,18
1660211160.20782,1530526.446704,14
1660211160.20782,1530526.4467127,16
1660211160.20782,1530526.4467195,23
1660211160.20782,1530526.4467259,32
1660211160.20782,1530526.4467339,30
1660211160.20782,1530526.4467417,9
1660211160.20782,1530526.4467459,0
1660211160.20782,1530526.4467525,30
1660211160.20782,1530526.446757,51
1660211160.20782,1530526.4467631,23
1660211160.20782,1530526.4467684,18
1660211160.20782,1530526.4467797,56
1660211160.20782,1530526.4467925,86
1660211160.20782,1530526.4468034,91
1660211160.20782,1530526.4468141,70
1660211160.20782,1530526.446825,32
1660211160.20782,1530526.4468327,37
1660211160.20782,1530526.4468351,70
1660211160.20782,1530526.4468408,58
1660211160.20782,1530526.4468537,46
1660211160.20782,1530526.4468616,60
1660211160.20782,1530526.4468641,58
1660211160.20782,1530526.4468717,46
1660211160.20782,1530526.4468819,56
1660211160.20782,1530526.4468911,67
1660211160.20782,1530526.4468972,67
1660211160.20782,1530526.4468993,70
1660211160.20782,1530526.4469013,44
1660211160.20782,1530526.4469045,16
1660211160.20782,1530526.4469138,140
1660211160.20782,1530526.4469237,457
1660211160.22477,1530526.4469281,639
1660211160.22477,1530526.4469311,259
1660211160.22477,1530526.4469404,-319
1660211160.22477,1530526.4469524,-312
1660211160.22477,1530526.4469632,37
1660211160.22477,1530526.4469756,107
1660211160.22477,1530526.4469828,53
1660211160.22477,1530526.4469933,100
1660211160.22477,1530526.4470022,130
1660211160.22477,1530526.4470092,116
1660211160.22477,1530526.4470164,126
1660211160.22477,1530526.9343198,133
1660211160.22477,1530526.9343369,121
1660211160.22477,1530526.9343426,119
1660211160.22477,1530526.9343478,128
1660211160.22477,1530526.9343525,135
1660211160.22477,1530526.9343602,130
1660211160.22477,1530526.9343753,121
1660211160.22477,1530526.9343823,133
1660211160.22477,1530526.9343867,158
1660211160.22477,1530526.9343887,163
1660211160.22477,1530526.9343913,175
1660211160.22477,1530526.9344014,193
1660211160.22477,1530526.9344099,168
1660211160.79535,1530526.9344129,135
1660211160.79535,1530526.934415,142
1660211160.79535,1530526.934417,151
1660211160.79535,1530526.9344222,154
1660211160.79535,1530526.9344318,168
1660211160.79535,1530526.9344389,163
1660211160.79535,1530526.9344486,133
1660211160.79535,1530526.934456,105
1660211160.79535,1530526.9344667,98
1660211160.79535,1530526.9344747,112
1660211160.79535,1530526.9344823,140
1660211160.79535,1530526.9344894,142
1660211160.79535,1530526.9344968,107
1660211160.79535,1530526.9345067,93
1660211160.79535,1530526.9345152,107
1660211160.79535,1530526.9345217,84
1660211160.79535,1530526.9345254,11
1660211160.79535,1530526.9345296,-14
1660211160.79535,1530526.9345339,53
1660211160.79535,1530526.9345371,72
1660211160.79535,1530526.9345425,32
1660211160.79535,1530526.9345465,44
1660211160.79535,1530526.934586,49
1660211160.79535,1530526.9346014,28
1660211160.79535,1530526.9346074,37
1660211160.79535,1530526.9346121,56
1660211160.79535,1530526.9346165,60
1660211160.79535,1530526.9346208,60
1660211160.79535,1530526.9346251,63
1660211160.79535,1530526.9346296,60
1660211160.79535,1530526.9346363,37
1660211160.79535,1530526.9346478,9
1660211160.79535,1530526.9346525,30
1660211160.79535,1530526.9346571,63
1660211160.79535,1530526.9346611,58
1660211160.79535,1530526.9346649,49
1660211160.79535,1530526.9346686,72
1660211160.79535,1530526.9346747,102

1660211160.79535,1530526.9346803,98
1660211160.79535,1530526.9346846,84
1660211160.79535,1530526.9346903,98
1660211160.79535,1530526.9346937,98
1660211160.79535,1530526.934699,84
1660211160.79535,1530526.9347025,65
1660211160.79535,1530526.9347061,49
1660211160.79535,1530526.9347096,35
1660211160.79535,1530526.9347152,53
1660211160.79535,1530526.934719,91
1660211160.79535,1530526.9347243,86
1660211160.79535,1530526.934728,63
1660211160.80732,1530526.9347344,65
1660211160.80732,1530526.9347443,77
1660211160.80732,1530526.9347492,63
1660211160.80732,1530526.9347547,30
1660211160.80732,1530526.9347611,79
1660211160.80732,1530526.9347703,315
1660211160.80732,1530526.9347749,635
1660211160.80732,1530526.9347788,560
1660211160.80732,1530526.9347834,-88
1660211160.80732,1530526.9347888,-467
1660211160.80732,1530527.5208097,-130
1660211160.80732,1530527.5208307,140
1660211160.80732,1530527.5208453,77
1660211160.80732,1530527.5208595,86
1660211160.80732,1530527.5208727,147
1660211160.80732,1530527.520983,121
1660211160.80732,1530527.5209962,98
1660211160.80732,1530527.5210058,109
1660211160.80732,1530527.5210143,100
1660211160.80732,1530527.521021,88
1660211160.80732,1530527.521028,93
1660211160.80732,1530527.5211012,86
1660211160.80732,1530527.5211116,77
1660211160.80732,1530527.521117,88
1660211161.28076,1530527.5211206,109
1660211161.28076,1530527.5211251,98
1660211161.28076,1530527.5211313,72
1660211161.28076,1530527.5211382,81
1660211161.28076,1530527.5211453,116
1660211161.28076,1530527.5211502,130
1660211161.28076,1530527.5211565,137
1660211161.28076,1530527.5211598,149
1660211161.28076,1530527.5211636,147
1660211161.28076,1530527.5211667,144
1660211161.28076,1530527.5211695,156
1660211161.28076,1530527.5211742,165
1660211161.28076,1530527.5211795,154
1660211161.28076,1530527.5211888,140
1660211161.28076,1530527.5212785,133
1660211161.28076,1530527.5212925,133
1660211161.28076,1530527.5212971,135
1660211161.28076,1530527.5213041,130
1660211161.28076,1530527.5213099,119
1660211161.28076,1530527.5213148,114
1660211161.28076,1530527.5213202,100
1660211161.28076,1530527.5213235,70
1660211161.28076,1530527.5213285,56
1660211161.28076,1530527.5213328,60
1660211161.28076,1530527.5213377,63
1660211161.28076,1530527.5213416,58
1660211161.28076,1530527.521345,53
1660211161.28076,1530527.5213507,51
1660211161.28076,1530527.521356,60
1660211161.28076,1530527.5213836,72
1660211161.28076,1530527.5213954,72
1660211161.28076,1530527.5214043,65
1660211161.28076,1530527.5214124,72
1660211161.28076,1530527.5214272,77
1660211161.28076,1530527.5214388,72
1660211161.28076,1530527.5214516,72
1660211161.28076,1530527.521458,81
1660211161.28076,1530527.5214603,86
1660211161.28076,1530527.5214624,86
1660211161.28076,1530527.5214694,74
1660211161.28076,1530527.5214797,65
1660211161.28076,1530527.5214879,79
1660211161.28076,1530527.5214974,100
1660211161.28076,1530527.5215041,93
1660211161.28076,1530527.5215074,77
1660211161.28076,1530527.5215204,70
1660211161.28076,1530527.5215327,72
1660211161.28076,1530527.5215422,60
1660211161.28076,1530527.5215473,32
1660211161.28076,1530527.5215539,16
1660211161.29473,1530527.5215603,25
1660211161.29473,1530527.5215708,37
1660211161.29473,1530527.5215758,30
1660211161.29473,1530527.5215779,30
1660211161.29473,1530527.52158,32
1660211161.29473,1530527.521582,30
1660211161.29473,1530527.5215842,39
1660211161.29473,1530527.5215862,23
1660211161.29473,1530527.5215882,-42
1660211161.29473,1530528.0071909,-9
1660211161.29473,1530528.0072134,282
1660211161.29473,1530528.0072188,656
1660211161.29473,1530528.0072236,534
1660211161.29473,1530528.0072271,-196
1660211161.29473,1530528.0072334,-576
1660211161.29473,1530528.0072404,-200
1660211161.29473,1530528.0072472,86
1660211161.29473,1530528.0072572,-4
1660211161.29473,1530528.007265,-28
1660211161.29473,1530528.0072697,56
1660211161.29473,1530528.0072734,63
1660211161.29473,1530528.0072771,37
1660211161.29473,1530528.0072807,63
1660211161.29473,1530528.0072841,86
1660211161.81648,1530528.0072889,93
1660211161.81648,1530528.0072934,105
1660211161.81648,1530528.007297,112
1660211161.81648,1530528.007301,114
1660211161.81648,1530528.0073047,133
1660211161.81648,1530528.0073085,147
1660211161.81648,1530528.0073123,147
1660211161.81648,1530528.007317,158
1660211161.81648,1530528.0073217,175
1660211161.81648,1530528.0073254,172
1660211161.81648,1530528.0073292,170
1660211161.81648,1530528.0073328,172
1660211161.81648,1530528.0073361,175
1660211161.81648,1530528.0073397,177
1660211161.81648,1530528.007343,182
1660211161.81648,1530528.0073467,175
1660211161.81648,1530528.0073503,163
1660211161.81648,1530528.0073535,161
1660211161.81648,1530528.0073566,151
1660211161.81648,1530528.0073599,149
1660211161.81648,1530528.0073632,165
1660211161.81648,1530528.0073665,156
1660211161.81648,1530528.0073697,128
1660211161.81648,1530528.0073728,137
1660211161.81648,1530528.0073765,142
1660211161.81648,1530528.0073795,100
1660211161.81648,1530528.007383,77
1660211161.81648,1530528.0073875,91
1660211161.81648,1530528.0073929,93
1660211161.81648,1530528.0073973,79
1660211161.81648,1530528.0074008,74
1660211161.81648,1530528.0074058,79
1660211161.81648,1530528.0074088,74
1660211161.81648,1530528.007413,53
1660211161.81648,1530528.0074174,51
1660211161.81648,1530528.0074204,79
1660211161.81648,1530528.0074232,91
1660211161.81648,1530528.0074262,67
1660211161.81648,1530528.007429,56
1660211161.81648,1530528.0074318,63
1660211161.81648,1530528.0074347,70
1660211161.81648,1530528.0074374,70
1660211161.81648,1530528.0074401,70
1660211161.81648,1530528.0074429,72
1660211161.81648,1530528.0074457,63
1660211161.81648,1530528.0074486,60
1660211161.81648,1530528.0074514,84
1660211161.81648,1530528.0074542,109
1660211161.81648,1530528.007457,119
1660211161.81648,1530528.0074597,114
1660211161.82745,1530528.0074653,91
1660211161.82745,1530528.0074683,72
1660211161.82745,1530528.007471,67
1660211161.82745,1530528.0074746,58
1660211161.82745,1530528.0074773,35
1660211161.82745,1530528.0074801,11
1660211161.82745,1530528.0074828,9
1660211161.82745,1530528.0074856,11
1660211161.82745,1530528.5431695,-4
1660211161.82745,1530528.5431858,0
1660211161.82745,1530528.543195,18
1660211161.82745,1530528.5432033,11
1660211161.82745,1530528.5432129,-14
1660211161.82745,1530528.5432182,-46
1660211161.82745,1530528.5432242,-23
1660211161.82745,1530528.5432278,165
1660211161.82745,1530528.543233,448
1660211161.82745,1530528.5432381,406
1660211161.82745,1530528.5432445,-161
1660211161.82745,1530528.5432514,-546
1660211161.82745,1530528.5432615,-270
1660211161.82745,1530528.5432671,14
1660211161.82745,1530528.543278,-28
1660211161.82745,1530528.5432857,-53
1660211162.40659,1530528.5432903,-7
1660211162.40659,1530528.5432945,-4
1660211162.40659,1530528.5432986,-9
1660211162.40659,1530528.5433035,9
1660211162.40659,1530528.5433109,23
1660211162.40659,1530528.5433228,16
1660211162.40659,1530528.5433304,18
1660211162.40659,1530528.5433356,51
1660211162.40659,1530528.5433404,74
1660211162.40659,1530528.5433478,67
1660211162.40659,1530528.5433552,60
1660211162.40659,1530528.543358,70
1660211162.40659,1530528.5433601,86
1660211162.40659,1530528.5433622,102
1660211162.40659,1530528.5433643,126
1660211162.40659,1530528.5433663,140
1660211162.40659,1530528.5433684,130
1660211162.40659,1530528.5433763,123
1660211162.40659,1530528.5433867,151
1660211162.40659,1530528.5433902,168
1660211162.40659,1530528.543394,154
1660211162.40659,1530528.543396,151
1660211162.40659,1530528.5433988,158
1660211162.40659,1530528.543401,147
1660211162.40659,1530528.543403,137
1660211162.40659,1530528.5434051,135
1660211162.40659,1530528.5434072,140
1660211162.40659,1530528.5434093,144
1660211162.40659,1530528.5434114,137
1660211162.40659,1530528.5434135,123
1660211162.40659,1530528.5434155,119
1660211162.40659,1530528.5434176,107
1660211162.40659,1530528.5434196,86
1660211162.40659,1530528.5434216,79
1660211162.40659,1530528.5434237,86
1660211162.40659,1530528.5434257,91
1660211162.40659,1530528.5434279,95
1660211162.40659,1530528.5434299,93
1660211162.40659,1530528.543432,95
1660211162.40659,1530528.543434,102
1660211162.40659,1530528.543436,105
1660211162.40659,1530528.5434389,95
1660211162.40659,1530528.5434411,84
1660211162.40659,1530528.5434431,84
1660211162.40659,1530528.5434453,84
1660211162.40659,1530528.5434474,81
1660211162.40659,1530528.5434494,91
1660211162.40659,1530528.5434514,88
1660211162.40659,1530528.5434589,74
1660211162.40659,1530528.5434694,72
1660211162.42255,1530528.5434728,84
1660211162.42255,1530528.5434765,88
1660211162.42255,1530528.5434888,93
1660211162.42255,1530528.5435,112
1660211162.42255,1530528.543505,123
1660211162.42255,1530528.5435124,109
1660211162.42255,1530528.5435248,95
1660211162.42255,1530529.1282078,102
1660211162.42255,1530529.1282203,107
1660211162.42255,1530529.1282242,91
1660211162.42255,1530529.1282265,74
1660211162.42255,1530529.1282287,67
1660211162.42255,1530529.1282307,53
1660211162.42255,1530529.1282327,35
1660211162.42255,1530529.1282347,35
1660211162.42255,1530529.1282368,42
1660211162.42255,1530529.1282388,37
1660211162.42255,1530529.1282408,30
1660211162.42255,1530529.1282428,4
1660211162.42255,1530529.128245,-53
1660211162.42255,1530529.128247,-9
1660211162.42255,1530529.128249,240
1660211162.42255,1530529.1282511,504
1660211162.42255,1530529.1282531,324
1660211162.9926,1530529.1282552,-294
1660211162.9926,1530529.1282572,-523
1660211162.9926,1530529.1282605,-154
1660211162.9926,1530529.1282717,60
1660211162.9926,1530529.1282776,-4
1660211162.9926,1530529.12828,18
1660211162.9926,1530529.128282,74
1660211162.9926,1530529.1282841,56
1660211162.9926,1530529.1282915,56
1660211162.9926,1530529.128302,77
1660211162.9926,1530529.1283093,67
1660211162.9926,1530529.1283162,65
1660211162.9926,1530529.1283203,91
1660211162.9926,1530529.1283235,102
1660211162.9926,1530529.1283267,98
1660211162.9926,1530529.1283299,105
1660211162.9926,1530529.128333,112
1660211162.9926,1530529.1283369,112
1660211162.9926,1530529.1283404,126
1660211162.9926,1530529.1283462,140
1660211162.9926,1530529.1283498,140
1660211162.9926,1530529.1283534,151
1660211162.9926,1530529.1283591,177
1660211162.9926,1530529.1283654,191
1660211162.9926,1530529.1283689,200
1660211162.9926,1530529.1283725,205
1660211162.9926,1530529.1283764,191
1660211162.9926,1530529.1283818,177
1660211162.9926,1530529.1283862,182
1660211162.9926,1530529.1283899,186
1660211162.9926,1530529.1283939,170
1660211162.9926,1530529.1283989,151
1660211162.9926,1530529.128403,147
1660211162.9926,1530529.1284065,137
1660211162.9926,1530529.1284099,123
1660211162.9926,1530529.1284135,114
1660211162.9926,1530529.128417,107
1660211162.9926,1530529.1284206,93
1660211162.9926,1530529.1284258,79
1660211162.9926,1530529.1284293,72
1660211162.9926,1530529.1284329,67
1660211162.9926,1530529.1284381,67
1660211162.9926,1530529.1284415,67
1660211162.9926,1530529.128445,67
1660211162.9926,1530529.1284505,77
1660211162.9926,1530529.1284558,81
1660211162.9926,1530529.128461,77
1660211162.9926,1530529.1284655,84
1660211162.9926,1530529.1284692,93
1660211162.9926,1530529.1284729,84
1660211163.00357,1530529.128478,74
1660211163.00357,1530529.1284821,86
1660211163.00357,1530529.1284883,91
1660211163.00357,1530529.1284929,81
1660211163.00357,1530529.128498,79
1660211163.00357,1530529.1285016,86
1660211163.00357,1530529.7142049,74
1660211163.00357,1530529.7142192,67
1660211163.00357,1530529.7142242,79
1660211163.00357,1530529.7142289,88
1660211163.00357,1530529.714232,100
1660211163.00357,1530529.7142351,123
1660211163.00357,1530529.7142382,126
1660211163.00357,1530529.7142413,102
1660211163.00357,1530529.7142443,86
1660211163.00357,1530529.7142483,74
1660211163.00357,1530529.7142617,53
1660211163.00357,1530529.7142671,32
1660211163.00357,1530529.7142714,28
1660211163.00357,1530529.7142744,32
1660211163.00357,1530529.7142766,30
1660211163.00357,1530529.7142787,11
1660211163.00357,1530529.7142854,0
1660211163.00357,1530529.7142965,2
1660211163.52643,1530529.7142996,0
1660211163.52643,1530529.7143018,-30
1660211163.52643,1530529.7143038,-58
1660211163.52643,1530529.7143057,14
1660211163.52643,1530529.7143098,277
1660211163.52643,1530529.7143118,614
1660211163.52643,1530529.7143145,509
1660211163.52643,1530529.7143231,-214
1660211163.52643,1530529.7143314,-628
1660211163.52643,1530529.7143358,-268
1660211163.52643,1530529.7143396,11
1660211163.52643,1530529.7143435,-58
1660211163.52643,1530529.7143473,-32
1660211163.52643,1530529.7143515,46
1660211163.52643,1530529.7143554,23
1660211163.52643,1530529.7143595,14
1660211163.52643,1530529.7143643,37
1660211163.52643,1530529.7143676,25
1660211163.52643,1530529.7143707,32
1660211163.52643,1530529.7143745,67
1660211163.52643,1530529.7143779,72
1660211163.52643,1530529.7143814,65
1660211163.52643,1530529.7143863,74
1660211163.52643,1530529.7143901,84
1660211163.52643,1530529.714395,79
1660211163.52643,1530529.7143986,74
1660211163.52643,1530529.714402,84
1660211163.52643,1530529.7144055,100
1660211163.52643,1530529.7144089,105
1660211163.52643,1530529.7144124,112
1660211163.52643,1530529.7144157,133
1660211163.52643,1530529.7144191,149
1660211163.52643,1530529.7144228,135
1660211163.52643,1530529.7144266,123
1660211163.52643,1530529.7144309,133
1660211163.52643,1530529.7144378,133
1660211163.52643,1530529.7144415,126
1660211163.52643,1530529.7144455,126
1660211163.52643,1530529.7144493,130
1660211163.52643,1530529.7144527,130
1660211163.52643,1530529.714456,116
1660211163.52643,1530529.7144594,95
1660211163.52643,1530529.7144642,102
1660211163.52643,1530529.7144677,112
1660211163.52643,1530529.7144711,91
1660211163.52643,1530529.7144748,72
1660211163.52643,1530529.7144783,74
1660211163.52643,1530529.7144842,79
1660211163.52643,1530529.7144878,72
1660211163.52643,1530529.7144933,72
1660211163.53612,1530529.7144973,81
1660211163.53612,1530529.7145028,93
1660211163.53612,1530529.7145064,93
1660211163.53612,1530529.7145113,93
1660211163.53612,1530529.714515,116
1660211163.53612,1530530.2495675,121
1660211163.53612,1530530.2495865,107
1660211163.53612,1530530.2495967,112
1660211163.53612,1530530.2496058,130
1660211163.53612,1530530.2496131,128
1660211163.53612,1530530.2496179,123
1660211163.53612,1530530.2496249,123
1660211163.53612,1530530.2496288,109
1660211163.53612,1530530.2496327,102
1660211163.53612,1530530.2496363,95
1660211163.53612,1530530.2496427,79
1660211163.53612,1530530.2496473,60
1660211163.53612,1530530.2496553,39
1660211163.53612,1530530.2496597,25
1660211163.53612,1530530.249666,39
1660211163.53612,1530530.2496698,74
1660211163.53612,1530530.2496733,100
1660211163.53612,1530530.2496766,105
1660211163.53612,1530530.24968,77
1660211164.0619,1530530.2496849,51
1660211164.0619,1530530.2496884,63
1660211164.0619,1530530.2496928,67
1660211164.0619,1530530.2496962,51
1660211164.0619,1530530.2496993,49
1660211164.0619,1530530.2497026,35
1660211164.0619,1530530.2497059,2
1660211164.0619,1530530.249709,2
1660211164.0619,1530530.2497121,23
1660211164.0619,1530530.2497154,18
1660211164.0619,1530530.2497212,14
1660211164.0619,1530530.2497296,18
1660211164.0619,1530530.2497374,-7
1660211164.0619,1530530.2497428,-16
1660211164.0619,1530530.2497543,109
1660211164.0619,1530530.2497658,404
1660211164.0619,1530530.2497729,665
1660211164.0619,1530530.2497759,397
1660211164.0619,1530530.2497842,-364
1660211164.0619,1530530.2497943,-635
1660211164.0619,1530530.2498042,-212
1660211164.0619,1530530.2498159,28
1660211164.0619,1530530.2498235,-44
1660211164.0619,1530530.249832,-23
1660211164.0619,1530530.2498384,25
1660211164.0619,1530530.249847,7
1660211164.0619,1530530.249858,23
1660211164.0619,1530530.2498682,53
1660211164.0619,1530530.2498715,51
1660211164.0619,1530530.2498749,51
1660211164.0619,1530530.2498771,53
1660211164.0619,1530530.2498822,51
1660211164.0619,1530530.2498953,58
1660211164.0619,1530530.2499013,77
1660211164.0619,1530530.2499067,91
1660211164.0619,1530530.2499135,102
1660211164.0619,1530530.2499214,112
1660211164.0619,1530530.2499318,119
1660211164.0619,1530530.2499404,128
1660211164.0619,1530530.2499443,144
1660211164.0619,1530530.2499473,163
1660211164.0619,1530530.2499503,165
1660211164.0619,1530530.2499533,168
1660211164.0619,1530530.2499561,175
1660211164.0619,1530530.2499592,182
1660211164.0619,1530530.2499621,177
1660211164.0619,1530530.2499649,172
1660211164.0619,1530530.2499678,161
1660211164.0619,1530530.2499708,149
1660211164.0619,1530530.2499737,151
1660211164.07198,1530530.2499766,154
1660211164.07198,1530530.2499794,151
1660211164.07198,1530530.2499822,151
1660211164.07198,1530530.249985,144
1660211164.07198,1530530.7857108,116
1660211164.07198,1530530.785727,93
1660211164.07198,1530530.7857315,86
1660211164.07198,1530530.7857372,81
1660211164.07198,1530530.785741,81
1660211164.07198,1530530.7857449,84
1660211164.07198,1530530.7857484,81
1660211164.07198,1530530.785752,79
1660211164.07198,1530530.7857555,84
1660211164.07198,1530530.7857591,72
1660211164.07198,1530530.7857627,63
1660211164.07198,1530530.7857663,77
1660211164.07198,1530530.7857743,86
1660211164.07198,1530530.7857797,86
1660211164.07198,1530530.7857833,77
1660211164.07198,1530530.7858083,58
1660211164.07198,1530530.7858239,46
1660211164.07198,1530530.7858373,46
1660211164.07198,1530530.7858488,44
1660211164.07198,1530530.7858528,42
1660211164.64315,1530530.7858549,44
1660211164.64315,1530530.7858569,49
1660211164.64315,1530530.7858594,44
1660211164.64315,1530530.785869,44
1660211164.64315,1530530.7858763,44
1660211164.64315,1530530.7858837,46
1660211164.64315,1530530.7858914,53
1660211164.64315,1530530.7859055,51
1660211164.64315,1530530.7859187,28
1660211164.64315,1530530.7859325,16
1660211164.64315,1530530.7859464,35
1660211164.64315,1530530.7859604,72
1660211164.64315,1530530.7859743,93
1660211164.64315,1530530.7859883,77
1660211164.64315,1530530.7860032,63
1660211164.64315,1530530.786013,63
1660211164.64315,1530530.7860204,65
1660211164.64315,1530530.7860264,56
1660211164.64315,1530530.786033,30
1660211164.64315,1530530.7860384,7
1660211164.64315,1530530.7860423,7
1660211164.64315,1530530.7860444,14
1660211164.64315,1530530.7860465,14
1660211164.64315,1530530.7860489,21
1660211164.64315,1530530.7860557,32
1660211164.64315,1530530.786065,39
1660211164.64315,1530530.7860729,37
1660211164.64315,1530530.7860833,23
1660211164.64315,1530530.7860858,79
1660211164.64315,1530530.7860881,296
1660211164.64315,1530530.7860902,600
1660211164.64315,1530530.7860967,616
1660211164.64315,1530530.786107,2
1660211164.64315,1530530.7861176,-574
1660211164.64315,1530530.7861298,-355
1660211164.64315,1530530.7861389,42
1660211164.64315,1530530.7861443,44
1660211164.64315,1530530.7861512,23
1660211164.64315,1530530.7861547,102
1660211164.64315,1530530.7861613,98
1660211164.64315,1530530.7861681,74
1660211164.64315,1530530.786181,105
1660211164.64315,1530530.7861957,109
1660211164.64315,1530530.7862094,91
1660211164.64315,1530530.7862184,100
1660211164.64315,1530530.7862328,107
1660211164.64315,1530530.7862417,98
1660211164.64315,1530530.7862546,102
1660211164.64315,1530530.7862641,116
1660211164.64315,1530530.7862761,130
1660211164.65312,1530530.786284,142
1660211164.65312,1530530.7862865,151
1660211164.65312,1530530.7862887,154
1660211164.65312,1530531.370592,158
1660211164.65312,1530531.3706042,172
1660211164.65312,1530531.3706074,184
1660211164.65312,1530531.3706096,198
1660211164.65312,1530531.3706117,203
1660211164.65312,1530531.3706137,177
1660211164.65312,1530531.3706157,142
1660211164.65312,1530531.370618,142
1660211164.65312,1530531.3706199,151
1660211164.65312,1530531.370622,140
1660211164.65312,1530531.3706246,135
1660211164.65312,1530531.3706292,135
1660211164.65312,1530531.370642,112
1660211164.65312,1530531.3706556,98
1660211164.65312,1530531.370669,105
1660211164.65312,1530531.3706774,98
1660211164.65312,1530531.37068,81
1660211164.65312,1530531.3706821,70
1660211164.65312,1530531.3706856,53
1660211164.65312,1530531.3706984,30
1660211164.65312,1530531.3707042,18
1660211165.239,1530531.3707065,18
1660211165.239,1530531.3707086,25
1660211165.239,1530531.3707105,21
1660211165.239,1530531.3707129,14
1660211165.239,1530531.3707232,25
1660211165.239,1530531.3707294,37
1660211165.239,1530531.3707317,39
1660211165.239,1530531.3707349,44
1660211165.239,1530531.3707393,51
1660211165.239,1530531.3707443,49
1660211165.239,1530531.3707493,53
1660211165.239,1530531.3707601,60
1660211165.239,1530531.3707728,63
1660211165.239,1530531.3707829,60
1660211165.239,1530531.3707904,60
1660211165.239,1530531.3707978,58
1660211165.239,1530531.3708092,63
1660211165.239,1530531.37082,65
1660211165.239,1530531.3708296,63
1660211165.239,1530531.3708422,58
1660211165.239,1530531.3708537,58
1660211165.239,1530531.3708593,60
1660211165.239,1530531.3708635,53
1660211165.239,1530531.3708673,42
1660211165.239,1530531.3708709,42
1660211165.239,1530531.3708748,46
1660211165.239,1530531.3708784,46
1660211165.239,1530531.3708821,44
1660211165.239,1530531.3708859,44
1660211165.239,1530531.3708899,42
1660211165.239,1530531.3708937,39
1660211165.239,1530531.3708976,46
1660211165.239,1530531.3709017,77
1660211165.239,1530531.3709059,112
1660211165.239,1530531.3709098,109
1660211165.239,1530531.3709137,81
1660211165.239,1530531.3709173,74
1660211165.239,1530531.3709209,93
1660211165.239,1530531.3709248,88
1660211165.239,1530531.3709287,60
1660211165.239,1530531.3709328,44
1660211165.239,1530531.3709373,46
1660211165.239,1530531.3709408,58
1660211165.239,1530531.3709443,63
1660211165.239,1530531.3709506,58
1660211165.239,1530531.3709542,60
1660211165.239,1530531.3709575,77
1660211165.239,1530531.3709609,74
1660211165.239,1530531.3709664,77
1660211165.239,1530531.3709706,177
1660211165.24997,1530531.3709752,408
1660211165.24997,1530531.3709789,656
1660211165.24997,1530531.9555388,502
1660211165.24997,1530531.9555609,-182
1660211165.24997,1530531.9555682,-530
1660211165.24997,1530531.9555726,-161
1660211165.24997,1530531.9555788,114
1660211165.24997,1530531.9555836,53
1660211165.24997,1530531.9555926,74
1660211165.24997,1530531.955599,140
1660211165.24997,1530531.9556062,107
1660211165.24997,1530531.9556124,74
1660211165.24997,1530531.9556196,91
1660211165.24997,1530531.9556261,98
1660211165.24997,1530531.955637,91
1660211165.24997,1530531.9556484,81
1660211165.24997,1530531.9556536,70
1660211165.24997,1530531.9556595,53
1660211165.24997,1530531.9556635,51
1660211165.24997,1530531.9556713,65
1660211165.24997,1530531.955684,79
1660211165.24997,1530531.9556935,86
1660211165.24997,1530531.9557033,95
1660211165.24997,1530531.9557111,95
1660211165.77166,1530531.9557182,100
1660211165.77166,1530531.9557246,116
1660211165.77166,1530531.955732,137
1660211165.77166,1530531.9557391,147
1660211165.77166,1530531.9557435,142
1660211165.77166,1530531.9557488,135
1660211165.77166,1530531.9557554,130
1660211165.77166,1530531.9557617,133
1660211165.77166,1530531.9557668,130
1660211165.77166,1530531.9557708,121
1660211165.77166,1530531.9557745,116
1660211165.77166,1530531.9557792,116
1660211165.77166,1530531.9557848,116
1660211165.77166,1530531.9557889,114
1660211165.77166,1530531.9557944,119
1660211165.77166,1530531.9558006,112
1660211165.77166,1530531.9558045,100
1660211165.77166,1530531.955808,86
1660211165.77166,1530531.9558113,72
1660211165.77166,1530531.9558145,67
1660211165.77166,1530531.9558186,74
1660211165.77166,1530531.9558222,86
1660211165.77166,1530531.9558259,95
1660211165.77166,1530531.9558296,98
1660211165.77166,1530531.9558331,91
1660211165.77166,1530531.9558364,81
1660211165.77166,1530531.9558405,79
1660211165.77166,1530531.9558439,79
1660211165.77166,1530531.9558479,77
1660211165.77166,1530531.9558515,77
1660211165.77166,1530531.9558551,74
1660211165.77166,1530531.9558584,67
1660211165.77166,1530531.955862,70
1660211165.77166,1530531.9558657,77
1660211165.77166,1530531.9558693,79
1660211165.77166,1530531.9558727,74
1660211165.77166,1530531.9558761,70
1660211165.77166,1530531.9558797,63
1660211165.77166,1530531.9558836,58
1660211165.77166,1530531.9558871,65
1660211165.77166,1530531.9558907,74
1660211165.77166,1530531.955894,70
1660211165.77166,1530531.9558977,67
1660211165.77166,1530531.9559019,70
1660211165.77166,1530531.9559059,67
1660211165.77166,1530531.9559098,67
1660211165.77166,1530531.9559134,67
1660211165.77166,1530531.9559172,67
1660211165.77166,1530531.9559209,86
1660211165.77166,1530531.9559251,121
1660211165.78063,1530531.955936,133
1660211165.78063,1530532.4934087,119
1660211165.78063,1530532.493433,119
1660211165.78063,1530532.4934433,133
1660211165.78063,1530532.4934516,126
1660211165.78063,1530532.49346,91
1660211165.78063,1530532.4934664,56
1660211165.78063,1530532.4934719,44
1660211165.78063,1530532.493475,49
1660211165.78063,1530532.493478,49
1660211165.78063,1530532.4934809,46
1660211165.78063,1530532.4934837,58
1660211165.78063,1530532.4934865,58
1660211165.78063,1530532.4934894,32
1660211165.78063,1530532.4934923,16
1660211165.78063,1530532.4934952,86
1660211165.78063,1530532.493498,289
1660211165.78063,1530532.4935014,579
1660211165.78063,1530532.4935146,600
1660211165.78063,1530532.493523,-7
1660211165.78063,1530532.4935332,-583
1660211165.78063,1530532.4935399,-369
1660211165.78063,1530532.4935534,14
1660211165.78063,1530532.4935624,9
1660211166.35465,1530532.4935661,-7
1660211166.35465,1530532.4935682,65
1660211166.35465,1530532.4935701,51
1660211166.35465,1530532.493573,30
1660211166.35465,1530532.4935836,67
1660211166.35465,1530532.4935895,91
1660211166.35465,1530532.4935989,86
1660211166.35465,1530532.4936093,93
1660211166.35465,1530532.493618,98
1660211166.35465,1530532.4936239,93
1660211166.35465,1530532.4936303,93
1660211166.35465,1530532.4936351,100
1660211166.35465,1530532.493646,112
1660211166.35465,1530532.4936582,123
1660211166.35465,1530532.4936695,123
1660211166.35465,1530532.4936774,116
1660211166.35465,1530532.4936844,121
1660211166.35465,1530532.4936893,140
1660211166.35465,1530532.4936933,151
1660211166.35465,1530532.4936967,158
1660211166.35465,1530532.49371,168
1660211166.35465,1530532.4937229,170
1660211166.35465,1530532.493735,165
1660211166.35465,1530532.4937446,163
1660211166.35465,1530532.4937569,156
1660211166.35465,1530532.4937685,140
1660211166.35465,1530532.493777,133
1660211166.35465,1530532.4937893,137
1660211166.35465,1530532.4938005,142
1660211166.35465,1530532.4938084,147
1660211166.35465,1530532.4938157,142
1660211166.35465,1530532.4938243,123
1660211166.35465,1530532.493837,100
1660211166.35465,1530532.4938468,81
1660211166.35465,1530532.4938585,63
1660211166.35465,1530532.493868,56
1660211166.35465,1530532.4938725,60
1660211166.35465,1530532.4938768,58
1660211166.35465,1530532.4938825,60
1660211166.35465,1530532.493888,65
1660211166.35465,1530532.4938922,63
1660211166.35465,1530532.493898,70
1660211166.35465,1530532.4939016,84
1660211166.35465,1530532.4939063,84
1660211166.35465,1530532.4939127,81
1660211166.35465,1530532.493917,86
1660211166.35465,1530532.4939209,84
1660211166.35465,1530532.4939261,67
1660211166.35465,1530532.4939322,56
1660211166.35465,1530532.4939432,53
1660211166.36462,1530533.0773561,56
1660211166.36462,1530533.077415,53
1660211166.36462,1530533.0774203,49
1660211166.36462,1530533.0774246,46
1660211166.36462,1530533.0774283,51
1660211166.36462,1530533.0774321,56
1660211166.36462,1530533.0774359,56
1660211166.36462,1530533.0774435,63
1660211166.36462,1530533.0774475,53
1660211166.36462,1530533.0774511,28
1660211166.36462,1530533.0774547,23
1660211166.36462,1530533.0774585,39
1660211166.36462,1530533.0774623,44
1660211166.36462,1530533.0774657,42
1660211166.36462,1530533.077474,25
1660211166.36462,1530533.0774777,2
1660211166.36462,1530533.0774816,-4
1660211166.36462,1530533.0774852,25
1660211166.36462,1530533.0774888,63
1660211166.36462,1530533.0774926,86
1660211166.36462,1530533.0774962,81
1660211166.36462,1530533.0774997,67
1660211166.36462,1530533.0775032,67
1660211166.36462,1530533.077507,72
1660211166.88497,1530533.0775107,53
1660211166.88497,1530533.0775142,37
1660211166.88497,1530533.0775177,37
1660211166.88497,1530533.0775214,44
1660211166.88497,1530533.0775252,46
1660211166.88497,1530533.0775331,46
1660211166.88497,1530533.0775397,51
1660211166.88497,1530533.0775434,60
1660211166.88497,1530533.0775468,60
1660211166.88497,1530533.0775503,53
1660211166.88497,1530533.0775539,109
1660211166.88497,1530533.0775578,310
1660211166.88497,1530533.0775613,600
1660211166.88497,1530533.077565,616
1660211166.88497,1530533.0775685,28
1660211166.88497,1530533.0775721,-523
1660211166.88497,1530533.0775757,-310
1660211166.88497,1530533.0775791,65
1660211166.88497,1530533.0775868,58
1660211166.88497,1530533.0775905,30
1660211166.88497,1530533.0775944,100
1660211166.88497,1530533.0775981,98
1660211166.88497,1530533.0776016,77
1660211166.88497,1530533.0776053,95
1660211166.88497,1530533.0776089,102
1660211166.88497,1530533.0776125,100
1660211166.88497,1530533.0776168,109
1660211166.88497,1530533.0776205,116
1660211166.88497,1530533.0776242,126
1660211166.88497,1530533.0776279,133
1660211166.88497,1530533.0776316,130
1660211166.88497,1530533.0776352,133
1660211166.88497,1530533.0776389,137
1660211166.88497,1530533.0776426,147
1660211166.88497,1530533.0776462,158
1660211166.88497,1530533.0776497,165
1660211166.88497,1530533.0776534,163
1660211166.88497,1530533.0776575,163
1660211166.88497,1530533.0776611,158
1660211166.88497,1530533.0776646,144
1660211166.88497,1530533.0776684,130
1660211166.88497,1530533.0776719,121
1660211166.88497,1530533.0776755,109
1660211166.88497,1530533.0776792,100
1660211166.88497,1530533.0776828,88
1660211166.88497,1530533.0776873,84
1660211166.88497,1530533.0776911,91
1660211166.88497,1530533.0776948,91
1660211166.88497,1530533.0776985,91
1660211166.88497,1530533.6134684,88
1660211166.89993,1530533.6134864,77
1660211166.89993,1530533.6134967,65
1660211166.89993,1530533.6135019,58
1660211166.89993,1530533.613509,49
1660211166.89993,1530533.6135174,44
1660211166.89993,1530533.6135241,46
1660211166.89993,1530533.6135332,49
1660211166.89993,1530533.6135465,53
1660211166.89993,1530533.6135571,60
1660211166.89993,1530533.6135662,67
1660211166.89993,1530533.6135804,63
1660211166.89993,1530533.6135911,39
1660211166.89993,1530533.6135993,30
1660211166.89993,1530533.6136103,44
1660211166.89993,1530533.6136139,53
1660211166.89993,1530533.6136191,56
1660211166.89993,1530533.6136283,53
1660211166.89993,1530533.6136405,32
1660211166.89993,1530533.6136467,7
1660211166.89993,1530533.6136489,2
1660211166.89993,1530533.6136511,7
1660211166.89993,1530533.6136531,11
1660211166.89993,1530533.6136552,21
1660211166.89993,1530533.6136572,16
1660211167.42389,1530533.6136919,9
1660211167.42389,1530533.6136997,18
1660211167.42389,1530533.6137045,35
1660211167.42389,1530533.6137088,37
1660211167.42389,1530533.613713,37
1660211167.42389,1530533.6137172,37
1660211167.42389,1530533.6137211,32
1660211167.42389,1530533.6137255,30
1660211167.42389,1530533.6137297,42
1660211167.42389,1530533.6137334,44
1660211167.42389,1530533.6137372,46
1660211167.42389,1530533.6137411,70
1660211167.42389,1530533.613745,100
1660211167.42389,1530533.613749,112
1660211167.42389,1530533.6137531,109
1660211167.42389,1530533.613757,119
1660211167.42389,1530533.6137653,130
1660211167.42389,1530533.6137723,119
1660211167.42389,1530533.6137762,84
1660211167.42389,1530533.613781,65
1660211167.42389,1530533.6137872,72
1660211167.42389,1530533.6137912,77
1660211167.42389,1530533.6137966,84
1660211167.42389,1530533.6138006,95
1660211167.42389,1530533.6138046,95
1660211167.42389,1530533.6138098,86
1660211167.42389,1530533.6138139,74
1660211167.42389,1530533.613819,74
1660211167.42389,1530533.6138264,182
1660211167.42389,1530533.6138324,450
1660211167.42389,1530533.6138364,689
1660211167.42389,1530533.6138402,413
1660211167.42389,1530533.6138439,-308
1660211167.42389,1530533.6138495,-537
1660211167.42389,1530533.6138531,-128
1660211167.42389,1530533.6138575,77
1660211167.42389,1530533.613863,4
1660211167.42389,1530533.6138667,37
1660211167.42389,1530533.613872,86
1660211167.42389,1530533.6138756,60
1660211167.42389,1530533.6138791,70
1660211167.42389,1530533.6138829,100
1660211167.42389,1530533.6138866,98
1660211167.42389,1530533.6138902,93
1660211167.42389,1530533.6138956,107
1660211167.42389,1530533.6138993,114
1660211167.42389,1530533.6139033,116
1660211167.42389,1530533.6139091,121
1660211167.42389,1530534.1499371,128
1660211167.42389,1530534.1499557,128
1660211167.43387,1530534.1499637,119
1660211167.43387,1530534.1499717,119
1660211167.43387,1530534.1499796,123
1660211167.43387,1530534.1499837,130
1660211167.43387,1530534.1499904,142
1660211167.43387,1530534.149998,144
1660211167.43387,1530534.1500026,130
1660211167.43387,1530534.1500083,112
1660211167.43387,1530534.1500124,109
1660211167.43387,1530534.1500183,105
1660211167.43387,1530534.1500248,88
1660211167.43387,1530534.1500284,84
1660211167.43387,1530534.1500347,74
1660211167.43387,1530534.1500456,51
1660211167.43387,1530534.150059,42
1660211167.43387,1530534.150072,56
1660211167.43387,1530534.1500851,58
1660211167.43387,1530534.1500983,49
1660211167.43387,1530534.1501104,35
1660211167.43387,1530534.1501216,25
1660211167.43387,1530534.1501329,25
1660211167.43387,1530534.1501443,25
1660211167.43387,1530534.150157,16
1660211167.43387,1530534.1501704,18
1660211168.0194,1530534.1501826,35
1660211168.0194,1530534.15019,42
1660211168.0194,1530534.1501971,42
1660211168.0194,1530534.1502076,51
1660211168.0194,1530534.150218,56
1660211168.0194,1530534.1502274,56
1660211168.0194,1530534.150238,60
1660211168.0194,1530534.1502454,70
1660211168.0194,1530534.1502541,74
1660211168.0194,1530534.1502667,77
1660211168.0194,1530534.1502762,81
1660211168.0194,1530534.1502871,84
1660211168.0194,1530534.150298,86
1660211168.0194,1530534.1503069,88
1660211168.0194,1530534.1503193,86
1660211168.0194,1530534.15033,79
1660211168.0194,1530534.1503387,74
1660211168.0194,1530534.1503507,72
1660211168.0194,1530534.1503606,70
1660211168.0194,1530534.1503673,72
1660211168.0194,1530534.1503798,77
1660211168.0194,1530534.1503912,77
1660211168.0194,1530534.1503997,67
1660211168.0194,1530534.1504089,49
1660211168.0194,1530534.1504163,35
1660211168.0194,1530534.1504267,49
1660211168.0194,1530534.1504373,67
1660211168.0194,1530534.1504453,84
1660211168.0194,1530534.1504555,112
1660211168.0194,1530534.1504665,128
1660211168.0194,1530534.1504747,126
1660211168.0194,1530534.1504841,123
1660211168.0194,1530534.1504948,121
1660211168.0194,1530534.1505025,102
1660211168.0194,1530534.1505106,77
1660211168.0194,1530534.1505235,72
1660211168.0194,1530534.1505357,79
1660211168.0194,1530534.1505503,84
1660211168.0194,1530534.1505628,93
1660211168.0194,1530534.1505745,98
1660211168.0194,1530534.1505857,91
1660211168.0194,1530534.1506116,91
1660211168.0194,1530534.1506245,88
1660211168.0194,1530534.1506316,112
1660211168.0194,1530534.1506375,261
1660211168.0194,1530534.1506433,560
1660211168.0194,1530534.1506473,696
1660211168.0194,1530534.7344103,224
1660211168.0194,1530534.7344276,-443
1660211168.0194,1530534.734439,-415
1660211168.0347,1530534.7344456,-2
1660211168.0347,1530534.7344532,77
1660211168.0347,1530534.7344625,11
1660211168.0347,1530534.7344697,53
1660211168.0347,1530534.7344797,67
1660211168.0347,1530534.7344875,51
1660211168.0347,1530534.73449,72
1660211168.0347,1530534.7344921,91
1660211168.0347,1530534.7344941,74
1660211168.0347,1530534.7344969,53
1660211168.0347,1530534.7345025,56
1660211168.0347,1530534.7345137,70
1660211168.0347,1530534.7345171,79
1660211168.0347,1530534.734521,77
1660211168.0347,1530534.7345229,67
1660211168.0347,1530534.7345342,70
1660211168.0347,1530534.7345432,84
1660211168.0347,1530534.7345458,86
1660211168.0347,1530534.7345479,91
1660211168.0347,1530534.7345499,107
1660211168.0347,1530534.7345522,114
1660211168.0347,1530534.7345623,114
1660211168.0347,1530534.7345709,119
1660211168.0347,1530534.7345734,126
1660211168.5421,1530534.7345756,133
1660211168.5421,1530534.7345777,128

1660211168.5421,1530534.734585,114
1660211168.5421,1530534.734593,107
1660211168.5421,1530534.7346043,105
1660211168.5421,1530534.7346137,112
1660211168.5421,1530534.7346268,121
1660211168.5421,1530534.7346401,114
1660211168.5421,1530534.7346536,102
1660211168.5421,1530534.7346671,95
1660211168.5421,1530534.7346805,81
1660211168.5421,1530534.7346926,65
1660211168.5421,1530534.7347013,58
1660211168.5421,1530534.7347149,58
1660211168.5421,1530534.7347246,58
1660211168.5421,1530534.7347318,49
1660211168.5421,1530534.7347425,35
1660211168.5421,1530534.7347522,35
1660211168.5421,1530534.7347619,42
1660211168.5421,1530534.7347711,51
1660211168.5421,1530534.7347803,63
1660211168.5421,1530534.7347865,67
1660211168.5421,1530534.7347932,70
1660211168.5421,1530534.7348049,72
1660211168.5421,1530534.73481,77
1660211168.5421,1530534.7348171,79
1660211168.5421,1530534.7348309,77
1660211168.5421,1530534.7348403,81
1660211168.5421,1530534.734852,88
1660211168.5421,1530534.7348618,86
1660211168.5421,1530534.7348718,81
1660211168.5421,1530534.7348818,77
1660211168.5421,1530534.7349446,79
1660211168.5421,1530534.7349598,88
1660211168.5421,1530534.7349708,93
1660211168.5421,1530534.7349821,84
1660211168.5421,1530534.7349931,77
1660211168.5421,1530534.735002,84
1660211168.5421,1530534.735008,81
1660211168.5421,1530534.7350509,74
1660211168.5421,1530534.7350578,86
1660211168.5421,1530534.735061,116
1660211168.5421,1530534.7350672,133
1660211168.5421,1530534.7350766,128
1660211168.5421,1530534.7350831,121
1660211168.5421,1530534.7350888,128
1660211168.5421,1530535.2711436,135
1660211168.5421,1530535.2711615,109
1660211168.5421,1530535.2711686,84
1660211168.5421,1530535.2711741,86
1660211168.55308,1530535.2711775,86
1660211168.55308,1530535.2711834,74
1660211168.55308,1530535.2711899,86
1660211168.55308,1530535.2711994,105
1660211168.55308,1530535.2712066,88
1660211168.55308,1530535.2712141,58
1660211168.55308,1530535.2712185,44
1660211168.55308,1530535.2712217,98
1660211168.55308,1530535.2712271,294
1660211168.55308,1530535.2712342,597
1660211168.55308,1530535.2712374,632
1660211168.55308,1530535.2712505,23
1660211168.55308,1530535.2712648,-569
1660211168.55308,1530535.2712763,-364
1660211168.55308,1530535.2712846,32
1660211168.55308,1530535.2712962,35
1660211168.55308,1530535.2713073,0
1660211168.55308,1530535.2713159,67
1660211168.55308,1530535.271323,63
1660211168.55308,1530535.2713314,42
1660211168.55308,1530535.2713434,67
1660211168.55308,1530535.2713544,70
1660211168.55308,1530535.2713635,58
1660211168.55308,1530535.2713724,67
1660211169.17898,1530535.27138,72
1660211169.17898,1530535.2713874,72
1660211169.17898,1530535.2713947,84
1660211169.17898,1530535.2714007,100
1660211169.17898,1530535.271405,114
1660211169.17898,1530535.2714084,116
1660211169.17898,1530535.2714119,114
1660211169.17898,1530535.2714169,109
1660211169.17898,1530535.271422,107
1660211169.17898,1530535.2714273,116
1660211169.17898,1530535.2714323,126
1660211169.17898,1530535.2714465,128
1660211169.17898,1530535.2714544,126
1660211169.17898,1530535.2714589,114
1660211169.17898,1530535.271465,100
1660211169.17898,1530535.2714691,102
1660211169.17898,1530535.2714731,107
1660211169.17898,1530535.2714788,100
1660211169.17898,1530535.2714826,91
1660211169.17898,1530535.2714882,93
1660211169.17898,1530535.2714919,102
1660211169.17898,1530535.2714955,107
1660211169.17898,1530535.2715015,107
1660211169.17898,1530535.2715067,93
1660211169.17898,1530535.271512,70
1660211169.17898,1530535.2715187,49
1660211169.17898,1530535.2715249,44
1660211169.17898,1530535.271533,49
1660211169.17898,1530535.2715433,56
1660211169.17898,1530535.2715491,56
1660211169.17898,1530535.2715527,46
1660211169.17898,1530535.2715678,39
1660211169.17898,1530535.271582,51
1660211169.17898,1530535.2715953,63
1660211169.17898,1530535.2716087,70
1660211169.17898,1530535.271622,72
1660211169.17898,1530535.2716352,72
1660211169.17898,1530535.2716437,79
1660211169.17898,1530535.2716476,79
1660211169.17898,1530535.2716496,72
1660211169.17898,1530535.2716518,72
1660211169.17898,1530535.2716538,81
1660211169.17898,1530535.2716559,79
1660211169.17898,1530535.2716579,74
1660211169.17898,1530535.2716606,74
1660211169.17898,1530535.9050527,79
1660211169.17898,1530535.9050649,84
1660211169.17898,1530535.9050773,91
1660211169.17898,1530535.9050863,91
1660211169.17898,1530535.9050889,74
1660211169.19095,1530535.9050911,49
1660211169.19095,1530535.9050982,42
1660211169.19095,1530535.9051088,74
1660211169.19095,1530535.9051129,112
1660211169.19095,1530535.9051152,112
1660211169.19095,1530535.9051173,95
1660211169.19095,1530535.9051231,91
1660211169.19095,1530535.9051341,77
1660211169.19095,1530535.9051417,56
1660211169.19095,1530535.9051512,44
1660211169.19095,1530535.9051571,35
1660211169.19095,1530535.9051692,25
1660211169.19095,1530535.9051835,25
1660211169.19095,1530535.9051963,25
1660211169.19095,1530535.9052037,32
1660211169.19095,1530535.9052071,42
1660211169.19095,1530535.9052124,39
1660211169.19095,1530535.9052245,21
1660211169.19095,1530535.9052358,49
1660211169.19095,1530535.9052427,217
1660211169.19095,1530535.9052459,523
1660211169.19095,1530535.9052546,646
1660211169.19095,1530535.905268,144
1660211169.19095,1530535.9052788,-509
1660211169.71419,1530535.9052874,-420
1660211169.71419,1530535.9052921,14
1660211169.71419,1530535.905301,60
1660211169.71419,1530535.905311,2
1660211169.71419,1530535.9053161,72
1660211169.71419,1530535.9053229,81
1660211169.71419,1530535.9053288,51
1660211169.71419,1530535.9053362,77
1660211169.71419,1530535.905343,91
1660211169.71419,1530535.9053498,77
1660211169.71419,1530535.9053631,84
1660211169.71419,1530535.9053733,102
1660211169.71419,1530535.9053846,107
1660211169.71419,1530535.9053899,109
1660211169.71419,1530535.9053921,112
1660211169.71419,1530535.9053942,119
1660211169.71419,1530535.9053963,126
1660211169.71419,1530535.9053993,135
1660211169.71419,1530535.9054014,147
1660211169.71419,1530535.9054069,149
1660211169.71419,1530535.9054178,144
1660211169.71419,1530535.9054229,147
1660211169.71419,1530535.9054249,151
1660211169.71419,1530535.905427,154
1660211169.71419,1530535.905429,161
1660211169.71419,1530535.905431,168
1660211169.71419,1530535.9054331,161
1660211169.71419,1530535.9054406,144
1660211169.71419,1530535.9054513,133
1660211169.71419,1530535.9054577,128
1660211169.71419,1530535.905473,123
1660211169.71419,1530535.9054805,123
1660211169.71419,1530535.905483,123
1660211169.71419,1530535.9054852,107
1660211169.71419,1530535.9054872,81
1660211169.71419,1530535.9054893,63
1660211169.71419,1530535.9054912,53
1660211169.71419,1530535.9054942,44
1660211169.71419,1530535.9054965,44
1660211169.71419,1530535.9054985,49
1660211169.71419,1530535.9055004,37
1660211169.71419,1530535.9055025,35
1660211169.71419,1530535.9055045,46
1660211169.71419,1530535.9055065,56
1660211169.71419,1530536.4408018,58
1660211169.71419,1530536.440821,60
1660211169.71419,1530536.4408317,51
1660211169.71419,1530536.4408392,46
1660211169.71419,1530536.4408473,58
1660211169.71419,1530536.4408566,67
1660211169.73201,1530536.4408703,63
1660211169.73201,1530536.4408844,49
1660211169.73201,1530536.440956,18
1660211169.73201,1530536.4409667,0
1660211169.73201,1530536.4409719,9
1660211169.73201,1530536.4409766,11
1660211169.73201,1530536.4409845,7
1660211169.73201,1530536.4409928,4
1660211169.73201,1530536.440999,-14
1660211169.73201,1530536.4410078,-30
1660211169.73201,1530536.4410167,-7
1660211169.73201,1530536.4410227,39
1660211169.73201,1530536.4410262,53
1660211169.73201,1530536.4410295,46
1660211169.73201,1530536.4410327,44
1660211169.73201,1530536.4410362,32
1660211169.73201,1530536.4410396,0
1660211169.73201,1530536.4410428,-18
1660211169.73201,1530536.4410459,-16
1660211169.73201,1530536.441049,-9
1660211169.73201,1530536.4410545,-2
1660211169.73201,1530536.4410576,-2
1660211169.73201,1530536.4410611,-4
1660211169.73201,1530536.4410662,2
1660211170.39566,1530536.4410703,11
1660211170.39566,1530536.441074,-2
1660211170.39566,1530536.4410773,18
1660211170.39566,1530536.4410808,205
1660211170.39566,1530536.4410842,546
1660211170.39566,1530536.4410879,635
1660211170.39566,1530536.4410918,35
1660211170.39566,1530536.4410954,-607
1660211170.39566,1530536.4410988,-415
1660211170.39566,1530536.4411022,25
1660211170.39566,1530536.4411054,44
1660211170.39566,1530536.4411086,0
1660211170.39566,1530536.4411126,79
1660211170.39566,1530536.4411159,91
1660211170.39566,1530536.441119,72
1660211170.39566,1530536.4411234,95
1660211170.39566,1530536.4411265,107
1660211170.39566,1530536.4411293,93
1660211170.39566,1530536.4411349,109
1660211170.39566,1530536.4411402,133
1660211170.39566,1530536.4411447,133
1660211170.39566,1530536.4411479,133
1660211170.39566,1530536.4411511,144
1660211170.39566,1530536.4411553,151
1660211170.39566,1530536.4411589,158
1660211170.39566,1530536.4411626,161
1660211170.39566,1530536.4411662,163
1660211170.39566,1530536.4411698,175
1660211170.39566,1530536.441175,191
1660211170.39566,1530536.4411798,203
1660211170.39566,1530536.4411854,214
1660211170.39566,1530536.4411919,219
1660211170.39566,1530536.4411975,217
1660211170.39566,1530536.4412012,212
1660211170.39566,1530536.4412046,207
1660211170.39566,1530536.4412075,186
1660211170.39566,1530536.4412103,182
1660211170.39566,1530536.441213,189
1660211170.39566,1530536.4412158,186
1660211170.39566,1530536.4412185,184
1660211170.39566,1530536.4412213,177
1660211170.39566,1530536.4412248,151
1660211170.39566,1530536.4412275,116
1660211170.39566,1530537.1237597,102
1660211170.39566,1530537.1237804,95
1660211170.39566,1530537.1237928,74
1660211170.39566,1530537.1237998,51
1660211170.39566,1530537.1238042,53
1660211170.39566,1530537.1238085,70
1660211170.39566,1530537.1238145,67
1660211170.40763,1530537.12382,53
1660211170.40763,1530537.1238266,53
1660211170.40763,1530537.1238311,53
1660211170.40763,1530537.1238369,56
1660211170.40763,1530537.1238412,51
1660211170.40763,1530537.1238473,21
1660211170.40763,1530537.1238519,-9
1660211170.40763,1530537.1238631,-7
1660211170.40763,1530537.123869,21
1660211170.40763,1530537.1238751,23
1660211170.40763,1530537.1238809,-11
1660211170.40763,1530537.1238884,-37
1660211170.40763,1530537.1238965,-30
1660211170.40763,1530537.1239031,-11
1660211170.40763,1530537.1239093,-11
1660211170.40763,1530537.1239152,-9
1660211170.40763,1530537.1239228,21
1660211170.40763,1530537.1239268,35
1660211170.40763,1530537.1239323,9
1660211170.40763,1530537.1239405,2
1660211170.40763,1530537.1239461,11
1660211170.40763,1530537.1239501,14
1660211170.40763,1530537.1239555,18
1660211170.40763,1530537.1239595,4
1660211170.78936,1530537.1239651,-18
1660211170.78936,1530537.1239689,-9
1660211170.78936,1530537.1239726,7
1660211170.78936,1530537.1239767,11
1660211170.78936,1530537.1239804,9
1660211170.78936,1530537.1239845,0
1660211170.78936,1530537.1239884,-16
1660211170.78936,1530537.1239921,0
1660211170.78936,1530537.1239962,140
1660211170.78936,1530537.1240001,422
1660211170.78936,1530537.124004,607
1660211170.78936,1530537.1240079,207
1660211170.78936,1530537.1241337,-551
1660211170.78936,1530537.124147,-628
1660211170.78936,1530537.1241544,-126
1660211170.78936,1530537.1241601,51
1660211170.78936,1530537.1241738,14
1660211170.78936,1530537.1241868,105
1660211170.78936,1530537.1241999,137
1660211170.78936,1530537.124213,81
1660211170.78936,1530537.1242248,95
1660211170.78936,1530537.1242311,149
1660211170.78936,1530537.1242371,147
1660211170.78936,1530537.124247,126
1660211170.78936,1530537.1242522,133
1660211170.78936,1530537.1242551,135
1660211170.78936,1530537.1242572,130
1660211170.78936,1530537.1242593,147
1660211170.78936,1530537.1242651,165
1660211170.78936,1530537.124275,165
1660211170.78936,1530537.124279,168
1660211170.78936,1530537.1242886,175
1660211170.78936,1530537.124293,184
1660211170.78936,1530537.1242952,200
1660211170.78936,1530537.1242973,207
1660211170.78936,1530537.1242994,203
1660211170.78936,1530537.1243016,226
1660211170.78936,1530537.1243037,242
1660211170.78936,1530537.1243057,214
1660211170.78936,1530537.1243081,203
1660211170.78936,1530537.1243101,205
1660211170.78936,1530537.1243122,175
1660211170.78936,1530537.513788,147
1660211170.78936,1530537.5138088,151
1660211170.78936,1530537.5138189,149
1660211170.78936,1530537.5138242,126
1660211170.78936,1530537.5138274,112
1660211170.78936,1530537.5138296,95
1660211170.78936,1530537.5138316,56
1660211170.78936,1530537.5138336,28
1660211170.80133,1530537.5138357,23
1660211170.80133,1530537.5138377,16
1660211170.80133,1530537.5138397,7
1660211170.80133,1530537.5138418,16
1660211170.80133,1530537.5138438,28
1660211170.80133,1530537.5138459,30
1660211170.80133,1530537.5138478,35
1660211170.80133,1530537.5138499,46
1660211170.80133,1530537.5138532,49
1660211170.80133,1530537.5138663,51
1660211170.80133,1530537.5138729,46
1660211170.80133,1530537.5138753,49
1660211170.80133,1530537.5138773,58
1660211170.80133,1530537.5138793,56
1660211170.80133,1530537.5138813,44
1660211170.80133,1530537.5138833,32
1660211170.80133,1530537.5138859,16
1660211170.80133,1530537.5138942,9
1660211170.80133,1530537.5139031,25
1660211170.80133,1530537.5139057,35
1660211170.80133,1530537.5139076,23
1660211170.80133,1530537.5139112,0
1660211170.80133,1530537.5139163,-14
1660211170.80133,1530537.5139256,-2
1660211171.52147,1530537.5139332,9
1660211171.52147,1530537.5139356,-21
1660211171.52147,1530537.5139376,-65
1660211171.52147,1530537.5139397,-72
1660211171.52147,1530537.5139465,-58
1660211171.52147,1530537.5139536,-53
1660211171.52147,1530537.5139581,-49
1660211171.52147,1530537.5139645,-44
1660211171.52147,1530537.5139684,-44
1660211171.52147,1530537.5139723,-42
1660211171.52147,1530537.5139762,-53
1660211171.52147,1530537.5139803,-30
1660211171.52147,1530537.5139864,168
1660211171.52147,1530537.5139923,513
1660211171.52147,1530537.5139964,523
1660211171.52147,1530537.5140023,-156
1660211171.52147,1530537.5140064,-714
1660211171.52147,1530537.5140119,-385
1660211171.52147,1530537.5140159,56
1660211171.52147,1530537.5140213,35
1660211171.52147,1530537.514025,21
1660211171.52147,1530537.5140289,102
1660211171.52147,1530537.5140326,84
1660211171.52147,1530537.5140361,65
1660211171.52147,1530537.5140408,102
1660211171.52147,1530537.5140464,112
1660211171.52147,1530537.5140501,102
1660211171.52147,1530537.5140578,107
1660211171.52147,1530537.5140619,116
1660211171.52147,1530537.514067,128
1660211171.52147,1530537.5140729,135
1660211171.52147,1530537.5140792,135
1660211171.52147,1530537.5140825,142
1660211171.52147,1530537.5140855,158
1660211171.52147,1530537.5140884,165
1660211171.52147,1530537.5140913,175
1660211171.52147,1530537.5140942,189
1660211171.52147,1530537.5140998,193
1660211171.52147,1530537.5141058,205
1660211171.52147,1530537.5141119,221
1660211171.52147,1530537.5141176,203
1660211171.52147,1530538.245492,182
1660211171.52147,1530538.2455209,203
1660211171.52147,1530538.245535,203
1660211171.52147,1530538.2455444,158
1660211171.52147,1530538.2455527,126
1660211171.52147,1530538.2455595,107
1660211171.52147,1530538.2455682,88
1660211171.52147,1530538.2455754,102
1660211171.52147,1530538.2455816,116
1660211171.53244,1530538.2455873,109
1660211171.53244,1530538.2455976,93
1660211171.53244,1530538.245605,58
1660211171.53244,1530538.2456111,25
1660211171.53244,1530538.2456204,16
1660211171.53244,1530538.2456258,23
1660211171.53244,1530538.2456321,42
1660211171.53244,1530538.2456354,46
1660211171.53244,1530538.2456485,32
1660211171.53244,1530538.2456604,23
1660211171.53244,1530538.2456705,30
1660211171.53244,1530538.2456828,35
1660211171.53244,1530538.245695,37
1660211171.53244,1530538.2457058,46
1660211171.53244,1530538.2457135,49
1660211171.53244,1530538.2457198,39
1660211171.53244,1530538.2458569,44
1660211171.53244,1530538.2458724,49
1660211171.53244,1530538.2458871,23
1660211171.53244,1530538.2458946,-2
1660211171.53244,1530538.245903,16
1660211171.53244,1530538.2459093,53
1660211171.53244,1530538.2459171,67
1660211171.53244,1530538.245924,63
1660211171.90744,1530538.2459339,65
1660211171.90744,1530538.2459439,79
1660211171.90744,1530538.2459499,74
1660211171.90744,1530538.2459564,42
1660211171.90744,1530538.2459613,28
1660211171.90744,1530538.2459677,32
1660211171.90744,1530538.2459734,25
1660211171.90744,1530538.2459778,4
1660211171.90744,1530538.2459837,-7
1660211171.90744,1530538.2459913,7
1660211171.90744,1530538.2460016,21
1660211171.90744,1530538.2460083,11
1660211171.90744,1530538.2460168,-21
1660211171.90744,1530538.2460309,-67
1660211171.90744,1530538.2460417,-21
1660211171.90744,1530538.2460494,233
1660211171.90744,1530538.2460568,525
1660211171.90744,1530538.2460628,326
1660211171.90744,1530538.2460736,-350
1660211171.90744,1530538.2460841,-567
1660211171.90744,1530538.2460962,-126
1660211171.90744,1530538.246104,112
1660211171.90744,1530538.2461095,44
1660211171.90744,1530538.2461178,88
1660211171.90744,1530538.2461244,158
1660211171.90744,1530538.2461276,140
1660211171.90744,1530538.2461342,140
1660211171.90744,1530538.2461404,165
1660211171.90744,1530538.2461462,172
1660211171.90744,1530538.2461494,177
1660211171.90744,1530538.2461523,191
1660211171.90744,1530538.2461557,189
1660211171.90744,1530538.246161,161
1660211171.90744,1530538.2461672,144
1660211171.90744,1530538.2461956,191
1660211171.90744,1530538.2462072,247
1660211171.90744,1530538.246213,238
1660211171.90744,1530538.2462186,212
1660211171.90744,1530538.2462248,221
1660211171.90744,1530538.2462311,238
1660211171.90744,1530538.6345859,252
1660211171.90744,1530538.6346035,261
1660211171.90744,1530538.634609,256
1660211171.90744,1530538.6346151,249
1660211171.90744,1530538.6346194,252
1660211171.90744,1530538.6346249,249
1660211171.90744,1530538.6346288,233
1660211171.90744,1530538.6346327,210
1660211171.90744,1530538.6346386,203
1660211171.90744,1530538.6346437,214
1660211171.92339,1530538.6346478,214
1660211171.92339,1530538.6346518,207
1660211171.92339,1530538.6346557,219
1660211171.92339,1530538.6346615,228
1660211171.92339,1530538.6346654,196
1660211171.92339,1530538.6346691,163
1660211171.92339,1530538.6346755,168
1660211171.92339,1530538.6346796,170
1660211171.92339,1530538.6346853,151
1660211171.92339,1530538.63469,147
1660211171.92339,1530538.6346954,156
1660211171.92339,1530538.6346992,137
1660211171.92339,1530538.634703,114
1660211171.92339,1530538.6347086,128
1660211171.92339,1530538.6347133,151
1660211171.92339,1530538.6347187,165
1660211171.92339,1530538.6347226,158
1660211171.92339,1530538.634728,140
1660211171.92339,1530538.6347319,135
1660211171.92339,1530538.6347372,140
1660211171.92339,1530538.6347412,135
1660211171.92339,1530538.6347466,137
1660211171.92339,1530538.6347507,142
1660211171.92339,1530538.6347564,126
1660211172.50006,1530538.6347605,95
1660211172.50006,1530538.6347643,86
1660211172.50006,1530538.6347682,95
1660211172.50006,1530538.634772,114
1660211172.50006,1530538.6347759,137
1660211172.50006,1530538.6347798,130
1660211172.50006,1530538.6347836,109
1660211172.50006,1530538.6347873,105
1660211172.50006,1530538.6347911,100
1660211172.50006,1530538.634795,84
1660211172.50006,1530538.6347988,79
1660211172.50006,1530538.6348028,91
1660211172.50006,1530538.6348065,93
1660211172.50006,1530538.6348106,81
1660211172.50006,1530538.6348145,72
1660211172.50006,1530538.6348183,70
1660211172.50006,1530538.6348223,91
1660211172.50006,1530538.6348262,126
1660211172.50006,1530538.6348302,86
1660211172.50006,1530538.6348356,46
1660211172.50006,1530538.6348396,235
1660211172.50006,1530538.6348452,602
1660211172.50006,1530538.6348507,672
1660211172.50006,1530538.6348546,98
1660211172.50006,1530538.63486,-434
1660211172.50006,1530538.6348638,-226
1660211172.50006,1530538.6348694,107
1660211172.50006,1530538.634874,60
1660211172.50006,1530538.63488,11
1660211172.50006,1530538.6348838,105
1660211172.50006,1530538.6348942,119
1660211172.50006,1530538.6349007,79
1660211172.50006,1530538.6349111,112
1660211172.50006,1530538.6349266,137
1660211172.50006,1530538.6349327,109
1660211172.50006,1530538.634939,98
1660211172.50006,1530538.6349471,107
1660211172.50006,1530538.6349535,107
1660211172.50006,1530538.6349574,107
1660211172.50006,1530539.2195638,126
1660211172.50006,1530539.2195766,154
1660211172.50006,1530539.2195794,158
1660211172.50006,1530539.2195818,112
1660211172.50006,1530539.2195887,74
1660211172.50006,1530539.2196025,112
1660211172.50006,1530539.2196095,179
1660211172.50006,1530539.2196119,189
1660211172.50006,1530539.219614,156
1660211172.50006,1530539.2196161,147
1660211172.50006,1530539.2196181,154
1660211172.51202,1530539.2196212,133
1660211172.51202,1530539.2196332,98
1660211172.51202,1530539.2196405,98
1660211172.51202,1530539.2196464,116
1660211172.51202,1530539.2196557,126
1660211172.51202,1530539.2196688,135
1660211172.51202,1530539.2196759,142
1660211172.51202,1530539.2196793,121
1660211172.51202,1530539.2196815,91
1660211172.51202,1530539.2196836,98
1660211172.51202,1530539.2196856,102
1660211172.51202,1530539.2196878,84
1660211172.51202,1530539.2196899,74
1660211172.51202,1530539.219692,79
1660211172.51202,1530539.2196941,86
1660211172.51202,1530539.2196962,91
1660211172.51202,1530539.2196983,79
1660211172.51202,1530539.2197003,74
1660211172.51202,1530539.2197024,81
1660211172.51202,1530539.2197045,81
1660211172.51202,1530539.2197065,88
1660211172.51202,1530539.2197086,102
1660211172.51202,1530539.2197107,114
1660211172.51202,1530539.2197128,114
1660211173.07962,1530539.2197148,93
1660211173.07962,1530539.2197168,86
1660211173.07962,1530539.2197188,107
1660211173.07962,1530539.2197208,119
1660211173.07962,1530539.2197228,102
1660211173.07962,1530539.2197247,95
1660211173.07962,1530539.2197267,105
1660211173.07962,1530539.2197286,109
1660211173.07962,1530539.2197305,105
1660211173.07962,1530539.2197325,100
1660211173.07962,1530539.2197344,102
1660211173.07962,1530539.2197373,116
1660211173.07962,1530539.2197468,137
1660211173.07962,1530539.2197549,156
1660211173.07962,1530539.2197624,158
1660211173.07962,1530539.2197865,135
1660211173.07962,1530539.2197944,112
1660211173.07962,1530539.2197995,109
1660211173.07962,1530539.2198039,105
1660211173.07962,1530539.2198113,81
1660211173.07962,1530539.2198175,65
1660211173.07962,1530539.219824,74
1660211173.07962,1530539.2198295,84
1660211173.07962,1530539.2198347,88
1660211173.07962,1530539.2198416,88
1660211173.07962,1530539.2198554,81
1660211173.07962,1530539.219868,86
1660211173.07962,1530539.2198749,77
1660211173.07962,1530539.2198835,39
1660211173.07962,1530539.2199177,70
1660211173.07962,1530539.2199223,289
1660211173.07962,1530539.219926,602
1660211173.07962,1530539.2199283,548
1660211173.07962,1530539.2199306,-79
1660211173.07962,1530539.2199327,-518
1660211173.07962,1530539.2199348,-242
1660211173.07962,1530539.2199369,58
1660211173.07962,1530539.2199391,35
1660211173.07962,1530539.8048262,56
1660211173.07962,1530539.8048485,119
1660211173.07962,1530539.8048593,84
1660211173.07962,1530539.8048693,74
1660211173.07962,1530539.8048771,128
1660211173.07962,1530539.8048814,128
1660211173.07962,1530539.8048872,81
1660211173.07962,1530539.804892,88
1660211173.07962,1530539.8048978,119
1660211173.07962,1530539.8049015,105
1660211173.07962,1530539.8049073,88
1660211173.07962,1530539.8049109,93
1660211173.0896,1530539.8049153,98
1660211173.0896,1530539.8049189,114
1660211173.0896,1530539.8049227,119
1660211173.0896,1530539.8049287,91
1660211173.0896,1530539.8049336,60
1660211173.0896,1530539.8049374,11
1660211173.0896,1530539.8049428,23
1660211173.0896,1530539.8049471,161
1660211173.0896,1530539.8049511,186
1660211173.0896,1530539.804957,84
1660211173.0896,1530539.8049626,86
1660211173.0896,1530539.8049675,130
1660211173.0896,1530539.8049729,109
1660211173.0896,1530539.8049779,102
1660211173.0896,1530539.8049832,121
1660211173.0896,1530539.8049869,100
1660211173.0896,1530539.8049953,100
1660211173.0896,1530539.8050053,142
1660211173.0896,1530539.8050106,130
1660211173.0896,1530539.8050151,81
1660211173.0896,1530539.8050208,65
1660211173.0896,1530539.8050251,79
1660211173.0896,1530539.8050311,116
1660211173.0896,1530539.8050356,126
1660211173.66313,1530539.8050412,88
1660211173.66313,1530539.8050458,95
1660211173.66313,1530539.8050495,140
1660211173.66313,1530539.8050534,135
1660211173.66313,1530539.8050589,98
1660211173.66313,1530539.8050628,91
1660211173.66313,1530539.8050672,135
1660211173.66313,1530539.8050708,189
1660211173.66313,1530539.8050746,189
1660211173.66313,1530539.805079,147
1660211173.66313,1530539.8050827,126
1660211173.66313,1530539.8050863,135
1660211173.66313,1530539.8050899,144
1660211173.66313,1530539.8050937,154
1660211173.66313,1530539.8050979,147
1660211173.66313,1530539.805102,123
1660211173.66313,1530539.8051101,112
1660211173.66313,1530539.8051179,116
1660211173.66313,1530539.8051259,128
1660211173.66313,1530539.8051303,121
1660211173.66313,1530539.805136,81
1660211173.66313,1530539.805141,81
1660211173.66313,1530539.8051474,119
1660211173.66313,1530539.8051516,119
1660211173.66313,1530539.8051573,102
1660211173.66313,1530539.805161,116
1660211173.66313,1530539.8051649,119
1660211173.66313,1530539.8051712,102
1660211173.66313,1530539.8051752,114
1660211173.66313,1530539.8051809,147
1660211173.66313,1530539.8051863,163
1660211173.66313,1530539.8051918,156
1660211173.66313,1530539.8051966,137
1660211173.66313,1530539.8052026,128
1660211173.66313,1530539.8052069,156
1660211173.66313,1530539.8052126,165
1660211173.66313,1530539.8052173,133
1660211173.66313,1530540.390376,102
1660211173.66313,1530540.3903979,91
1660211173.66313,1530540.3904054,84
1660211173.66313,1530540.390413,77
1660211173.66313,1530540.390422,79
1660211173.66313,1530540.3904307,91
1660211173.66313,1530540.3904357,100
1660211173.66313,1530540.3904397,70
1660211173.66313,1530540.3904444,9
1660211173.66313,1530540.390452,70
1660211173.66313,1530540.3904578,362
1660211173.66313,1530540.3904668,714
1660211173.66313,1530540.3904718,618
1660211173.6731,1530540.3904774,-100
1660211173.6731,1530540.3904866,-583
1660211173.6731,1530540.390491,-301
1660211173.6731,1530540.3904943,-11
1660211173.6731,1530540.3904973,-67
1660211173.6731,1530540.3905003,-74
1660211173.6731,1530540.3905033,-9
1660211173.6731,1530540.3905061,-21
1660211173.6731,1530540.3905089,-35
1660211173.6731,1530540.3905117,-11
1660211173.6731,1530540.3905149,0
1660211173.6731,1530540.3905204,-9
1660211173.6731,1530540.3905243,-14
1660211173.6731,1530540.3905293,-16
1660211173.6731,1530540.3905345,-2
1660211173.6731,1530540.3905431,14
1660211173.6731,1530540.3905499,-4
1660211173.6731,1530540.3905532,-7
1660211173.6731,1530540.3905562,42
1660211173.6731,1530540.3905591,77
1660211173.6731,1530540.3905622,77
1660211173.6731,1530540.3905651,79
1660211173.6731,1530540.390568,105
1660211173.6731,1530540.3905708,114
1660211174.15467,1530540.3905748,100
1660211174.15467,1530540.3905816,114
1660211174.15467,1530540.3905886,144
1660211174.15467,1530540.3905928,149
1660211174.15467,1530540.3906037,123
1660211174.15467,1530540.3906148,95
1660211174.15467,1530540.3906259,72
1660211174.15467,1530540.390635,67
1660211174.15467,1530540.3906455,74
1660211174.15467,1530540.3906592,72
1660211174.15467,1530540.3906672,65
1660211174.15467,1530540.3906739,70
1660211174.15467,1530540.3906872,60
1660211174.15467,1530540.390694,35
1660211174.15467,1530540.3907016,14
1660211174.15467,1530540.3907106,16
1660211174.15467,1530540.3907211,25
1660211174.15467,1530540.3907245,39
1660211174.15467,1530540.3907275,39
1660211174.15467,1530540.3907341,16
1660211174.15467,1530540.3907485,11
1660211174.15467,1530540.3907595,42
1660211174.15467,1530540.3907682,60
1660211174.15467,1530540.3907797,56
1660211174.15467,1530540.3907901,49
1660211174.15467,1530540.3907958,49
1660211174.15467,1530540.3908088,72
1660211174.15467,1530540.3908232,95
1660211174.15467,1530540.3908358,86
1660211174.15467,1530540.3908437,70
1660211174.15467,1530540.3908497,70
1660211174.15467,1530540.3908542,77
1660211174.15467,1530540.3908602,91
1660211174.15467,1530540.390867,109
1660211174.15467,1530540.3908728,95
1660211174.15467,1530540.3908786,74
1660211174.15467,1530540.8796872,65
1660211174.15467,1530540.8797132,44
1660211174.15467,1530540.8797188,28
1660211174.15467,1530540.8797246,35
1660211174.15467,1530540.879729,49
1660211174.15467,1530540.879734,60
1660211174.15467,1530540.8797383,60
1660211174.15467,1530540.8797435,42
1660211174.15467,1530540.8797473,21
1660211174.15467,1530540.8797518,2
1660211174.15467,1530540.8797571,-11
1660211174.15467,1530540.8797619,16
1660211174.15467,1530540.8797658,65
1660211174.15467,1530540.8797698,84
1660211174.16464,1530540.8797739,56
1660211174.16464,1530540.8797778,9
1660211174.16464,1530540.8797817,-2
1660211174.16464,1530540.8797889,21
1660211174.16464,1530540.8797931,23
1660211174.16464,1530540.8797991,0
1660211174.16464,1530540.8798059,-23
1660211174.16464,1530540.8798141,-39
1660211174.16464,1530540.8798206,-44
1660211174.16464,1530540.8798245,-37
1660211174.16464,1530540.8798282,-21
1660211174.16464,1530540.8798331,4
1660211174.16464,1530540.8798389,2
1660211174.16464,1530540.8798427,-32
1660211174.16464,1530540.8798466,-67
1660211174.16464,1530540.8798504,-37
1660211174.16464,1530540.8798544,158
1660211174.16464,1530540.8798591,499
1660211174.16464,1530540.879865,630
1660211174.16464,1530540.8798691,105
1660211174.16464,1530540.8798734,-588
1660211174.16464,1530540.8798792,-534
1660211174.16464,1530540.8798869,-114
1660211174.16464,1530540.8798959,-28
1660211174.78759,1530540.8799025,-28
1660211174.78759,1530540.8799091,60
1660211174.78759,1530540.8799142,63
1660211174.78759,1530540.8799181,30
1660211174.78759,1530540.8799224,67
1660211174.78759,1530540.8799267,98
1660211174.78759,1530540.8799312,95
1660211174.78759,1530540.8799355,107
1660211174.78759,1530540.8799402,137
1660211174.78759,1530540.8799443,154
1660211174.78759,1530540.8799483,158
1660211174.78759,1530540.8799526,170
1660211174.78759,1530540.8799568,205
1660211174.78759,1530540.8799629,228
1660211174.78759,1530540.8799671,212
1660211174.78759,1530540.8799736,203
1660211174.78759,1530540.8799781,221
1660211174.78759,1530540.8799844,226
1660211174.78759,1530540.8799891,217
1660211174.78759,1530540.8799963,231
1660211174.78759,1530540.8800043,259
1660211174.78759,1530540.8800094,273
1660211174.78759,1530540.8800155,263
1660211174.78759,1530540.8800202,245
1660211174.78759,1530540.8800246,245
1660211174.78759,1530540.880031,242
1660211174.78759,1530540.8800367,205
1660211174.78759,1530540.8800417,163
1660211174.78759,1530540.8800476,154
1660211174.78759,1530540.8800519,168
1660211174.78759,1530540.8800593,172
1660211174.78759,1530540.8800652,163
1660211174.78759,1530540.8800697,144
1660211174.78759,1530540.8800755,109
1660211174.78759,1530540.8800799,91
1660211174.78759,1530541.5114128,91
1660211174.78759,1530541.5114263,77
1660211174.78759,1530541.5114301,84
1660211174.78759,1530541.5114327,133
1660211174.78759,1530541.511435,135
1660211174.78759,1530541.5114373,88
1660211174.78759,1530541.5114393,67
1660211174.78759,1530541.5114414,81
1660211174.78759,1530541.5114434,95
1660211174.78759,1530541.5114455,86
1660211174.78759,1530541.5114475,65
1660211174.78759,1530541.5114495,70
1660211174.78759,1530541.5114519,77
1660211174.78759,1530541.5114539,77
1660211174.78759,1530541.5114559,91
1660211174.79756,1530541.5114579,93
1660211174.79756,1530541.5114599,63
1660211174.79756,1530541.5114619,44
1660211174.79756,1530541.511464,39
1660211174.79756,1530541.5114659,28
1660211174.79756,1530541.5114679,14
1660211174.79756,1530541.5114702,0
1660211174.79756,1530541.5114724,-16
1660211174.79756,1530541.5114747,-25
1660211174.79756,1530541.511477,-42
1660211174.79756,1530541.5114792,-30
1660211174.79756,1530541.5114816,30
1660211174.79756,1530541.5114838,49
1660211174.79756,1530541.5114861,16
1660211174.79756,1530541.5114883,11
1660211174.79756,1530541.5114904,21
1660211174.79756,1530541.5114926,4
1660211174.79756,1530541.5114946,7
1660211174.79756,1530541.5114966,49
1660211174.79756,1530541.5114987,65
1660211174.79756,1530541.5115008,58
1660211174.79756,1530541.5115029,56
1660211174.79756,1530541.5115049,35
1660211174.79756,1530541.5115069,25
1660211175.32116,1530541.5115089,49
1660211175.32116,1530541.511511,58
1660211175.32116,1530541.511513,53
1660211175.32116,1530541.5115151,79
1660211175.32116,1530541.5115171,119
1660211175.32116,1530541.5115191,128
1660211175.32116,1530541.5115212,121
1660211175.32116,1530541.5115232,133
1660211175.32116,1530541.5115252,130
1660211175.32116,1530541.5115273,98
1660211175.32116,1530541.5115295,72
1660211175.32116,1530541.5115315,74
1660211175.32116,1530541.5115336,84
1660211175.32116,1530541.5115357,91
1660211175.32116,1530541.511538,91
1660211175.32116,1530541.5115401,84
1660211175.32116,1530541.5115423,72
1660211175.32116,1530541.5115444,74
1660211175.32116,1530541.5115467,95
1660211175.32116,1530541.5115525,95
1660211175.32116,1530541.511564,109
1660211175.32116,1530541.5115693,266
1660211175.32116,1530541.5115714,583
1660211175.32116,1530541.5115745,733
1660211175.32116,1530541.5115766,256
1660211175.32116,1530541.5115788,-404
1660211175.32116,1530541.5115808,-392
1660211175.32116,1530541.5115829,-35
1660211175.32116,1530541.511585,63
1660211175.32116,1530541.5115869,86
1660211175.32116,1530541.511589,135
1660211175.32116,1530541.511591,119
1660211175.32116,1530541.511593,100
1660211175.32116,1530541.511595,114
1660211175.32116,1530542.047143,116
1660211175.32116,1530542.0471606,105
1660211175.32116,1530542.0471685,107
1660211175.32116,1530542.0471752,126
1660211175.32116,1530542.0471822,135
1660211175.32116,1530542.047189,126
1660211175.32116,1530542.047196,123
1660211175.32116,1530542.0472021,126
1660211175.32116,1530542.0472086,123
1660211175.32116,1530542.0472158,119
1660211175.32116,1530542.0472222,123
1660211175.32116,1530542.0472293,130
1660211175.32116,1530542.0472355,142
1660211175.32116,1530542.0472416,156
1660211175.32116,1530542.0472481,154
1660211175.32116,1530542.047255,123
1660211175.33712,1530542.047261,121
1660211175.33712,1530542.0472668,149
1660211175.33712,1530542.0472735,137
1660211175.33712,1530542.0472797,105
1660211175.33712,1530542.047286,84
1660211175.33712,1530542.0472929,53
1660211175.33712,1530542.0472993,46
1660211175.33712,1530542.0473054,81
1660211175.33712,1530542.0473118,102
1660211175.33712,1530542.0473184,77
1660211175.33712,1530542.0473252,37
1660211175.33712,1530542.0473301,2
1660211175.33712,1530542.0473347,-9
1660211175.33712,1530542.0473396,-11
1660211175.33712,1530542.0473428,-18
1660211175.33712,1530542.0473472,-21
1660211175.33712,1530542.0473514,-16
1660211175.33712,1530542.0473547,-23
1660211175.33712,1530542.047358,-46
1660211175.33712,1530542.0473648,-49
1660211175.33712,1530542.0473707,-11
1660211175.33712,1530542.0473742,16
1660211175.33712,1530542.0473773,14
1660211175.33712,1530542.0473807,18
1660211175.85677,1530542.0473839,18
1660211175.85677,1530542.0473873,9
1660211175.85677,1530542.0473924,9
1660211175.85677,1530542.0473978,11
1660211175.85677,1530542.0474023,11
1660211175.85677,1530542.0474076,25
1660211175.85677,1530542.0474144,53
1660211175.85677,1530542.0474193,67
1660211175.85677,1530542.0474232,60
1660211175.85677,1530542.0474263,58
1660211175.85677,1530542.0474296,60
1660211175.85677,1530542.0474332,51
1660211175.85677,1530542.0474364,37
1660211175.85677,1530542.0474421,32
1660211175.85677,1530542.0474463,35
1660211175.85677,1530542.0474513,37
1660211175.85677,1530542.0474572,42
1660211175.85677,1530542.0474624,63
1660211175.85677,1530542.0474656,81
1660211175.85677,1530542.0474699,88
1660211175.85677,1530542.0474744,86
1660211175.85677,1530542.0474796,79
1660211175.85677,1530542.0474858,79
1660211175.85677,1530542.0474941,84
1660211175.85677,1530542.0475015,81
1660211175.85677,1530542.0475087,70
1660211175.85677,1530542.0475138,79
1660211175.85677,1530542.0475192,93
1660211175.85677,1530542.0475238,86
1660211175.85677,1530542.0475276,81
1660211175.85677,1530542.0475338,86
1660211175.85677,1530542.0475391,86
1660211175.85677,1530542.0475425,91
1660211175.85677,1530542.5845673,100
1660211175.85677,1530542.5845918,98
1660211175.85677,1530542.5845977,93
1660211175.85677,1530542.5846029,86
1660211175.85677,1530542.5846085,72
1660211175.85677,1530542.5846123,72
1660211175.85677,1530542.5846158,98

1660211175.85677,1530542.5846193,119
1660211175.85677,1530542.5846228,105
1660211175.85677,1530542.5846262,81
1660211175.85677,1530542.5846316,84
1660211175.85677,1530542.5846372,79
1660211175.85677,1530542.5846445,37
1660211175.85677,1530542.58465,9
1660211175.85677,1530542.5846549,14
1660211175.85677,1530542.5846606,21
1660211175.85677,1530542.5846676,30
1660211175.8647,1530542.5846727,35
1660211175.8647,1530542.584677,-2
1660211175.8647,1530542.5846814,-42
1660211175.8647,1530542.5846877,-16
1660211175.8647,1530542.5846939,23
1660211175.8647,1530542.5847005,18
1660211175.8647,1530542.5847073,11
1660211175.8647,1530542.5847136,88
1660211175.8647,1530542.5847193,294
1660211175.8647,1530542.5847221,539
1660211175.8647,1530542.5847249,448
1660211175.8647,1530542.5847303,-177
1660211175.8647,1530542.5847357,-630
1660211175.8647,1530542.5847417,-392
1660211175.8647,1530542.5847469,-56
1660211175.8647,1530542.584753,9
1660211175.8647,1530542.5847584,42
1660211175.8647,1530542.5847618,60
1660211175.8647,1530542.5847667,39
1660211175.8647,1530542.58477,42
1660211175.8647,1530542.584775,35
1660211175.8647,1530542.5847784,21
1660211175.8647,1530542.5847836,37
1660211175.8647,1530542.5847866,44
1660211176.44119,1530542.5847904,30
1660211176.44119,1530542.5847934,2
1660211176.44119,1530542.5847963,14
1660211176.44119,1530542.5847994,105
1660211176.44119,1530542.5848024,144
1660211176.44119,1530542.5848054,102
1660211176.44119,1530542.5848103,107
1660211176.44119,1530542.5848135,121
1660211176.44119,1530542.5848181,86
1660211176.44119,1530542.5848216,67
1660211176.44119,1530542.5848246,109
1660211176.44119,1530542.584828,137
1660211176.44119,1530542.5848311,135
1660211176.44119,1530542.5848362,151
1660211176.44119,1530542.5848405,179
1660211176.44119,1530542.5848453,163
1660211176.44119,1530542.5848512,126
1660211176.44119,1530542.5848618,142
1660211176.44119,1530542.5848704,163
1660211176.44119,1530542.5848746,114
1660211176.44119,1530542.5848833,84
1660211176.44119,1530542.5849247,156
1660211176.44119,1530542.5849311,203
1660211176.44119,1530542.5849367,100
1660211176.44119,1530542.5849406,11
1660211176.44119,1530542.5849438,35
1660211176.44119,1530542.5849467,53
1660211176.44119,1530542.5849632,51
1660211176.44119,1530542.5849701,44
1660211176.44119,1530542.5849751,28
1660211176.44119,1530542.5849802,42
1660211176.44119,1530542.5849839,53
1660211176.44119,1530543.1689213,30
1660211176.44119,1530543.1689437,7
1660211176.44119,1530543.1689502,-9
1660211176.44119,1530543.1689551,-11
1660211176.44119,1530543.1689605,42
1660211176.44119,1530543.1689672,95
1660211176.44119,1530543.1689758,86
1660211176.44119,1530543.1689827,65
1660211176.44119,1530543.1689896,39
1660211176.44119,1530543.168997,23
1660211176.44119,1530543.1690002,35
1660211176.44119,1530543.1690032,63
1660211176.44119,1530543.1690062,72
1660211176.44119,1530543.1690106,44
1660211176.44119,1530543.169014,18
1660211176.44119,1530543.1690173,30
1660211176.44119,1530543.1690213,37
1660211176.44119,1530543.1690247,42
1660211176.45016,1530543.1690311,58
1660211176.45016,1530543.1690351,51
1660211176.45016,1530543.1690389,37
1660211176.45016,1530543.1690421,51
1660211176.45016,1530543.169045,63
1660211176.45016,1530543.1690506,35
1660211176.45016,1530543.1690552,35
1660211176.45016,1530543.1690587,93
1660211176.45016,1530543.1690624,107
1660211176.45016,1530543.1690653,74
1660211176.45016,1530543.1690686,74
1660211176.45016,1530543.1690715,77
1660211176.45016,1530543.1690745,72
1660211176.45016,1530543.169079,70
1660211176.45016,1530543.169087,58
1660211176.45016,1530543.1690932,42
1660211176.45016,1530543.1690988,53
1660211176.45016,1530543.1691036,74
1660211176.45016,1530543.1691095,46
1660211176.45016,1530543.1691155,35
1660211176.45016,1530543.1691469,91
1660211176.45016,1530543.1691574,102
1660211176.45016,1530543.1691641,65
1660211176.45016,1530543.1691685,79
1660211176.97537,1530543.169174,102
1660211176.97537,1530543.1691788,93
1660211176.97537,1530543.1691843,95
1660211176.97537,1530543.1691912,91
1660211176.97537,1530543.169198,65
1660211176.97537,1530543.169206,63
1660211176.97537,1530543.1692106,102
1660211176.97537,1530543.1692135,130
1660211176.97537,1530543.1692166,158
1660211176.97537,1530543.1692224,186
1660211176.97537,1530543.1692268,168
1660211176.97537,1530543.1692316,151
1660211176.97537,1530543.1692364,168
1660211176.97537,1530543.1692424,158
1660211176.97537,1530543.1692478,112
1660211176.97537,1530543.169253,70
1660211176.97537,1530543.1692601,63
1660211176.97537,1530543.1692668,112
1660211176.97537,1530543.1692723,158
1660211176.97537,1530543.1692778,137
1660211176.97537,1530543.1692811,116
1660211176.97537,1530543.1692863,135
1660211176.97537,1530543.1692899,123
1660211176.97537,1530543.1692935,77
1660211176.97537,1530543.1693082,95
1660211176.97537,1530543.1693218,289
1660211176.97537,1530543.1693294,623
1660211176.97537,1530543.169336,756
1660211176.97537,1530543.1693422,266
1660211176.97537,1530543.1693539,-392
1660211176.97537,1530543.1693614,-359
1660211176.97537,1530543.7048483,16
1660211176.97537,1530543.704866,79
1660211176.97537,1530543.704878,51
1660211176.97537,1530543.7048873,121
1660211176.97537,1530543.7048948,112
1660211176.97537,1530543.7049046,67
1660211176.97537,1530543.7049087,102
1660211176.97537,1530543.7049108,149
1660211176.97537,1530543.7049127,154
1660211176.97537,1530543.7049155,161
1660211176.97537,1530543.7049243,147
1660211176.97537,1530543.7049368,114
1660211176.97537,1530543.7049455,98
1660211176.97537,1530543.7049571,102
1660211176.97537,1530543.7049627,112
1660211176.97537,1530543.7049648,116
1660211176.97537,1530543.7049669,102
1660211176.97537,1530543.704969,56
1660211176.97537,1530543.7049721,53
1660211176.98535,1530543.7049834,130
1660211176.98535,1530543.7049899,175
1660211176.98535,1530543.704993,156
1660211176.98535,1530543.7049952,137
1660211176.98535,1530543.7049979,137
1660211176.98535,1530543.7050087,142
1660211176.98535,1530543.7050161,144
1660211176.98535,1530543.7050197,144
1660211176.98535,1530543.7050226,137
1660211176.98535,1530543.7050302,116
1660211176.98535,1530543.7050417,74
1660211176.98535,1530543.7050466,42
1660211176.98535,1530543.7050487,74
1660211176.98535,1530543.7050514,114
1660211176.98535,1530543.70506,95
1660211176.98535,1530543.7050693,53
1660211176.98535,1530543.7050733,30
1660211176.98535,1530543.7050768,18
1660211176.98535,1530543.7050805,7
1660211176.98535,1530543.7050838,-9
1660211176.98535,1530543.7050872,-37
1660211176.98535,1530543.7050907,-30
1660211176.98535,1530543.7050955,25
1660211176.98535,1530543.705099,39
1660211177.56475,1530543.7051027,11
1660211177.56475,1530543.7051063,16
1660211177.56475,1530543.7051119,51
1660211177.56475,1530543.705116,58
1660211177.56475,1530543.7051201,35
1660211177.56475,1530543.7051232,23
1660211177.56475,1530543.7051264,53
1660211177.56475,1530543.7051296,72
1660211177.56475,1530543.7051332,42
1660211177.56475,1530543.7051366,2
1660211177.56475,1530543.7051397,4
1660211177.56475,1530543.7051431,46
1660211177.56475,1530543.7051467,58
1660211177.56475,1530543.7051504,28
1660211177.56475,1530543.7051538,18
1660211177.56475,1530543.7051573,0
1660211177.56475,1530543.7051608,-23
1660211177.56475,1530543.7051645,2
1660211177.56475,1530543.705168,14
1660211177.56475,1530543.7051715,-11
1660211177.56475,1530543.705175,0
1660211177.56475,1530543.7051784,23
1660211177.56475,1530543.7051818,18
1660211177.56475,1530543.7051854,18
1660211177.56475,1530543.7051889,16
1660211177.56475,1530543.7051922,2
1660211177.56475,1530543.7051952,35
1660211177.56475,1530543.7051991,72
1660211177.56475,1530543.7052026,46
1660211177.56475,1530543.7052061,28
1660211177.56475,1530544.2906079,37
1660211177.56475,1530544.2906344,30
1660211177.56475,1530544.2906501,42
1660211177.56475,1530544.2906635,60
1660211177.56475,1530544.2906731,53
1660211177.56475,1530544.2906804,60
1660211177.56475,1530544.2906896,88
1660211177.56475,1530544.2906976,84
1660211177.56475,1530544.2907028,49
1660211177.56475,1530544.2907106,39
1660211177.56475,1530544.2907197,53
1660211177.56475,1530544.2907263,46
1660211177.56475,1530544.2907333,18
1660211177.56475,1530544.2907463,2
1660211177.56475,1530544.2907596,-2
1660211177.56475,1530544.2907736,16
1660211177.56475,1530544.2907847,51
1660211177.56475,1530544.2907925,51
1660211177.56475,1530544.2907987,25
1660211177.56475,1530544.2908079,35
1660211177.57472,1530544.2908135,44
1660211177.57472,1530544.2908205,30
1660211177.57472,1530544.2908241,46
1660211177.57472,1530544.2908365,60
1660211177.57472,1530544.2908436,51
1660211177.57472,1530544.2908512,63
1660211177.57472,1530544.2908543,81
1660211177.57472,1530544.2908572,86
1660211177.57472,1530544.29086,88
1660211177.57472,1530544.2908628,100
1660211177.57472,1530544.2908656,126
1660211177.57472,1530544.2908684,149
1660211177.57472,1530544.2908712,126
1660211177.57472,1530544.2908741,84
1660211177.57472,1530544.290877,77
1660211177.57472,1530544.29088,93
1660211177.57472,1530544.2908829,102
1660211177.57472,1530544.2908901,95
1660211177.57472,1530544.2908964,98
1660211177.57472,1530544.2909027,107
1660211177.57472,1530544.2909092,91
1660211177.57472,1530544.2909151,74
1660211177.57472,1530544.2909206,81
1660211177.57472,1530544.2909304,128
1660211178.09646,1530544.2909427,282
1660211178.09646,1530544.2909502,574
1660211178.09646,1530544.2909552,719
1660211178.09646,1530544.2909593,289
1660211178.09646,1530544.290963,-371
1660211178.09646,1530544.2909695,-406
1660211178.09646,1530544.2909743,-16
1660211178.09646,1530544.2909809,67
1660211178.09646,1530544.2909862,-14
1660211178.09646,1530544.2910002,30
1660211178.09646,1530544.2910138,77
1660211178.09646,1530544.2910213,86
1660211178.09646,1530544.2910282,102
1660211178.09646,1530544.2910347,95
1660211178.09646,1530544.2910406,84
1660211178.09646,1530544.2910439,100
1660211178.09646,1530544.2910579,114
1660211178.09646,1530544.2910705,107
1660211178.09646,1530544.291083,93
1660211178.09646,1530544.2910917,81
1660211178.09646,1530544.291101,95
1660211178.09646,1530544.2911102,114
1660211178.09646,1530544.2911165,114
1660211178.09646,1530544.291127,128
1660211178.09646,1530544.2911383,142
1660211178.09646,1530544.2911503,128
1660211178.09646,1530544.2911623,142
1660211178.09646,1530544.2911729,163
1660211178.09646,1530544.2911856,156
1660211178.09646,1530544.8261364,168
1660211178.09646,1530544.8261861,175
1660211178.09646,1530544.8262,163
1660211178.09646,1530544.8262072,156
1660211178.09646,1530544.826213,142
1660211178.09646,1530544.8262164,98
1660211178.09646,1530544.8262197,53
1660211178.09646,1530544.8262227,65
1660211178.09646,1530544.8262271,116
1660211178.09646,1530544.8262303,128
1660211178.09646,1530544.8262336,95
1660211178.09646,1530544.8262369,63
1660211178.09646,1530544.8262412,44
1660211178.09646,1530544.8262446,32
1660211178.09646,1530544.8262502,21
1660211178.09646,1530544.8262536,16
1660211178.09646,1530544.8262577,9
1660211178.09646,1530544.8262612,-4
1660211178.09646,1530544.8262647,-21
1660211178.09646,1530544.8262682,-18
1660211178.09646,1530544.8262739,-2
1660211178.10942,1530544.8262794,2
1660211178.10942,1530544.8262825,-18
1660211178.10942,1530544.8262855,-39
1660211178.10942,1530544.8262883,-18
1660211178.10942,1530544.8262911,28
1660211178.10942,1530544.8262939,35
1660211178.10942,1530544.8262967,28
1660211178.10942,1530544.8262995,49
1660211178.10942,1530544.8263023,60
1660211178.10942,1530544.8263051,39
1660211178.10942,1530544.8263079,35
1660211178.10942,1530544.8263109,53
1660211178.10942,1530544.8263138,49
1660211178.10942,1530544.8263166,18
1660211178.10942,1530544.8263195,21
1660211178.10942,1530544.8263224,60
1660211178.10942,1530544.8263252,74
1660211178.10942,1530544.8263282,63
1660211178.10942,1530544.826331,60
1660211178.10942,1530544.8263338,60
