Time,TimeLsl,Value
1660211650.62836,1531015.4729713,42
1660211650.62836,1531015.4730135,53
1660211650.62836,1531015.4730237,60
1660211650.62836,1531015.4730305,58
1660211650.62836,1531015.4730358,63
1660211650.62836,1531015.4730416,72
1660211650.62836,1531015.4730475,65
1660211650.62836,1531015.4730511,56
1660211650.62836,1531015.4730558,53
1660211650.62836,1531015.4730612,51
1660211650.62836,1531015.4730674,56
1660211650.62836,1531015.4730711,51
1660211650.62836,1531015.4730745,35
1660211650.62836,1531015.4730777,25
1660211650.62836,1531015.473081,28
1660211650.62836,1531015.4730843,53
1660211650.62836,1531015.473088,95
1660211650.62836,1531015.4730914,100
1660211650.62836,1531015.4730952,53
1660211650.62836,1531015.4730992,37
1660211650.62836,1531015.4731059,53
1660211650.62836,1531015.4731094,39
1660211650.62836,1531015.4731131,18
1660211650.62836,1531015.4731194,11
1660211650.62836,1531015.4731264,-4
1660211650.62836,1531015.4731342,-2
1660211650.62836,1531015.4731413,21
1660211650.62836,1531015.473147,32
1660211650.62836,1531015.4731517,25
1660211650.62836,1531015.4731554,14
1660211650.62836,1531015.4731589,2
1660211650.62836,1531015.4731623,-2
1660211650.62836,1531015.4731682,-7
1660211650.62836,1531015.4731746,25
1660211650.62836,1531015.4731785,182
1660211650.62836,1531015.4731826,488
1660211650.62836,1531015.4731863,703
1660211650.62836,1531015.4731907,319
1660211650.62836,1531015.4731975,-406
1660211650.62836,1531015.4732016,-492
1660211650.62836,1531015.4732053,-77
1660211650.62836,1531015.4732091,39
1660211650.62836,1531015.4732127,-7
1660211650.62836,1531015.4732167,72
1660211650.62836,1531015.473221,102
1660211650.62836,1531015.4732249,56
1660211650.62836,1531015.4732299,60
1660211650.62836,1531015.4732336,88
1660211650.62836,1531015.4732374,93
1660211650.62836,1531015.4732412,98
1660211650.75617,1531015.4732455,105
1660211650.75617,1531015.4732513,109
1660211650.75617,1531015.4732551,121
1660211650.75617,1531015.4732608,137
1660211650.75617,1531015.4732645,137
1660211650.75617,1531015.4732685,116
1660211650.75617,1531015.4732755,102
1660211650.75617,1531015.4732797,119
1660211650.75617,1531015.4732855,151
1660211650.75617,1531015.4732894,177
1660211650.75617,1531015.4732953,193
1660211650.75617,1531015.473301,191
1660211650.75617,1531015.4733071,177
1660211650.75617,1531015.4733149,186
1660211650.75617,1531015.4733191,219
1660211650.75617,1531015.473323,233
1660211650.75617,1531015.4733269,233
1660211650.75617,1531015.4733311,228
1660211650.75617,1531015.4733368,224
1660211650.75617,1531015.4733446,221
1660211650.75617,1531015.4733503,221
1660211650.75617,1531015.4733547,207
1660211650.75617,1531015.4733604,191
1660211650.75617,1531015.9119588,182
1660211650.75617,1531015.9119781,163
1660211650.75617,1531015.9120143,144
1660211650.75617,1531015.9120271,128
1660211650.75617,1531015.9120383,107
1660211650.75617,1531015.9120461,84
1660211650.75617,1531015.9120535,67
1660211650.75617,1531015.9120607,70
1660211650.75617,1531015.9120678,70
1660211650.75617,1531015.912075,51
1660211650.75617,1531015.9120812,37
1660211650.75617,1531015.9120877,46
1660211650.75617,1531015.9120941,60
1660211650.75617,1531015.9121008,56
1660211650.75617,1531015.9121069,39
1660211650.75617,1531015.9121137,46
1660211650.75617,1531015.9121208,60
1660211650.75617,1531015.9121272,63
1660211650.75617,1531015.9121339,72
1660211650.75617,1531015.9121402,79
1660211650.75617,1531015.9121638,63
1660211650.75617,1531015.9121698,44
1660211650.75617,1531015.9121743,46
1660211650.75617,1531015.9121789,53
1660211650.75617,1531015.9121832,51
1660211650.75617,1531015.9121876,56
1660211650.75617,1531015.9121919,70
1660211650.80703,1531015.9121962,72
1660211650.80703,1531015.9122005,65
1660211650.80703,1531015.9122049,60
1660211650.80703,1531015.9122092,42
1660211650.80703,1531015.9122135,37
1660211650.80703,1531015.9122178,58
1660211650.80703,1531015.9122222,72
1660211650.80703,1531015.9122266,67
1660211650.80703,1531015.9122309,60
1660211650.80703,1531015.9122353,56
1660211650.80703,1531015.9122396,49
1660211650.80703,1531015.9122439,42
1660211650.80703,1531015.9122483,32
1660211650.80703,1531015.9122526,30
1660211650.80703,1531015.9122569,39
1660211650.80703,1531015.9122612,39
1660211650.80703,1531015.9122655,25
1660211650.80703,1531015.9122698,32
1660211650.80703,1531015.9122741,60
1660211650.80703,1531015.9122785,70
1660211650.80703,1531015.9122828,44
1660211650.80703,1531015.9122885,32
1660211650.80703,1531015.912293,35
1660211650.80703,1531015.9122973,39
1660211650.80703,1531015.9123017,49
1660211650.80703,1531015.9123066,46
1660211650.80703,1531015.912311,37
1660211650.80703,1531015.9123153,39
1660211650.80703,1531015.9123198,46
1660211650.80703,1531015.9123241,53
1660211650.80703,1531015.9123285,67
1660211650.80703,1531015.9123329,74
1660211650.80703,1531015.9123373,77
1660211650.80703,1531015.9123417,86
1660211650.80703,1531015.912346,79
1660211650.80703,1531015.9123503,60
1660211650.80703,1531015.9123546,79
1660211650.80703,1531015.9123588,116
1660211650.80703,1531015.9123631,130
1660211650.80703,1531015.9123673,123
1660211650.80703,1531015.9123716,116
1660211650.80703,1531015.9123759,112
1660211650.80703,1531015.9123803,119
1660211650.80703,1531015.9123846,121
1660211650.80703,1531015.9123889,109
1660211650.80703,1531015.9123933,100
1660211650.80703,1531016.4972158,100
1660211650.80703,1531016.497234,93
1660211650.80703,1531016.4972391,84
1660211650.80703,1531016.4972431,84
1660211650.82897,1531016.4972489,91
1660211650.82897,1531016.4972542,74
1660211650.82897,1531016.4972581,58
1660211650.82897,1531016.497261,60
1660211650.82897,1531016.4972638,65
1660211650.82897,1531016.497268,114
1660211650.82897,1531016.4972729,303
1660211650.82897,1531016.4972778,611
1660211650.82897,1531016.4972825,660
1660211650.82897,1531016.4972892,86
1660211650.82897,1531016.497296,-476
1660211650.82897,1531016.4973029,-305
1660211650.82897,1531016.4973089,28
1660211650.82897,1531016.4973135,30
1660211650.82897,1531016.4973172,28
1660211650.82897,1531016.4973205,93
1660211650.82897,1531016.4973237,86
1660211650.82897,1531016.4973271,84
1660211650.82897,1531016.4973307,107
1660211650.82897,1531016.4973339,107
1660211650.82897,1531016.4973371,109
1660211650.82897,1531016.4973403,123
1660211650.82897,1531016.4973436,133
1660211650.82897,1531016.4973468,133
1660211650.82897,1531016.4973503,126
1660211650.82897,1531016.4973543,119
1660211650.82897,1531016.4973588,123
1660211650.82897,1531016.4973657,133
1660211650.82897,1531016.4973744,144
1660211650.82897,1531016.497382,156
1660211650.82897,1531016.4973883,156
1660211650.82897,1531016.4973942,156
1660211650.82897,1531016.4973972,170
1660211650.82897,1531016.4974001,186
1660211650.82897,1531016.4974031,203
1660211650.82897,1531016.4974059,214
1660211650.82897,1531016.497409,214
1660211650.82897,1531016.4974118,207
1660211650.82897,1531016.4974148,193
1660211650.82897,1531016.4974176,179
1660211650.82897,1531016.4974212,175
1660211650.82897,1531016.4974264,182
1660211650.82897,1531016.4974319,189
1660211650.82897,1531016.497435,172
1660211650.82897,1531016.4974378,135
1660211650.82897,1531016.4974407,123
1660211650.82897,1531016.4974436,130
1660211650.82897,1531016.4974465,119
1660211650.82897,1531016.4974494,98
1660211650.82897,1531016.4974521,84
1660211650.83994,1531016.497455,70
1660211650.83994,1531016.4974579,74
1660211650.83994,1531016.4974606,81
1660211650.83994,1531016.4974634,58
1660211650.83994,1531016.4974662,32
1660211650.83994,1531016.497469,35
1660211650.83994,1531016.4974719,39
1660211650.83994,1531016.4974747,32
1660211650.83994,1531016.4974775,30
1660211650.83994,1531016.4974805,39
1660211650.83994,1531016.497528,53
1660211650.83994,1531016.4975411,65
1660211650.83994,1531016.4975455,58
1660211650.83994,1531016.497549,46
1660211650.83994,1531016.4975523,49
1660211650.83994,1531016.4975554,58
1660211650.83994,1531016.4975585,70
1660211650.83994,1531016.4975616,79
1660211650.83994,1531016.497565,81
1660211650.83994,1531017.1304866,91
1660211650.83994,1531017.1305049,95
1660211650.83994,1531017.1305125,72
1660211651.10674,1531017.1305201,51
1660211651.10674,1531017.1305262,60
1660211651.10674,1531017.130531,77
1660211651.10674,1531017.1305353,77
1660211651.10674,1531017.1305422,81
1660211651.10674,1531017.1305485,74
1660211651.10674,1531017.130555,51
1660211651.10674,1531017.1305617,46
1660211651.10674,1531017.1305682,49
1660211651.10674,1531017.1305721,51
1660211651.10674,1531017.1305762,63
1660211651.10674,1531017.1305791,67
1660211651.10674,1531017.1305824,49
1660211651.10674,1531017.1305855,25
1660211651.10674,1531017.1305904,30
1660211651.10674,1531017.1305955,44
1660211651.10674,1531017.1305991,37
1660211651.10674,1531017.1306048,28
1660211651.10674,1531017.1306103,37
1660211651.10674,1531017.1306135,39
1660211651.10674,1531017.1306178,32
1660211651.10674,1531017.130624,42
1660211651.10674,1531017.1306306,63
1660211651.10674,1531017.1306374,67
1660211651.10674,1531017.1306426,63
1660211651.10674,1531017.1306462,67
1660211651.10674,1531017.1306501,72
1660211651.10674,1531017.1306531,70
1660211651.10674,1531017.1306577,74
1660211651.10674,1531017.1306632,86
1660211651.10674,1531017.1306663,86
1660211651.10674,1531017.1306727,70
1660211651.10674,1531017.130677,63
1660211651.10674,1531017.1306816,65
1660211651.10674,1531017.1306873,65
1660211651.10674,1531017.1306951,79
1660211651.10674,1531017.1307086,84
1660211651.10674,1531017.1307158,63
1660211651.10674,1531017.1307245,53
1660211651.10674,1531017.1307289,88
1660211651.10674,1531017.130732,128
1660211651.10674,1531017.130735,135
1660211651.10674,1531017.130738,133
1660211651.10674,1531017.1307451,123
1660211651.10674,1531017.1307503,114
1660211651.10674,1531017.1307532,128
1660211651.10674,1531017.130756,128
1660211651.10674,1531017.130759,105
1660211651.10674,1531017.1307618,91
1660211651.10674,1531017.1307656,84
1660211651.18453,1531017.1307714,74
1660211651.18453,1531017.1307749,72
1660211651.18453,1531017.1307778,91
1660211651.18453,1531017.1307807,100
1660211651.18453,1531017.1307837,93
1660211651.18453,1531017.1307865,93
1660211651.18453,1531017.1307894,88
1660211651.18453,1531017.1307923,100
1660211651.18453,1531017.1307951,217
1660211651.18453,1531017.1307981,481
1660211651.18453,1531017.1308009,696
1660211651.18453,1531017.1308037,387
1660211651.18453,1531017.1308066,-291
1660211651.18453,1531017.1308096,-429
1660211651.18453,1531017.1308124,-42
1660211651.18453,1531017.1308153,105
1660211651.18453,1531017.1308182,44
1660211651.18453,1531017.1308211,93
1660211651.18453,1531017.130824,126
1660211651.18453,1531017.1308268,100
1660211651.18453,1531017.7157646,114
1660211651.18453,1531017.7157843,130
1660211651.18453,1531017.7157973,123
1660211651.18453,1531017.7158044,121
1660211651.52467,1531017.7158097,123
1660211651.52467,1531017.7158148,126
1660211651.52467,1531017.7158199,128
1660211651.52467,1531017.7158245,135
1660211651.52467,1531017.7158291,147
1660211651.52467,1531017.7158338,147
1660211651.52467,1531017.7158384,135
1660211651.52467,1531017.7158436,116
1660211651.52467,1531017.7158507,105
1660211651.52467,1531017.7158554,102
1660211651.52467,1531017.715862,105
1660211651.52467,1531017.7158667,95
1660211651.52467,1531017.7158732,98
1660211651.52467,1531017.7158798,130
1660211651.52467,1531017.7158905,154
1660211651.52467,1531017.7159029,147
1660211651.52467,1531017.7159175,147
1660211651.52467,1531017.715931,158
1660211651.52467,1531017.715944,165
1660211651.52467,1531017.7159564,151
1660211651.52467,1531017.7159639,114
1660211651.52467,1531017.715968,79
1660211651.52467,1531017.7159736,79
1660211651.52467,1531017.7159779,72
1660211651.52467,1531017.7159836,42
1660211651.52467,1531017.7159876,23
1660211651.52467,1531017.7159922,14
1660211651.52467,1531017.716003,2
1660211651.52467,1531017.7160118,9
1660211651.52467,1531017.7160207,18
1660211651.52467,1531017.7160348,4
1660211651.52467,1531017.7160467,-2
1660211651.52467,1531017.7160581,4
1660211651.52467,1531017.7160693,7
1660211651.52467,1531017.7160772,11
1660211651.52467,1531017.7160905,21
1660211651.52467,1531017.7161037,30
1660211651.52467,1531017.7161165,37
1660211651.52467,1531017.7161297,25
1660211651.52467,1531017.7161429,18
1660211651.52467,1531017.7161544,25
1660211651.52467,1531017.7161616,37
1660211651.52467,1531017.716166,53
1660211651.52467,1531017.7161725,65
1660211651.52467,1531017.7161784,63
1660211651.52467,1531017.7161827,65
1660211651.52467,1531017.7161883,72
1660211651.52467,1531017.7161922,70
1660211651.52467,1531017.7161959,70
1660211651.52467,1531017.7162022,72
1660211651.53763,1531017.7162061,72
1660211651.53763,1531017.7162116,79
1660211651.53763,1531017.7162163,67
1660211651.53763,1531017.7162253,53
1660211651.53763,1531017.7162327,81
1660211651.53763,1531017.7162424,109
1660211651.53763,1531017.7162547,105
1660211651.53763,1531017.716266,84
1660211651.53763,1531017.7162783,67
1660211651.53763,1531017.7162882,77
1660211651.53763,1531017.7163011,98
1660211651.53763,1531017.7163141,100
1660211651.53763,1531017.7163275,93
1660211651.53763,1531017.7163438,105
1660211651.53763,1531017.7163541,105
1660211651.53763,1531017.7163629,84
1660211651.53763,1531017.716369,84
1660211651.53763,1531017.716375,102
1660211651.53763,1531017.7163792,121
1660211651.53763,1531018.2523029,116
1660211651.53763,1531018.2523236,95
1660211651.53763,1531018.2523278,88
1660211651.53763,1531018.252331,105
1660211651.53763,1531018.2523343,119
1660211652.06461,1531018.2523377,109
1660211652.06461,1531018.2523429,98
1660211652.06461,1531018.252348,102
1660211652.06461,1531018.2523524,84
1660211652.06461,1531018.2523554,60
1660211652.06461,1531018.2523602,81
1660211652.06461,1531018.2523644,102
1660211652.06461,1531018.2523699,88
1660211652.06461,1531018.2523752,84
1660211652.06461,1531018.2523785,88
1660211652.06461,1531018.252383,88
1660211652.06461,1531018.2523864,102
1660211652.06461,1531018.2523895,130
1660211652.06461,1531018.2523934,135
1660211652.06461,1531018.2523999,102
1660211652.06461,1531018.2524066,67
1660211652.06461,1531018.2524119,72
1660211652.06461,1531018.2524153,100
1660211652.06461,1531018.2524188,107
1660211652.06461,1531018.2524222,95
1660211652.06461,1531018.2524275,84
1660211652.06461,1531018.2524345,70
1660211652.06461,1531018.252439,58
1660211652.06461,1531018.2524453,39
1660211652.06461,1531018.2524514,18
1660211652.06461,1531018.2524581,18
1660211652.06461,1531018.2524639,39
1660211652.06461,1531018.2524691,49
1660211652.06461,1531018.2524748,35
1660211652.06461,1531018.2524781,16
1660211652.06461,1531018.2524818,65
1660211652.06461,1531018.2524852,275
1660211652.06461,1531018.252489,607
1660211652.06461,1531018.2524923,679
1660211652.06461,1531018.2524962,107
1660211652.06461,1531018.2525003,-504
1660211652.06461,1531018.2525039,-366
1660211652.06461,1531018.2525071,-7
1660211652.06461,1531018.2525099,4
1660211652.06461,1531018.2525125,-11
1660211652.06461,1531018.2525151,51
1660211652.06461,1531018.2525177,39
1660211652.06461,1531018.2525203,28
1660211652.06461,1531018.2525228,60
1660211652.06461,1531018.2525254,70
1660211652.06461,1531018.252528,72
1660211652.06461,1531018.2525306,98
1660211652.06461,1531018.2525332,79
1660211652.06461,1531018.2525357,46
1660211652.06461,1531018.2525383,74
1660211652.07458,1531018.2525408,100
1660211652.07458,1531018.2525434,95
1660211652.07458,1531018.2525463,112
1660211652.07458,1531018.2525489,123
1660211652.07458,1531018.2525515,123
1660211652.07458,1531018.2525542,144
1660211652.07458,1531018.2525568,165
1660211652.07458,1531018.2525595,154
1660211652.07458,1531018.2525621,137
1660211652.07458,1531018.2525648,161
1660211652.07458,1531018.2525674,184
1660211652.07458,1531018.25257,200
1660211652.07458,1531018.2525726,221
1660211652.07458,1531018.2525752,214
1660211652.07458,1531018.2525778,200
1660211652.07458,1531018.2525803,200
1660211652.07458,1531018.2525829,200
1660211652.07458,1531018.252587,196
1660211652.07458,1531018.7880676,179
1660211652.07458,1531018.7880902,156
1660211652.07458,1531018.7881073,137
1660211652.07458,1531018.788121,133
1660211652.07458,1531018.7881281,121
1660211652.07458,1531018.7881341,100
1660211652.55022,1531018.7881412,95
1660211652.55022,1531018.788148,88
1660211652.55022,1531018.7881551,63
1660211652.55022,1531018.7881617,60
1660211652.55022,1531018.7881666,79
1660211652.55022,1531018.7881706,65
1660211652.55022,1531018.788175,28
1660211652.55022,1531018.7881805,4
1660211652.55022,1531018.7881861,21
1660211652.55022,1531018.788192,51
1660211652.55022,1531018.7881966,42
1660211652.55022,1531018.7882016,28
1660211652.55022,1531018.788207,46
1660211652.55022,1531018.7882137,37
1660211652.55022,1531018.7882186,21
1660211652.55022,1531018.7882256,42
1660211652.55022,1531018.7882318,49
1660211652.55022,1531018.7882379,37
1660211652.55022,1531018.788244,46
1660211652.55022,1531018.7882512,63
1660211652.55022,1531018.7882583,63
1660211652.55022,1531018.7882631,77
1660211652.55022,1531018.7882684,86
1660211652.55022,1531018.7882768,60
1660211652.55022,1531018.7882825,63
1660211652.55022,1531018.7882918,88
1660211652.55022,1531018.7882971,42
1660211652.55022,1531018.7883014,7
1660211652.55022,1531018.7883045,58
1660211652.55022,1531018.7883123,88
1660211652.55022,1531018.7883193,79
1660211652.55022,1531018.7883226,81
1660211652.55022,1531018.7883281,86
1660211652.55022,1531018.7883319,79
1660211652.55022,1531018.7883354,63
1660211652.55022,1531018.788339,91
1660211652.55022,1531018.7883423,156
1660211652.55022,1531018.7883465,135
1660211652.55022,1531018.7883508,70
1660211652.55022,1531018.7883538,74
1660211652.55022,1531018.7883566,107
1660211652.55022,1531018.7883594,105
1660211652.55022,1531018.7883623,95
1660211652.55022,1531018.7883652,107
1660211652.55022,1531018.7883681,109
1660211652.55022,1531018.7883709,107
1660211652.55022,1531018.7883738,109
1660211652.55022,1531018.7883767,93
1660211652.55022,1531018.7883796,107
1660211652.55022,1531018.7883825,158
1660211652.5602,1531018.7883854,126
1660211652.5602,1531018.7883882,65
1660211652.5602,1531018.7883911,105
1660211652.5602,1531018.7883938,149
1660211652.5602,1531018.7883967,119
1660211652.5602,1531018.7883995,112
1660211652.5602,1531018.7884024,130
1660211652.5602,1531018.7884052,105
1660211652.5602,1531018.788408,79
1660211652.5602,1531018.7884108,86
1660211652.5602,1531018.7884135,88
1660211652.5602,1531018.7884262,95
1660211652.5602,1531018.7884292,107
1660211652.5602,1531018.788432,74
1660211652.5602,1531018.7884348,60
1660211652.5602,1531018.7884375,109
1660211652.5602,1531018.7884403,107
1660211652.5602,1531019.2757434,60
1660211652.5602,1531019.2757668,135
1660211652.5602,1531019.275775,348
1660211652.5602,1531019.2757814,590
1660211652.5602,1531019.2757876,562
1660211652.5602,1531019.275794,-14
1660211652.5602,1531019.2758006,-520
1660211653.13939,1531019.2758074,-319
1660211653.13939,1531019.2758139,-11
1660211653.13939,1531019.2758174,-35
1660211653.13939,1531019.2758209,-35
1660211653.13939,1531019.2758237,35
1660211653.13939,1531019.2758267,25
1660211653.13939,1531019.2758295,25
1660211653.13939,1531019.2758351,51
1660211653.13939,1531019.2758398,37
1660211653.13939,1531019.2758443,37
1660211653.13939,1531019.275848,60
1660211653.13939,1531019.2758523,39
1660211653.13939,1531019.2758589,25
1660211653.13939,1531019.2758657,56
1660211653.13939,1531019.2758724,58
1660211653.13939,1531019.2758775,30
1660211653.13939,1531019.2758812,39
1660211653.13939,1531019.2758841,74
1660211653.13939,1531019.2758871,79
1660211653.13939,1531019.2758905,63
1660211653.13939,1531019.2758937,67
1660211653.13939,1531019.2758979,91
1660211653.13939,1531019.2759026,112
1660211653.13939,1531019.275907,133
1660211653.13939,1531019.2759171,154
1660211653.13939,1531019.2759251,163
1660211653.13939,1531019.2759302,168
1660211653.13939,1531019.2759343,175
1660211653.13939,1531019.2759388,179
1660211653.13939,1531019.275946,182
1660211653.13939,1531019.2759541,168
1660211653.13939,1531019.2759587,140
1660211653.13939,1531019.2759643,126
1660211653.13939,1531019.275974,121
1660211653.13939,1531019.2759782,116
1660211653.13939,1531019.2759815,112
1660211653.13939,1531019.2759845,102
1660211653.13939,1531019.2759874,86
1660211653.13939,1531019.2759903,79
1660211653.13939,1531019.2759932,74
1660211653.13939,1531019.275996,60
1660211653.13939,1531019.2759988,53
1660211653.13939,1531019.2760017,77
1660211653.13939,1531019.2760047,88
1660211653.13939,1531019.2760076,74
1660211653.13939,1531019.2760104,60
1660211653.13939,1531019.2760134,56
1660211653.13939,1531019.2760163,67
1660211653.13939,1531019.2760191,88
1660211653.13939,1531019.2760219,98
1660211653.14937,1531019.2760247,102
1660211653.14937,1531019.2760277,107
1660211653.14937,1531019.2760305,100
1660211653.14937,1531019.2760334,95
1660211653.14937,1531019.2760364,109
1660211653.14937,1531019.2760393,121
1660211653.14937,1531019.2760421,123
1660211653.14937,1531019.2760451,123
1660211653.14937,1531019.2760479,105
1660211653.14937,1531019.2760509,86
1660211653.14937,1531019.2760537,93
1660211653.14937,1531019.2760566,116
1660211653.14937,1531019.2760627,119
1660211653.14937,1531019.2760656,102
1660211653.14937,1531019.2760685,84
1660211653.14937,1531019.2760715,77
1660211653.14937,1531019.8617998,79
1660211653.14937,1531019.8618174,84
1660211653.14937,1531019.8618212,79
1660211653.14937,1531019.8618243,79
1660211653.14937,1531019.8618276,81
1660211653.14937,1531019.8618308,56
1660211653.14937,1531019.8618342,30
1660211653.14937,1531019.8618384,44
1660211653.7226,1531019.8618427,67
1660211653.7226,1531019.8618467,65
1660211653.7226,1531019.8618495,49
1660211653.7226,1531019.8618525,28
1660211653.7226,1531019.8618555,16
1660211653.7226,1531019.8618615,30
1660211653.7226,1531019.8618658,35
1660211653.7226,1531019.8618697,21
1660211653.7226,1531019.8618728,32
1660211653.7226,1531019.8618759,44
1660211653.7226,1531019.8618793,44
1660211653.7226,1531019.8618822,56
1660211653.7226,1531019.8618852,67
1660211653.7226,1531019.8618952,77
1660211653.7226,1531019.861917,84
1660211653.7226,1531019.8619266,56
1660211653.7226,1531019.8619321,42
1660211653.7226,1531019.8619363,74
1660211653.7226,1531019.8619407,105
1660211653.7226,1531019.8619461,114
1660211653.7226,1531019.8619536,121
1660211653.7226,1531019.8619582,121
1660211653.7226,1531019.8619628,116
1660211653.7226,1531019.8619674,116
1660211653.7226,1531019.8619743,109
1660211653.7226,1531019.8619804,86
1660211653.7226,1531019.861985,79
1660211653.7226,1531019.8619898,93
1660211653.7226,1531019.8619943,91
1660211653.7226,1531019.8619993,65
1660211653.7226,1531019.8620038,49
1660211653.7226,1531019.862008,42
1660211653.7226,1531019.8620121,49
1660211653.7226,1531019.8620161,65
1660211653.7226,1531019.8620205,67
1660211653.7226,1531019.8620255,53
1660211653.7226,1531019.8620301,98
1660211653.7226,1531019.8620356,270
1660211653.7226,1531019.8620429,513
1660211653.7226,1531019.8620497,537
1660211653.7226,1531019.8620564,58
1660211653.7226,1531019.8620612,-434
1660211653.7226,1531019.8620675,-287
1660211653.7226,1531019.8620724,63
1660211653.7226,1531019.8620791,88
1660211653.7226,1531019.8620839,46
1660211653.7226,1531019.8620889,95
1660211653.7226,1531019.8620941,102
1660211653.7226,1531019.8620987,84
1660211653.7226,1531019.8621034,95
1660211653.73456,1531019.8621091,98
1660211653.73456,1531019.862116,100
1660211653.73456,1531019.862121,114
1660211653.73456,1531019.8621274,114
1660211653.73456,1531019.8621324,109
1660211653.73456,1531019.862139,116
1660211653.73456,1531019.8621434,109
1660211653.73456,1531019.8621494,91
1660211653.73456,1531019.8621549,88
1660211653.73456,1531019.8621621,107
1660211653.73456,1531019.8621671,112
1660211653.73456,1531019.8621713,109
1660211653.73456,1531019.8621765,107
1660211653.73456,1531019.8621828,107
1660211653.73456,1531019.8621881,126
1660211653.73456,1531020.4475033,147
1660211653.73456,1531020.4475265,151
1660211653.73456,1531020.4475348,158
1660211653.73456,1531020.4475399,170
1660211653.73456,1531020.4475448,165
1660211653.73456,1531020.4475504,144
1660211653.73456,1531020.4475568,144
1660211653.73456,1531020.4475631,161
1660211653.73456,1531020.4475694,133
1660211654.25942,1531020.447576,77
1660211654.25942,1531020.4475825,72
1660211654.25942,1531020.4475876,86
1660211654.25942,1531020.447592,77
1660211654.25942,1531020.4475957,65
1660211654.25942,1531020.4475995,46
1660211654.25942,1531020.4476039,9
1660211654.25942,1531020.4476095,-9
1660211654.25942,1531020.4476163,-14
1660211654.25942,1531020.4476216,-11
1660211654.25942,1531020.4476277,4
1660211654.25942,1531020.4476311,11
1660211654.25942,1531020.4476345,4
1660211654.25942,1531020.4476377,11
1660211654.25942,1531020.4476412,28
1660211654.25942,1531020.4476444,39
1660211654.25942,1531020.4476477,51
1660211654.25942,1531020.4476511,51
1660211654.25942,1531020.4476551,39
1660211654.25942,1531020.4476597,39
1660211654.25942,1531020.4476644,51
1660211654.25942,1531020.4476677,58
1660211654.25942,1531020.4476712,60
1660211654.25942,1531020.447675,58
1660211654.25942,1531020.4476786,44
1660211654.25942,1531020.4476822,46
1660211654.25942,1531020.4476857,79
1660211654.25942,1531020.4476896,93
1660211654.25942,1531020.4476931,79
1660211654.25942,1531020.4476966,77
1660211654.25942,1531020.4477001,84
1660211654.25942,1531020.4477035,81
1660211654.25942,1531020.4477069,84
1660211654.25942,1531020.4477103,100
1660211654.25942,1531020.4477137,107
1660211654.25942,1531020.4477176,100
1660211654.25942,1531020.4477232,84
1660211654.25942,1531020.447727,74
1660211654.25942,1531020.4477329,81
1660211654.25942,1531020.4477374,84
1660211654.25942,1531020.4477441,81
1660211654.25942,1531020.4477475,84
1660211654.25942,1531020.4477507,91
1660211654.25942,1531020.447754,95
1660211654.25942,1531020.4477573,102
1660211654.25942,1531020.4477607,121
1660211654.25942,1531020.4477647,142
1660211654.25942,1531020.4477757,140
1660211654.25942,1531020.4477803,109
1660211654.25942,1531020.4477844,88
1660211654.27139,1531020.4477883,114
1660211654.27139,1531020.4477942,147
1660211654.27139,1531020.4477981,119
1660211654.27139,1531020.4478021,67
1660211654.27139,1531020.4478094,63
1660211654.27139,1531020.4478162,74
1660211654.27139,1531020.447821,65
1660211654.27139,1531020.4478255,65
1660211654.27139,1531020.4478302,77
1660211654.27139,1531020.4478364,84
1660211654.27139,1531020.4478427,88
1660211654.27139,1531020.447848,91
1660211654.27139,1531020.4478518,72
1660211654.27139,1531020.4478564,102
1660211654.27139,1531020.9820594,282
1660211654.27139,1531020.982072,586
1660211654.27139,1531020.9820745,733
1660211654.27139,1531020.9820765,268
1660211654.27139,1531020.9820786,-434
1660211654.27139,1531020.9820804,-422
1660211654.27139,1531020.9820823,16
1660211654.27139,1531020.9820843,100
1660211654.27139,1531020.9820861,37
1660211654.27139,1531020.9820879,98
1660211654.89086,1531020.9820898,116
1660211654.89086,1531020.9820916,72
1660211654.89086,1531020.9820935,72
1660211654.89086,1531020.9820953,88
1660211654.89086,1531020.9820971,98
1660211654.89086,1531020.9820989,126
1660211654.89086,1531020.9821008,140
1660211654.89086,1531020.9821028,119
1660211654.89086,1531020.9821047,95
1660211654.89086,1531020.9821065,84
1660211654.89086,1531020.9821084,65
1660211654.89086,1531020.9821102,60
1660211654.89086,1531020.9821132,74
1660211654.89086,1531020.9821177,88
1660211654.89086,1531020.9821224,88
1660211654.89086,1531020.9821274,88
1660211654.89086,1531020.9821337,100
1660211654.89086,1531020.9821377,119
1660211654.89086,1531020.9821396,144
1660211654.89086,1531020.9821427,172
1660211654.89086,1531020.9821447,163
1660211654.89086,1531020.9821467,123
1660211654.89086,1531020.9821487,128
1660211654.89086,1531020.9821507,149
1660211654.89086,1531020.9821533,137
1660211654.89086,1531020.9821553,123
1660211654.89086,1531020.9821572,116
1660211654.89086,1531020.9821593,88
1660211654.89086,1531020.9821612,65
1660211654.89086,1531020.9821632,72
1660211654.89086,1531020.9821651,72
1660211654.89086,1531020.9821671,37
1660211654.89086,1531020.9821692,9
1660211654.89086,1531020.9821711,2
1660211654.89086,1531020.9821733,-7
1660211654.89086,1531020.9821754,-23
1660211654.89086,1531020.9821774,-18
1660211654.89086,1531020.9821799,4
1660211654.89086,1531020.9821819,2
1660211654.89086,1531020.982184,-30
1660211654.89086,1531020.9821861,-42
1660211654.89086,1531020.9821881,-18
1660211654.89086,1531020.9821901,2
1660211654.89086,1531020.9821921,9
1660211654.89086,1531020.982194,35
1660211654.89086,1531020.9821961,32
1660211654.89086,1531020.9821981,-16
1660211654.89086,1531020.9822,-18
1660211654.89086,1531020.982202,30
1660211654.89086,1531020.982204,65
1660211654.90282,1531020.982206,70
1660211654.90282,1531020.9822081,53
1660211654.90282,1531020.9822101,49
1660211654.90282,1531020.9822122,65
1660211654.90282,1531020.9822143,88
1660211654.90282,1531020.9822163,95
1660211654.90282,1531020.9822183,53
1660211654.90282,1531020.9822203,21
1660211654.90282,1531020.9822223,53
1660211654.90282,1531020.9822243,88
1660211654.90282,1531020.9822263,77
1660211654.90282,1531020.9822283,67
1660211654.90282,1531020.9822303,77
1660211654.90282,1531021.6156492,88
1660211654.90282,1531021.6156624,105
1660211654.90282,1531021.6156671,119
1660211654.90282,1531021.6156703,95
1660211654.90282,1531021.6156731,91
1660211654.90282,1531021.615676,149
1660211654.90282,1531021.6156783,149
1660211654.90282,1531021.6156805,81
1660211654.90282,1531021.6156826,93
1660211654.90282,1531021.6156847,128
1660211654.90282,1531021.6156869,91
1660211655.48004,1531021.6156889,56
1660211655.48004,1531021.6156916,60
1660211655.48004,1531021.6156942,65
1660211655.48004,1531021.6156968,46
1660211655.48004,1531021.6157,23
1660211655.48004,1531021.6157023,18
1660211655.48004,1531021.6157049,23
1660211655.48004,1531021.6157076,63
1660211655.48004,1531021.6157101,79
1660211655.48004,1531021.6157127,32
1660211655.48004,1531021.6157153,119
1660211655.48004,1531021.6157178,439
1660211655.48004,1531021.6157205,724
1660211655.48004,1531021.6157231,481
1660211655.48004,1531021.6157256,-256
1660211655.48004,1531021.6157301,-565
1660211655.48004,1531021.615735,-193
1660211655.48004,1531021.6157398,56
1660211655.48004,1531021.6157445,18
1660211655.48004,1531021.6157496,63
1660211655.48004,1531021.6157546,133
1660211655.48004,1531021.6157596,107
1660211655.48004,1531021.6157618,98
1660211655.48004,1531021.615764,140
1660211655.48004,1531021.615766,161
1660211655.48004,1531021.615768,142
1660211655.48004,1531021.6157699,121
1660211655.48004,1531021.6157719,100
1660211655.48004,1531021.615774,98
1660211655.48004,1531021.615776,140
1660211655.48004,1531021.6157779,156
1660211655.48004,1531021.6157799,133
1660211655.48004,1531021.6157819,156
1660211655.48004,1531021.6157839,165
1660211655.48004,1531021.6157861,119
1660211655.48004,1531021.6157881,119
1660211655.48004,1531021.6157901,168
1660211655.48004,1531021.6157921,170
1660211655.48004,1531021.615794,165
1660211655.48004,1531021.615796,212
1660211655.48004,1531021.6157979,217
1660211655.48004,1531021.6157999,207
1660211655.48004,1531021.615802,219
1660211655.48004,1531021.615804,200
1660211655.48004,1531021.615806,182
1660211655.48004,1531021.615808,186
1660211655.48004,1531021.61581,179
1660211655.48004,1531021.6158119,168
1660211655.48004,1531021.615814,151
1660211655.48004,1531021.6158161,116
1660211655.49201,1531021.615823,91
1660211655.49201,1531021.615834,86
1660211655.49201,1531021.6158368,84
1660211655.49201,1531021.6158389,67
1660211655.49201,1531021.615841,53
1660211655.49201,1531021.6158487,53
1660211655.49201,1531021.6158594,79
1660211655.49201,1531021.6158619,102
1660211655.49201,1531021.615864,49
1660211655.49201,1531021.6158665,2
1660211655.49201,1531021.6158761,70
1660211655.49201,1531021.6158873,95
1660211655.49201,1531022.2024872,32
1660211655.49201,1531022.2025007,51
1660211655.49201,1531022.2025038,105
1660211655.49201,1531022.2025062,84
1660211655.49201,1531022.2025083,65
1660211655.49201,1531022.2025103,79
1660211655.49201,1531022.2025124,77
1660211655.49201,1531022.2025144,74
1660211655.49201,1531022.2025164,70
1660211655.49201,1531022.2025185,35
1660211655.49201,1531022.2025205,9
1660211655.49201,1531022.2025225,37
1660211655.91363,1531022.2025245,74
1660211655.91363,1531022.2025265,60
1660211655.91363,1531022.2025284,30
1660211655.91363,1531022.2025303,39
1660211655.91363,1531022.2025322,51
1660211655.91363,1531022.202534,30
1660211655.91363,1531022.202536,23
1660211655.91363,1531022.2025399,35
1660211655.91363,1531022.202542,-9
1660211655.91363,1531022.2025441,-60
1660211655.91363,1531022.202549,-14
1660211655.91363,1531022.2025561,42
1660211655.91363,1531022.2025635,25
1660211655.91363,1531022.2025724,18
1660211655.91363,1531022.2025771,37
1660211655.91363,1531022.2025806,39
1660211655.91363,1531022.2025843,37
1660211655.91363,1531022.2025877,39
1660211655.91363,1531022.2025908,49
1660211655.91363,1531022.2025939,79
1660211655.91363,1531022.2025978,63
1660211655.91363,1531022.2026011,-46
1660211655.91363,1531022.202605,-95
1660211655.91363,1531022.2026087,9
1660211655.91363,1531022.2026193,67
1660211655.91363,1531022.2026258,-9
1660211655.91363,1531022.2026303,-53
1660211655.91363,1531022.2026342,-7
1660211655.91363,1531022.2026381,18
1660211655.91363,1531022.202642,16
1660211655.91363,1531022.2026461,25
1660211655.91363,1531022.2026924,44
1660211655.91363,1531022.2026987,140
1660211655.91363,1531022.2027052,380
1660211655.91363,1531022.2027103,560
1660211655.91363,1531022.2027181,240
1660211655.91363,1531022.2027247,-390
1660211655.91363,1531022.2027283,-462
1660211655.91363,1531022.2027339,-51
1660211655.91363,1531022.2027403,77
1660211655.91363,1531022.2027459,-2
1660211655.91363,1531022.2027512,63
1660211655.91363,1531022.2027596,135
1660211655.91363,1531022.2027666,107
1660211655.91363,1531022.2027714,67
1660211655.91363,1531022.2027751,67
1660211655.91363,1531022.2027817,105
1660211655.91363,1531022.2027866,154
1660211655.91363,1531022.2027897,172
1660211655.91363,1531022.202793,135
1660211655.9246,1531022.2027963,102
1660211655.9246,1531022.2027995,123
1660211655.9246,1531022.2028029,156
1660211655.9246,1531022.2028062,158
1660211655.9246,1531022.20281,154
1660211655.9246,1531022.2028145,168
1660211655.9246,1531022.2028206,182
1660211655.9246,1531022.202824,165
1660211655.9246,1531022.2028292,144
1660211655.9246,1531022.2028328,165
1660211655.9246,1531022.2028408,207
1660211655.9246,1531022.6393962,224
1660211655.9246,1531022.6394131,214
1660211655.9246,1531022.6394177,214
1660211655.9246,1531022.6394221,219
1660211655.9246,1531022.6394263,214
1660211655.9246,1531022.6394299,212
1660211655.9246,1531022.6394334,198
1660211655.9246,1531022.639437,161
1660211655.9246,1531022.6394406,154
1660211655.9246,1531022.6394443,177
1660211655.9246,1531022.639448,154
1660211655.9246,1531022.6394517,112
1660211655.9246,1531022.6394554,126
1660211656.5955,1531022.6394594,133
1660211656.5955,1531022.6394631,84
1660211656.5955,1531022.6394669,37
1660211656.5955,1531022.6394705,39
1660211656.5955,1531022.639474,58
1660211656.5955,1531022.6394776,58
1660211656.5955,1531022.6394816,60
1660211656.5955,1531022.6394863,65
1660211656.5955,1531022.6394901,46
1660211656.5955,1531022.639493,58
1660211656.5955,1531022.6394959,98
1660211656.5955,1531022.6395004,81
1660211656.5955,1531022.6395052,56
1660211656.5955,1531022.6395107,60
1660211656.5955,1531022.639514,53
1660211656.5955,1531022.6395191,42
1660211656.5955,1531022.6395231,53
1660211656.5955,1531022.6395279,70
1660211656.5955,1531022.6395341,70
1660211656.5955,1531022.6395432,42
1660211656.5955,1531022.6395513,0
1660211656.5955,1531022.6395605,9
1660211656.5955,1531022.6395722,35
1660211656.5955,1531022.63958,28
1660211656.5955,1531022.6395888,23
1660211656.5955,1531022.6396003,37
1660211656.5955,1531022.6396151,37
1660211656.5955,1531022.6396261,30
1660211656.5955,1531022.6396368,37
1660211656.5955,1531022.6396413,56
1660211656.5955,1531022.6396435,67
1660211656.5955,1531022.6396456,42
1660211656.5955,1531022.6396483,-9
1660211656.5955,1531022.6396564,2
1660211656.5955,1531022.6396653,56
1660211656.5955,1531022.6396695,60
1660211656.5955,1531022.6396732,51
1660211656.5955,1531022.639677,72

1660211656.5955,1531022.6396807,81
1660211656.5955,1531022.6396844,63
1660211656.5955,1531022.639688,70
1660211656.5955,1531022.6396916,100
1660211656.5955,1531022.639695,70
1660211656.5955,1531022.6396987,9
1660211656.5955,1531022.6397027,23
1660211656.5955,1531022.6397083,46
1660211656.5955,1531022.639712,9
1660211656.5955,1531022.6397158,0
1660211656.5955,1531022.6397218,35
1660211656.5955,1531022.6397258,39
1660211656.60647,1531022.6397296,35
1660211656.60647,1531022.6397335,49
1660211656.60647,1531022.6397374,56
1660211656.60647,1531022.6397412,63
1660211656.60647,1531022.6397451,116
1660211656.60647,1531022.6397578,310
1660211656.60647,1531022.6397617,534
1660211656.60647,1531022.6397656,364
1660211656.60647,1531022.6397697,-231
1660211656.60647,1531022.6397738,-478
1660211656.60647,1531023.3218851,-144
1660211656.60647,1531023.3219012,84
1660211656.60647,1531023.3219059,58
1660211656.60647,1531023.3219116,95
1660211656.60647,1531023.3219192,128
1660211656.60647,1531023.3219245,60
1660211656.60647,1531023.3219277,39
1660211656.60647,1531023.3219331,88
1660211656.60647,1531023.3219705,102
1660211656.60647,1531023.3219826,91
1660211656.60647,1531023.3219876,105
1660211656.60647,1531023.3219915,116
1660211656.60647,1531023.3219957,91
1660211656.60647,1531023.3220022,67
1660211657.08475,1531023.3220063,88
1660211657.08475,1531023.3220099,116
1660211657.08475,1531023.3220137,119
1660211657.08475,1531023.3220173,121
1660211657.08475,1531023.322021,126
1660211657.08475,1531023.3220252,123
1660211657.08475,1531023.322029,126
1660211657.08475,1531023.3220324,140
1660211657.08475,1531023.3220359,151
1660211657.08475,1531023.3220393,161
1660211657.08475,1531023.3220435,170
1660211657.08475,1531023.322047,161
1660211657.08475,1531023.3220503,154
1660211657.08475,1531023.3220537,168
1660211657.08475,1531023.3220571,175
1660211657.08475,1531023.3220604,163
1660211657.08475,1531023.3220638,151
1660211657.08475,1531023.3220671,154
1660211657.08475,1531023.3220706,158
1660211657.08475,1531023.3220744,144
1660211657.08475,1531023.3220781,130
1660211657.08475,1531023.3220817,114
1660211657.08475,1531023.3220853,84
1660211657.08475,1531023.3220891,79
1660211657.08475,1531023.3220926,86
1660211657.08475,1531023.3220961,86
1660211657.08475,1531023.3221009,86
1660211657.08475,1531023.3221044,86
1660211657.08475,1531023.3221084,72
1660211657.08475,1531023.322114,65
1660211657.08475,1531023.3221176,81
1660211657.08475,1531023.3221235,100
1660211657.08475,1531023.3221274,107
1660211657.08475,1531023.3221329,114
1660211657.08475,1531023.3221379,126
1660211657.08475,1531023.3221431,126
1660211657.08475,1531023.3221467,105
1660211657.08475,1531023.3221511,100
1660211657.08475,1531023.3221549,116
1660211657.08475,1531023.3221605,121
1660211657.08475,1531023.3221641,109
1660211657.08475,1531023.3221696,105
1660211657.08475,1531023.3221735,109
1660211657.08475,1531023.3221792,109
1660211657.08475,1531023.3221833,121
1660211657.08475,1531023.322189,135
1660211657.08475,1531023.3221932,142
1660211657.08475,1531023.3221985,133
1660211657.08475,1531023.3222025,98
1660211657.08475,1531023.3222062,84
1660211657.09472,1531023.3222095,116
1660211657.09472,1531023.3222127,123
1660211657.09472,1531023.3222161,100
1660211657.09472,1531023.3222194,102
1660211657.09472,1531023.3222227,121
1660211657.09472,1531023.3222259,116
1660211657.09472,1531023.3222293,102
1660211657.09472,1531023.3222343,98
1660211657.09472,1531023.3222401,91
1660211657.09472,1531023.8098534,79
1660211657.09472,1531023.8098685,93
1660211657.09472,1531023.8098725,102
1660211657.09472,1531023.8098776,95
1660211657.09472,1531023.8098812,107
1660211657.09472,1531023.8098846,140
1660211657.09472,1531023.809888,161
1660211657.09472,1531023.8098916,151
1660211657.09472,1531023.809895,137
1660211657.09472,1531023.8098984,109
1660211657.09472,1531023.8099031,84
1660211657.09472,1531023.8099063,114
1660211657.09472,1531023.8099094,126
1660211657.09472,1531023.8099122,67
1660211657.09472,1531023.809915,16
1660211657.67379,1531023.8099178,9
1660211657.67379,1531023.8099217,18
1660211657.67379,1531023.8099281,25
1660211657.67379,1531023.8099346,4
1660211657.67379,1531023.8099411,-18
1660211657.67379,1531023.8099478,0
1660211657.67379,1531023.8099543,4
1660211657.67379,1531023.8099575,-28
1660211657.67379,1531023.8099619,32
1660211657.67379,1531023.8099654,263
1660211657.67379,1531023.8099688,565
1660211657.67379,1531023.8099722,565
1660211657.67379,1531023.8099757,-46
1660211657.67379,1531023.8099791,-609
1660211657.67379,1531023.8099826,-397
1660211657.67379,1531023.8099861,-16
1660211657.67379,1531023.8099895,0
1660211657.67379,1531023.809993,-21
1660211657.67379,1531023.8099964,42
1660211657.67379,1531023.8099999,51
1660211657.67379,1531023.8100034,42
1660211657.67379,1531023.8100068,49
1660211657.67379,1531023.8100103,60
1660211657.67379,1531023.8100138,74
1660211657.67379,1531023.8100173,74
1660211657.67379,1531023.8100208,60
1660211657.67379,1531023.8100242,74
1660211657.67379,1531023.8100276,121
1660211657.67379,1531023.8100311,126
1660211657.67379,1531023.8100345,88
1660211657.67379,1531023.810038,86
1660211657.67379,1531023.8100414,114
1660211657.67379,1531023.8100449,121
1660211657.67379,1531023.8100485,126
1660211657.67379,1531023.810052,144
1660211657.67379,1531023.8100576,175
1660211657.67379,1531023.8100612,203
1660211657.67379,1531023.8100663,186
1660211657.67379,1531023.8100699,156
1660211657.67379,1531023.8100752,170
1660211657.67379,1531023.8100809,207
1660211657.67379,1531023.8100862,210
1660211657.67379,1531023.8100898,179
1660211657.67379,1531023.8100946,177
1660211657.67379,1531023.8101,184
1660211657.67379,1531023.810114,168
1660211657.67379,1531023.810124,161
1660211657.67379,1531023.8101304,170
1660211657.67379,1531023.810141,140
1660211657.67379,1531023.8101518,91
1660211657.68476,1531023.8101595,84
1660211657.68476,1531023.810169,77
1660211657.68476,1531023.8101738,44
1660211657.68476,1531023.8101801,58
1660211657.68476,1531023.8101852,93
1660211657.68476,1531023.810192,79
1660211657.68476,1531023.8101969,56
1660211657.68476,1531023.8102059,63
1660211657.68476,1531024.394058,65
1660211657.68476,1531024.3940798,58
1660211657.68476,1531024.3940949,56
1660211657.68476,1531024.3941045,63
1660211657.68476,1531024.3941071,79
1660211657.68476,1531024.3941093,84
1660211657.68476,1531024.3941113,79
1660211657.68476,1531024.3941134,79
1660211657.68476,1531024.3941156,77
1660211657.68476,1531024.3941222,84
1660211657.68476,1531024.394134,88
1660211657.68476,1531024.3941449,70
1660211657.68476,1531024.3941584,39
1660211657.68476,1531024.3941716,37
1660211657.68476,1531024.3941851,56
1660211657.68476,1531024.3941989,67
1660211658.20569,1531024.3942117,65
1660211658.20569,1531024.3942196,39
1660211658.20569,1531024.3942269,-4
1660211658.20569,1531024.394234,-4
1660211658.20569,1531024.3942421,30
1660211658.20569,1531024.3942492,21
1660211658.20569,1531024.3942534,-11
1660211658.20569,1531024.3942635,-11
1660211658.20569,1531024.3942741,4
1660211658.20569,1531024.3942775,18
1660211658.20569,1531024.3942812,44
1660211658.20569,1531024.3942833,72
1660211658.20569,1531024.3942854,79
1660211658.20569,1531024.3942897,72
1660211658.20569,1531024.3942931,70
1660211658.20569,1531024.3943063,58
1660211658.20569,1531024.3943166,35
1660211658.20569,1531024.3943252,11
1660211658.20569,1531024.394329,7
1660211658.20569,1531024.3943325,16
1660211658.20569,1531024.3943395,18
1660211658.20569,1531024.394347,14
1660211658.20569,1531024.3943539,18
1660211658.20569,1531024.3943626,30
1660211658.20569,1531024.3943709,30
1660211658.20569,1531024.3943821,32
1660211658.20569,1531024.3943928,35
1660211658.20569,1531024.3944024,30
1660211658.20569,1531024.394409,70
1660211658.20569,1531024.3944122,247
1660211658.20569,1531024.394425,553
1660211658.20569,1531024.394438,646
1660211658.20569,1531024.3944505,84
1660211658.20569,1531024.3944618,-590
1660211658.20569,1531024.3944747,-460
1660211658.20569,1531024.3944814,-11
1660211658.20569,1531024.3944837,28
1660211658.20569,1531024.3944859,-7
1660211658.20569,1531024.3944923,88
1660211658.20569,1531024.3945048,98
1660211658.20569,1531024.3945128,53
1660211658.20569,1531024.3945201,63
1660211658.20569,1531024.3945326,77
1660211658.20569,1531024.3945399,72
1660211658.20569,1531024.394545,70
1660211658.20569,1531024.3945577,77
1660211658.20569,1531024.3945667,86
1660211658.20569,1531024.3945757,93
1660211658.20569,1531024.394585,98
1660211658.20569,1531024.3945922,107
1660211658.21666,1531024.3946001,114
1660211658.21666,1531024.3946107,119
1660211658.21666,1531024.3946141,128
1660211658.21666,1531024.3946177,151
1660211658.21666,1531024.3946198,177
1660211658.21666,1531024.3946218,163
1660211658.21666,1531024.3946299,130
1660211658.21666,1531024.9320314,147
1660211658.21666,1531024.9320507,172
1660211658.21666,1531024.9320596,170
1660211658.21666,1531024.9320649,170
1660211658.21666,1531024.9320705,182
1660211658.21666,1531024.9320742,184
1660211658.21666,1531024.9320777,186
1660211658.21666,1531024.9320848,175
1660211658.21666,1531024.9320902,135
1660211658.21666,1531024.9320962,112
1660211658.21666,1531024.9321014,123
1660211658.21666,1531024.9321105,135
1660211658.21666,1531024.9321195,119
1660211658.21666,1531024.9321262,86
1660211658.21666,1531024.9321335,51
1660211658.21666,1531024.9321395,23
1660211658.21666,1531024.9321521,14
1660211658.7398,1531024.9321612,21
1660211658.7398,1531024.9321678,30
1660211658.7398,1531024.9322048,35
1660211658.7398,1531024.9322104,23
1660211658.7398,1531024.9322147,14
1660211658.7398,1531024.9322193,23
1660211658.7398,1531024.9322264,18
1660211658.7398,1531024.9322308,-2
1660211658.7398,1531024.9322359,30
1660211658.7398,1531024.9322419,72
1660211658.7398,1531024.9322455,53
1660211658.7398,1531024.9322511,42
1660211658.7398,1531024.9322555,72
1660211658.7398,1531024.9322732,79
1660211658.7398,1531024.9322824,67
1660211658.7398,1531024.9322862,77
1660211658.7398,1531024.9322896,91
1660211658.7398,1531024.9322929,93
1660211658.7398,1531024.9322961,72
1660211658.7398,1531024.9322995,49
1660211658.7398,1531024.9323028,51
1660211658.7398,1531024.932306,70
1660211658.7398,1531024.9323115,88
1660211658.7398,1531024.9323151,91
1660211658.7398,1531024.9323191,84
1660211658.7398,1531024.9323233,81
1660211658.7398,1531024.9323266,65
1660211658.7398,1531024.9323309,53
1660211658.7398,1531024.9323343,63
1660211658.7398,1531024.9323379,72
1660211658.7398,1531024.9323421,77
1660211658.7398,1531024.9323462,81
1660211658.7398,1531024.9323497,74
1660211658.7398,1531024.9323548,70
1660211658.7398,1531024.932359,70
1660211658.7398,1531024.9323627,53
1660211658.7398,1531024.9323685,35
1660211658.7398,1531024.9323724,35
1660211658.7398,1531024.932377,44
1660211658.7398,1531024.9323806,53
1660211658.7398,1531024.9323841,58
1660211658.7398,1531024.9323875,63
1660211658.7398,1531024.9323915,84
1660211658.7398,1531024.9323947,126
1660211658.7398,1531024.9323975,130
1660211658.7398,1531024.9324006,79
1660211658.7398,1531024.9324045,60
1660211658.7398,1531024.9324075,93
1660211658.7398,1531024.9324106,81
1660211658.7398,1531024.9324142,28
1660211658.74977,1531024.9324174,-4
1660211658.74977,1531024.9324205,7
1660211658.74977,1531024.9324236,25
1660211658.74977,1531024.9324266,16
1660211658.74977,1531024.9324297,0
1660211658.74977,1531024.932433,7
1660211658.74977,1531025.4676764,14
1660211658.74977,1531025.4676965,14
1660211658.74977,1531025.4677033,23
1660211658.74977,1531025.4677056,28
1660211658.74977,1531025.4677076,14
1660211658.74977,1531025.4677096,46
1660211658.74977,1531025.4677116,189
1660211658.74977,1531025.4677138,401
1660211658.74977,1531025.4677157,422
1660211658.74977,1531025.4677179,-46
1660211658.74977,1531025.4677208,-534
1660211658.74977,1531025.4677302,-385
1660211658.74977,1531025.4677382,-30
1660211658.74977,1531025.4677423,4
1660211658.74977,1531025.467748,-28
1660211658.74977,1531025.4677539,35
1660211658.74977,1531025.4677594,49
1660211658.74977,1531025.4677634,14
1660211659.28217,1531025.4677674,11
1660211659.28217,1531025.4677714,53
1660211659.28217,1531025.4677754,77
1660211659.28217,1531025.4677793,37
1660211659.28217,1531025.4677823,7
1660211659.28217,1531025.4677862,32
1660211659.28217,1531025.4677897,51
1660211659.28217,1531025.4677946,58
1660211659.28217,1531025.4678008,93
1660211659.28217,1531025.4678052,114
1660211659.28217,1531025.467811,114
1660211659.28217,1531025.4678157,121
1660211659.28217,1531025.4678212,128
1660211659.28217,1531025.467827,137
1660211659.28217,1531025.4678329,158
1660211659.28217,1531025.4678416,177
1660211659.28217,1531025.4678481,186
1660211659.28217,1531025.4678564,191
1660211659.28217,1531025.4678624,191
1660211659.28217,1531025.467871,198
1660211659.28217,1531025.4678755,203
1660211659.28217,1531025.4678812,198
1660211659.28217,1531025.4678849,200
1660211659.28217,1531025.4678911,210
1660211659.28217,1531025.4678966,217
1660211659.28217,1531025.4679029,203
1660211659.28217,1531025.4679085,165
1660211659.28217,1531025.4679154,133
1660211659.28217,1531025.4679186,126
1660211659.28217,1531025.4679215,140
1660211659.28217,1531025.4679243,130
1660211659.28217,1531025.4679272,88
1660211659.28217,1531025.4679302,77
1660211659.28217,1531025.467933,95
1660211659.28217,1531025.467936,95
1660211659.28217,1531025.4679387,88
1660211659.28217,1531025.4679415,91
1660211659.28217,1531025.4679443,93
1660211659.28217,1531025.4679473,91
1660211659.28217,1531025.4679501,79
1660211659.28217,1531025.4679528,79
1660211659.28217,1531025.4679556,100
1660211659.28217,1531025.4679587,126
1660211659.28217,1531025.4679615,135
1660211659.28217,1531025.4679643,105
1660211659.28217,1531025.4679674,67
1660211659.28217,1531025.4679719,98
1660211659.28217,1531025.4679818,130
1660211659.28217,1531025.4679858,105
1660211659.28217,1531025.4679968,105
1660211659.29414,1531025.4680038,130
1660211659.29414,1531025.4680068,114
1660211659.29414,1531025.468009,91
1660211659.29414,1531025.468011,102
1660211659.29414,1531025.4680156,128
1660211659.29414,1531026.0030644,137
1660211659.29414,1531026.0030895,133
1660211659.29414,1531026.0031035,116
1660211659.29414,1531026.0031137,98
1660211659.29414,1531026.0031225,79
1660211659.29414,1531026.00313,67
1660211659.29414,1531026.0031377,70
1660211659.29414,1531026.0031453,70
1660211659.29414,1531026.0031527,56
1660211659.29414,1531026.0031552,60
1660211659.29414,1531026.0031594,65
1660211659.29414,1531026.003162,28
1660211659.29414,1531026.0031641,18
1660211659.29414,1531026.0031661,39
1660211659.29414,1531026.0031681,16
1660211659.29414,1531026.0031703,-21
1660211659.29414,1531026.0031723,-16
1660211659.29414,1531026.0031743,-4
1660211659.29414,1531026.0031767,16
1660211659.86679,1531026.0031844,63
1660211659.86679,1531026.003194,44
1660211659.86679,1531026.0032029,-25
1660211659.86679,1531026.0032086,-4
1660211659.86679,1531026.0032128,53
1660211659.86679,1531026.0032178,18
1660211659.86679,1531026.0032235,-32
1660211659.86679,1531026.0032308,-14
1660211659.86679,1531026.0032396,2
1660211659.86679,1531026.0032461,-9
1660211659.86679,1531026.0032492,-2
1660211659.86679,1531026.0032513,11
1660211659.86679,1531026.0032533,21
1660211659.86679,1531026.0032553,32
1660211659.86679,1531026.0032573,30
1660211659.86679,1531026.0032594,21
1660211659.86679,1531026.0032616,25
1660211659.86679,1531026.0032636,51
1660211659.86679,1531026.0032656,189
1660211659.86679,1531026.0032677,490
1660211659.86679,1531026.0032698,667
1660211659.86679,1531026.0032718,233
1660211659.86679,1531026.0032739,-471
1660211659.86679,1531026.003276,-513
1660211659.86679,1531026.0032781,-88
1660211659.86679,1531026.0032802,39
1660211659.86679,1531026.0032821,16
1660211659.86679,1531026.0032842,98
1660211659.86679,1531026.0032862,93
1660211659.86679,1531026.0032882,65
1660211659.86679,1531026.0032902,119
1660211659.86679,1531026.0032923,112
1660211659.86679,1531026.0032943,63
1660211659.86679,1531026.0032964,77
1660211659.86679,1531026.0032984,105
1660211659.86679,1531026.0033004,91
1660211659.86679,1531026.0033025,88
1660211659.86679,1531026.0033045,119
1660211659.86679,1531026.0033066,128
1660211659.86679,1531026.0033087,116
1660211659.86679,1531026.0033107,140
1660211659.86679,1531026.0033129,161
1660211659.86679,1531026.003315,158
1660211659.86679,1531026.003317,170
1660211659.86679,1531026.0033191,189
1660211659.86679,1531026.0033211,193
1660211659.86679,1531026.0033231,210
1660211659.86679,1531026.0033252,226
1660211659.86679,1531026.0033272,224
1660211659.86679,1531026.0033294,226
1660211659.87776,1531026.0033314,214
1660211659.87776,1531026.0033334,191
1660211659.87776,1531026.0033354,182
1660211659.87776,1531026.0033375,184
1660211659.87776,1531026.5885776,193
1660211659.87776,1531026.5885975,193
1660211659.87776,1531026.5886072,175
1660211659.87776,1531026.5886145,154
1660211659.87776,1531026.5886233,119
1660211659.87776,1531026.588628,72
1660211659.87776,1531026.5886415,53
1660211659.87776,1531026.5886519,56
1660211659.87776,1531026.5886587,51
1660211659.87776,1531026.5886707,37
1660211659.87776,1531026.5886811,4
1660211659.87776,1531026.5886887,-30
1660211659.87776,1531026.5887001,-39
1660211659.87776,1531026.5887101,-18
1660211659.87776,1531026.588717,23
1660211659.87776,1531026.5887292,53
1660211659.87776,1531026.5887379,44
1660211659.87776,1531026.5887466,28
1660211659.87776,1531026.5887606,35
1660211659.87776,1531026.5887702,49
1660211660.44869,1531026.5887761,53
1660211660.44869,1531026.5887861,49
1660211660.44869,1531026.5887933,56
1660211660.44869,1531026.5888034,65
1660211660.44869,1531026.5888097,60
1660211660.44869,1531026.5888152,56
1660211660.44869,1531026.5888205,53
1660211660.44869,1531026.588825,51
1660211660.44869,1531026.5888282,53
1660211660.44869,1531026.5888341,67
1660211660.44869,1531026.5888371,72
1660211660.44869,1531026.5888401,56
1660211660.44869,1531026.5888432,49
1660211660.44869,1531026.5888463,60
1660211660.44869,1531026.5888495,65
1660211660.44869,1531026.5888525,58
1660211660.44869,1531026.5888555,56
1660211660.44869,1531026.5888585,56
1660211660.44869,1531026.5888696,58
1660211660.44869,1531026.5888808,46
1660211660.44869,1531026.5888899,35
1660211660.44869,1531026.5889019,37
1660211660.44869,1531026.5889127,32
1660211660.44869,1531026.5889208,30
1660211660.44869,1531026.5889333,63
1660211660.44869,1531026.5889432,93
1660211660.44869,1531026.5889502,65
1660211660.44869,1531026.5889625,32
1660211660.44869,1531026.5889714,60
1660211660.44869,1531026.5889794,98
1660211660.44869,1531026.58899,88
1660211660.44869,1531026.5889989,58
1660211660.44869,1531026.5890077,46
1660211660.44869,1531026.5890197,49
1660211660.44869,1531026.5890276,51
1660211660.44869,1531026.5890322,56
1660211660.44869,1531026.5890358,60
1660211660.44869,1531026.5890493,53
1660211660.44869,1531026.5890619,35
1660211660.44869,1531026.5890749,25
1660211660.44869,1531026.5890879,39
1660211660.44869,1531026.5891007,49
1660211660.44869,1531026.5891136,46
1660211660.44869,1531026.5891265,135
1660211660.44869,1531026.5891395,390
1660211660.44869,1531026.5891526,658
1660211660.44869,1531026.5891656,460
1660211660.44869,1531026.5891788,-240
1660211660.44869,1531026.5891916,-527
1660211660.44869,1531026.5892104,-163
1660211660.45966,1531026.5892235,53
1660211660.45966,1531026.5892364,23
1660211660.45966,1531026.5892448,91
1660211660.45966,1531027.175532,137
1660211660.45966,1531027.1755483,93
1660211660.45966,1531027.1755533,91
1660211660.45966,1531027.1755585,121
1660211660.45966,1531027.1755619,121
1660211660.45966,1531027.1755662,123
1660211660.45966,1531027.1755714,135
1660211660.45966,1531027.1755756,133
1660211660.45966,1531027.1755804,109
1660211660.45966,1531027.1755836,77
1660211660.45966,1531027.1755885,93
1660211660.45966,1531027.1755934,156
1660211660.45966,1531027.1755965,172
1660211660.45966,1531027.1755999,135
1660211660.45966,1531027.1756032,114
1660211660.45966,1531027.1756066,116
1660211660.45966,1531027.17561,128
1660211660.45966,1531027.1756143,140
1660211660.45966,1531027.1756214,151
1660211660.45966,1531027.1756256,151
1660211660.45966,1531027.1756319,154
1660211661.03789,1531027.1756375,170
1660211661.03789,1531027.175642,182
1660211661.03789,1531027.1756472,184
1660211661.03789,1531027.1756514,179
1660211661.03789,1531027.1756561,156
1660211661.03789,1531027.1756597,142
1660211661.03789,1531027.1756632,144
1660211661.03789,1531027.1756676,144
1660211661.03789,1531027.1756721,135
1660211661.03789,1531027.1756756,112
1660211661.03789,1531027.1756789,70
1660211661.03789,1531027.1756825,44
1660211661.03789,1531027.1756861,84
1660211661.03789,1531027.1756919,140
1660211661.03789,1531027.1756975,100
1660211661.03789,1531027.1757011,23
1660211661.03789,1531027.1757075,23
1660211661.03789,1531027.1757113,46
1660211661.03789,1531027.1757162,39
1660211661.03789,1531027.1757216,42
1660211661.03789,1531027.175725,63
1660211661.03789,1531027.1757283,74
1660211661.03789,1531027.1757316,79
1660211661.03789,1531027.1757349,81
1660211661.03789,1531027.1757381,77
1660211661.03789,1531027.1757414,63
1660211661.03789,1531027.1757448,58
1660211661.03789,1531027.1757482,74
1660211661.03789,1531027.1757515,79
1660211661.03789,1531027.1757548,79
1660211661.03789,1531027.1757581,84
1660211661.03789,1531027.1757614,70
1660211661.03789,1531027.1757647,63
1660211661.03789,1531027.1757681,77
1660211661.03789,1531027.1757714,72
1660211661.03789,1531027.1757746,56
1660211661.03789,1531027.1757787,53
1660211661.03789,1531027.1757835,60
1660211661.03789,1531027.1757869,65
1660211661.03789,1531027.1757916,65
1660211661.03789,1531027.1757948,56
1660211661.03789,1531027.1757981,44
1660211661.03789,1531027.175803,53
1660211661.03789,1531027.1758078,74
1660211661.03789,1531027.1758118,81
1660211661.03789,1531027.1758156,63
1660211661.03789,1531027.1758202,51
1660211661.03789,1531027.1758236,63
1660211661.03789,1531027.1758268,60
1660211661.03789,1531027.1758301,39
1660211661.04886,1531027.1758334,35
1660211661.04886,1531027.1758368,35
1660211661.04886,1531027.7588615,28
1660211661.04886,1531027.7588809,30
1660211661.04886,1531027.7589316,49
1660211661.04886,1531027.7589452,70
1660211661.04886,1531027.758955,77
1660211661.04886,1531027.7589575,93
1660211661.04886,1531027.7589597,100
1660211661.04886,1531027.7589618,93
1660211661.04886,1531027.7589639,84
1660211661.04886,1531027.758966,86
1660211661.04886,1531027.7589681,70
1660211661.04886,1531027.75897,28
1660211661.04886,1531027.7589737,-2
1660211661.04886,1531027.7589857,-9
1660211661.04886,1531027.7589967,-4
1660211661.04886,1531027.7590037,9
1660211661.04886,1531027.7590113,23
1660211661.04886,1531027.7590483,21
1660211661.04886,1531027.759053,9
1660211661.04886,1531027.7590551,18
1660211661.04886,1531027.7590586,30
1660211661.04886,1531027.759069,16
1660211661.61634,1531027.7590804,9
1660211661.61634,1531027.7590832,70
1660211661.61634,1531027.7590896,247
1660211661.61634,1531027.7591,483
1660211661.61634,1531027.7591123,378
1660211661.61634,1531027.7591264,-210
1660211661.61634,1531027.7591373,-532
1660211661.61634,1531027.7591452,-235
1660211661.61634,1531027.7591535,11
1660211661.61634,1531027.7591604,-16
1660211661.61634,1531027.759171,-2
1660211661.61634,1531027.7591767,44
1660211661.61634,1531027.7591789,35
1660211661.61634,1531027.7591811,49
1660211661.61634,1531027.759191,81
1660211661.61634,1531027.7592031,81
1660211661.61634,1531027.759215,79
1660211661.61634,1531027.7592269,88
1660211661.61634,1531027.7592326,95
1660211661.61634,1531027.7592421,95
1660211661.61634,1531027.7592546,86
1660211661.61634,1531027.7592635,84
1660211661.61634,1531027.7592661,93
1660211661.61634,1531027.7592683,98
1660211661.61634,1531027.7592703,119
1660211661.61634,1531027.7592724,151
1660211661.61634,1531027.7592745,151
1660211661.61634,1531027.7592819,137
1660211661.61634,1531027.7592947,149
1660211661.61634,1531027.7593064,163
1660211661.61634,1531027.759321,175
1660211661.61634,1531027.759334,189
1660211661.61634,1531027.7593463,198
1660211661.61634,1531027.7593558,203
1660211661.61634,1531027.7593639,210
1660211661.61634,1531027.7593725,196
1660211661.61634,1531027.7593777,154
1660211661.61634,1531027.7593997,156
1660211661.61634,1531027.7594052,200
1660211661.61634,1531027.7594082,212
1660211661.61634,1531027.7594113,172
1660211661.61634,1531027.7594142,128
1660211661.61634,1531027.7594182,116
1660211661.61634,1531027.7594227,119
1660211661.61634,1531027.7594268,100
1660211661.61634,1531027.7594304,72
1660211661.61634,1531027.7594337,51
1660211661.61634,1531027.7594371,56
1660211661.61634,1531027.7594405,65
1660211661.61634,1531027.7594437,63
1660211661.62632,1531027.7594478,72
1660211661.62632,1531028.3438002,98
1660211661.62632,1531028.3438223,100
1660211661.62632,1531028.3438334,67
1660211661.62632,1531028.3438368,51
1660211661.62632,1531028.3438415,70
1660211661.62632,1531028.343845,81
1660211661.62632,1531028.3438483,77
1660211661.62632,1531028.3438515,70
1660211661.62632,1531028.3438542,42
1660211661.62632,1531028.3438571,25
1660211661.62632,1531028.3438602,53
1660211661.62632,1531028.3438643,88
1660211661.62632,1531028.3438681,98
1660211661.62632,1531028.3438718,65
1660211661.62632,1531028.3438763,9
1660211661.62632,1531028.3438804,-9
1660211661.62632,1531028.3438901,11
1660211661.62632,1531028.3438935,9
1660211661.62632,1531028.3438969,-7
1660211661.62632,1531028.3439002,-2
1660211661.62632,1531028.3439033,4
1660211661.62632,1531028.3439063,-16
1660211661.62632,1531028.3439096,-35
1660211662.10495,1531028.343913,-28
1660211662.10495,1531028.3439162,-37
1660211662.10495,1531028.3439195,-28
1660211662.10495,1531028.3439228,35
1660211662.10495,1531028.343927,28
1660211662.10495,1531028.3439325,-18
1660211662.10495,1531028.3439382,0
1660211662.10495,1531028.3439425,18
1660211662.10495,1531028.3439482,4
1660211662.10495,1531028.3439546,9
1660211662.10495,1531028.3439609,14
1660211662.10495,1531028.3439653,11
1660211662.10495,1531028.3439684,23
1660211662.10495,1531028.3439714,32
1660211662.10495,1531028.3439745,18
1660211662.10495,1531028.3439771,11
1660211662.10495,1531028.3439799,37
1660211662.10495,1531028.3439824,72
1660211662.10495,1531028.343985,102
1660211662.10495,1531028.3439876,102
1660211662.10495,1531028.3439904,72
1660211662.10495,1531028.3439931,70
1660211662.10495,1531028.3439957,91
1660211662.10495,1531028.3439984,84
1660211662.10495,1531028.3440021,67
1660211662.10495,1531028.3440047,65
1660211662.10495,1531028.3440072,56
1660211662.10495,1531028.3440099,46
1660211662.10495,1531028.3440124,58
1660211662.10495,1531028.344015,81
1660211662.10495,1531028.3440175,84
1660211662.10495,1531028.3440201,70
1660211662.10495,1531028.3440226,86
1660211662.10495,1531028.3440252,107
1660211662.10495,1531028.3440278,84
1660211662.10495,1531028.3440304,77
1660211662.10495,1531028.3440329,179
1660211662.10495,1531028.3440356,392
1660211662.10495,1531028.3440382,560
1660211662.10495,1531028.3440407,324
1660211662.10495,1531028.3440435,-224
1660211662.10495,1531028.3440462,-364
1660211662.10495,1531028.3440489,-39
1660211662.10495,1531028.344054,119
1660211662.10495,1531028.3440632,67
1660211662.10495,1531028.3440709,84
1660211662.10495,1531028.3440741,123
1660211662.10495,1531028.3440813,116
1660211662.10495,1531028.3440876,114
1660211662.10495,1531028.3440998,130
1660211662.11492,1531028.8305787,151
1660211662.11492,1531028.8305932,168
1660211662.11492,1531028.8305979,163
1660211662.11492,1531028.830604,172
1660211662.11492,1531028.8306077,189
1660211662.11492,1531028.8306119,165
1660211662.11492,1531028.8306151,149
1660211662.11492,1531028.8306183,170
1660211662.11492,1531028.8306248,172
1660211662.11492,1531028.8306341,147
1660211662.11492,1531028.8306369,142
1660211662.11492,1531028.8306437,165
1660211662.11492,1531028.8306553,191
1660211662.11492,1531028.8306608,191
1660211662.11492,1531028.8306629,177
1660211662.11492,1531028.830665,182
1660211662.11492,1531028.830667,193
1660211662.11492,1531028.8306691,163
1660211662.11492,1531028.8306712,123
1660211662.11492,1531028.8306739,137
1660211662.11492,1531028.8306845,144
1660211662.11492,1531028.830692,114
1660211662.11492,1531028.8306943,123
1660211662.11492,1531028.8306964,161
1660211662.6479,1531028.8306985,140
1660211662.6479,1531028.8307004,107
1660211662.6479,1531028.8307032,105
1660211662.6479,1531028.8307138,81
1660211662.6479,1531028.8307192,51
1660211662.6479,1531028.8307251,42
1660211662.6479,1531028.8307328,32
1660211662.6479,1531028.8307413,23
1660211662.6479,1531028.830753,16
1660211662.6479,1531028.8307631,-2
1660211662.6479,1531028.8307762,2
1660211662.6479,1531028.8307895,44
1660211662.6479,1531028.8308017,49
1660211662.6479,1531028.8308118,18
1660211662.6479,1531028.8308237,35
1660211662.6479,1531028.8308331,58
1660211662.6479,1531028.8308406,65
1660211662.6479,1531028.8308499,79
1660211662.6479,1531028.8308559,72
1660211662.6479,1531028.8308681,42
1660211662.6479,1531028.8308793,42
1660211662.6479,1531028.8308891,77
1660211662.6479,1531028.830894,95
1660211662.6479,1531028.8308977,84
1660211662.6479,1531028.8309111,63
1660211662.6479,1531028.8309211,51
1660211662.6479,1531028.830927,60
1660211662.6479,1531028.8309354,84
1660211662.6479,1531028.8309485,79
1660211662.6479,1531028.8309616,53
1660211662.6479,1531028.830975,39
1660211662.6479,1531028.8309871,44
1660211662.6479,1531028.8309967,39
1660211662.6479,1531028.8310062,28
1660211662.6479,1531028.8310137,28
1660211662.6479,1531028.8310203,37
1660211662.6479,1531028.8310293,44
1660211662.6479,1531028.8310338,42
1660211662.6479,1531028.8310374,42
1660211662.6479,1531028.8310408,46
1660211662.6479,1531028.8310508,46
1660211662.6479,1531028.8310623,53
1660211662.6479,1531028.8310758,70
1660211662.6479,1531028.8310855,91
1660211662.6479,1531028.8310923,100
1660211662.6479,1531028.8311026,88
1660211662.6479,1531028.831111,86
1660211662.6479,1531028.8311253,100
1660211662.6479,1531028.8311364,95
1660211662.6479,1531029.368828,65
1660211662.65987,1531029.3688464,56
1660211662.65987,1531029.3688561,65
1660211662.65987,1531029.3688613,51
1660211662.65987,1531029.3688682,32
1660211662.65987,1531029.368875,56
1660211662.65987,1531029.3688801,74
1660211662.65987,1531029.3688868,32
1660211662.65987,1531029.3689428,0
1660211662.65987,1531029.3689504,9
1660211662.65987,1531029.3689552,21
1660211662.65987,1531029.3689609,88
1660211662.65987,1531029.3689659,298
1660211662.65987,1531029.368972,579
1660211662.65987,1531029.3689763,548
1660211662.65987,1531029.3689823,-88
1660211662.65987,1531029.3689865,-616
1660211662.65987,1531029.3689924,-376
1660211662.65987,1531029.3689971,-23
1660211662.65987,1531029.3690031,-23
1660211662.65987,1531029.3690075,-30
1660211662.65987,1531029.3690134,37
1660211662.65987,1531029.3690344,44
1660211662.65987,1531029.3690415,37
1660211662.65987,1531029.3690472,51
1660211663.32609,1531029.3690515,53
1660211663.32609,1531029.3690556,56
1660211663.32609,1531029.3690596,67
1660211663.32609,1531029.3690638,81
1660211663.32609,1531029.369068,81
1660211663.32609,1531029.3690724,74
1660211663.32609,1531029.3690765,91
1660211663.32609,1531029.3690807,107
1660211663.32609,1531029.3690848,107
1660211663.32609,1531029.3690889,121
1660211663.32609,1531029.3690931,144
1660211663.32609,1531029.3690973,154
1660211663.32609,1531029.3691035,135
1660211663.32609,1531029.3691081,142
1660211663.32609,1531029.3691143,198
1660211663.32609,1531029.3691185,217
1660211663.32609,1531029.3691245,193
1660211663.32609,1531029.3691292,207
1660211663.32609,1531029.3691353,235
1660211663.32609,1531029.3691404,228
1660211663.32609,1531029.3691464,212
1660211663.32609,1531029.3691505,205
1660211663.32609,1531029.3691549,191
1660211663.32609,1531029.3691611,172
1660211663.32609,1531029.3691663,165
1660211663.32609,1531029.3691713,151
1660211663.32609,1531029.3691774,123
1660211663.32609,1531029.3691831,98
1660211663.32609,1531029.3691893,86
1660211663.32609,1531029.3691942,72
1660211663.32609,1531029.3692005,67
1660211663.32609,1531029.3692071,65
1660211663.32609,1531029.3692131,65
1660211663.32609,1531029.3692176,49
1660211663.32609,1531029.3692237,25
1660211663.32609,1531029.3692294,30
1660211663.32609,1531029.3692356,46
1660211663.32609,1531029.3692424,46
1660211663.32609,1531029.3692487,51
1660211663.32609,1531029.3692532,72
1660211663.32609,1531029.3692592,84
1660211663.32609,1531029.3692645,74
1660211663.32609,1531029.3692692,65
1660211663.32609,1531029.3692755,77
1660211663.32609,1531029.3692812,93
1660211663.32609,1531029.3692873,98
1660211663.32609,1531029.3692929,81
1660211663.32609,1531029.3692988,60
1660211663.32609,1531030.0504812,70
1660211663.32609,1531030.0504939,77
1660211663.33607,1531030.0504963,63
1660211663.33607,1531030.0504985,63
1660211663.33607,1531030.0505005,60
1660211663.33607,1531030.0505025,39
1660211663.33607,1531030.0505045,30
1660211663.33607,1531030.0505065,18
1660211663.33607,1531030.0505085,7
1660211663.33607,1531030.0505105,14
1660211663.33607,1531030.050513,9
1660211663.33607,1531030.0505153,-44
1660211663.33607,1531030.0505177,-86
1660211663.33607,1531030.0505197,-44
1660211663.33607,1531030.0505218,28
1660211663.33607,1531030.0505245,39
1660211663.33607,1531030.0505331,25
1660211663.33607,1531030.0505437,9
1660211663.33607,1531030.0505471,-14
1660211663.33607,1531030.0505509,0
1660211663.33607,1531030.0505529,30
1660211663.33607,1531030.0505548,7
1660211663.33607,1531030.0505574,-23
1660211663.33607,1531030.0505684,-16
1660211663.33607,1531030.0505765,-18
1660211663.33607,1531030.0505809,-28
1660211663.8098,1531030.0505834,-11
1660211663.8098,1531030.0506106,16
1660211663.8098,1531030.0506165,21
1660211663.8098,1531030.0506199,4
1660211663.8098,1531030.0506233,18
1660211663.8098,1531030.0506267,25
1660211663.8098,1531030.0506297,42
1660211663.8098,1531030.0506328,189
1660211663.8098,1531030.0506363,481
1660211663.8098,1531030.0506395,710
1660211663.8098,1531030.0506437,394
1660211663.8098,1531030.0506496,-345
1660211663.8098,1531030.0506545,-525
1660211663.8098,1531030.0506604,-116
1660211663.8098,1531030.0506638,30
1660211663.8098,1531030.0506668,-18
1660211663.8098,1531030.0506697,67
1660211663.8098,1531030.0506725,107
1660211663.8098,1531030.0506753,67
1660211663.8098,1531030.0506781,86
1660211663.8098,1531030.0506809,107
1660211663.8098,1531030.0506837,98
1660211663.8098,1531030.0506865,105
1660211663.8098,1531030.0506894,98
1660211663.8098,1531030.0506926,84
1660211663.8098,1531030.0506985,100
1660211663.8098,1531030.0507024,130
1660211663.8098,1531030.0507064,147
1660211663.8098,1531030.0507113,149
1660211663.8098,1531030.0507161,147
1660211663.8098,1531030.0507196,156
1660211663.8098,1531030.0507245,168
1660211663.8098,1531030.0507288,175
1660211663.8098,1531030.0507334,189
1660211663.8098,1531030.0507389,203
1660211663.8098,1531030.0507426,203
1660211663.8098,1531030.0507463,198
1660211663.8098,1531030.0507499,203
1660211663.8098,1531030.0507575,207
1660211663.8098,1531030.0507615,205
1660211663.8098,1531030.0507678,198
1660211663.8098,1531030.0507747,193
1660211663.8098,1531030.050782,179
1660211663.8098,1531030.0508153,172
1660211663.8098,1531030.0508232,168
1660211663.8098,1531030.0508297,135
1660211663.8098,1531030.0508363,98
1660211663.8098,1531030.5376515,93
1660211663.8098,1531030.5376686,79
1660211663.8098,1531030.5376735,53
1660211663.82077,1531030.5376773,53
1660211663.82077,1531030.5376811,65
1660211663.82077,1531030.5376848,58
1660211663.82077,1531030.5376892,46
1660211663.82077,1531030.5376943,46
1660211663.82077,1531030.5376979,46
1660211663.82077,1531030.5377017,44
1660211663.82077,1531030.5377053,51
1660211663.82077,1531030.5377088,56
1660211663.82077,1531030.5377125,58
1660211663.82077,1531030.5377164,63
1660211663.82077,1531030.5377211,32
1660211663.82077,1531030.5377315,-7
1660211663.82077,1531030.5377355,7
1660211663.82077,1531030.5377407,44
1660211663.82077,1531030.5377443,49
1660211663.82077,1531030.5377489,42
1660211663.82077,1531030.5377543,51
1660211663.82077,1531030.5377579,60
1660211663.82077,1531030.5377634,51
1660211663.82077,1531030.5377672,51
1660211663.82077,1531030.5377709,60
1660211663.82077,1531030.5377743,44
1660211663.82077,1531030.5377786,25
1660211664.34778,1531030.5377819,25
1660211664.34778,1531030.5377854,28

1660211664.34778,1531030.5377888,18
1660211664.34778,1531030.5377925,-4
1660211664.34778,1531030.5377959,-14
1660211664.34778,1531030.5377996,2
1660211664.34778,1531030.5378034,14
1660211664.34778,1531030.537807,16
1660211664.34778,1531030.5378106,42
1660211664.34778,1531030.537814,67
1660211664.34778,1531030.5379192,49
1660211664.34778,1531030.5379328,9
1660211664.34778,1531030.5379411,14
1660211664.34778,1531030.5379491,30
1660211664.34778,1531030.5379532,21
1660211664.34778,1531030.5379642,2
1660211664.34778,1531030.5379796,-4
1660211664.34778,1531030.5379934,-2
1660211664.34778,1531030.5380027,-2
1660211664.34778,1531030.5380093,4
1660211664.34778,1531030.5380125,25
1660211664.34778,1531030.5380155,35
1660211664.34778,1531030.5380183,35
1660211664.34778,1531030.5380213,35
1660211664.34778,1531030.5380243,18
1660211664.34778,1531030.5380271,25
1660211664.34778,1531030.53803,158
1660211664.34778,1531030.5380329,441
1660211664.34778,1531030.5380359,691
1660211664.34778,1531030.5380387,420
1660211664.34778,1531030.5380416,-317
1660211664.34778,1531030.5380446,-553
1660211664.34778,1531030.5380474,-144
1660211664.34778,1531030.5380504,56
1660211664.34778,1531030.5380534,-16
1660211664.34778,1531030.5380562,25
1660211664.34778,1531030.5380591,86
1660211664.34778,1531030.538062,53
1660211664.34778,1531030.5380647,32
1660211664.34778,1531030.5380676,49
1660211664.34778,1531030.5380704,60
1660211664.34778,1531030.5380732,77
1660211664.34778,1531030.5380761,100
1660211664.34778,1531030.5380956,107
1660211664.34778,1531030.5381059,100
1660211664.34778,1531030.5381156,102
1660211664.34778,1531031.0736351,119
1660211664.34778,1531031.0736511,140
1660211664.34778,1531031.0736579,151
1660211664.34778,1531031.0736628,135
1660211664.35875,1531031.0736691,119
1660211664.35875,1531031.0736732,140
1660211664.35875,1531031.0736786,161
1660211664.35875,1531031.0736819,170
1660211664.35875,1531031.0736889,193
1660211664.35875,1531031.0736922,210
1660211664.35875,1531031.0736951,203
1660211664.35875,1531031.0736981,191
1660211664.35875,1531031.0737009,186
1660211664.35875,1531031.0737037,184
1660211664.35875,1531031.0737065,168
1660211664.35875,1531031.0737093,158
1660211664.35875,1531031.0737121,156
1660211664.35875,1531031.0737149,126
1660211664.35875,1531031.0737177,81
1660211664.35875,1531031.0737206,63
1660211664.35875,1531031.0737233,51
1660211664.35875,1531031.0737262,39
1660211664.35875,1531031.0737292,42
1660211664.35875,1531031.073732,32
1660211664.35875,1531031.0737354,11
1660211664.35875,1531031.0737481,9
1660211664.35875,1531031.0737551,28
1660211664.35875,1531031.0737615,37
1660211664.93616,1531031.0737691,32
1660211664.93616,1531031.0737759,35
1660211664.93616,1531031.0737828,35
1660211664.93616,1531031.0737898,23
1660211664.93616,1531031.0737978,30
1660211664.93616,1531031.0738046,51
1660211664.93616,1531031.0738102,65
1660211664.93616,1531031.0738164,77
1660211664.93616,1531031.0738226,81
1660211664.93616,1531031.0738279,81
1660211664.93616,1531031.0738393,84
1660211664.93616,1531031.0738521,100
1660211664.93616,1531031.0738621,114
1660211664.93616,1531031.0738745,112
1660211664.93616,1531031.0738848,93
1660211664.93616,1531031.0738987,67
1660211664.93616,1531031.0739058,65
1660211664.93616,1531031.0739142,67
1660211664.93616,1531031.0739197,72
1660211664.93616,1531031.0739284,95
1660211664.93616,1531031.073942,105
1660211664.93616,1531031.0739494,79
1660211664.93616,1531031.073955,51
1660211664.93616,1531031.0739612,51
1660211664.93616,1531031.0739674,63
1660211664.93616,1531031.0739748,56
1660211664.93616,1531031.0739814,37
1660211664.93616,1531031.0739868,25
1660211664.93616,1531031.0739958,30
1660211664.93616,1531031.074003,60
1660211664.93616,1531031.0740108,109
1660211664.93616,1531031.0740162,130
1660211664.93616,1531031.0740252,112
1660211664.93616,1531031.0740338,98
1660211664.93616,1531031.0740402,93
1660211664.93616,1531031.0740451,88
1660211664.93616,1531031.0740582,88
1660211664.93616,1531031.0740645,81
1660211664.93616,1531031.0740742,63
1660211664.93616,1531031.0740861,53
1660211664.93616,1531031.0741012,46
1660211664.93616,1531031.0741139,37
1660211664.93616,1531031.0741275,42
1660211664.93616,1531031.0741374,46
1660211664.93616,1531031.0741482,39
1660211664.93616,1531031.6582128,42
1660211664.93616,1531031.6582308,39
1660211664.93616,1531031.6582397,58
1660211664.93616,1531031.658244,193
1660211664.93616,1531031.658251,469
1660211664.94818,1531031.6582545,705
1660211664.94818,1531031.6582598,420
1660211664.94818,1531031.6582638,-329
1660211664.94818,1531031.6582692,-567
1660211664.94818,1531031.658274,-168
1660211664.94818,1531031.6582795,37
1660211664.94818,1531031.6582833,-18
1660211664.94818,1531031.6582866,14
1660211664.94818,1531031.6582896,49
1660211664.94818,1531031.6582959,16
1660211664.94818,1531031.6583042,7
1660211664.94818,1531031.6583124,28
1660211664.94818,1531031.6583188,28
1660211664.94818,1531031.6583268,32
1660211664.94818,1531031.6583348,44
1660211664.94818,1531031.6583443,44
1660211664.94818,1531031.6583469,56
1660211664.94818,1531031.6583489,81
1660211664.94818,1531031.658351,77
1660211664.94818,1531031.658353,72
1660211664.94818,1531031.6583551,93
1660211664.94818,1531031.6583571,95
1660211664.94818,1531031.6583591,95
1660211664.94818,1531031.6583611,123
1660211665.46966,1531031.6583631,144
1660211665.46966,1531031.658365,154
1660211665.46966,1531031.6583671,163
1660211665.46966,1531031.6583689,177
1660211665.46966,1531031.6583708,191
1660211665.46966,1531031.6583727,196
1660211665.46966,1531031.6583746,177
1660211665.46966,1531031.6583765,158
1660211665.46966,1531031.6583785,158
1660211665.46966,1531031.6583804,177
1660211665.46966,1531031.6583823,179
1660211665.46966,1531031.6583841,156
1660211665.46966,1531031.658386,151
1660211665.46966,1531031.6583879,142
1660211665.46966,1531031.6583898,98
1660211665.46966,1531031.6583917,60
1660211665.46966,1531031.6583937,51
1660211665.46966,1531031.6583972,42
1660211665.46966,1531031.6584058,44
1660211665.46966,1531031.6584136,56
1660211665.46966,1531031.6584236,42
1660211665.46966,1531031.6584367,16
1660211665.46966,1531031.6584446,32
1660211665.46966,1531031.6584556,70
1660211665.46966,1531031.65846,81
1660211665.46966,1531031.6584629,86
1660211665.46966,1531031.658465,102
1660211665.46966,1531031.6584671,95
1660211665.46966,1531031.6584692,46
1660211665.46966,1531031.6584712,51
1660211665.46966,1531031.6584746,98
1660211665.46966,1531031.6584768,91
1660211665.46966,1531031.6584788,91
1660211665.46966,1531031.658481,126
1660211665.46966,1531031.6584829,130
1660211665.46966,1531031.6584849,126
1660211665.46966,1531031.6584869,137
1660211665.46966,1531031.6584889,109
1660211665.46966,1531031.6584909,79
1660211665.46966,1531031.6584929,107
1660211665.46966,1531031.6584949,128
1660211665.46966,1531031.658497,112
1660211665.46966,1531031.6584989,107
1660211665.46966,1531031.6585009,121
1660211665.46966,1531032.1953496,126
1660211665.46966,1531032.1953649,126
1660211665.46966,1531032.1953693,133
1660211665.46966,1531032.1953759,135
1660211665.46966,1531032.1953795,126
1660211665.46966,1531032.1953831,126
1660211665.48063,1531032.1953881,123
1660211665.48063,1531032.1953932,105
1660211665.48063,1531032.1953983,91
1660211665.48063,1531032.1954017,93
1660211665.48063,1531032.1954053,93
1660211665.48063,1531032.1954087,70
1660211665.48063,1531032.1954121,72
1660211665.48063,1531032.1954167,114
1660211665.48063,1531032.1954217,137
1660211665.48063,1531032.1954252,119
1660211665.48063,1531032.1954289,100
1660211665.48063,1531032.1954341,93
1660211665.48063,1531032.1954376,86
1660211665.48063,1531032.1954411,98
1660211665.48063,1531032.1954446,79
1660211665.48063,1531032.1954496,4
1660211665.48063,1531032.1954532,2
1660211665.48063,1531032.1954569,77
1660211665.48063,1531032.1954619,67
1660211665.48063,1531032.1954655,30
1660211665.48063,1531032.1954747,53
1660211665.48063,1531032.195487,65
1660211665.48063,1531032.1954962,56
1660211665.48063,1531032.1955035,44
1660211666.15786,1531032.195511,28
1660211666.15786,1531032.1955162,79
1660211666.15786,1531032.1955217,261
1660211666.15786,1531032.1955271,506
1660211666.15786,1531032.1955319,471
1660211666.15786,1531032.195538,-95
1660211666.15786,1531032.1955423,-553
1660211666.15786,1531032.1955478,-319
1660211666.15786,1531032.1955531,7
1660211666.15786,1531032.1955571,2
1660211666.15786,1531032.1955626,-16
1660211666.15786,1531032.1955701,35
1660211666.15786,1531032.195576,23
1660211666.15786,1531032.195582,11
1660211666.15786,1531032.1955907,60
1660211666.15786,1531032.1956026,84
1660211666.15786,1531032.1956155,65
1660211666.15786,1531032.1956242,67
1660211666.15786,1531032.1956357,91
1660211666.15786,1531032.1956506,95
1660211666.15786,1531032.1956657,81
1660211666.15786,1531032.19568,70
1660211666.15786,1531032.1956909,86
1660211666.15786,1531032.195699,107
1660211666.15786,1531032.1957106,100
1660211666.15786,1531032.1957193,98
1660211666.15786,1531032.1957216,128
1660211666.15786,1531032.1957289,161
1660211666.15786,1531032.1957397,161
1660211666.15786,1531032.1957512,170
1660211666.15786,1531032.1957619,177
1660211666.15786,1531032.1957688,158
1660211666.15786,1531032.1957812,161
1660211666.15786,1531032.1957915,177
1660211666.15786,1531032.1957968,163
1660211666.15786,1531032.1958096,154
1660211666.15786,1531032.1958175,161
1660211666.15786,1531032.1958293,149
1660211666.15786,1531032.1958393,130
1660211666.15786,1531032.1958514,149
1660211666.15786,1531032.1958589,163
1660211666.15786,1531032.195872,119
1660211666.15786,1531032.1958856,79
1660211666.15786,1531032.8781155,81
1660211666.15786,1531032.8781292,86
1660211666.15786,1531032.8781318,79
1660211666.15786,1531032.8781339,70
1660211666.15786,1531032.8781376,70
1660211666.15786,1531032.8781396,74
1660211666.15786,1531032.8781416,79
1660211666.16883,1531032.8781436,63
1660211666.16883,1531032.8781457,30
1660211666.16883,1531032.8781477,32
1660211666.16883,1531032.8781497,70
1660211666.16883,1531032.8781518,67
1660211666.16883,1531032.8781537,65
1660211666.16883,1531032.8781557,84
1660211666.16883,1531032.8781577,44
1660211666.16883,1531032.8781597,11
1660211666.16883,1531032.8781616,42
1660211666.16883,1531032.8781637,56
1660211666.16883,1531032.8781657,51
1660211666.16883,1531032.8781676,60
1660211666.16883,1531032.8781695,49
1660211666.16883,1531032.8781715,30
1660211666.16883,1531032.8781735,53
1660211666.16883,1531032.8781755,74
1660211666.16883,1531032.8781775,67
1660211666.16883,1531032.8781795,58
1660211666.16883,1531032.8781815,51
1660211666.16883,1531032.8781834,49
1660211666.16883,1531032.8781854,39
1660211666.16883,1531032.8781874,23
1660211666.16883,1531032.8781894,28
1660211666.73557,1531032.8781913,42
1660211666.73557,1531032.8781933,44
1660211666.73557,1531032.8781951,32
1660211666.73557,1531032.878197,23
1660211666.73557,1531032.8781988,25
1660211666.73557,1531032.8782007,32
1660211666.73557,1531032.8782028,51
1660211666.73557,1531032.8782046,58
1660211666.73557,1531032.8782075,42
1660211666.73557,1531032.8782094,42
1660211666.73557,1531032.8782113,67
1660211666.73557,1531032.8782133,98
1660211666.73557,1531032.8782152,107
1660211666.73557,1531032.878217,102
1660211666.73557,1531032.8782189,105
1660211666.73557,1531032.8782208,107
1660211666.73557,1531032.8782227,91
1660211666.73557,1531032.8782245,79
1660211666.73557,1531032.8782263,63
1660211666.73557,1531032.8782283,56
1660211666.73557,1531032.8782302,67
1660211666.73557,1531032.8782327,67
1660211666.73557,1531032.8782399,60
1660211666.73557,1531032.8782483,65
1660211666.73557,1531032.8782539,70
1660211666.73557,1531032.8782644,79
1660211666.73557,1531032.8782759,86
1660211666.73557,1531032.8782849,30
1660211666.73557,1531032.8782899,-7
1660211666.73557,1531032.8782921,140
1660211666.73557,1531032.8782965,404
1660211666.73557,1531032.8783104,511
1660211666.73557,1531032.8783193,163
1660211666.73557,1531032.8783219,-390
1660211666.73557,1531032.8783253,-420
1660211666.73557,1531032.8783392,-49
1660211666.73557,1531032.8783464,77
1660211666.73557,1531032.8784243,35
1660211666.73557,1531032.8784355,77
1660211666.73557,1531032.8784412,107
1660211666.73557,1531032.878445,81
1660211666.73557,1531032.878453,63
1660211666.73557,1531033.4628342,77
1660211666.73557,1531033.4628545,105
1660211666.73557,1531033.4628592,123
1660211666.73557,1531033.462864,121
1660211666.73557,1531033.4628684,102
1660211666.73557,1531033.4628753,91
1660211666.73557,1531033.4628825,114
1660211666.73557,1531033.4628909,135
1660211666.74723,1531033.4628972,135
1660211666.74723,1531033.4629031,137
1660211666.74723,1531033.4629094,140
1660211666.74723,1531033.4629887,133
1660211666.74723,1531033.4629967,140
1660211666.74723,1531033.4630015,163
1660211666.74723,1531033.4630062,196
1660211666.74723,1531033.4630107,198
1660211666.74723,1531033.4630176,182
1660211666.74723,1531033.4630219,177
1660211666.74723,1531033.4630316,151
1660211666.74723,1531033.4630392,156
1660211666.74723,1531033.4630521,203
1660211666.74723,1531033.4631148,172
1660211666.74723,1531033.463122,116
1660211666.74723,1531033.4631267,123
1660211666.74723,1531033.4631315,133
1660211666.74723,1531033.4631362,119
1660211666.74723,1531033.4631398,116
1660211666.74723,1531033.4631433,109
1660211666.74723,1531033.4631477,91
1660211666.74723,1531033.4631518,63
1660211666.74723,1531033.4631559,32
1660211666.74723,1531033.4631635,18
1660211667.23069,1531033.4631673,25
1660211667.23069,1531033.4631718,28
1660211667.23069,1531033.4631759,30
1660211667.23069,1531033.4631802,35
1660211667.23069,1531033.4631839,32
1660211667.23069,1531033.4631885,32
1660211667.23069,1531033.4631925,46
1660211667.23069,1531033.4631964,65
1660211667.23069,1531033.4632012,65
1660211667.23069,1531033.4632061,56
1660211667.23069,1531033.46321,58
1660211667.23069,1531033.4632142,77
1660211667.23069,1531033.4632192,93
1660211667.23069,1531033.4632234,93
1660211667.23069,1531033.4632273,84
1660211667.23069,1531033.4632318,84
1660211667.23069,1531033.4632356,81
1660211667.23069,1531033.4632391,81
1660211667.23069,1531033.4632423,98
1660211667.23069,1531033.4632455,123
1660211667.23069,1531033.4632489,107
1660211667.23069,1531033.4632523,49
1660211667.23069,1531033.4632558,60
1660211667.23069,1531033.4632606,95
1660211667.23069,1531033.4632641,58
1660211667.23069,1531033.4632683,53
1660211667.23069,1531033.4632726,93
1660211667.23069,1531033.4632772,84
1660211667.23069,1531033.4632836,67
1660211667.23069,1531033.4632881,95
1660211667.23069,1531033.4632944,100
1660211667.23069,1531033.4632993,79
1660211667.23069,1531033.4633054,79
1660211667.23069,1531033.463311,88
1660211667.23069,1531033.4633144,91
1660211667.23069,1531033.4633175,102
1660211667.23069,1531033.4633208,128
1660211667.23069,1531033.4633237,142
1660211667.23069,1531033.4633268,137
1660211667.23069,1531033.4633301,128
1660211667.23069,1531033.4633335,137
1660211667.23069,1531033.9497297,137
1660211667.23069,1531033.9497421,112
1660211667.23069,1531033.9497467,74
1660211667.23069,1531033.9497511,51
1660211667.23069,1531033.9497532,72
1660211667.23069,1531033.9497553,93
1660211667.23069,1531033.9497574,79
1660211667.23069,1531033.9497594,67
1660211667.23069,1531033.949762,58
1660211667.2413,1531033.9497644,39
1660211667.2413,1531033.9497664,39
1660211667.2413,1531033.9497684,53
1660211667.2413,1531033.9497704,93
1660211667.2413,1531033.9497724,231
1660211667.2413,1531033.9497745,436
1660211667.2413,1531033.9497765,401
1660211667.2413,1531033.9497786,-39
1660211667.2413,1531033.9497807,-429
1660211667.2413,1531033.9497829,-303
1660211667.2413,1531033.9497849,-2
1660211667.2413,1531033.949787,39
1660211667.2413,1531033.9497891,-2
1660211667.2413,1531033.949791,42
1660211667.2413,1531033.949793,65
1660211667.2413,1531033.949795,56
1660211667.2413,1531033.949797,67
1660211667.2413,1531033.949799,74
1660211667.2413,1531033.9498011,67
1660211667.2413,1531033.9498031,72
1660211667.2413,1531033.9498051,93
1660211667.2413,1531033.9498071,95
1660211667.2413,1531033.9498091,86
1660211667.2413,1531033.9498111,91
1660211667.71256,1531033.9498131,100
1660211667.71256,1531033.9498151,95
1660211667.71256,1531033.949817,95
1660211667.71256,1531033.9498189,105
1660211667.71256,1531033.9498208,109
1660211667.71256,1531033.9498227,121
1660211667.71256,1531033.9498247,135
1660211667.71256,1531033.9498267,128
1660211667.71256,1531033.9498286,126
1660211667.71256,1531033.9498305,135
1660211667.71256,1531033.9498324,133
1660211667.71256,1531033.9498343,142
1660211667.71256,1531033.9498363,163
1660211667.71256,1531033.9498382,154
1660211667.71256,1531033.9498409,140
1660211667.71256,1531033.949849,135
1660211667.71256,1531033.9498567,121
1660211667.71256,1531033.9498642,147
1660211667.71256,1531033.949877,196
1660211667.71256,1531033.94989,158
1660211667.71256,1531033.9498979,79
1660211667.71256,1531033.9499003,74
1660211667.71256,1531033.9499065,98
1660211667.71256,1531033.9499154,77
1660211667.71256,1531033.9499244,58
1660211667.71256,1531033.9499292,70
1660211667.71256,1531033.9499384,77
1660211667.71256,1531033.9499514,72
1660211667.71256,1531033.9499579,84
1660211667.71256,1531033.9499614,98
1660211667.71256,1531033.949973,98
1660211667.71256,1531033.9499822,98
1660211667.71256,1531033.9499902,105
1660211667.71256,1531033.9500029,109
1660211667.71256,1531033.9500112,116
1660211667.71256,1531033.9500147,119
1660211667.71256,1531033.9500283,109
1660211667.71256,1531033.9500373,100
1660211667.71256,1531033.9500428,112
1660211667.71256,1531033.9500449,123
1660211667.71256,1531034.4401586,105
1660211667.71256,1531034.440177,81
1660211667.71256,1531034.4401823,72
1660211667.71256,1531034.4401871,84
1660211667.71256,1531034.440193,98
1660211667.71256,1531034.4401968,91
1660211667.71256,1531034.4402016,74
1660211667.71256,1531034.4402089,67
1660211667.71256,1531034.4402165,60
1660211667.71256,1531034.4402234,35
1660211667.72354,1531034.4402303,37
1660211667.72354,1531034.4402374,65
1660211667.72354,1531034.4402443,67
1660211667.72354,1531034.440249,63
1660211667.72354,1531034.4402529,72
1660211667.72354,1531034.4402572,74
1660211667.72354,1531034.4402617,77
1660211667.72354,1531034.4402673,81
1660211667.72354,1531034.4402737,91
1660211667.72354,1531034.4402792,91
1660211667.72354,1531034.440283,84
1660211667.72354,1531034.4402863,88
1660211667.72354,1531034.4402929,84
1660211667.72354,1531034.4402982,46
1660211667.72354,1531034.4403029,16
1660211667.72354,1531034.4403062,9
1660211667.72354,1531034.440309,-4
1660211667.72354,1531034.4403117,-14
1660211667.72354,1531034.4403145,-2
1660211667.72354,1531034.4403173,2
1660211667.72354,1531034.4403201,0
1660211667.72354,1531034.4403229,2
1660211667.72354,1531034.4403262,0
1660211667.72354,1531034.440329,-7
1660211668.29993,1531034.4403318,25
1660211668.29993,1531034.4403346,149
1660211668.29993,1531034.4404723,390
1660211668.29993,1531034.4404829,485
1660211668.29993,1531034.4404869,44
1660211668.29993,1531034.4404905,-499
1660211668.29993,1531034.4405066,-373
1660211668.29993,1531034.4405173,32
1660211668.29993,1531034.4405245,60
1660211668.29993,1531034.4405313,-25
1660211668.29993,1531034.4405384,44
1660211668.29993,1531034.4405438,91
1660211668.29993,1531034.4405485,72
1660211668.29993,1531034.4405526,95
1660211668.29993,1531034.4405596,128
1660211668.29993,1531034.4405669,119
1660211668.29993,1531034.440572,116
1660211668.29993,1531034.4405792,135
1660211668.29993,1531034.4405867,142
1660211668.29993,1531034.4405928,156
1660211668.29993,1531034.4405973,170
1660211668.29993,1531034.4406014,165
1660211668.29993,1531034.4406092,154
1660211668.29993,1531034.4406135,147
1660211668.29993,1531034.4406189,161
1660211668.29993,1531034.4406238,172
1660211668.29993,1531034.4406269,144
1660211668.29993,1531034.4406396,151
1660211668.29993,1531034.4406485,193
1660211668.29993,1531034.4406613,191
1660211668.29993,1531034.4406715,147
1660211668.29993,1531034.4406789,154
1660211668.29993,1531034.440684,203
1660211668.29993,1531034.4406897,203
1660211668.29993,1531034.4406949,165
1660211668.29993,1531034.4406992,170
1660211668.29993,1531034.440703,177
1660211668.29993,1531034.4407206,156
1660211668.29993,1531034.4407276,133
1660211668.29993,1531035.0225533,116
1660211668.29993,1531035.0225748,95
1660211668.29993,1531035.0225831,74
1660211668.29993,1531035.0225904,60
1660211668.29993,1531035.0225979,49
1660211668.29993,1531035.0226037,44
1660211668.29993,1531035.0226082,39
1660211668.29993,1531035.0226144,18
1660211668.29993,1531035.0226201,16
1660211668.29993,1531035.0226263,42
1660211668.29993,1531035.0226337,35
1660211668.3119,1531035.0226422,11
1660211668.3119,1531035.0226501,28
1660211668.3119,1531035.0226546,37
1660211668.3119,1531035.0226581,16
1660211668.3119,1531035.0226705,25
1660211668.3119,1531035.0226851,56
1660211668.3119,1531035.0226928,56
1660211668.3119,1531035.0226995,42
1660211668.3119,1531035.0227087,39
1660211668.3119,1531035.0227174,39
1660211668.3119,1531035.0227223,39
1660211668.3119,1531035.0227261,35
1660211668.3119,1531035.0227343,23
1660211668.3119,1531035.0227421,4
1660211668.3119,1531035.0227506,-11
1660211668.3119,1531035.022757,-4
1660211668.3119,1531035.0227652,9
1660211668.3119,1531035.0227741,7
1660211668.3119,1531035.0227816,9
1660211668.3119,1531035.022794,23
1660211668.3119,1531035.0228032,14
1660211668.3119,1531035.0228106,28
1660211668.3119,1531035.0228188,67
1660211668.3119,1531035.0228253,70
1660211668.87857,1531035.0228332,56
1660211668.87857,1531035.0228404,70
1660211668.87857,1531035.0228469,91
1660211668.87857,1531035.022856,88
1660211668.87857,1531035.0228611,42
1660211668.87857,1531035.0228652,9
1660211668.87857,1531035.0228692,35
1660211668.87857,1531035.0228752,53
1660211668.87857,1531035.0228796,42
1660211668.87857,1531035.0228919,49
1660211668.87857,1531035.0229008,72
1660211668.87857,1531035.0229052,72
1660211668.87857,1531035.0229107,44
1660211668.87857,1531035.0229151,16
1660211668.87857,1531035.0229213,35
1660211668.87857,1531035.0229272,165
1660211668.87857,1531035.0229391,450
1660211668.87857,1531035.0229446,712
1660211668.87857,1531035.0229479,413
1660211668.87857,1531035.0229556,-362
1660211668.87857,1531035.0229685,-565
1660211668.87857,1531035.0229751,-123
1660211668.87857,1531035.0229813,60
1660211668.87857,1531035.0229943,-7
1660211668.87857,1531035.0230018,51
1660211668.87857,1531035.0230044,74
1660211668.87857,1531035.0230069,11
1660211668.87857,1531035.0230172,37
1660211668.87857,1531035.023027,105
1660211668.87857,1531035.0230348,98
1660211668.87857,1531035.0230422,65
1660211668.87857,1531035.0230483,67
1660211668.87857,1531035.0230562,70
1660211668.87857,1531035.023065,74
1660211668.87857,1531035.0230764,93
1660211668.87857,1531035.0230882,105
1660211668.87857,1531035.0230952,105
1660211668.87857,1531035.0231006,112
1660211668.87857,1531035.6078854,112
1660211668.87857,1531035.6079048,102
1660211668.87857,1531035.6079169,114
1660211668.87857,1531035.6079306,147
1660211668.87857,1531035.6079402,172
1660211668.87857,1531035.6079491,177
1660211668.87857,1531035.6079575,182
1660211668.87857,1531035.6079664,193
1660211668.87857,1531035.6079785,198
1660211668.87857,1531035.6079883,191
1660211668.87857,1531035.6079969,168
1660211668.87857,1531035.6080067,130
1660211668.88955,1531035.6080174,119
1660211668.88955,1531035.6080237,123
1660211668.88955,1531035.6080299,100
1660211668.88955,1531035.608033,81
1660211668.88955,1531035.6080362,74
1660211668.88955,1531035.6080688,37
1660211668.88955,1531035.6080789,4
1660211668.88955,1531035.6080875,0
1660211668.88955,1531035.6080947,-11
1660211668.88955,1531035.6080992,-18
1660211668.88955,1531035.6081055,-7
1660211668.88955,1531035.6081125,-9
1660211668.88955,1531035.6081239,-2
1660211668.88955,1531035.6081309,25
1660211668.88955,1531035.6081374,28
1660211668.88955,1531035.6081425,18
1660211668.88955,1531035.6081483,35
1660211668.88955,1531035.6081523,46
1660211668.88955,1531035.6081563,37
1660211668.88955,1531035.6081603,39
1660211668.88955,1531035.6081646,63
1660211668.88955,1531035.6081702,74
1660211668.88955,1531035.6081747,81
1660211668.88955,1531035.6081786,81
1660211669.46729,1531035.6081824,65
1660211669.46729,1531035.6081862,77
1660211669.46729,1531035.6081905,98
1660211669.46729,1531035.6081945,81
1660211669.46729,1531035.6081989,74
1660211669.46729,1531035.6082029,84
1660211669.46729,1531035.6082072,72
1660211669.46729,1531035.6082112,58
1660211669.46729,1531035.6082154,67
1660211669.46729,1531035.6082197,77
1660211669.46729,1531035.6082253,98
1660211669.46729,1531035.6082368,119
1660211669.46729,1531035.6082455,109
1660211669.46729,1531035.6082579,98
1660211669.46729,1531035.6082686,102
1660211669.46729,1531035.6082759,114
1660211669.46729,1531035.6082838,114
1660211669.46729,1531035.608291,86
1660211669.46729,1531035.6083008,58
1660211669.46729,1531035.6083051,56
1660211669.46729,1531035.6083145,63
1660211669.46729,1531035.6083228,56
1660211669.46729,1531035.6083338,39
1660211669.46729,1531035.6083404,21
1660211669.46729,1531035.6083456,11
1660211669.46729,1531035.6083519,35
1660211669.46729,1531035.6083574,46
1660211669.46729,1531035.6083664,30
1660211669.46729,1531035.6083733,126
1660211669.46729,1531035.6083856,411
1660211669.46729,1531035.6083954,700
1660211669.46729,1531035.6084041,499
1660211669.46729,1531035.6084089,-247
1660211669.46729,1531035.6084192,-574
1660211669.46729,1531035.6084301,-168
1660211669.46729,1531035.6084448,86
1660211669.46729,1531035.6084563,21
1660211669.46729,1531036.1937807,70
1660211669.46729,1531036.1938007,135
1660211669.46729,1531036.1938078,88
1660211669.46729,1531036.1938145,72
1660211669.46729,1531036.1938184,95
1660211669.46729,1531036.1938222,91
1660211669.46729,1531036.1938256,72
1660211669.46729,1531036.1938287,37
1660211669.46729,1531036.193832,4
1660211669.46729,1531036.1938358,21
1660211669.46729,1531036.1938395,46
1660211669.46729,1531036.1938427,49
1660211669.46729,1531036.1938464,58
1660211669.47826,1531036.1938496,72
1660211669.47826,1531036.1938527,70
1660211669.47826,1531036.193856,81
1660211669.47826,1531036.1938592,98
1660211669.47826,1531036.1938626,95
1660211669.47826,1531036.1938658,100
1660211669.47826,1531036.1938695,112
1660211669.47826,1531036.1938724,95
1660211669.47826,1531036.1938755,77
1660211669.47826,1531036.1938785,93
1660211669.47826,1531036.1938816,93
1660211669.47826,1531036.1938847,81
1660211669.47826,1531036.193888,81
1660211669.47826,1531036.1938908,74
1660211669.47826,1531036.1938938,63
1660211669.47826,1531036.1938971,70
1660211669.47826,1531036.1939001,72
1660211669.47826,1531036.1939033,60
1660211669.47826,1531036.1939061,46
1660211669.47826,1531036.1939094,25
1660211669.47826,1531036.1939128,0
1660211669.47826,1531036.1939157,-2
1660211669.47826,1531036.1939185,9
1660211669.47826,1531036.1939226,4
1660211670.00161,1531036.1939258,-7
1660211670.00161,1531036.1939288,0
1660211670.00161,1531036.1939318,11
1660211670.00161,1531036.193935,21
1660211670.00161,1531036.1939385,25
1660211670.00161,1531036.1939414,25
1660211670.00161,1531036.1939444,35
1660211670.00161,1531036.1939475,53
1660211670.00161,1531036.1939509,77
1660211670.00161,1531036.1939538,98
1660211670.00161,1531036.1939569,86
1660211670.00161,1531036.1939602,67
1660211670.00161,1531036.1939637,70
1660211670.00161,1531036.1939673,70
1660211670.00161,1531036.1939709,67
1660211670.00161,1531036.1939744,56
1660211670.00161,1531036.1939781,51
1660211670.00161,1531036.193982,63
1660211670.00161,1531036.1939858,79
1660211670.00161,1531036.1939888,88
1660211670.00161,1531036.1939919,81
1660211670.00161,1531036.1939951,53
1660211670.00161,1531036.1939982,39
1660211670.00161,1531036.1940016,86
1660211670.00161,1531036.1940048,154
1660211670.00161,1531036.1940081,156
1660211670.00161,1531036.1940113,112
1660211670.00161,1531036.1940152,116
1660211670.00161,1531036.1940183,137
1660211670.00161,1531036.1940216,109
1660211670.00161,1531036.1940254,88
1660211670.00161,1531036.1940289,93
1660211670.00161,1531036.1940319,93
1660211670.00161,1531036.1940349,98
1660211670.00161,1531036.194038,53
1660211670.00161,1531036.1940428,2
1660211670.00161,1531036.7289423,70
1660211670.00161,1531036.7289655,137
1660211670.00161,1531036.7289765,100
1660211670.00161,1531036.728986,65
1660211670.00161,1531036.7289927,93
1660211670.00161,1531036.7289992,235
1660211670.00161,1531036.7290028,499
1660211670.00161,1531036.7290085,555
1660211670.00161,1531036.7290581,39
1660211670.00161,1531036.7290685,-516
1660211670.00161,1531036.7290732,-408
1660211670.00161,1531036.7291173,-72
1660211670.00161,1531036.729126,18
1660211670.00161,1531036.729131,63
1660211670.01158,1531036.7291349,114
1660211670.01158,1531036.7291385,95
1660211670.01158,1531036.7291417,79
1660211670.01158,1531036.7291449,84
1660211670.01158,1531036.729148,93
1660211670.01158,1531036.729151,112
1660211670.01158,1531036.7291542,149
1660211670.01158,1531036.7291574,137
1660211670.01158,1531036.7291608,53
1660211670.01158,1531036.7291643,25
1660211670.01158,1531036.7291679,119
1660211670.01158,1531036.729171,172
1660211670.01158,1531036.7291743,126
1660211670.01158,1531036.7291782,109
1660211670.01158,1531036.7291848,137
1660211670.01158,1531036.7291921,137
1660211670.01158,1531036.7291977,126
1660211670.01158,1531036.7292014,140
1660211670.01158,1531036.7292082,156
1660211670.01158,1531036.7292183,154
1660211670.01158,1531036.7292245,154
1660211670.01158,1531036.7292303,149
1660211670.01158,1531036.7292334,126
1660211670.01158,1531036.7292363,116
1660211670.63359,1531036.7292402,130
1660211670.63359,1531036.7292473,123
1660211670.63359,1531036.7292526,112
1660211670.63359,1531036.7292575,114
1660211670.63359,1531036.7292766,116
1660211670.63359,1531036.7292848,114
1660211670.63359,1531036.7292937,109
1660211670.63359,1531036.7293039,72
1660211670.63359,1531036.7293146,42
1660211670.63359,1531036.7293208,49
1660211670.63359,1531036.7293291,39
1660211670.63359,1531036.7293374,9
1660211670.63359,1531036.7293455,18
1660211670.63359,1531036.729353,35
1660211670.63359,1531036.7293598,30
1660211670.63359,1531036.7293671,28
1660211670.63359,1531036.7293739,39
1660211670.63359,1531036.7293803,63
1660211670.63359,1531036.7293896,79
1660211670.63359,1531036.7293958,72
1660211670.63359,1531036.7294032,79
1660211670.63359,1531036.7294149,112
1660211670.63359,1531036.729426,119
1660211670.63359,1531036.7294341,93
1660211670.63359,1531036.7294405,88
1660211670.63359,1531036.7294546,98
1660211670.63359,1531036.7294679,107
1660211670.63359,1531036.7294826,121
1660211670.63359,1531036.7294916,116
1660211670.63359,1531036.7294959,98
1660211670.63359,1531036.7295013,109
1660211670.63359,1531036.7295057,123
1660211670.63359,1531036.7295133,107
1660211670.63359,1531036.7295194,109
1660211670.63359,1531036.7295262,130
1660211670.63359,1531037.3624951,123
1660211670.63359,1531037.3625083,123
1660211670.63359,1531037.3625117,140
1660211670.63359,1531037.3625172,151
1660211670.63359,1531037.36252,163
1660211670.63359,1531037.3625228,186
1660211670.63359,1531037.3625256,203
1660211670.63359,1531037.3625283,191
1660211670.63359,1531037.3625307,172
1660211670.63359,1531037.3625329,161
1660211670.63359,1531037.362535,156
1660211670.63359,1531037.3625371,156
1660211670.63359,1531037.3625392,151
1660211670.63359,1531037.3625413,121
1660211670.63359,1531037.3625433,79
1660211670.64456,1531037.3625454,77
1660211670.64456,1531037.3625474,102
1660211670.64456,1531037.3625495,114
1660211670.64456,1531037.3625518,123
1660211670.64456,1531037.3625538,121
1660211670.64456,1531037.3625559,88
1660211670.64456,1531037.3625579,72
1660211670.64456,1531037.36256,142
1660211670.64456,1531037.3625625,348
1660211670.64456,1531037.3625652,607
1660211670.64456,1531037.3625678,509
1660211670.64456,1531037.3625703,-93
1660211670.64456,1531037.3625728,-425
1660211670.64456,1531037.3625755,-116
1660211670.64456,1531037.3625778,137
1660211670.64456,1531037.36258,102
1660211670.64456,1531037.3625821,112
1660211670.64456,1531037.3625842,140
1660211670.64456,1531037.3625862,114
1660211670.64456,1531037.3625882,119
1660211670.64456,1531037.3625902,140
1660211670.64456,1531037.3625922,137
1660211670.64456,1531037.3625942,126
1660211670.64456,1531037.3625962,128
1660211671.07697,1531037.3625982,133
1660211671.07697,1531037.3626004,109
1660211671.07697,1531037.3626025,98
1660211671.07697,1531037.3626046,147
1660211671.07697,1531037.3626067,193
1660211671.07697,1531037.3626087,179
1660211671.07697,1531037.3626107,147
1660211671.07697,1531037.3626128,137
1660211671.07697,1531037.3626149,137
1660211671.07697,1531037.3626169,147
1660211671.07697,1531037.3626189,189
1660211671.07697,1531037.3626211,221
1660211671.07697,1531037.3626233,182
1660211671.07697,1531037.3626253,175
1660211671.07697,1531037.3626271,240
1660211671.07697,1531037.3626292,217
1660211671.07697,1531037.3626312,123
1660211671.07697,1531037.3626333,133
1660211671.07697,1531037.3626353,175
1660211671.07697,1531037.3626374,149
1660211671.07697,1531037.3626395,128
1660211671.07697,1531037.3626418,133
1660211671.07697,1531037.3626439,121
1660211671.07697,1531037.362646,102
1660211671.07697,1531037.3626482,93
1660211671.07697,1531037.3626502,88
1660211671.07697,1531037.3626522,86
1660211671.07697,1531037.3626542,67
1660211671.07697,1531037.3626562,44
1660211671.07697,1531037.3626582,63
1660211671.07697,1531037.3626602,95
1660211671.07697,1531037.3626622,79
1660211671.07697,1531037.3626642,58
1660211671.07697,1531037.3626663,81
1660211671.07697,1531037.8014635,72
1660211671.07697,1531037.8015425,35
1660211671.07697,1531037.8015491,58
1660211671.07697,1531037.8015541,102
1660211671.07697,1531037.8015612,95
1660211671.07697,1531037.8015652,86
1660211671.07697,1531037.8015685,95
1660211671.07697,1531037.8015724,81
1660211671.07697,1531037.8015783,72
1660211671.07697,1531037.8015816,95
1660211671.07697,1531037.801586,100
1660211671.07697,1531037.8015913,98
1660211671.07697,1531037.8015943,128
1660211671.07697,1531037.801598,112
1660211671.07697,1531037.801601,58
1660211671.07697,1531037.8016052,60
1660211671.08794,1531037.8016085,67
1660211671.08794,1531037.8016138,44
1660211671.08794,1531037.8016187,44
1660211671.08794,1531037.8016233,60
1660211671.08794,1531037.8016289,65
1660211671.08794,1531037.8016337,65
1660211671.08794,1531037.8016368,49
1660211671.08794,1531037.8016399,9
1660211671.08794,1531037.801644,7
1660211671.08794,1531037.8016469,72
1660211671.08794,1531037.8016499,102
1660211671.08794,1531037.8016529,74
1660211671.08794,1531037.8016559,65
1660211671.08794,1531037.8016586,81
1660211671.08794,1531037.8016618,79
1660211671.08794,1531037.8016649,53
1660211671.08794,1531037.8016684,0
1660211671.08794,1531037.8016734,-42
1660211671.08794,1531037.8016773,-14
1660211671.08794,1531037.8016833,51
1660211671.08794,1531037.8016864,105
1660211671.08794,1531037.8016895,72
1660211671.08794,1531037.8016926,-11
1660211671.08794,1531037.8016957,2
1660211671.70705,1531037.8016993,58
1660211671.70705,1531037.8017024,49
1660211671.70705,1531037.8017053,42
1660211671.70705,1531037.8017082,126
1660211671.70705,1531037.801711,350
1660211671.70705,1531037.8017138,555
1660211671.70705,1531037.8017165,296
1660211671.70705,1531037.8017193,-331
1660211671.70705,1531037.801722,-497
1660211671.70705,1531037.8017249,-126
1660211671.70705,1531037.8017276,72
1660211671.70705,1531037.801731,46
1660211671.70705,1531037.8017338,84
1660211671.70705,1531037.8017366,116
1660211671.70705,1531037.8017395,116
1660211671.70705,1531037.8017422,114
1660211671.70705,1531037.801745,81
1660211671.70705,1531037.8017479,70
1660211671.70705,1531037.8017507,105
1660211671.70705,1531037.8017534,147
1660211671.70705,1531037.8017566,156
1660211671.70705,1531037.8017594,121
1660211671.70705,1531037.8017624,126
1660211671.70705,1531037.8017656,154
1660211671.70705,1531037.8017686,123
1660211671.70705,1531037.8017716,109
1660211671.70705,1531037.8017747,154
1660211671.70705,1531037.8017777,168
1660211671.70705,1531037.8017809,154
1660211671.70705,1531037.8017839,168
1660211671.70705,1531037.8017869,191
1660211671.70705,1531037.8017902,200
1660211671.70705,1531037.8017936,210
1660211671.70705,1531038.4365759,203
1660211671.70705,1531038.4365961,189
1660211671.70705,1531038.4366068,200
1660211671.70705,1531038.4366149,205
1660211671.70705,1531038.4366237,186
1660211671.70705,1531038.4366299,175
1660211671.70705,1531038.4366433,168

1660211671.70705,1531038.4366526,142
1660211671.70705,1531038.4366658,109
1660211671.70705,1531038.4366802,100
1660211671.70705,1531038.4366943,93
1660211671.70705,1531038.4367077,67
1660211671.70705,1531038.4367218,49
1660211671.70705,1531038.4367361,37
1660211671.70705,1531038.4367501,9
1660211671.70705,1531038.4367645,-18
1660211671.70705,1531038.4367792,-16
1660211671.7178,1531038.4367928,14
1660211671.7178,1531038.4368067,28
1660211671.7178,1531038.4368212,0
1660211671.7178,1531038.4368348,-25
1660211671.7178,1531038.4368484,-7
1660211671.7178,1531038.4368631,35
1660211671.7178,1531038.4368767,46
1660211671.7178,1531038.4368908,16
1660211671.7178,1531038.4369058,2
1660211671.7178,1531038.4369192,28
1660211671.7178,1531038.4369329,42
1660211671.7178,1531038.4369478,44
1660211671.7178,1531038.4369617,51
1660211671.7178,1531038.4369755,51
1660211671.7178,1531038.4369904,42
1660211671.7178,1531038.4370039,56
1660211671.7178,1531038.4370172,74
1660211671.7178,1531038.4370312,60
1660211671.7178,1531038.437053,44
1660211671.7178,1531038.4370664,49
1660211671.7178,1531038.4370805,42
1660211671.7178,1531038.4370909,32
1660211671.7178,1531038.4370988,49
1660211671.7178,1531038.4371135,67
1660211672.29934,1531038.4371213,77
1660211672.29934,1531038.4371298,84
1660211672.29934,1531038.4371402,86
1660211672.29934,1531038.4371463,95
1660211672.29934,1531038.4371499,107
1660211672.29934,1531038.4371606,121
1660211672.29934,1531038.4371651,130
1660211672.29934,1531038.437178,126
1660211672.29934,1531038.4371841,128
1660211672.29934,1531038.4371874,144
1660211672.29934,1531038.4371895,151
1660211672.29934,1531038.4371931,149
1660211672.29934,1531038.437206,142
1660211672.29934,1531038.43721,130
1660211672.29934,1531038.4372138,107
1660211672.29934,1531038.4372157,98
1660211672.29934,1531038.4372178,114
1660211672.29934,1531038.4372248,133
1660211672.29934,1531038.4372365,123
1660211672.29934,1531038.4372439,109
1660211672.29934,1531038.4372472,116
1660211672.29934,1531038.4372577,130
1660211672.29934,1531038.4372653,126
1660211672.29934,1531038.4372678,130
1660211672.29934,1531038.4372699,226
1660211672.29934,1531038.437272,441
1660211672.29934,1531038.4372745,621
1660211672.29934,1531038.4372839,348
1660211672.29934,1531038.437298,-294
1660211672.29934,1531038.4373117,-467
1660211672.29934,1531038.4373252,-109
1660211672.29934,1531038.4373441,58
1660211672.29934,1531039.0214406,25
1660211672.29934,1531039.0214531,88
1660211672.29934,1531039.0214559,123
1660211672.29934,1531039.0214585,84
1660211672.29934,1531039.021461,95
1660211672.29934,1531039.0214634,126
1660211672.29934,1531039.0214657,114
1660211672.29934,1531039.0214682,114
1660211672.29934,1531039.0214705,130
1660211672.29934,1531039.0214728,119
1660211672.29934,1531039.021475,86
1660211672.29934,1531039.0214775,65
1660211672.29934,1531039.0214797,77
1660211672.29934,1531039.0214824,98
1660211672.29934,1531039.0214886,105
1660211672.29934,1531039.0214999,98
1660211672.29934,1531039.0215053,77
1660211672.29934,1531039.0215087,72
1660211672.31031,1531039.0215108,91
1660211672.31031,1531039.0215128,100
1660211672.31031,1531039.0215148,112
1660211672.31031,1531039.0215221,123
1660211672.31031,1531039.0215329,98
1660211672.31031,1531039.0215365,67
1660211672.31031,1531039.0215404,67
1660211672.31031,1531039.0215424,72
1660211672.31031,1531039.0215445,60
1660211672.31031,1531039.0215466,49
1660211672.31031,1531039.0215486,53
1660211672.31031,1531039.0215518,42
1660211672.31031,1531039.0215639,18
1660211672.31031,1531039.021569,7
1660211672.31031,1531039.0215713,-9
1660211672.31031,1531039.0215771,-14
1660211672.31031,1531039.0215881,-2
1660211672.31031,1531039.0215932,-4
1660211672.31031,1531039.0215954,-11
1660211672.31031,1531039.0215975,-2
1660211672.31031,1531039.0215996,4
1660211672.31031,1531039.0216018,16
1660211672.31031,1531039.0216048,42
1660211672.31031,1531039.0216175,58
1660211672.78661,1531039.0216234,53
1660211672.78661,1531039.0216256,46
1660211672.78661,1531039.0216276,56
1660211672.78661,1531039.0216295,74
1660211672.78661,1531039.0216315,86
1660211672.78661,1531039.0216334,93
1660211672.78661,1531039.0216353,88
1660211672.78661,1531039.0216414,79
1660211672.78661,1531039.0216485,88
1660211672.78661,1531039.0216551,100
1660211672.78661,1531039.0216613,109
1660211672.78661,1531039.0216679,121
1660211672.78661,1531039.0216755,102
1660211672.78661,1531039.0216849,79
1660211672.78661,1531039.0216873,79
1660211672.78661,1531039.0216893,58
1660211672.78661,1531039.0216919,53
1660211672.78661,1531039.0216939,105
1660211672.78661,1531039.021696,112
1660211672.78661,1531039.021698,65
1660211672.78661,1531039.0217001,70
1660211672.78661,1531039.0217021,109
1660211672.78661,1531039.0217041,112
1660211672.78661,1531039.0217065,100
1660211672.78661,1531039.0217086,102
1660211672.78661,1531039.0217107,93
1660211672.78661,1531039.0217129,72
1660211672.78661,1531039.0217149,63
1660211672.78661,1531039.021717,58
1660211672.78661,1531039.021719,56
1660211672.78661,1531039.021721,53
1660211672.78661,1531039.5076827,51
1660211672.78661,1531039.5077032,65
1660211672.78661,1531039.5077183,81
1660211672.78661,1531039.5077328,70
1660211672.78661,1531039.5077469,56
1660211672.78661,1531039.50776,63
1660211672.78661,1531039.5077681,142
1660211672.78661,1531039.5077759,366
1660211672.78661,1531039.5077856,609
1660211672.78661,1531039.5077959,422
1660211672.78661,1531039.5078094,-259
1660211672.78661,1531039.5078226,-565
1660211672.78661,1531039.5078365,-217
1660211672.78661,1531039.5078502,-2
1660211672.78661,1531039.5078594,-51
1660211672.78661,1531039.5078622,4
1660211672.78661,1531039.5078643,56
1660211672.78661,1531039.5078663,28
1660211672.78661,1531039.5078684,30
1660211672.79858,1531039.5078703,37
1660211672.79858,1531039.5078723,21
1660211672.79858,1531039.5078744,23
1660211672.79858,1531039.5078803,42
1660211672.79858,1531039.507892,58
1660211672.79858,1531039.5078973,72
1660211672.79858,1531039.5078994,58
1660211672.79858,1531039.5079015,46
1660211672.79858,1531039.5079035,72
1660211672.79858,1531039.5079066,98
1660211672.79858,1531039.5079193,102
1660211672.79858,1531039.5079257,112
1660211672.79858,1531039.507928,121
1660211672.79858,1531039.50793,128
1660211672.79858,1531039.507932,137
1660211672.79858,1531039.5079341,133
1660211672.79858,1531039.5079362,130
1660211672.79858,1531039.5079437,151
1660211672.79858,1531039.5079547,165
1660211672.79858,1531039.5079644,158
1660211672.79858,1531039.5079732,149
1660211672.79858,1531039.5079801,140
1660211672.79858,1531039.5079831,126
1660211672.79858,1531039.5079926,137
1660211673.36531,1531039.508002,158
1660211673.36531,1531039.5080045,140
1660211673.36531,1531039.5080064,109
1660211673.36531,1531039.5080084,98
1660211673.36531,1531039.5080104,67
1660211673.36531,1531039.5080124,35
1660211673.36531,1531039.5080184,35
1660211673.36531,1531039.5080293,35
1660211673.36531,1531039.50804,28
1660211673.36531,1531039.5080517,37
1660211673.36531,1531039.5080651,51
1660211673.36531,1531039.5080756,58
1660211673.36531,1531039.5080791,70
1660211673.36531,1531039.5080826,81
1660211673.36531,1531039.5080846,77
1660211673.36531,1531039.5080883,72
1660211673.36531,1531039.508101,77
1660211673.36531,1531039.5081091,88
1660211673.36531,1531039.508141,109
1660211673.36531,1531039.5081587,123
1660211673.36531,1531039.5081658,114
1660211673.36531,1531039.5081722,126
1660211673.36531,1531039.5081776,147
1660211673.36531,1531039.5081832,126
1660211673.36531,1531039.5081895,114
1660211673.36531,1531039.508195,172
1660211673.36531,1531039.5081982,191
1660211673.36531,1531039.508201,114
1660211673.36531,1531039.5082038,91
1660211673.36531,1531039.5082068,140
1660211673.36531,1531040.093576,158
1660211673.36531,1531040.0935965,156
1660211673.36531,1531040.0936077,158
1660211673.36531,1531040.0936211,154
1660211673.36531,1531040.093631,128
1660211673.36531,1531040.0936386,109
1660211673.36531,1531040.0936435,112
1660211673.36531,1531040.0936484,105
1660211673.36531,1531040.0936533,65
1660211673.36531,1531040.0936579,32
1660211673.36531,1531040.0936624,46
1660211673.36531,1531040.0936671,60
1660211673.36531,1531040.0936753,60
1660211673.36531,1531040.0936815,77
1660211673.36531,1531040.0936892,91
1660211673.36531,1531040.0936952,88
1660211673.36531,1531040.0937003,65
1660211673.36531,1531040.0937074,30
1660211673.36531,1531040.0937151,112
1660211673.36531,1531040.0937225,418
1660211673.37529,1531040.0937272,775
1660211673.37529,1531040.093734,656
1660211673.37529,1531040.0937468,-79
1660211673.37529,1531040.0937553,-497
1660211673.37529,1531040.0937591,-182
1660211673.37529,1531040.0937739,56
1660211673.37529,1531040.0938226,-11
1660211673.37529,1531040.0938364,25
1660211673.37529,1531040.0938428,93
1660211673.37529,1531040.0938467,60
1660211673.37529,1531040.0938504,51
1660211673.37529,1531040.0938536,81
1660211673.37529,1531040.0938574,79
1660211673.37529,1531040.093861,79
1660211673.37529,1531040.0938646,91
1660211673.37529,1531040.093868,86
1660211673.37529,1531040.0938717,88
1660211673.37529,1531040.0938753,98
1660211673.37529,1531040.093879,98
1660211673.37529,1531040.0938827,98
1660211673.37529,1531040.0938864,98
1660211673.37529,1531040.0938901,109
1660211673.37529,1531040.0938942,128
1660211673.37529,1531040.0938999,130
1660211673.99971,1531040.0939035,119
1660211673.99971,1531040.0939096,133
1660211673.99971,1531040.093913,161
1660211673.99971,1531040.0939161,165
1660211673.99971,1531040.0939201,158
1660211673.99971,1531040.0939231,161
1660211673.99971,1531040.0939275,158
1660211673.99971,1531040.0939311,147
1660211673.99971,1531040.0939338,133
1660211673.99971,1531040.0939369,126
1660211673.99971,1531040.09394,119
1660211673.99971,1531040.0939429,105
1660211673.99971,1531040.093946,86
1660211673.99971,1531040.0939492,67
1660211673.99971,1531040.0939527,46
1660211673.99971,1531040.0939557,25
1660211673.99971,1531040.0939588,18
1660211673.99971,1531040.0939616,9
1660211673.99971,1531040.0939651,-4
1660211673.99971,1531040.093969,-9
1660211673.99971,1531040.0939724,-4
1660211673.99971,1531040.0939758,-9
1660211673.99971,1531040.0939804,-18
1660211673.99971,1531040.0939839,-25
1660211673.99971,1531040.0939887,-23
1660211673.99971,1531040.0939922,-14
1660211673.99971,1531040.093997,-14
1660211673.99971,1531040.0940009,-21
1660211673.99971,1531040.0940054,-16
1660211673.99971,1531040.7275389,-7
1660211673.99971,1531040.7275574,-7
1660211673.99971,1531040.7275616,-11
1660211673.99971,1531040.7275686,-7
1660211673.99971,1531040.7275728,4
1660211673.99971,1531040.7275757,4
1660211673.99971,1531040.7275787,7
1660211673.99971,1531040.727584,0
1660211673.99971,1531040.7275888,-21
1660211673.99971,1531040.7275918,-21
1660211673.99971,1531040.7275963,-7
1660211673.99971,1531040.7276014,-11
1660211673.99971,1531040.7276045,-18
1660211673.99971,1531040.7276074,-14
1660211673.99971,1531040.7276103,-9
1660211673.99971,1531040.7276137,-9
1660211673.99971,1531040.7276176,-9
1660211673.99971,1531040.7276214,-2
1660211673.99971,1531040.7276246,21
1660211673.99971,1531040.7276277,49
1660211673.99971,1531040.7276308,37
1660211674.00968,1531040.7276365,9
1660211674.00968,1531040.7276398,23
1660211674.00968,1531040.7276431,35
1660211674.00968,1531040.727648,16
1660211674.00968,1531040.7276523,4
1660211674.00968,1531040.7276577,-14
1660211674.00968,1531040.7276645,-37
1660211674.00968,1531040.7276703,-21
1660211674.00968,1531040.7276762,-4
1660211674.00968,1531040.7276812,-30
