Time,TimeLsl,Value
1660210370.08042,1529735.0175091,60
1660210370.08042,1529735.0175303,72
1660210370.08042,1529735.017546,70
1660210370.08042,1529735.0175605,53
1660210370.08042,1529735.017571,35
1660210370.08042,1529735.0175782,25
1660210370.08042,1529735.0175879,32
1660210370.08042,1529735.0175954,51
1660210370.08042,1529735.0176037,70
1660210370.08042,1529735.017611,88
1660210370.08042,1529735.0176174,95
1660210370.08042,1529735.0176249,60
1660210370.08042,1529735.0176318,18
1660210370.08042,1529735.0176377,18
1660210370.08042,1529735.0176452,30
1660210370.08042,1529735.0176509,18
1660210370.08042,1529735.0176586,9
1660210370.08042,1529735.0176637,16
1660210370.08042,1529735.0176743,16
1660210370.08042,1529735.0176803,9
1660210370.08042,1529735.017693,9
1660210370.08042,1529735.0177026,9
1660210370.08042,1529735.0177104,70
1660210370.08042,1529735.0177212,249
1660210370.08042,1529735.0177324,476
1660210370.08042,1529735.0177414,425
1660210370.08042,1529735.0177522,-128
1660210370.08042,1529735.0177625,-541
1660210370.08042,1529735.017771,-294
1660210370.08042,1529735.0177798,11
1660210370.08042,1529735.01779,-2
1660210370.08042,1529735.0177976,-4
1660210370.08042,1529735.0178079,63
1660210370.08042,1529735.0178189,60
1660210370.08042,1529735.0178274,60
1660210370.08042,1529735.0178367,93
1660210370.08042,1529735.0178469,98
1660210370.08042,1529735.0178554,93
1660210370.08042,1529735.0178652,102
1660210370.08042,1529735.0178756,102
1660210370.08042,1529735.0178837,100
1660210370.08042,1529735.0178929,114
1660210370.08042,1529735.0179029,126
1660210370.08042,1529735.0179107,130
1660210370.08042,1529735.0179201,137
1660210370.08042,1529735.0179299,137
1660210370.08042,1529735.0179386,137
1660210370.08042,1529735.0179495,149
1660210370.08042,1529735.0179595,154
1660210370.08042,1529735.0179683,147
1660210370.1981,1529735.0179802,137
1660210370.1981,1529735.0179952,137
1660210370.1981,1529735.0180039,154
1660210370.1981,1529735.0180152,163
1660210370.1981,1529735.0180267,144
1660210370.1981,1529735.0180351,123
1660210370.1981,1529735.0180464,114
1660210370.1981,1529735.0180563,109
1660210370.1981,1529735.0180645,114
1660210370.1981,1529735.018073,121
1660210370.1981,1529735.0180846,114
1660210370.1981,1529735.0180922,95
1660210370.1981,1529735.018103,74
1660210370.1981,1529735.0181134,60
1660210370.1981,1529735.0181219,63
1660210370.1981,1529735.0181301,65
1660210370.1981,1529735.0181408,56
1660210370.1981,1529735.018149,65
1660210370.1981,1529735.0181583,79
1660210370.1981,1529735.0181681,81
1660210370.1981,1529735.0181765,84
1660210370.1981,1529735.0181846,88
1660210370.1981,1529735.0181951,91
1660210370.1981,1529735.6498853,98
1660210370.1981,1529735.6499055,102
1660210370.1981,1529735.6499151,100
1660210370.1981,1529735.6499222,98
1660210370.1981,1529735.6499292,105
1660210370.1981,1529735.6499339,112
1660210370.1981,1529735.6499378,112
1660210370.1981,1529735.6499406,116
1660210370.1981,1529735.6499439,112
1660210370.1981,1529735.6499472,98
1660210370.1981,1529735.6499501,95
1660210370.1981,1529735.6499564,107
1660210370.1981,1529735.6499604,109
1660210370.1981,1529735.6499652,109
1660210370.1981,1529735.6499715,102
1660210370.1981,1529735.649978,79
1660210370.1981,1529735.6499839,49
1660210370.1981,1529735.6499873,37
1660210370.1981,1529735.6499907,46
1660210370.1981,1529735.6499945,65
1660210370.1981,1529735.6499981,77
1660210370.1981,1529735.6500048,74
1660210370.1981,1529735.6500083,72
1660210370.1981,1529735.6500135,93
1660210370.1981,1529735.6500179,102
1660210370.1981,1529735.6500244,84
1660210370.1981,1529735.6500278,72
1660210370.24398,1529735.6500321,60
1660210370.24398,1529735.6500351,35
1660210370.24398,1529735.650038,28
1660210370.24398,1529735.6500408,49
1660210370.24398,1529735.6500436,60
1660210370.24398,1529735.6500464,58
1660210370.24398,1529735.6500493,63
1660210370.24398,1529735.6500521,63
1660210370.24398,1529735.6500549,77
1660210370.24398,1529735.6500577,177
1660210370.24398,1529735.6500605,418
1660210370.24398,1529735.6500635,651
1660210370.24398,1529735.6500663,429
1660210370.24398,1529735.6500692,-240
1660210370.24398,1529735.6500721,-485
1660210370.24398,1529735.650075,-119
1660210370.24398,1529735.6500779,84
1660210370.24398,1529735.6500808,28
1660210370.24398,1529735.6500836,65
1660210370.24398,1529735.6500864,116
1660210370.24398,1529735.6500893,81
1660210370.24398,1529735.6500921,72
1660210370.24398,1529735.6500949,100
1660210370.24398,1529735.6500976,105
1660210370.24398,1529735.6501006,102
1660210370.24398,1529735.6501034,114
1660210370.24398,1529735.6501063,119
1660210370.24398,1529735.6501091,116
1660210370.24398,1529735.6501123,123
1660210370.24398,1529735.6501172,128
1660210370.24398,1529735.65013,130
1660210370.24398,1529735.6501439,140
1660210370.24398,1529735.6501522,154
1660210370.24398,1529735.6501547,165
1660210370.24398,1529735.6501576,172
1660210370.24398,1529735.6501662,172
1660210370.24398,1529735.6501783,177
1660210370.24398,1529735.6501885,182
1660210370.24398,1529735.6502029,179
1660210370.24398,1529735.6502157,170
1660210370.24398,1529735.650224,158
1660210370.24398,1529735.6502283,147
1660210370.24398,1529735.6502324,135
1660210370.24398,1529735.6502428,133
1660210370.24398,1529735.6502564,140
1660210370.24398,1529735.6502686,137
1660210370.24398,1529736.0884415,121
1660210370.24398,1529736.088461,100
1660210370.24398,1529736.088471,88
1660210370.24398,1529736.0884764,84
1660210370.26891,1529736.0884833,60
1660210370.26891,1529736.0884894,35
1660210370.26891,1529736.0884965,28
1660210370.26891,1529736.0885026,32
1660210370.26891,1529736.0885073,37
1660210370.26891,1529736.088512,39
1660210370.26891,1529736.0885203,30
1660210370.26891,1529736.088527,18
1660210370.26891,1529736.0885338,4
1660210370.26891,1529736.0885384,-4
1660210370.26891,1529736.0885446,7
1660210370.26891,1529736.0885498,23
1660210370.26891,1529736.0885564,25
1660210370.26891,1529736.0885611,18
1660210370.26891,1529736.0885677,-2
1660210370.26891,1529736.0885763,-25
1660210370.26891,1529736.0885844,-16
1660210370.26891,1529736.0885905,9
1660210370.26891,1529736.0885966,14
1660210370.26891,1529736.0886021,0
1660210370.26891,1529736.0886079,-4
1660210370.26891,1529736.0886131,2
1660210370.26891,1529736.0886186,7
1660210370.26891,1529736.0886228,4
1660210370.26891,1529736.0886286,9
1660210370.26891,1529736.0886343,28
1660210370.26891,1529736.0886384,37
1660210370.26891,1529736.0886438,37
1660210370.26891,1529736.0886489,53
1660210370.26891,1529736.0886547,88
1660210370.26891,1529736.0886611,98
1660210370.26891,1529736.0886663,72
1660210370.26891,1529736.0886724,51
1660210370.26891,1529736.0886763,37
1660210370.26891,1529736.0886842,32
1660210370.26891,1529736.0886902,42
1660210370.26891,1529736.0886957,53
1660210370.26891,1529736.0887014,58
1660210370.26891,1529736.0887054,67
1660210370.26891,1529736.0887109,65
1660210370.26891,1529736.0887148,46
1660210370.26891,1529736.08872,35
1660210370.26891,1529736.0887243,109
1660210370.26891,1529736.0887298,350
1660210370.26891,1529736.088734,644
1660210370.26891,1529736.0887396,537
1660210370.26891,1529736.0887429,-161
1660210370.26891,1529736.0887489,-590
1660210370.26891,1529736.088753,-240
1660210370.26891,1529736.0887571,93
1660210370.28288,1529736.0887625,60
1660210370.28288,1529736.0887664,74
1660210370.28288,1529736.0887715,135
1660210370.28288,1529736.0887765,107
1660210370.28288,1529736.0887801,91
1660210370.28288,1529736.0887837,119
1660210370.28288,1529736.0887875,133
1660210370.28288,1529736.0887912,137
1660210370.28288,1529736.0887948,137
1660210370.28288,1529736.0887984,121
1660210370.28288,1529736.0888021,107
1660210370.28288,1529736.0888056,121
1660210370.28288,1529736.0888093,135
1660210370.28288,1529736.088813,142
1660210370.28288,1529736.0888165,154
1660210370.28288,1529736.0888237,170
1660210370.28288,1529736.0888296,179
1660210370.28288,1529736.0888332,196
1660210370.28288,1529736.0888368,212
1660210370.28288,1529736.6244105,221
1660210370.28288,1529736.6244288,231
1660210370.28288,1529736.6244379,233
1660210370.57827,1529736.6244424,214
1660210370.57827,1529736.6244466,207
1660210370.57827,1529736.6244507,210
1660210370.57827,1529736.6244547,198
1660210370.57827,1529736.6244585,177
1660210370.57827,1529736.6244654,156
1660210370.57827,1529736.6244732,130
1660210370.57827,1529736.6244779,112
1660210370.57827,1529736.6244821,107
1660210370.57827,1529736.6244872,91
1660210370.57827,1529736.6244928,70
1660210370.57827,1529736.6244973,51
1660210370.57827,1529736.6245043,21
1660210370.57827,1529736.6245106,2
1660210370.57827,1529736.6245167,2
1660210370.57827,1529736.6245253,-4
1660210370.57827,1529736.6245294,-7
1660210370.57827,1529736.6245352,4
1660210370.57827,1529736.6245399,4
1660210370.57827,1529736.6245449,-2
1660210370.57827,1529736.6245492,-7
1660210370.57827,1529736.6245541,-4
1660210370.57827,1529736.6245575,4
1660210370.57827,1529736.624561,11
1660210370.57827,1529736.6245673,14
1660210370.57827,1529736.6245702,14
1660210370.57827,1529736.6245733,14
1660210370.57827,1529736.6245761,18
1660210370.57827,1529736.624579,23
1660210370.57827,1529736.6245819,18
1660210370.57827,1529736.6245847,9
1660210370.57827,1529736.6245881,9
1660210370.57827,1529736.624591,9
1660210370.57827,1529736.624594,2
1660210370.57827,1529736.6245967,7
1660210370.57827,1529736.6245996,25
1660210370.57827,1529736.6246024,49
1660210370.57827,1529736.6246053,60
1660210370.57827,1529736.6246082,65
1660210370.57827,1529736.6246111,74
1660210370.57827,1529736.624614,67
1660210370.57827,1529736.6246169,53
1660210370.57827,1529736.6246197,49
1660210370.57827,1529736.6246226,51
1660210370.57827,1529736.6246254,51
1660210370.57827,1529736.6246286,46
1660210370.57827,1529736.6246316,46
1660210370.57827,1529736.624635,49
1660210370.57827,1529736.6246485,58
1660210370.57827,1529736.6246555,65
1660210370.63413,1529736.62466,46
1660210370.63413,1529736.6246668,63
1660210370.63413,1529736.6246702,231
1660210370.63413,1529736.6246814,516
1660210370.63413,1529736.6246926,576
1660210370.63413,1529736.6247063,72
1660210370.63413,1529736.6247193,-474
1660210370.63413,1529736.6247311,-333
1660210370.63413,1529736.6247418,32
1660210370.63413,1529736.6247553,60
1660210370.63413,1529736.6247656,46
1660210370.63413,1529736.6247747,130
1660210370.63413,1529736.6247821,137
1660210370.63413,1529736.6247912,112
1660210370.63413,1529736.624796,128
1660210370.63413,1529736.6248047,128
1660210370.63413,1529736.6248113,109
1660210370.63413,1529736.6248185,121
1660210370.63413,1529736.6248248,133
1660210370.63413,1529736.624832,123
1660210370.63413,1529737.211039,123
1660210370.63413,1529737.2110564,142
1660210370.63413,1529737.211061,151
1660210370.63413,1529737.2110679,156
1660210371.01952,1529737.2110716,154
1660210371.01952,1529737.2110752,126
1660210371.01952,1529737.2110789,100
1660210371.01952,1529737.2110825,119
1660210371.01952,1529737.2110861,156
1660210371.01952,1529737.2110897,172
1660210371.01952,1529737.2110934,177
1660210371.01952,1529737.2110972,163
1660210371.01952,1529737.211101,135
1660210371.01952,1529737.2111046,119
1660210371.01952,1529737.2111102,107
1660210371.01952,1529737.2111141,95
1660210371.01952,1529737.2111179,98
1660210371.01952,1529737.2111217,100
1660210371.01952,1529737.2111255,86
1660210371.01952,1529737.2111292,72
1660210371.01952,1529737.2111328,72
1660210371.01952,1529737.2111366,67
1660210371.01952,1529737.2111403,51
1660210371.01952,1529737.2111441,37
1660210371.01952,1529737.2111478,35
1660210371.01952,1529737.2111535,35
1660210371.01952,1529737.2111573,42
1660210371.01952,1529737.211161,44
1660210371.01952,1529737.2111648,35
1660210371.01952,1529737.2111685,35
1660210371.01952,1529737.2111721,28
1660210371.01952,1529737.2111759,23
1660210371.01952,1529737.2111797,28
1660210371.01952,1529737.2111832,37
1660210371.01952,1529737.2111867,42
1660210371.01952,1529737.2111913,46
1660210371.01952,1529737.2111955,49
1660210371.01952,1529737.2112014,53
1660210371.01952,1529737.2112051,53
1660210371.01952,1529737.211209,39
1660210371.01952,1529737.2112128,30
1660210371.01952,1529737.2112171,44
1660210371.01952,1529737.211221,46
1660210371.01952,1529737.2112266,32
1660210371.01952,1529737.2112307,39
1660210371.01952,1529737.211236,60
1660210371.01952,1529737.2112434,65
1660210371.01952,1529737.2112474,63
1660210371.01952,1529737.2112526,77
1660210371.01952,1529737.2112564,88
1660210371.01952,1529737.2112619,70
1660210371.01952,1529737.2112657,46
1660210371.01952,1529737.211271,39
1660210371.01952,1529737.211275,32
1660210371.04146,1529737.211282,35
1660210371.04146,1529737.2112874,49
1660210371.04146,1529737.2112913,53
1660210371.04146,1529737.2112967,56
1660210371.04146,1529737.2113007,70
1660210371.04146,1529737.211306,67
1660210371.04146,1529737.21131,37
1660210371.04146,1529737.2113151,53
1660210371.04146,1529737.2113188,207
1660210371.04146,1529737.2113244,474
1660210371.04146,1529737.2113298,483
1660210371.04146,1529737.2113353,-49
1660210371.04146,1529737.2113393,-495
1660210371.04146,1529737.2113447,-266
1660210371.04146,1529737.2113487,58
1660210371.04146,1529737.2113542,49
1660210371.04146,1529737.2113583,32
1660210371.04146,1529737.2113636,95
1660210371.04146,1529737.2113707,100
1660210371.04146,1529737.7458574,105
1660210371.04146,1529737.7458888,135
1660210371.04146,1529737.7459002,123
1660210371.04146,1529737.745909,100
1660210371.04146,1529737.7459175,107
1660210371.65794,1529737.7459264,114
1660210371.65794,1529737.7459335,109
1660210371.65794,1529737.7459398,109
1660210371.65794,1529737.7459448,112
1660210371.65794,1529737.7459501,105
1660210371.65794,1529737.745957,100
1660210371.65794,1529737.7459614,114
1660210371.65794,1529737.7459665,135
1660210371.65794,1529737.7459703,142
1660210371.65794,1529737.745977,144
1660210371.65794,1529737.7459833,151
1660210371.65794,1529737.7459903,151
1660210371.65794,1529737.7459973,147
1660210371.65794,1529737.7460078,147
1660210371.65794,1529737.7460145,149
1660210371.65794,1529737.7460185,147
1660210371.65794,1529737.7460222,130
1660210371.65794,1529737.7460257,116
1660210371.65794,1529737.7460294,126
1660210371.65794,1529737.746033,121
1660210371.65794,1529737.7460366,88
1660210371.65794,1529737.7460399,74
1660210371.65794,1529737.7460432,79
1660210371.65794,1529737.7460466,65
1660210371.65794,1529737.7460501,46
1660210371.65794,1529737.7460538,44
1660210371.65794,1529737.7460573,44
1660210371.65794,1529737.7460613,49
1660210371.65794,1529737.746065,60
1660210371.65794,1529737.7460698,60
1660210371.65794,1529737.7460743,46
1660210371.65794,1529737.7460775,39
1660210371.65794,1529737.7460805,49
1660210371.65794,1529737.7460836,63
1660210371.65794,1529737.7460867,63
1660210371.65794,1529737.7460956,65
1660210371.65794,1529737.7460984,70
1660210371.65794,1529737.7461018,72
1660210371.65794,1529737.7461043,79
1660210371.65794,1529737.7461069,98
1660210371.65794,1529737.7461396,107
1660210371.65794,1529737.746148,86
1660210371.65794,1529737.7461527,60
1660210371.65794,1529737.7461568,53
1660210371.65794,1529737.7461612,39
1660210371.65794,1529737.7461683,28
1660210371.65794,1529737.7461724,46
1660210371.65794,1529737.7461754,72
1660210371.65794,1529737.7461783,81
1660210371.65794,1529737.7461812,74
1660210371.67888,1529737.7461846,74
1660210371.67888,1529737.7461874,84
1660210371.67888,1529737.7461902,70
1660210371.67888,1529737.7461931,39
1660210371.67888,1529737.7461959,32
1660210371.67888,1529737.7461989,35
1660210371.67888,1529737.7462017,28
1660210371.67888,1529737.7462045,28
1660210371.67888,1529737.7462073,51
1660210371.67888,1529737.7462101,70
1660210371.67888,1529737.7462129,63
1660210371.67888,1529737.7462157,44
1660210371.67888,1529737.7462185,30
1660210371.67888,1529737.7462214,53
1660210371.67888,1529737.7462243,184
1660210371.67888,1529737.7462271,443
1660210371.67888,1529737.7462298,544
1660210371.67888,1529737.7462326,100
1660210371.67888,1529738.3794996,-420
1660210371.67888,1529738.3795151,-296
1660210371.67888,1529738.3795194,44
1660210371.67888,1529738.3795252,65
1660210371.67888,1529738.3795289,32
1660210371.67888,1529738.3795342,84
1660210372.19202,1529738.3795378,72
1660210372.19202,1529738.3795416,60
1660210372.19202,1529738.3795451,95
1660210372.19202,1529738.3795487,100
1660210372.19202,1529738.3795521,84
1660210372.19202,1529738.3795555,86
1660210372.19202,1529738.379559,70
1660210372.19202,1529738.3795625,51
1660210372.19202,1529738.379566,70
1660210372.19202,1529738.3795695,91
1660210372.19202,1529738.3795731,95
1660210372.19202,1529738.3795765,105
1660210372.19202,1529738.3795798,116
1660210372.19202,1529738.379583,128
1660210372.19202,1529738.3795862,144
1660210372.19202,1529738.3795891,161
1660210372.19202,1529738.3795921,179
1660210372.19202,1529738.3795955,196
1660210372.19202,1529738.3795985,191
1660210372.19202,1529738.3796014,193
1660210372.19202,1529738.3796045,203
1660210372.19202,1529738.3796074,191
1660210372.19202,1529738.3796106,165
1660210372.19202,1529738.3796139,154
1660210372.19202,1529738.3796179,158
1660210372.19202,1529738.3796232,163
1660210372.19202,1529738.3796273,165
1660210372.19202,1529738.3796337,163
1660210372.19202,1529738.3796386,156
1660210372.19202,1529738.3796438,149
1660210372.19202,1529738.3796493,137
1660210372.19202,1529738.3796564,116
1660210372.19202,1529738.3796655,107
1660210372.19202,1529738.3796737,105
1660210372.19202,1529738.3796806,107
1660210372.19202,1529738.3796873,112
1660210372.19202,1529738.3796959,109
1660210372.19202,1529738.3797042,109
1660210372.19202,1529738.3797125,116
1660210372.19202,1529738.3797183,119
1660210372.19202,1529738.3797239,114
1660210372.19202,1529738.3797329,98
1660210372.19202,1529738.3797396,93
1660210372.19202,1529738.3797472,107
1660210372.19202,1529738.3797531,112
1660210372.19202,1529738.3797606,109
1660210372.19202,1529738.3797693,114
1660210372.19202,1529738.3797774,114
1660210372.19202,1529738.3797836,114
1660210372.19202,1529738.3797888,119
1660210372.20398,1529738.3797977,123
1660210372.20398,1529738.3798059,119
1660210372.20398,1529738.379813,116
1660210372.20398,1529738.3798178,116
1660210372.20398,1529738.3798258,109
1660210372.20398,1529738.3798344,102
1660210372.20398,1529738.3798426,95
1660210372.20398,1529738.3798487,88
1660210372.20398,1529738.3798541,95
1660210372.20398,1529738.379863,107
1660210372.20398,1529738.379871,109
1660210372.20398,1529738.3798776,116
1660210372.20398,1529738.3798829,128
1660210372.20398,1529738.3798908,112
1660210372.20398,1529738.3798993,86
1660210372.20398,1529738.3799071,74
1660210372.20398,1529738.3799146,72
1660210372.20398,1529738.9168887,72
1660210372.20398,1529738.9169068,77
1660210372.20398,1529738.9169141,74
1660210372.20398,1529738.9169205,70
1660210372.20398,1529738.9169248,84
1660210372.20398,1529738.9169294,93
1660210372.20398,1529738.9169336,77
1660210372.72635,1529738.9169376,84
1660210372.72635,1529738.9169422,203
1660210372.72635,1529738.916947,481
1660210372.72635,1529738.9169517,728
1660210372.72635,1529738.9169564,429
1660210372.72635,1529738.9169612,-301
1660210372.72635,1529738.9169661,-478
1660210372.72635,1529738.9169709,-74
1660210372.72635,1529738.9169758,65
1660210372.72635,1529738.9169806,-9
1660210372.72635,1529738.9169856,58
1660210372.72635,1529738.9169907,100
1660210372.72635,1529738.9169951,53
1660210372.72635,1529738.9169995,49
1660210372.72635,1529738.9170049,53
1660210372.72635,1529738.9170115,25
1660210372.72635,1529738.9170163,28
1660210372.72635,1529738.9170212,56
1660210372.72635,1529738.9170279,60
1660210372.72635,1529738.9170333,56
1660210372.72635,1529738.9170402,63
1660210372.72635,1529738.9170468,70
1660210372.72635,1529738.9170532,77
1660210372.72635,1529738.9170578,93
1660210372.72635,1529738.917064,109
1660210372.72635,1529738.9170685,114
1660210372.72635,1529738.9170732,126
1660210372.72635,1529738.9170779,140
1660210372.72635,1529738.9170824,156
1660210372.72635,1529738.917087,177
1660210372.72635,1529738.9170936,186
1660210372.72635,1529738.9170982,175
1660210372.72635,1529738.9171029,154
1660210372.72635,1529738.9171099,133
1660210372.72635,1529738.9171169,126
1660210372.72635,1529738.9171236,126
1660210372.72635,1529738.9171285,126
1660210372.72635,1529738.9171349,126
1660210372.72635,1529738.9171393,116
1660210372.72635,1529738.9171434,107
1660210372.72635,1529738.9171477,102
1660210372.72635,1529738.9171519,93
1660210372.72635,1529738.9171564,84
1660210372.72635,1529738.9171611,74
1660210372.72635,1529738.9171659,63
1660210372.72635,1529738.9171725,46
1660210372.72635,1529738.9171771,39
1660210372.72635,1529738.9171816,42
1660210372.72635,1529738.9171862,42
1660210372.72635,1529738.9171905,51
1660210372.73932,1529738.9171948,67
1660210372.73932,1529738.9171991,67
1660210372.73932,1529738.9172041,60
1660210372.73932,1529738.9172108,70
1660210372.73932,1529738.9172157,79
1660210372.73932,1529738.917222,72
1660210372.73932,1529738.9172266,74
1660210372.73932,1529738.9172314,84
1660210372.73932,1529738.9172378,77
1660210372.73932,1529738.9172426,65
1660210372.73932,1529738.9172471,77
1660210372.73932,1529738.9172517,88
1660210372.73932,1529738.9172564,79
1660210372.73932,1529738.9172626,72
1660210372.73932,1529738.9172701,77
1660210372.73932,1529738.9172747,74
1660210372.73932,1529739.4525459,65
1660210372.73932,1529739.4525693,53
1660210372.73932,1529739.4525846,49
1660210372.73932,1529739.4526028,51
1660210372.73932,1529739.4526309,46
1660210372.73932,1529739.4526506,39
1660210372.73932,1529739.4526588,39
1660210372.73932,1529739.4526659,44
1660210373.26798,1529739.4526699,60
1660210373.26798,1529739.4526735,81
1660210373.26798,1529739.4526771,60
1660210373.26798,1529739.4526807,2
1660210373.26798,1529739.4526841,-37
1660210373.26798,1529739.4526876,-37
1660210373.26798,1529739.452691,-30
1660210373.26798,1529739.4526946,-30
1660210373.26798,1529739.4526981,-35
1660210373.26798,1529739.4527013,-49
1660210373.26798,1529739.452705,-67
1660210373.26798,1529739.4527081,-70
1660210373.26798,1529739.4527113,-56
1660210373.26798,1529739.4527144,-63
1660210373.26798,1529739.4527175,-46
1660210373.26798,1529739.4527206,98
1660210373.26798,1529739.4527238,385
1660210373.26798,1529739.4527269,562
1660210373.26798,1529739.45273,151
1660210373.26798,1529739.4527332,-560
1660210373.26798,1529739.4527364,-595
1660210373.26798,1529739.4527395,-128
1660210373.26798,1529739.4527426,0
1660210373.26798,1529739.4527459,-70
1660210373.26798,1529739.4527491,-11
1660210373.26798,1529739.4527524,25
1660210373.26798,1529739.4527556,2
1660210373.26798,1529739.4527589,21
1660210373.26798,1529739.4527622,44
1660210373.26798,1529739.4527654,25
1660210373.26798,1529739.4527685,21
1660210373.26798,1529739.4527717,46
1660210373.26798,1529739.452775,60
1660210373.26798,1529739.4527781,58
1660210373.26798,1529739.4527812,53
1660210373.26798,1529739.452786,51
1660210373.26798,1529739.4527892,63
1660210373.26798,1529739.4527925,84
1660210373.26798,1529739.4527957,102
1660210373.26798,1529739.4527994,123
1660210373.26798,1529739.4528025,140
1660210373.26798,1529739.4528057,135
1660210373.26798,1529739.4528089,133
1660210373.26798,1529739.4528118,151
1660210373.26798,1529739.4528147,168
1660210373.26798,1529739.4528182,172
1660210373.26798,1529739.4528215,172
1660210373.26798,1529739.4528249,156
1660210373.26798,1529739.4528285,144
1660210373.26798,1529739.4528317,165
1660210373.28194,1529739.4528348,184
1660210373.28194,1529739.4528408,154
1660210373.28194,1529739.4528478,121
1660210373.28194,1529739.4528524,119
1660210373.28194,1529739.4528559,105
1660210373.28194,1529739.4528592,81
1660210373.28194,1529739.4528622,67
1660210373.28194,1529739.4528651,56
1660210373.28194,1529739.4528684,42
1660210373.28194,1529739.4528717,42
1660210373.28194,1529739.4528745,39
1660210373.28194,1529739.4528788,30
1660210373.28194,1529739.4528825,35
1660210373.28194,1529739.4528852,56
1660210373.28194,1529739.4528878,65
1660210373.28194,1529739.9880223,51
1660210373.28194,1529739.9880358,42
1660210373.28194,1529739.9880441,46
1660210373.28194,1529739.9880533,58
1660210373.28194,1529739.9880573,67
1660210373.28194,1529739.9880627,42
1660210373.28194,1529739.988066,18
1660210373.28194,1529739.9880694,74
1660210373.28194,1529739.9880775,119
1660210373.95206,1529739.9880831,63
1660210373.95206,1529739.9880852,11
1660210373.95206,1529739.9880882,23
1660210373.95206,1529739.9880901,37
1660210373.95206,1529739.9880921,30
1660210373.95206,1529739.9880939,16
1660210373.95206,1529739.988096,-2
1660210373.95206,1529739.9880979,-18
1660210373.95206,1529739.9880998,-25
1660210373.95206,1529739.9881018,-16
1660210373.95206,1529739.9881037,-14
1660210373.95206,1529739.9881057,-39
1660210373.95206,1529739.9881077,-39
1660210373.95206,1529739.9881096,-2
1660210373.95206,1529739.9881115,18
1660210373.95206,1529739.9881134,9
1660210373.95206,1529739.9881152,11
1660210373.95206,1529739.9881171,28
1660210373.95206,1529739.988119,23
1660210373.95206,1529739.9881209,2
1660210373.95206,1529739.9881229,0
1660210373.95206,1529739.9881248,14
1660210373.95206,1529739.9881267,-2
1660210373.95206,1529739.9881287,-37
1660210373.95206,1529739.9881313,-2
1660210373.95206,1529739.988134,44
1660210373.95206,1529739.9881361,18
1660210373.95206,1529739.9881381,-11
1660210373.95206,1529739.9881401,4
1660210373.95206,1529739.9881421,11
1660210373.95206,1529739.9881442,-4
1660210373.95206,1529739.9881462,44
1660210373.95206,1529739.9881482,256
1660210373.95206,1529739.9881503,558
1660210373.95206,1529739.9881523,555
1660210373.95206,1529739.9881544,-74
1660210373.95206,1529739.9881564,-614
1660210373.95206,1529739.9881584,-326
1660210373.95206,1529739.9881604,53
1660210373.95206,1529739.9881624,11
1660210373.95206,1529739.9881644,11
1660210373.95206,1529739.9881664,112
1660210373.95206,1529739.9881684,98
1660210373.95206,1529739.9881705,74
1660210373.95206,1529739.9881724,107
1660210373.95206,1529739.9881744,107
1660210373.95206,1529739.9881765,88
1660210373.95206,1529739.9881784,98
1660210373.95206,1529739.9881804,123
1660210373.95206,1529739.9881824,147
1660210373.96602,1529739.9881844,149
1660210373.96602,1529739.9881864,126
1660210373.96602,1529739.9881884,116
1660210373.96602,1529739.9881904,137
1660210373.96602,1529739.9881925,156
1660210373.96602,1529739.9881944,168
1660210373.96602,1529739.9881964,156
1660210373.96602,1529739.9881984,130
1660210373.96602,1529739.9882004,161
1660210373.96602,1529739.9882023,228
1660210373.96602,1529739.9882043,238
1660210373.96602,1529739.9882064,210
1660210373.96602,1529739.9882084,203
1660210373.96602,1529739.9882105,196
1660210373.96602,1529740.6714651,182
1660210373.96602,1529740.6714867,179
1660210373.96602,1529740.6714933,142
1660210373.96602,1529740.6714981,70
1660210373.96602,1529740.6715044,100
1660210373.96602,1529740.6715087,191
1660210373.96602,1529740.6715149,142
1660210373.96602,1529740.6715193,44
1660210373.96602,1529740.6715237,42
1660210373.96602,1529740.6715298,51
1660210374.37949,1529740.6715352,28
1660210374.37949,1529740.671539,-4
1660210374.37949,1529740.6715436,-23
1660210374.37949,1529740.6715495,-28
1660210374.37949,1529740.6715542,-49
1660210374.37949,1529740.6715585,-51
1660210374.37949,1529740.6715625,-9
1660210374.37949,1529740.6715668,16
1660210374.37949,1529740.6715717,-2
1660210374.37949,1529740.6715764,-11
1660210374.37949,1529740.6715806,-7
1660210374.37949,1529740.6715843,-4
1660210374.37949,1529740.6715887,-4
1660210374.37949,1529740.671593,-7
1660210374.37949,1529740.6715967,-18
1660210374.37949,1529740.6716012,-42
1660210374.37949,1529740.6716054,-86
1660210374.37949,1529740.6716089,-65
1660210374.37949,1529740.6716134,39
1660210374.37949,1529740.6716189,49
1660210374.37949,1529740.6716244,-21
1660210374.37949,1529740.6716281,-23
1660210374.37949,1529740.6716359,-16
1660210374.37949,1529740.6716426,-25
1660210374.37949,1529740.6716486,-18
1660210374.37949,1529740.6716527,-11
1660210374.37949,1529740.6716583,-9
1660210374.37949,1529740.6716662,-23
1660210374.37949,1529740.6716731,-53
1660210374.37949,1529740.6716793,-28
1660210374.37949,1529740.6716876,44
1660210374.37949,1529740.6716962,60
1660210374.37949,1529740.6717025,18
1660210374.37949,1529740.6717099,0
1660210374.37949,1529740.6717159,7
1660210374.37949,1529740.6717236,18
1660210374.37949,1529740.6717324,30
1660210374.37949,1529740.6717408,39
1660210374.37949,1529740.671748,37
1660210374.37949,1529740.671758,25
1660210374.37949,1529740.67177,49
1660210374.37949,1529740.6717821,121
1660210374.37949,1529740.671794,142
1660210374.37949,1529740.6718068,91
1660210374.37949,1529740.6718196,56
1660210374.37949,1529740.6718308,63
1660210374.37949,1529740.6718407,53
1660210374.37949,1529740.6718555,37
1660210374.37949,1529740.6718684,44
1660210374.37949,1529740.6718821,46
1660210374.39544,1529740.6719181,32
1660210374.39544,1529740.6719317,49
1660210374.39544,1529740.6719421,77
1660210374.39544,1529740.6719455,70
1660210374.39544,1529740.6719513,49
1660210374.39544,1529740.6719596,63
1660210374.39544,1529740.6719661,154
1660210374.39544,1529740.6719699,366
1660210374.39544,1529740.6719787,621
1660210374.39544,1529740.671991,504
1660210374.39544,1529740.6720005,-133
1660210374.39544,1529740.6720091,-483
1660210374.39544,1529740.672018,-168
1660210374.39544,1529741.1099497,88
1660210374.39544,1529741.1099674,37
1660210374.39544,1529741.1099718,63
1660210374.39544,1529741.1099771,140
1660210374.39544,1529741.1099813,107
1660210374.39544,1529741.1099845,93
1660210374.39544,1529741.1099877,121
1660210374.39544,1529741.1099913,112
1660210374.39544,1529741.1099962,100
1660210374.39544,1529741.1100009,109
1660210374.39544,1529741.1100044,88
1660210374.97326,1529741.1100076,53
1660210374.97326,1529741.1100108,60
1660210374.97326,1529741.110014,88
1660210374.97326,1529741.110017,95
1660210374.97326,1529741.1100201,105
1660210374.97326,1529741.1100235,109
1660210374.97326,1529741.1100269,102
1660210374.97326,1529741.11003,107
1660210374.97326,1529741.1100333,126
1660210374.97326,1529741.1100367,147
1660210374.97326,1529741.1100402,137
1660210374.97326,1529741.1100438,81
1660210374.97326,1529741.1100472,91
1660210374.97326,1529741.1100513,133
1660210374.97326,1529741.1100546,98
1660210374.97326,1529741.1100579,67
1660210374.97326,1529741.110061,81
1660210374.97326,1529741.1100647,56
1660210374.97326,1529741.1100687,32
1660210374.97326,1529741.1100736,49
1660210374.97326,1529741.1100788,49
1660210374.97326,1529741.110082,14
1660210374.97326,1529741.1100855,-21
1660210374.97326,1529741.1100905,-44
1660210374.97326,1529741.1100942,-60
1660210374.97326,1529741.1100992,-46
1660210374.97326,1529741.1101024,-18
1660210374.97326,1529741.1101071,-37
1660210374.97326,1529741.1101124,-79
1660210374.97326,1529741.1101181,-74
1660210374.97326,1529741.1101214,-42
1660210374.97326,1529741.1101264,-28
1660210374.97326,1529741.1101305,-28
1660210374.97326,1529741.1101349,-16
1660210374.97326,1529741.1101383,4
1660210374.97326,1529741.1101416,9
1660210374.97326,1529741.1101472,-4
1660210374.97326,1529741.1101514,-23
1660210374.97326,1529741.1101563,-21
1660210374.97326,1529741.1101598,9
1660210374.97326,1529741.1101648,42
1660210374.97326,1529741.1101693,35
1660210374.97326,1529741.1101742,14
1660210374.97326,1529741.1101778,21
1660210374.97326,1529741.1101827,32
1660210374.97326,1529741.1101868,30
1660210374.97326,1529741.1101919,42
1660210374.97326,1529741.110196,46
1660210374.97326,1529741.1102011,35
1660210374.97326,1529741.1102056,35
1660210374.98622,1529741.1102109,37
1660210374.98622,1529741.1102169,51
1660210374.98622,1529741.1102221,60
1660210374.98622,1529741.1102265,32
1660210374.98622,1529741.1102327,28
1660210374.98622,1529741.1102367,63
1660210374.98622,1529741.1102428,77
1660210374.98622,1529741.1102471,74
1660210374.98622,1529741.1102506,70
1660210374.98622,1529741.1102551,65
1660210374.98622,1529741.1102603,79
1660210374.98622,1529741.1102647,91
1660210374.98622,1529741.6947619,86
1660210374.98622,1529741.6947833,79
1660210374.98622,1529741.6947926,72
1660210374.98622,1529741.6947953,77
1660210374.98622,1529741.6947974,77
1660210374.98622,1529741.6947995,30
1660210374.98622,1529741.6948016,4
1660210374.98622,1529741.6948036,35
1660210374.98622,1529741.6948057,51
1660210374.98622,1529741.6948078,44
1660210374.98622,1529741.6948098,46
1660210374.98622,1529741.6948119,51
1660210375.69735,1529741.694814,53
1660210375.69735,1529741.694816,65
1660210375.69735,1529741.694818,65
1660210375.69735,1529741.6948199,51
1660210375.69735,1529741.6948219,53
1660210375.69735,1529741.6948238,53
1660210375.69735,1529741.6948258,46
1660210375.69735,1529741.6948276,58
1660210375.69735,1529741.6948295,60
1660210375.69735,1529741.6948315,35
1660210375.69735,1529741.6948334,23
1660210375.69735,1529741.6948359,42
1660210375.69735,1529741.6948403,63
1660210375.69735,1529741.694845,60
1660210375.69735,1529741.6948486,60
1660210375.69735,1529741.6948508,74
1660210375.69735,1529741.6948529,116
1660210375.69735,1529741.6948549,261
1660210375.69735,1529741.6948569,506
1660210375.69735,1529741.6948589,609
1660210375.69735,1529741.6948609,203
1660210375.69735,1529741.6948632,-390
1660210375.69735,1529741.6948652,-387
1660210375.69735,1529741.6948673,0
1660210375.69735,1529741.6948694,119
1660210375.69735,1529741.6948714,88
1660210375.69735,1529741.6948735,123
1660210375.69735,1529741.6948756,119
1660210375.69735,1529741.6948776,93
1660210375.69735,1529741.6948797,114
1660210375.69735,1529741.6948817,130
1660210375.69735,1529741.6948838,130
1660210375.69735,1529741.6948859,135
1660210375.69735,1529741.6948879,128
1660210375.69735,1529741.6948899,114
1660210375.69735,1529741.694892,126
1660210375.69735,1529741.694894,140
1660210375.69735,1529741.6948965,140
1660210375.69735,1529741.6948987,149
1660210375.69735,1529741.6949009,163
1660210375.69735,1529741.6949029,163
1660210375.69735,1529741.694905,172
1660210375.69735,1529741.694907,205
1660210375.69735,1529741.6949091,231
1660210375.69735,1529741.6949112,217
1660210375.69735,1529741.6949132,200
1660210375.69735,1529741.6949153,221
1660210375.69735,1529741.6949173,235
1660210375.69735,1529741.6949202,238
1660210375.69735,1529741.6949222,249
1660210375.71829,1529741.6949247,240
1660210375.71829,1529741.6949268,210
1660210375.71829,1529741.6949288,198
1660210375.71829,1529741.6949308,214
1660210375.71829,1529741.6949329,221
1660210375.71829,1529741.6949349,205
1660210375.71829,1529741.6949369,177
1660210375.71829,1529741.694939,137
1660210375.71829,1529741.694941,109
1660210375.71829,1529741.694943,105
1660210375.71829,1529741.6949451,98
1660210375.71829,1529742.4258395,84
1660210375.71829,1529742.4258564,81
1660210375.71829,1529742.4258618,81
1660210375.71829,1529742.4258674,88
1660210375.71829,1529742.425871,102
1660210375.71829,1529742.4258744,105
1660210375.71829,1529742.4258792,100
1660210375.71829,1529742.4258892,109
1660210375.71829,1529742.4258974,105
1660210375.71829,1529742.4259057,81
1660210375.71829,1529742.4259119,93
1660210375.71829,1529742.4259184,126
1660210375.71829,1529742.425923,114
1660210376.09798,1529742.425929,86
1660210376.09798,1529742.4259334,86
1660210376.09798,1529742.4259372,77
1660210376.09798,1529742.4259415,67
1660210376.09798,1529742.4259455,84
1660210376.09798,1529742.4259495,105
1660210376.09798,1529742.4259535,107
1660210376.09798,1529742.4259575,93
1660210376.09798,1529742.4259617,63
1660210376.09798,1529742.4259654,42
1660210376.09798,1529742.4259697,60
1660210376.09798,1529742.4259741,95
1660210376.09798,1529742.4259778,93
1660210376.09798,1529742.4259821,72
1660210376.09798,1529742.4259865,60
1660210376.09798,1529742.4259902,53
1660210376.09798,1529742.4259945,58
1660210376.09798,1529742.4259987,70
1660210376.09798,1529742.4260028,63
1660210376.09798,1529742.4260079,51
1660210376.09798,1529742.4260121,53
1660210376.09798,1529742.4260162,53
1660210376.09798,1529742.4260206,51
1660210376.09798,1529742.4260263,65
1660210376.09798,1529742.4260307,98
1660210376.09798,1529742.4260349,135
1660210376.09798,1529742.4260388,149
1660210376.09798,1529742.4260431,126
1660210376.09798,1529742.4260475,112
1660210376.09798,1529742.4260517,123
1660210376.09798,1529742.4260573,126
1660210376.09798,1529742.4260609,105
1660210376.09798,1529742.4260646,98
1660210376.09798,1529742.4260686,105
1660210376.09798,1529742.4260745,98
1660210376.09798,1529742.4260801,84
1660210376.09798,1529742.4260837,91
1660210376.09798,1529742.4260879,109

1660210376.09798,1529742.4260939,123
1660210376.09798,1529742.4261004,112
1660210376.09798,1529742.4261075,67
1660210376.09798,1529742.426118,77
1660210376.09798,1529742.4261307,254
1660210376.09798,1529742.4261453,583
1660210376.09798,1529742.4261586,752
1660210376.09798,1529742.4261715,268
1660210376.09798,1529742.4261846,-429
1660210376.09798,1529742.4261978,-397
1660210376.09798,1529742.4262109,-9
1660210376.09798,1529742.4262239,23
1660210376.11512,1529742.426237,-23
1660210376.11512,1529742.4262447,65
1660210376.11512,1529742.4262513,72
1660210376.11512,1529742.4262585,37
1660210376.11512,1529742.4262646,72
1660210376.11512,1529742.4262737,86
1660210376.11512,1529742.4262804,65
1660210376.11512,1529742.4262887,79
1660210376.11512,1529742.4263008,98
1660210376.11512,1529742.426314,88
1660210376.11512,1529742.8156108,84
1660210376.11512,1529742.8156306,100
1660210376.11512,1529742.8156411,105
1660210376.11512,1529742.8156511,105
1660210376.11512,1529742.8156575,109
1660210376.11512,1529742.8156698,114
1660210376.11512,1529742.8156809,123
1660210376.11512,1529742.8156895,133
1660210376.11512,1529742.8156992,133
1660210376.11512,1529742.8157102,144
1660210376.11512,1529742.815718,165
1660210376.11512,1529742.8157293,170
1660210376.11512,1529742.8157398,184
1660210376.11512,1529742.8157458,240
1660210376.62212,1529742.8157594,224
1660210376.62212,1529742.8157679,121
1660210376.62212,1529742.8157752,91
1660210376.62212,1529742.815782,133
1660210376.62212,1529742.8157886,123
1660210376.62212,1529742.8158004,95
1660210376.62212,1529742.81581,91
1660210376.62212,1529742.8158244,63
1660210376.62212,1529742.8158326,30
1660210376.62212,1529742.8158352,30
1660210376.62212,1529742.8158375,16
1660210376.62212,1529742.8158416,-23
1660210376.62212,1529742.8158487,-23
1660210376.62212,1529742.8158561,2
1660210376.62212,1529742.8158654,-2
1660210376.62212,1529742.8158757,-7
1660210376.62212,1529742.8158884,4
1660210376.62212,1529742.8159005,2
1660210376.62212,1529742.8159062,4
1660210376.62212,1529742.8159084,28
1660210376.62212,1529742.8159105,42
1660210376.62212,1529742.8159125,44
1660210376.62212,1529742.8159145,51
1660210376.62212,1529742.8159219,58
1660210376.62212,1529742.8159325,60
1660210376.62212,1529742.815936,72
1660210376.62212,1529742.8159397,84
1660210376.62212,1529742.8159418,81
1660210376.62212,1529742.8159494,65
1660210376.62212,1529742.8159598,49
1660210376.62212,1529742.8159632,46
1660210376.62212,1529742.8159667,49
1660210376.62212,1529742.8159688,53
1660210376.62212,1529742.8159745,58
1660210376.62212,1529742.8159855,63
1660210376.62212,1529742.8159905,65
1660210376.62212,1529742.8159935,42
1660210376.62212,1529742.8159955,14
1660210376.62212,1529742.8159981,16
1660210376.62212,1529742.8160084,16
1660210376.62212,1529742.8160159,7
1660210376.62212,1529742.8160182,4
1660210376.62212,1529742.8160202,0
1660210376.62212,1529742.8160226,0
1660210376.62212,1529742.8160328,16
1660210376.62212,1529742.8160407,32
1660210376.62212,1529742.8160433,32
1660210376.62212,1529742.8160455,32
1660210376.62212,1529742.8160478,46
1660210376.62212,1529742.8160576,53
1660210376.63708,1529742.8160657,51
1660210376.63708,1529742.816068,42
1660210376.63708,1529742.8160702,23
1660210376.63708,1529742.8160722,28
1660210376.63708,1529742.8160796,51
1660210376.63708,1529742.8160901,67
1660210376.63708,1529742.8160936,91
1660210376.63708,1529742.8160972,112
1660210376.63708,1529742.8161025,105
1660210376.63708,1529743.3524858,95
1660210376.63708,1529743.3525054,100
1660210376.63708,1529743.3525094,91
1660210376.63708,1529743.3525147,70
1660210376.63708,1529743.3525176,60
1660210376.63708,1529743.3525206,63
1660210376.63708,1529743.3525266,77
1660210376.63708,1529743.352532,81
1660210376.63708,1529743.3525354,51
1660210376.63708,1529743.3525404,28
1660210376.63708,1529743.3525433,49
1660210376.63708,1529743.3525464,58
1660210376.63708,1529743.3525497,32
1660210376.63708,1529743.3525536,56
1660210376.63708,1529743.3525611,186
1660210377.21187,1529743.3525651,394
1660210377.21187,1529743.352568,513
1660210377.21187,1529743.352571,170
1660210377.21187,1529743.3525755,-436
1660210377.21187,1529743.3525813,-483
1660210377.21187,1529743.3525859,-77
1660210377.21187,1529743.3525898,60
1660210377.21187,1529743.3525958,21
1660210377.21187,1529743.3526009,79
1660210377.21187,1529743.3526059,109
1660210377.21187,1529743.3526101,91
1660210377.21187,1529743.3526148,107
1660210377.21187,1529743.3526193,119
1660210377.21187,1529743.352626,109
1660210377.21187,1529743.3526332,121
1660210377.21187,1529743.3526427,142
1660210377.21187,1529743.3526466,149
1660210377.21187,1529743.352657,151
1660210377.21187,1529743.3526622,158
1660210377.21187,1529743.3526651,156
1660210377.21187,1529743.3526747,156
1660210377.21187,1529743.3526854,165
1660210377.21187,1529743.3526925,175
1660210377.21187,1529743.352703,184
1660210377.21187,1529743.3527081,196
1660210377.21187,1529743.3527151,210
1660210377.21187,1529743.3527301,219
1660210377.21187,1529743.3527424,224
1660210377.21187,1529743.352749,221
1660210377.21187,1529743.352757,207
1660210377.21187,1529743.3527657,186
1660210377.21187,1529743.352778,170
1660210377.21187,1529743.3527897,165
1660210377.21187,1529743.3527948,168
1660210377.21187,1529743.3527977,161
1660210377.21187,1529743.352807,154
1660210377.21187,1529743.3528185,156
1660210377.21187,1529743.3528236,147
1660210377.21187,1529743.3528257,128
1660210377.21187,1529743.3528277,109
1660210377.21187,1529743.3528297,93
1660210377.21187,1529743.3528318,84
1660210377.21187,1529743.3528338,88
1660210377.21187,1529743.3528358,81
1660210377.21187,1529743.3528378,67
1660210377.21187,1529743.35284,67
1660210377.21187,1529743.352842,77
1660210377.21187,1529743.3528441,81
1660210377.21187,1529743.3528461,72
1660210377.21187,1529743.3528532,74
1660210377.22782,1529743.3528638,84
1660210377.22782,1529743.3528725,74
1660210377.22782,1529743.3528847,70
1660210377.22782,1529743.3528948,88
1660210377.22782,1529743.3529017,100
1660210377.22782,1529743.3529104,91
1660210377.22782,1529743.3529207,70
1660210377.22782,1529743.3529282,65
1660210377.22782,1529743.9395327,84
1660210377.22782,1529743.9395501,91
1660210377.22782,1529743.93956,81
1660210377.22782,1529743.9395641,81
1660210377.22782,1529743.9395706,65
1660210377.22782,1529743.9395745,21
1660210377.22782,1529743.9395796,-4
1660210377.22782,1529743.9395834,14
1660210377.22782,1529743.939587,23
1660210377.22782,1529743.9395925,2
1660210377.22782,1529743.9395971,-4
1660210377.22782,1529743.9396022,-14
1660210377.22782,1529743.9396064,-51
1660210377.22782,1529743.9396115,-53
1660210377.22782,1529743.939616,-30
1660210377.22782,1529743.9396211,-28
1660210377.85179,1529743.9396247,-25
1660210377.85179,1529743.9396282,-14
1660210377.85179,1529743.9396317,-2
1660210377.85179,1529743.9396351,-4
1660210377.85179,1529743.9396385,-14
1660210377.85179,1529743.9396421,-7
1660210377.85179,1529743.9396477,-7
1660210377.85179,1529743.9396513,-14
1660210377.85179,1529743.939657,0
1660210377.85179,1529743.9396604,14
1660210377.85179,1529743.9396638,9
1660210377.85179,1529743.9396676,28
1660210377.85179,1529743.9396727,77
1660210377.85179,1529743.9396763,100
1660210377.85179,1529743.9396799,65
1660210377.85179,1529743.9396834,39
1660210377.85179,1529743.9396869,65
1660210377.85179,1529743.9396902,81
1660210377.85179,1529743.9396937,49
1660210377.85179,1529743.9396992,23
1660210377.85179,1529743.9397028,18
1660210377.85179,1529743.9397077,16
1660210377.85179,1529743.939713,11
1660210377.85179,1529743.939718,11
1660210377.85179,1529743.9397235,11
1660210377.85179,1529743.9397305,9
1660210377.85179,1529743.9397348,11
1660210377.85179,1529743.9397384,21
1660210377.85179,1529743.9397436,21
1660210377.85179,1529743.9397488,70
1660210377.85179,1529743.9397535,219
1660210377.85179,1529743.9397588,422
1660210377.85179,1529743.9397635,443
1660210377.85179,1529743.9397687,-14
1660210377.85179,1529743.9397725,-541
1660210377.85179,1529743.9397775,-420
1660210377.85179,1529743.9397846,-2
1660210377.85179,1529743.9397879,84
1660210377.85179,1529743.9397913,46
1660210377.85179,1529743.9397948,105
1660210377.85179,1529743.9398001,123
1660210377.85179,1529743.9398037,105
1660210377.85179,1529743.9398075,121
1660210377.85179,1529743.9398129,133
1660210377.85179,1529743.9398167,133
1660210377.85179,1529743.939822,156
1660210377.85179,1529743.9398261,168
1660210377.85179,1529743.9398296,144
1660210377.85179,1529743.9398351,133
1660210377.85179,1529743.9398387,151
1660210377.86675,1529743.9398435,165
1660210377.86675,1529743.9398483,163
1660210377.86675,1529743.9398517,156
1660210377.86675,1529743.9398551,163
1660210377.86675,1529743.9398602,179
1660210377.86675,1529743.9398659,189
1660210377.86675,1529743.9398718,198
1660210377.86675,1529744.5708296,212
1660210377.86675,1529744.5708524,219
1660210377.86675,1529744.5708589,219
1660210377.86675,1529744.5708633,224
1660210377.86675,1529744.5708673,226
1660210377.86675,1529744.5708726,219
1660210377.86675,1529744.5708771,212
1660210377.86675,1529744.5708807,198
1660210377.86675,1529744.5708849,172
1660210377.86675,1529744.5708884,156
1660210377.86675,1529744.5708939,149
1660210377.86675,1529744.5708991,135
1660210377.86675,1529744.570905,123
1660210377.86675,1529744.5709108,107
1660210377.86675,1529744.5709151,79
1660210377.86675,1529744.5709193,53
1660210377.86675,1529744.5709233,46
1660210378.38601,1529744.5709274,49
1660210378.38601,1529744.5709316,46
1660210378.38601,1529744.5709356,44
1660210378.38601,1529744.5709397,46
1660210378.38601,1529744.5709437,30
1660210378.38601,1529744.5709475,23
1660210378.38601,1529744.5709513,37
1660210378.38601,1529744.570955,51
1660210378.38601,1529744.5709587,58
1660210378.38601,1529744.5709624,58
1660210378.38601,1529744.5709666,32
1660210378.38601,1529744.5709702,23
1660210378.38601,1529744.5709737,51
1660210378.38601,1529744.5709772,65
1660210378.38601,1529744.5709808,51
1660210378.38601,1529744.5709858,39
1660210378.38601,1529744.570991,42
1660210378.38601,1529744.5709962,35
1660210378.38601,1529744.571,30
1660210378.38601,1529744.5710037,35
1660210378.38601,1529744.5710074,37
1660210378.38601,1529744.5710112,42
1660210378.38601,1529744.5710148,44
1660210378.38601,1529744.5710185,35
1660210378.38601,1529744.5710222,35
1660210378.38601,1529744.5710271,51
1660210378.38601,1529744.5710328,63
1660210378.38601,1529744.5710367,56
1660210378.38601,1529744.5710405,51
1660210378.38601,1529744.5710456,56
1660210378.38601,1529744.5710518,60
1660210378.38601,1529744.571057,58
1660210378.38601,1529744.5710606,58
1660210378.38601,1529744.5710642,72
1660210378.38601,1529744.5710678,100
1660210378.38601,1529744.5710714,102
1660210378.38601,1529744.571075,77
1660210378.38601,1529744.5710787,79
1660210378.38601,1529744.5710825,112
1660210378.38601,1529744.5710861,140
1660210378.38601,1529744.5710898,156
1660210378.38601,1529744.5710937,149
1660210378.38601,1529744.5710991,123
1660210378.38601,1529744.5711031,119
1660210378.38601,1529744.5711082,121
1660210378.38601,1529744.5711117,105
1660210378.38601,1529744.5711152,91
1660210378.38601,1529744.5711187,88
1660210378.38601,1529744.5711221,88
1660210378.38601,1529744.5711257,91
1660210378.41194,1529744.5711293,95
1660210378.41194,1529744.571133,100
1660210378.41194,1529744.5711366,109
1660210378.41194,1529744.5711401,114
1660210378.41194,1529744.5711436,100
1660210378.41194,1529744.5711483,126
1660210378.41194,1529745.1077066,277
1660210378.41194,1529745.1077264,546
1660210378.41194,1529745.1077339,679
1660210378.41194,1529745.1077386,247
1660210378.41194,1529745.1077437,-425
1660210378.41194,1529745.1077503,-441
1660210378.41194,1529745.1077547,-18
1660210378.41194,1529745.1077607,98
1660210378.41194,1529745.1077651,58
1660210378.41194,1529745.1077717,114
1660210378.41194,1529745.1077778,123
1660210378.41194,1529745.1077832,84
1660210378.41194,1529745.1077893,86
1660210378.41194,1529745.1077945,109
1660210378.41194,1529745.107801,109
1660210378.41194,1529745.1078053,114
1660210378.41194,1529745.1078112,133
1660210378.41194,1529745.1078164,130
1660210379.11935,1529745.1078228,114
1660210379.11935,1529745.1078276,121
1660210379.11935,1529745.1078315,140
1660210379.11935,1529745.1078344,137
1660210379.11935,1529745.1078373,142
1660210379.11935,1529745.1078409,158
1660210379.11935,1529745.1080495,158
1660210379.11935,1529745.1080634,170
1660210379.11935,1529745.1080716,207
1660210379.11935,1529745.1080799,226
1660210379.11935,1529745.1080885,217
1660210379.11935,1529745.1080955,233
1660210379.11935,1529745.1081094,245
1660210379.11935,1529745.1081212,196
1660210379.11935,1529745.1081335,170
1660210379.11935,1529745.1081382,193
1660210379.11935,1529745.1081514,203
1660210379.11935,1529745.1081657,186
1660210379.11935,1529745.1081787,177
1660210379.11935,1529745.1081919,168
1660210379.11935,1529745.1082048,156
1660210379.11935,1529745.1082179,144
1660210379.11935,1529745.1082311,130
1660210379.11935,1529745.1082443,123
1660210379.11935,1529745.1082572,126
1660210379.11935,1529745.1082676,126
1660210379.11935,1529745.1082861,119
1660210379.11935,1529745.1082901,112
1660210379.11935,1529745.1082935,93
1660210379.11935,1529745.1082969,74
1660210379.11935,1529745.1083002,91
1660210379.11935,1529745.1083054,116
1660210379.11935,1529745.1083088,86
1660210379.11935,1529745.1083136,56
1660210379.11935,1529745.1083169,84
1660210379.11935,1529745.1083217,95
1660210379.11935,1529745.1083249,81
1660210379.11935,1529745.1083282,84
1660210379.11935,1529745.1083321,84
1660210379.11935,1529745.1083402,72
1660210379.11935,1529745.1083498,74
1660210379.11935,1529745.1083592,84
1660210379.11935,1529745.1083679,86
1660210379.11935,1529745.1083761,79
1660210379.11935,1529745.1083843,46
1660210379.11935,1529745.1083923,46
1660210379.11935,1529745.1084006,79
1660210379.11935,1529745.1084073,77
1660210379.11935,1529745.1084151,65
1660210379.11935,1529745.1084187,70
1660210379.13431,1529745.1084232,65
1660210379.13431,1529745.1084264,51
1660210379.13431,1529745.1084299,46
1660210379.13431,1529745.108435,46
1660210379.13431,1529745.1084383,37
1660210379.13431,1529745.8389799,25
1660210379.13431,1529745.8390043,23
1660210379.13431,1529745.839018,21
1660210379.13431,1529745.8390276,23
1660210379.13431,1529745.8390344,53
1660210379.13431,1529745.8390429,98
1660210379.13431,1529745.8390516,95
1660210379.13431,1529745.839057,58
1660210379.13431,1529745.8390622,51
1660210379.13431,1529745.8390658,63
1660210379.13431,1529745.8390713,46
1660210379.13431,1529745.8390759,25
1660210379.13431,1529745.8390795,25
1660210379.13431,1529745.8390847,32
1660210379.13431,1529745.8390886,16
1660210379.13431,1529745.839092,-7
1660210379.13431,1529745.8390954,2
1660210379.13431,1529745.8390992,9
1660210379.13431,1529745.8391045,-7
1660210379.52218,1529745.839108,-16
1660210379.52218,1529745.8391113,-16
1660210379.52218,1529745.8391144,35
1660210379.52218,1529745.8391175,226
1660210379.52218,1529745.8391206,441
1660210379.52218,1529745.8391237,282
1660210379.52218,1529745.839127,-308
1660210379.52218,1529745.8391303,-576
1660210379.52218,1529745.8391566,-249
1660210379.52218,1529745.8391671,0
1660210379.52218,1529745.8391722,-21
1660210379.52218,1529745.839177,0
1660210379.52218,1529745.8391835,37
1660210379.52218,1529745.839188,2
1660210379.52218,1529745.8391941,-2
1660210379.52218,1529745.8391997,35
1660210379.52218,1529745.8392058,46
1660210379.52218,1529745.839211,46
1660210379.52218,1529745.8392156,51
1660210379.52218,1529745.8392219,56
1660210379.52218,1529745.8392274,70
1660210379.52218,1529745.8392335,91
1660210379.52218,1529745.8392381,84
1660210379.52218,1529745.8392488,70
1660210379.52218,1529745.8392542,91
1660210379.52218,1529745.8392606,114
1660210379.52218,1529745.8392651,119
1660210379.52218,1529745.8392707,126
1660210379.52218,1529745.8392752,144
1660210379.52218,1529745.8392809,161
1660210379.52218,1529745.839285,168
1660210379.52218,1529745.8392915,161
1660210379.52218,1529745.8392958,170
1660210379.52218,1529745.8393015,210
1660210379.52218,1529745.8393063,224
1660210379.52218,1529745.839312,182
1660210379.52218,1529745.8393172,156
1660210379.52218,1529745.8393233,163
1660210379.52218,1529745.8393275,158
1660210379.52218,1529745.839332,154
1660210379.52218,1529745.8393381,147
1660210379.52218,1529745.8393425,137
1660210379.52218,1529745.8393463,128
1660210379.52218,1529745.8393503,105
1660210379.52218,1529745.839355,88
1660210379.52218,1529745.8393611,102
1660210379.52218,1529745.8393657,100
1660210379.52218,1529745.83937,77
1660210379.52218,1529745.8393743,100
1660210379.52218,1529745.8393802,126
1660210379.54412,1529745.8393845,100
1660210379.54412,1529745.8393886,98
1660210379.54412,1529745.8393945,121
1660210379.54412,1529745.8393998,116
1660210379.54412,1529746.2295341,100
1660210379.54412,1529746.2295555,102
1660210379.54412,1529746.2295678,100
1660210379.54412,1529746.2295816,93
1660210379.54412,1529746.2295947,98
1660210379.54412,1529746.2296375,95
1660210379.54412,1529746.2296482,79
1660210379.54412,1529746.2296561,74
1660210379.54412,1529746.2296645,95
1660210379.54412,1529746.2296732,102
1660210379.54412,1529746.2296804,67
1660210379.54412,1529746.2296875,25
1660210379.54412,1529746.2296949,16
1660210379.54412,1529746.2297018,28
1660210379.54412,1529746.229707,32
1660210379.54412,1529746.2297135,37
1660210379.54412,1529746.2297182,44
1660210379.54412,1529746.2297245,32
1660210379.54412,1529746.2297291,-2
1660210379.54412,1529746.229735,-9
1660210380.04189,1529746.2297396,42
1660210380.04189,1529746.2297441,98
1660210380.04189,1529746.2297484,107
1660210380.04189,1529746.2297527,81
1660210380.04189,1529746.229757,49
1660210380.04189,1529746.2297613,44
1660210380.04189,1529746.2297655,51
1660210380.04189,1529746.2297698,39
1660210380.04189,1529746.2297739,18
1660210380.04189,1529746.2297783,7
1660210380.04189,1529746.2297826,-2
1660210380.04189,1529746.2297888,-16
1660210380.04189,1529746.2297947,-18
1660210380.04189,1529746.2298007,-7
1660210380.04189,1529746.2298052,2
1660210380.04189,1529746.2298111,9
1660210380.04189,1529746.2298155,-14
1660210380.04189,1529746.2298214,-46
1660210380.04189,1529746.2298258,25
1660210380.04189,1529746.2298316,242
1660210380.04189,1529746.2298371,481
1660210380.04189,1529746.2298428,378
1660210380.04189,1529746.2298473,-224
1660210380.04189,1529746.2298534,-616
1660210380.04189,1529746.2298579,-319
1660210380.04189,1529746.2298639,7
1660210380.04189,1529746.2298683,2
1660210380.04189,1529746.2298772,0
1660210380.04189,1529746.2298861,65
1660210380.04189,1529746.2298984,60
1660210380.04189,1529746.2299103,46
1660210380.04189,1529746.2299199,67
1660210380.04189,1529746.2299271,81
1660210380.04189,1529746.2299344,88
1660210380.04189,1529746.2299413,105
1660210380.04189,1529746.2299454,105
1660210380.04189,1529746.2299491,102
1660210380.04189,1529746.2299537,114
1660210380.04189,1529746.2299577,128
1660210380.04189,1529746.2299631,135
1660210380.04189,1529746.2299673,144
1660210380.04189,1529746.2299744,149
1660210380.04189,1529746.2299785,154
1660210380.04189,1529746.2299839,165
1660210380.04189,1529746.2299875,177
1660210380.04189,1529746.2299938,189
1660210380.04189,1529746.2299979,207
1660210380.04189,1529746.2300011,219
1660210380.04189,1529746.2300043,212
1660210380.04189,1529746.2300075,205
1660210380.06283,1529746.2300107,207
1660210380.06283,1529746.2300139,203
1660210380.06283,1529746.230019,191
1660210380.06283,1529746.7653002,186
1660210380.06283,1529746.7653172,184
1660210380.06283,1529746.7653224,179
1660210380.06283,1529746.7653289,163
1660210380.06283,1529746.7653351,137
1660210380.06283,1529746.7653416,123
1660210380.06283,1529746.7653467,114
1660210380.06283,1529746.7653527,84
1660210380.06283,1529746.7653574,44
1660210380.06283,1529746.7653649,39
1660210380.06283,1529746.7653682,53
1660210380.06283,1529746.7653752,56
1660210380.06283,1529746.7653845,63
1660210380.06283,1529746.7653969,79
1660210380.06283,1529746.7654036,77
1660210380.06283,1529746.7654099,74
1660210380.06283,1529746.7654193,86
1660210380.06283,1529746.7654283,91
1660210380.06283,1529746.7654363,84
1660210380.06283,1529746.7654434,91
1660210380.06283,1529746.7654513,86
1660210380.63739,1529746.7654604,53
1660210380.63739,1529746.7654672,39
1660210380.63739,1529746.7654729,49
1660210380.63739,1529746.765519,44
1660210380.63739,1529746.7655299,30
1660210380.63739,1529746.7655388,35
1660210380.63739,1529746.7655518,51
1660210380.63739,1529746.7655605,46
1660210380.63739,1529746.765568,35
1660210380.63739,1529746.765576,42
1660210380.63739,1529746.7655815,53
1660210380.63739,1529746.7655903,56
1660210380.63739,1529746.7655985,46
1660210380.63739,1529746.7656065,42
1660210380.63739,1529746.765619,46
1660210380.63739,1529746.7656287,58
1660210380.63739,1529746.7656366,81
1660210380.63739,1529746.7656429,100
1660210380.63739,1529746.7656512,95
1660210380.63739,1529746.76566,95
1660210380.63739,1529746.7656676,107
1660210380.63739,1529746.7656741,95
1660210380.63739,1529746.7656876,65
1660210380.63739,1529746.7657002,53
1660210380.63739,1529746.7657093,65
1660210380.63739,1529746.7657184,67
1660210380.63739,1529746.765725,70
1660210380.63739,1529746.765733,77
1660210380.63739,1529746.76574,72
1660210380.63739,1529746.7657474,67
1660210380.63739,1529746.7657555,70
1660210380.63739,1529746.7657618,74
1660210380.63739,1529746.7657684,137
1660210380.63739,1529746.7657738,348
1660210380.63739,1529746.765783,649
1660210380.63739,1529746.765789,632
1660210380.63739,1529746.7657971,-14
1660210380.63739,1529746.7658054,-579
1660210380.63739,1529746.7658135,-357
1660210380.63739,1529746.7658212,11
1660210380.63739,1529746.7658303,9
1660210380.63739,1529746.7658402,4
1660210380.63739,1529746.7658463,88
1660210380.63739,1529746.7658597,84
1660210380.63739,1529746.7658739,58
1660210380.63739,1529746.7658887,79
1660210380.63739,1529746.7658982,81
1660210380.63739,1529746.7659068,63
1660210380.63739,1529746.7659149,67
1660210380.63739,1529746.7659197,77
1660210380.65435,1529746.7659309,77
1660210380.65435,1529746.7659429,70
1660210380.65435,1529747.351424,77
1660210380.65435,1529747.3514365,98
1660210380.65435,1529747.3514397,109
1660210380.65435,1529747.3514422,119
1660210380.65435,1529747.3514445,135
1660210380.65435,1529747.3514469,144
1660210380.65435,1529747.3514493,151
1660210380.65435,1529747.3514515,172
1660210380.65435,1529747.3514539,189
1660210380.65435,1529747.3514573,196
1660210380.65435,1529747.3514653,205
1660210380.65435,1529747.3514706,198
1660210380.65435,1529747.3514744,168
1660210380.65435,1529747.3514797,144
1660210380.65435,1529747.351486,126
1660210380.65435,1529747.3514922,119
1660210380.65435,1529747.3515005,121
1660210380.65435,1529747.3515069,98
1660210380.65435,1529747.3515149,56
1660210380.65435,1529747.3515225,39
1660210380.65435,1529747.3515283,39
1660210380.65435,1529747.3515353,32
1660210381.11119,1529747.3515438,16
1660210381.11119,1529747.3515537,-2
1660210381.11119,1529747.3515618,-4
1660210381.11119,1529747.351573,9
1660210381.11119,1529747.3515783,23
1660210381.11119,1529747.3515803,23
1660210381.11119,1529747.3515823,32
1660210381.11119,1529747.3515844,49
1660210381.11119,1529747.3515864,44
1660210381.11119,1529747.3515884,37
1660210381.11119,1529747.3515905,58
1660210381.11119,1529747.3515925,74
1660210381.11119,1529747.3515945,72
1660210381.11119,1529747.3515965,72
1660210381.11119,1529747.3515985,84
1660210381.11119,1529747.3516005,84
1660210381.11119,1529747.3516025,81
1660210381.11119,1529747.3516046,84
1660210381.11119,1529747.3516066,88
1660210381.11119,1529747.3516086,91
1660210381.11119,1529747.3516107,84
1660210381.11119,1529747.3516127,81
1660210381.11119,1529747.3516147,91
1660210381.11119,1529747.3516167,93
1660210381.11119,1529747.3516187,74
1660210381.11119,1529747.3516208,60
1660210381.11119,1529747.3516228,70
1660210381.11119,1529747.351625,91
1660210381.11119,1529747.351627,107
1660210381.11119,1529747.351629,119
1660210381.11119,1529747.351631,119
1660210381.11119,1529747.3516331,119
1660210381.11119,1529747.3516351,133
1660210381.11119,1529747.3516371,135
1660210381.11119,1529747.3516391,107
1660210381.11119,1529747.3516411,84
1660210381.11119,1529747.3516431,84
1660210381.11119,1529747.3516452,93
1660210381.11119,1529747.3516477,88
1660210381.11119,1529747.3516496,65
1660210381.11119,1529747.3516518,56
1660210381.11119,1529747.3516539,72
1660210381.11119,1529747.351656,77
1660210381.11119,1529747.351658,53
1660210381.11119,1529747.3516619,44
1660210381.11119,1529747.3516647,156
1660210381.11119,1529747.351694,429
1660210381.11119,1529747.3517026,714
1660210381.11119,1529747.3517092,544
1660210381.11119,1529747.3517143,-198
1660210381.13712,1529747.3517178,-581
1660210381.13712,1529747.8389676,-193
1660210381.13712,1529747.8389799,93
1660210381.13712,1529747.8389843,30
1660210381.13712,1529747.8389868,46
1660210381.13712,1529747.8389892,107
1660210381.13712,1529747.8389915,81
1660210381.13712,1529747.8389936,72
1660210381.13712,1529747.8389957,93
1660210381.13712,1529747.8389978,72
1660210381.13712,1529747.8389999,46
1660210381.13712,1529747.8390023,67
1660210381.13712,1529747.8390089,91
1660210381.13712,1529747.8390199,84
1660210381.13712,1529747.8390249,84
1660210381.13712,1529747.8390283,79
1660210381.13712,1529747.8390303,53
1660210381.13712,1529747.8390322,49
1660210381.13712,1529747.8390347,79
1660210381.13712,1529747.8390389,93
1660210381.13712,1529747.8390411,91
1660210381.13712,1529747.839043,105
1660210381.13712,1529747.8390449,119
1660210381.13712,1529747.8390469,126
1660210381.75341,1529747.8390494,142
1660210381.75341,1529747.8390514,154
1660210381.75341,1529747.8390532,144
1660210381.75341,1529747.8390551,133
1660210381.75341,1529747.8390569,114
1660210381.75341,1529747.8390588,81
1660210381.75341,1529747.8390606,72
1660210381.75341,1529747.8390625,81
1660210381.75341,1529747.8390644,74
1660210381.75341,1529747.8390674,63
1660210381.75341,1529747.8390757,51
1660210381.75341,1529747.8390829,37
1660210381.75341,1529747.8390868,28
1660210381.75341,1529747.8390943,28
1660210381.75341,1529747.8390996,21
1660210381.75341,1529747.8391098,14
1660210381.75341,1529747.8391148,11
1660210381.75341,1529747.8391187,11
1660210381.75341,1529747.8391214,23
1660210381.75341,1529747.8391235,42
1660210381.75341,1529747.8391256,46
1660210381.75341,1529747.8391276,46
1660210381.75341,1529747.8391297,56
1660210381.75341,1529747.8391317,60
1660210381.75341,1529747.8391337,58
1660210381.75341,1529747.8391357,72
1660210381.75341,1529747.8391377,84
1660210381.75341,1529747.8391398,77
1660210381.75341,1529747.8391418,81
1660210381.75341,1529747.8391438,100
1660210381.75341,1529747.8391457,86
1660210381.75341,1529747.8391478,60
1660210381.75341,1529747.8391498,60
1660210381.75341,1529747.8391518,72
1660210381.75341,1529747.8391538,72
1660210381.75341,1529747.8391558,70
1660210381.75341,1529747.8391583,67
1660210381.75341,1529747.8391604,65
1660210381.75341,1529747.8391624,67
1660210381.75341,1529747.8391644,72
1660210381.75341,1529747.8391669,77
1660210381.75341,1529747.839169,98
1660210381.75341,1529747.8391709,128
1660210381.75341,1529747.8391731,137
1660210381.75341,1529747.8391752,126
1660210381.75341,1529747.8391771,128
1660210381.75341,1529747.8391791,135
1660210381.75341,1529747.8391812,119
1660210381.75341,1529747.8391832,91
1660210381.75341,1529747.8391852,67
1660210381.77037,1529748.471339,60
1660210381.77037,1529748.4713564,70
1660210381.77037,1529748.4713672,77
1660210381.77037,1529748.4713718,77
1660210381.77037,1529748.4713779,77
1660210381.77037,1529748.4713838,77
1660210381.77037,1529748.4713919,72
1660210381.77037,1529748.4713999,65
1660210381.77037,1529748.4714087,119
1660210381.77037,1529748.4714113,324
1660210381.77037,1529748.4714134,646
1660210381.77037,1529748.4714155,698
1660210381.77037,1529748.4714176,77
1660210381.77037,1529748.4714197,-558
1660210381.77037,1529748.4714217,-373
1660210381.77037,1529748.4714238,37
1660210381.77037,1529748.4714258,51
1660210381.77037,1529748.4714277,7
1660210381.77037,1529748.4714298,60
1660210381.77037,1529748.4714331,58
1660210381.77037,1529748.4714463,44
1660210381.77037,1529748.4714524,60
1660210381.77037,1529748.4714555,58
1660210381.77037,1529748.4714577,56
1660210382.33179,1529748.4714597,74
1660210382.33179,1529748.4714616,84
1660210382.33179,1529748.4714635,81
1660210382.33179,1529748.4714653,79
1660210382.33179,1529748.4714672,79
1660210382.33179,1529748.4714692,84
1660210382.33179,1529748.471471,98
1660210382.33179,1529748.4714729,109
1660210382.33179,1529748.4714748,114
1660210382.33179,1529748.47148,121
1660210382.33179,1529748.4714892,144
1660210382.33179,1529748.4714933,165
1660210382.33179,1529748.4715051,170
1660210382.33179,1529748.4715128,177
1660210382.33179,1529748.4715186,184
1660210382.33179,1529748.4715243,179
1660210382.33179,1529748.4715297,172
1660210382.33179,1529748.4715342,165
1660210382.33179,1529748.4715362,149
1660210382.33179,1529748.4715381,126
1660210382.33179,1529748.4715405,112
1660210382.33179,1529748.4715425,109
1660210382.33179,1529748.4715445,95
1660210382.33179,1529748.4715464,67
1660210382.33179,1529748.4715484,46
1660210382.33179,1529748.4715503,32
1660210382.33179,1529748.4715524,18
1660210382.33179,1529748.4715543,11
1660210382.33179,1529748.4715563,11
1660210382.33179,1529748.4715583,21
1660210382.33179,1529748.4715627,32
1660210382.33179,1529748.4715737,30
1660210382.33179,1529748.4715786,32
1660210382.33179,1529748.4715807,46
1660210382.33179,1529748.4715826,53
1660210382.33179,1529748.4715846,56
1660210382.33179,1529748.4715867,58
1660210382.33179,1529748.4715887,56
1660210382.33179,1529748.4715906,49
1660210382.33179,1529748.4715927,49
1660210382.33179,1529748.4715946,56
1660210382.33179,1529748.4715966,60
1660210382.33179,1529748.4715986,72
1660210382.33179,1529748.4716007,79
1660210382.33179,1529748.4716027,72
1660210382.33179,1529748.4716047,67
1660210382.33179,1529748.4716093,74
1660210382.33179,1529748.471621,79
1660210382.33179,1529748.4716266,77
1660210382.33179,1529749.055828,79
1660210382.34974,1529749.0558403,81
1660210382.34974,1529749.0558433,70
1660210382.34974,1529749.0558459,60
1660210382.34974,1529749.0558483,72
1660210382.34974,1529749.0558505,93
1660210382.34974,1529749.0558528,119
1660210382.34974,1529749.0558551,135
1660210382.34974,1529749.0558573,112
1660210382.34974,1529749.0558609,88
1660210382.34974,1529749.0558683,102
1660210382.34974,1529749.0558741,114
1660210382.34974,1529749.0558778,93
1660210382.34974,1529749.0558813,72
1660210382.34974,1529749.0558874,39
1660210382.34974,1529749.0558922,9
1660210382.34974,1529749.0559008,18
1660210382.34974,1529749.0559034,37
1660210382.34974,1529749.0559056,42
1660210382.34974,1529749.0559076,42
1660210382.34974,1529749.0559096,35
1660210382.34974,1529749.0559114,28
1660210382.34974,1529749.0559134,35
1660210382.34974,1529749.0559171,119
1660210382.34974,1529749.0559213,366
1660210382.81962,1529749.0559305,670
1660210382.81962,1529749.0559419,576
1660210382.81962,1529749.0559517,-123
1660210382.81962,1529749.0559641,-576
1660210382.81962,1529749.0559758,-240
1660210382.81962,1529749.0559808,93
1660210382.81962,1529749.0559829,51
1660210382.81962,1529749.0559849,53
1660210382.81962,1529749.055987,116
1660210382.81962,1529749.0559942,98
1660210382.81962,1529749.0560032,100
1660210382.81962,1529749.0560079,135
1660210382.81962,1529749.0560142,128
1660210382.81962,1529749.0560186,121
1660210382.81962,1529749.0560243,121
1660210382.81962,1529749.0560306,102
1660210382.81962,1529749.0560346,95
1660210382.81962,1529749.0560389,109
1660210382.81962,1529749.0560427,114
1660210382.81962,1529749.0560465,116
1660210382.81962,1529749.0560513,128
1660210382.81962,1529749.0560571,133
1660210382.81962,1529749.0560604,142
1660210382.81962,1529749.0560638,161
1660210382.81962,1529749.0560695,175
1660210382.81962,1529749.0560728,179
1660210382.81962,1529749.0560761,184
1660210382.81962,1529749.0560814,191
1660210382.81962,1529749.0560869,189
1660210382.81962,1529749.0560923,175
1660210382.81962,1529749.0560958,158
1660210382.81962,1529749.0561029,158
1660210382.81962,1529749.0561095,161
1660210382.81962,1529749.0561126,151
1660210382.81962,1529749.0561156,147
1660210382.81962,1529749.0561196,149
1660210382.81962,1529749.0561229,142
1660210382.81962,1529749.0561259,116
1660210382.81962,1529749.056129,95
1660210382.81962,1529749.0561359,74
1660210382.81962,1529749.0561413,51
1660210382.81962,1529749.0561445,37
1660210382.81962,1529749.0561478,39
1660210382.81962,1529749.0561556,42
1660210382.81962,1529749.0561592,46
1660210382.81962,1529749.056163,51
1660210382.81962,1529749.0561666,51
1660210382.81962,1529749.0561719,60
1660210382.81962,1529749.5446998,70
1660210382.81962,1529749.5447174,65
1660210382.83657,1529749.5447317,65
1660210382.83657,1529749.5447704,74
1660210382.83657,1529749.5447836,81
1660210382.83657,1529749.5447938,84
1660210382.83657,1529749.5447983,77
1660210382.83657,1529749.5448034,67
1660210382.83657,1529749.5448069,70
1660210382.83657,1529749.5448106,74
1660210382.83657,1529749.5448157,72
1660210382.83657,1529749.54482,58
1660210382.83657,1529749.544825,51
1660210382.83657,1529749.5448318,51
1660210382.83657,1529749.5448365,53
1660210382.83657,1529749.544843,60
1660210382.83657,1529749.5448477,58
1660210382.83657,1529749.5448569,39
1660210382.83657,1529749.5448644,21
1660210382.83657,1529749.5449593,14
1660210382.83657,1529749.5449725,23
1660210382.83657,1529749.5449827,35
1660210382.83657,1529749.5449906,39
1660210382.83657,1529749.5449977,32
1660210382.83657,1529749.5450062,32
1660210382.83657,1529749.5450551,51
1660210383.51625,1529749.5450673,60
1660210383.51625,1529749.5450707,60
1660210383.51625,1529749.5450727,65
1660210383.51625,1529749.5450748,72
1660210383.51625,1529749.5450821,58
1660210383.51625,1529749.545092,32
1660210383.51625,1529749.5451045,21
1660210383.51625,1529749.5451171,9
1660210383.51625,1529749.5451257,2
1660210383.51625,1529749.5451545,16
1660210383.51625,1529749.545164,23
1660210383.51625,1529749.545173,16
1660210383.51625,1529749.5451803,28
1660210383.51625,1529749.5451867,46
1660210383.51625,1529749.5451959,37
1660210383.51625,1529749.5452009,58
1660210383.51625,1529749.5452075,217
1660210383.51625,1529749.5452283,497
1660210383.51625,1529749.5452377,639
1660210383.51625,1529749.5452441,203
1660210383.51625,1529749.545258,-471
1660210383.51625,1529749.5452709,-457
1660210383.51625,1529749.5452791,-11
1660210383.51625,1529749.5452842,84
1660210383.51625,1529749.5452979,18
1660210383.51625,1529749.545305,91
1660210383.51625,1529749.5453142,121
1660210383.51625,1529749.5453208,91
1660210383.51625,1529749.54533,112
1660210383.51625,1529749.545339,130
1660210383.51625,1529749.5453484,114
1660210383.51625,1529749.5453594,109
1660210383.51625,1529749.545367,121
1660210383.51625,1529749.5453725,130
1660210383.51625,1529749.5453826,135
1660210383.51625,1529749.5453903,135
1660210383.51625,1529749.5454033,130
1660210383.51625,1529749.545416,135
1660210383.51625,1529749.5454281,149
1660210383.51625,1529749.5454393,156
1660210383.51625,1529749.5454524,163
1660210383.51625,1529749.5454669,177
1660210383.51625,1529749.5454801,191
1660210383.51625,1529749.5454932,203
1660210383.51625,1529749.5455057,207
1660210383.51625,1529749.5455151,205
1660210383.51625,1529749.5455293,207
1660210383.51625,1529750.2265227,212
1660210383.51625,1529750.2265428,193
1660210383.51625,1529750.2265502,172
1660210383.53221,1529750.2265612,172
1660210383.53221,1529750.2265676,168
1660210383.53221,1529750.2265724,151
1660210383.53221,1529750.2265769,142
1660210383.53221,1529750.2265822,119
1660210383.53221,1529750.2265871,67
1660210383.53221,1529750.2265917,30
1660210383.53221,1529750.2265963,28
1660210383.53221,1529750.2266012,25
1660210383.53221,1529750.2266057,9
1660210383.53221,1529750.2266103,7
1660210383.53221,1529750.2266149,-9
1660210383.53221,1529750.2266195,-28
1660210383.53221,1529750.2266242,-9
1660210383.53221,1529750.2266287,7
1660210383.53221,1529750.2266334,-2
1660210383.53221,1529750.2266377,0
1660210383.53221,1529750.2266425,14
1660210383.53221,1529750.2266468,7
1660210383.53221,1529750.2266511,-2
1660210383.53221,1529750.2266553,9
1660210383.53221,1529750.2266595,18
1660210383.53221,1529750.2266639,9
1660210383.53221,1529750.2266684,-7
1660210383.98388,1529750.2266771,-11
1660210383.98388,1529750.2266831,0

1660210383.98388,1529750.2266875,2
1660210383.98388,1529750.2266908,0
1660210383.98388,1529750.226694,11
1660210383.98388,1529750.2266977,23
1660210383.98388,1529750.2267014,21
1660210383.98388,1529750.2267047,16
1660210383.98388,1529750.2267076,14
1660210383.98388,1529750.2267113,16
1660210383.98388,1529750.2267152,25
1660210383.98388,1529750.2267188,32
1660210383.98388,1529750.2267225,32
1660210383.98388,1529750.2267262,32
1660210383.98388,1529750.2267299,39
1660210383.98388,1529750.2267334,42
1660210383.98388,1529750.2267369,44
1660210383.98388,1529750.2267406,46
1660210383.98388,1529750.226744,60
1660210383.98388,1529750.2267476,98
1660210383.98388,1529750.226751,126
1660210383.98388,1529750.2267557,119
1660210383.98388,1529750.2267591,114
1660210383.98388,1529750.2267629,123
1660210383.98388,1529750.2267661,119
1660210383.98388,1529750.2267694,95
1660210383.98388,1529750.2267728,77
1660210383.98388,1529750.2267764,72
1660210383.98388,1529750.2267815,79
1660210383.98388,1529750.2267849,91
1660210383.98388,1529750.2267883,95
1660210383.98388,1529750.2267917,93
1660210383.98388,1529750.2267952,88
1660210383.98388,1529750.2267988,93
1660210383.98388,1529750.2268029,88
1660210383.98388,1529750.2268069,91
1660210383.98388,1529750.226811,205
1660210383.98388,1529750.2268146,481
1660210383.98388,1529750.2268182,768
1660210383.98388,1529750.2268219,611
1660210383.98388,1529750.2268259,-142
1660210383.98388,1529750.2268295,-579
1660210383.98388,1529750.2268332,-200
1660210383.98388,1529750.2268368,123
1660210383.98388,1529750.2268404,58
1660210383.98388,1529750.2268443,70
1660210383.98388,1529750.7138791,140
1660210383.98388,1529750.7138919,107
1660210383.98388,1529750.7138965,102
1660210383.98388,1529750.7139023,142
1660210384.00083,1529750.7139058,137
1660210384.00083,1529750.7139077,116
1660210384.00083,1529750.7139107,126
1660210384.00083,1529750.7139128,135
1660210384.00083,1529750.7139148,130
1660210384.00083,1529750.7139168,140
1660210384.00083,1529750.7139188,149
1660210384.00083,1529750.7139208,130
1660210384.00083,1529750.713927,119
1660210384.00083,1529750.7139387,142
1660210384.00083,1529750.7139441,156
1660210384.00083,1529750.7139474,156
1660210384.00083,1529750.7139494,175
1660210384.00083,1529750.7139515,196
1660210384.00083,1529750.7139536,189
1660210384.00083,1529750.7139571,179
1660210384.00083,1529750.7139699,189
1660210384.00083,1529750.7139755,184
1660210384.00083,1529750.713978,165
1660210384.00083,1529750.713983,154
1660210384.00083,1529750.7139944,142
1660210384.00083,1529750.7140036,123
1660210384.00083,1529750.7140124,98
1660210384.00083,1529750.714018,81
1660210384.53893,1529750.7140262,77
1660210384.53893,1529750.7140344,53
1660210384.53893,1529750.714042,11
1660210384.53893,1529750.7140492,-16
1660210384.53893,1529750.7140558,-18
1660210384.53893,1529750.7140606,-23
1660210384.53893,1529750.7140696,-28
1660210384.53893,1529750.714082,-30
1660210384.53893,1529750.71409,-30
1660210384.53893,1529750.7141024,-25
1660210384.53893,1529750.7141135,-4
1660210384.53893,1529750.7141226,7
1660210384.53893,1529750.7141322,0
1660210384.53893,1529750.7141407,4
1660210384.53893,1529750.7141482,25
1660210384.53893,1529750.7141517,32
1660210384.53893,1529750.7141567,28
1660210384.53893,1529750.7141613,35
1660210384.53893,1529750.7141666,49
1660210384.53893,1529750.7141703,51
1660210384.53893,1529750.7141767,53
1660210384.53893,1529750.7141896,56
1660210384.53893,1529750.7142026,53
1660210384.53893,1529750.714216,63
1660210384.53893,1529750.7142296,72
1660210384.53893,1529750.7142376,67
1660210384.53893,1529750.7142469,67
1660210384.53893,1529750.7142618,72
1660210384.53893,1529750.7142756,63
1660210384.53893,1529750.714283,49
1660210384.53893,1529750.7142854,49
1660210384.53893,1529750.7142876,53
1660210384.53893,1529750.714291,53
1660210384.53893,1529750.7143011,53
1660210384.53893,1529750.7143101,63
1660210384.53893,1529750.7143206,70
1660210384.53893,1529750.7143335,70
1660210384.53893,1529750.7143512,67
1660210384.53893,1529750.7143638,67
1660210384.53893,1529750.7143729,81
1660210384.53893,1529750.7143816,116
1660210384.53893,1529750.7143881,147
1660210384.53893,1529750.7143958,133
1660210384.53893,1529750.7144051,107
1660210384.53893,1529750.7144157,119
1660210384.53893,1529751.2508972,135
1660210384.53893,1529751.2509119,119
1660210384.53893,1529751.250917,95
1660210384.53893,1529751.2509254,79
1660210384.53893,1529751.2509341,79
1660210384.55787,1529751.2509367,88
1660210384.55787,1529751.2509389,98
1660210384.55787,1529751.2509409,105
1660210384.55787,1529751.2509428,98
1660210384.55787,1529751.2509449,88
1660210384.55787,1529751.2509469,86
1660210384.55787,1529751.2509488,67
1660210384.55787,1529751.2509507,77
1660210384.55787,1529751.2509527,238
1660210384.55787,1529751.2509547,525
1660210384.55787,1529751.2509566,639
1660210384.55787,1529751.2509586,142
1660210384.55787,1529751.2509648,-567
1660210384.55787,1529751.2509765,-530
1660210384.55787,1529751.2509821,-56
1660210384.55787,1529751.2509843,25
1660210384.55787,1529751.2509864,-65
1660210384.55787,1529751.2509886,2
1660210384.55787,1529751.2509907,49
1660210384.55787,1529751.2509926,18
1660210384.55787,1529751.2509955,21
1660210384.55787,1529751.2509975,39
1660210384.55787,1529751.2509995,44
1660210384.55787,1529751.2510016,51
1660210385.35027,1529751.2510036,60
1660210385.35027,1529751.2510056,65
1660210385.35027,1529751.2510077,74
1660210385.35027,1529751.2510096,86
1660210385.35027,1529751.2510115,93
1660210385.35027,1529751.2510134,93
1660210385.35027,1529751.251016,98
1660210385.35027,1529751.251026,112
1660210385.35027,1529751.251034,121
1660210385.35027,1529751.2510462,121
1660210385.35027,1529751.2510548,123
1660210385.35027,1529751.2510572,128
1660210385.35027,1529751.2510594,140
1660210385.35027,1529751.2510623,154
1660210385.35027,1529751.2510749,154
1660210385.35027,1529751.251081,151
1660210385.35027,1529751.2510831,144
1660210385.35027,1529751.2510851,126
1660210385.35027,1529751.2510871,109
1660210385.35027,1529751.2510925,102
1660210385.35027,1529751.2511037,95
1660210385.35027,1529751.251107,93
1660210385.35027,1529751.2511092,81
1660210385.35027,1529751.2511112,56
1660210385.35027,1529751.2511132,35
1660210385.35027,1529751.2511151,35
1660210385.35027,1529751.2511223,37
1660210385.35027,1529751.251133,35
1660210385.35027,1529751.2511365,37
1660210385.35027,1529751.2511394,39
1660210385.35027,1529751.2511424,37
1660210385.35027,1529751.2511524,46
1660210385.35027,1529751.251161,67
1660210385.35027,1529751.2511635,77
1660210385.35027,1529751.2511656,72
1660210385.35027,1529751.2511676,70
1660210385.35027,1529751.2511696,74
1660210385.35027,1529751.2511716,81
1660210385.35027,1529751.2511736,91
1660210385.35027,1529751.2511755,100
1660210385.35027,1529751.2511814,98
1660210385.35027,1529751.2511942,91
1660210385.35027,1529751.2511974,98
1660210385.35027,1529751.2512008,109
1660210385.35027,1529752.0794064,107
1660210385.35027,1529752.0794277,93
1660210385.35027,1529752.0794369,93
1660210385.35027,1529752.0794396,88
1660210385.35027,1529752.0794418,56
1660210385.35027,1529752.0794438,32
1660210385.36922,1529752.0794458,37
1660210385.36922,1529752.0794478,35
1660210385.36922,1529752.07945,28
1660210385.36922,1529752.0794519,32
1660210385.36922,1529752.0794539,25
1660210385.36922,1529752.079456,7
1660210385.36922,1529752.0794581,7
1660210385.36922,1529752.0794601,16
1660210385.36922,1529752.0794622,16
1660210385.36922,1529752.0794641,16
1660210385.36922,1529752.0794661,32
1660210385.36922,1529752.079468,37
1660210385.36922,1529752.0794701,23
1660210385.36922,1529752.0794734,23
1660210385.36922,1529752.0794872,39
1660210385.36922,1529752.0794964,44
1660210385.36922,1529752.079526,46
1660210385.36922,1529752.0795363,65
1660210385.36922,1529752.0795411,88
1660210385.36922,1529752.0795493,86
1660210385.36922,1529752.0795543,74
1660210385.36922,1529752.0795596,77
1660210385.36922,1529752.0795636,88
1660210385.36922,1529752.0795711,79
1660210385.69888,1529752.0795747,53
1660210385.69888,1529752.0795947,37
1660210385.69888,1529752.0796244,32
1660210385.69888,1529752.0796343,37
1660210385.69888,1529752.0796445,46
1660210385.69888,1529752.079652,53
1660210385.69888,1529752.0796613,58
1660210385.69888,1529752.0796687,65
1660210385.69888,1529752.0796752,65
1660210385.69888,1529752.0796796,49
1660210385.69888,1529752.0796857,32
1660210385.69888,1529752.0796902,91
1660210385.69888,1529752.0796941,287
1660210385.69888,1529752.079698,562
1660210385.69888,1529752.0797038,569
1660210385.69888,1529752.0797084,-14
1660210385.69888,1529752.0797142,-562
1660210385.69888,1529752.0797184,-338
1660210385.69888,1529752.0797248,65
1660210385.69888,1529752.0797291,72
1660210385.69888,1529752.079736,35
1660210385.69888,1529752.0797403,100
1660210385.69888,1529752.0797462,98
1660210385.69888,1529752.0797504,74
1660210385.69888,1529752.079757,95
1660210385.69888,1529752.0797616,102
1660210385.69888,1529752.0797683,88
1660210385.69888,1529752.0797745,84
1660210385.69888,1529752.0797815,98
1660210385.69888,1529752.0797895,114
1660210385.69888,1529752.0797976,116
1660210385.69888,1529752.0798024,116
1660210385.69888,1529752.0798107,119
1660210385.69888,1529752.0798172,123
1660210385.69888,1529752.0798256,137
1660210385.69888,1529752.0798321,154
1660210385.69888,1529752.0798401,163
1660210385.69888,1529752.0798466,172
1660210385.69888,1529752.0798549,177
1660210385.69888,1529752.0798609,177
1660210385.69888,1529752.0798676,163
1660210385.69888,1529752.0798719,154
1660210385.69888,1529752.0798791,156
1660210385.69888,1529752.4200934,154
1660210385.69888,1529752.4201104,137
1660210385.69888,1529752.4201172,126
1660210385.69888,1529752.420123,128
1660210385.69888,1529752.4201553,128
1660210385.69888,1529752.4201662,130
1660210385.69888,1529752.4201713,130
1660210385.73342,1529752.4201752,112
1660210385.73342,1529752.4201788,81
1660210385.73342,1529752.4201824,72
1660210385.73342,1529752.4201875,77
1660210385.73342,1529752.4201918,77
1660210385.73342,1529752.4202,74
1660210385.73342,1529752.4202037,67
1660210385.73342,1529752.4202071,58
1660210385.73342,1529752.4202105,63
1660210385.73342,1529752.4202139,77
1660210385.73342,1529752.4202174,79
1660210385.73342,1529752.4202219,88
1660210385.73342,1529752.4202271,102
1660210385.73342,1529752.4202331,79
1660210385.73342,1529752.4202377,49
1660210385.73342,1529752.4202432,60
1660210385.73342,1529752.4202497,81
1660210385.73342,1529752.4202564,74
1660210385.73342,1529752.4202632,72
1660210385.73342,1529752.420269,74
1660210385.73342,1529752.420273,74
1660210385.73342,1529752.4202761,86
1660210385.73342,1529752.4202792,91
1660210385.73342,1529752.4202851,79
1660210386.17991,1529752.4202899,77
1660210386.17991,1529752.4202939,77
1660210386.17991,1529752.4202981,65
1660210386.17991,1529752.4203027,56
1660210386.17991,1529752.4203062,63
1660210386.17991,1529752.42031,74
1660210386.17991,1529752.4203137,79
1660210386.17991,1529752.4203174,74
1660210386.17991,1529752.4203211,70
1660210386.17991,1529752.420325,70
1660210386.17991,1529752.4203306,74
1660210386.17991,1529752.4203359,72
1660210386.17991,1529752.4203404,67
1660210386.17991,1529752.4203452,70
1660210386.17991,1529752.4203516,65
1660210386.17991,1529752.4203558,37
1660210386.17991,1529752.4203612,18
1660210386.17991,1529752.420368,32
1660210386.17991,1529752.4203752,65
1660210386.17991,1529752.4203798,100
1660210386.17991,1529752.4203862,105
1660210386.17991,1529752.4203903,84
1660210386.17991,1529752.4203939,81
1660210386.17991,1529752.4203975,95
1660210386.17991,1529752.4204013,93
1660210386.17991,1529752.4204051,70
1660210386.17991,1529752.4204088,53
1660210386.17991,1529752.4204125,51
1660210386.17991,1529752.4204162,49
1660210386.17991,1529752.4204205,42
1660210386.17991,1529752.4204244,30
1660210386.17991,1529752.4204284,21
1660210386.17991,1529752.4204325,23
1660210386.17991,1529752.4204366,30
1660210386.17991,1529752.4204407,16
1660210386.17991,1529752.4204451,4
1660210386.17991,1529752.4204515,72
1660210386.17991,1529752.420458,287
1660210386.17991,1529752.4204644,558
1660210386.17991,1529752.4204726,478
1660210386.17991,1529752.4204793,-175
1660210386.17991,1529752.4204938,-625
1660210386.17991,1529752.9077202,-315
1660210386.17991,1529752.9077326,25
1660210386.17991,1529752.9077353,4
1660210386.17991,1529752.9077374,16
1660210386.17991,1529752.9077394,91
1660210386.17991,1529752.9077415,65
1660210386.17991,1529752.9077434,49
1660210386.17991,1529752.9077454,84
1660210386.20793,1529752.9077474,91
1660210386.20793,1529752.9077494,84
1660210386.20793,1529752.9077514,93
1660210386.20793,1529752.9077534,84
1660210386.20793,1529752.9077554,70
1660210386.20793,1529752.9077574,79
1660210386.20793,1529752.9077593,84
1660210386.20793,1529752.9077613,86
1660210386.20793,1529752.9077635,102
1660210386.20793,1529752.9077705,102
1660210386.20793,1529752.9077824,84
1660210386.20793,1529752.9077882,84
1660210386.20793,1529752.9077912,107
1660210386.20793,1529752.9077933,119
1660210386.20793,1529752.9077959,126
1660210386.20793,1529752.907798,137
1660210386.20793,1529752.9078055,147
1660210386.20793,1529752.9078162,144
1660210386.20793,1529752.9078204,142
1660210386.20793,1529752.9078225,142
1660210386.20793,1529752.9078245,137
1660210386.20793,1529752.9078273,133
1660210386.20793,1529752.9078379,126
1660210386.20793,1529752.9078453,123
1660210386.82734,1529752.9078477,128
1660210386.82734,1529752.9078497,112
1660210386.82734,1529752.9078516,86
1660210386.82734,1529752.9078535,81
1660210386.82734,1529752.9078612,81
1660210386.82734,1529752.9078697,67
1660210386.82734,1529752.9078772,63
1660210386.82734,1529752.9079097,70
1660210386.82734,1529752.907924,77
1660210386.82734,1529752.9079348,84
1660210386.82734,1529752.9079459,88
1660210386.82734,1529752.9079548,88
1660210386.82734,1529752.907964,93
1660210386.82734,1529752.9079727,107
1660210386.82734,1529752.9079836,112
1660210386.82734,1529752.9079917,119
1660210386.82734,1529752.9080037,130
1660210386.82734,1529752.9080142,121
1660210386.82734,1529752.9080216,109
1660210386.82734,1529752.9080327,121
1660210386.82734,1529752.908038,133
1660210386.82734,1529752.9080453,123
1660210386.82734,1529752.9080572,105
1660210386.82734,1529752.9080713,86
1660210386.82734,1529752.9080832,67
1660210386.82734,1529752.9080937,67
1660210386.82734,1529752.9081063,74
1660210386.82734,1529752.9081136,77
1660210386.82734,1529752.9081211,77
1660210386.82734,1529752.9081454,70
1660210386.82734,1529752.9081724,60
1660210386.82734,1529752.9081877,65
1660210386.82734,1529752.908201,74
1660210386.82734,1529752.9082091,74
1660210386.82734,1529752.9082173,70
1660210386.82734,1529752.9082222,65
1660210386.82734,1529752.9082261,60
1660210386.82734,1529752.9082391,67
1660210386.82734,1529752.9082456,81
1660210386.82734,1529752.9082512,86
1660210386.82734,1529752.9082581,77
1660210386.82734,1529753.5417988,65
1660210386.82734,1529753.5418126,67
1660210386.82734,1529753.5418166,74
1660210386.82734,1529753.5418203,84
1660210386.82734,1529753.5418238,107
1660210386.82734,1529753.5418273,140
1660210386.82734,1529753.5418321,144
1660210386.82734,1529753.5418357,116
1660210386.82734,1529753.5418392,98
1660210386.84529,1529753.5418426,102
1660210386.84529,1529753.5418466,88
1660210386.84529,1529753.54185,51
1660210386.84529,1529753.5418537,21
1660210386.84529,1529753.5418572,-9
1660210386.84529,1529753.5418606,-28
1660210386.84529,1529753.541864,-23
1660210386.84529,1529753.5418675,-11
1660210386.84529,1529753.5418709,-9
1660210386.84529,1529753.5418745,-7
1660210386.84529,1529753.5418779,-2
1660210386.84529,1529753.5418849,-7
1660210386.84529,1529753.5418914,23
1660210386.84529,1529753.5418977,193
1660210386.84529,1529753.541904,499
1660210386.84529,1529753.5419098,658
1660210386.84529,1529753.5419135,198
1660210386.84529,1529753.5419171,-537
1660210386.84529,1529753.5419207,-553
1660210386.84529,1529753.5419241,-88
1660210386.84529,1529753.5419275,25
1660210386.84529,1529753.541931,-23
1660210386.84529,1529753.5419344,65
1660210386.84529,1529753.5419384,95
1660210387.31327,1529753.5419424,58
1660210387.31327,1529753.5419459,86
1660210387.31327,1529753.5419493,126
1660210387.31327,1529753.5419528,102
1660210387.31327,1529753.5419568,84
1660210387.31327,1529753.5419602,107
1660210387.31327,1529753.5419636,116
1660210387.31327,1529753.541967,112
1660210387.31327,1529753.5419712,137
1660210387.31327,1529753.5420439,154
1660210387.31327,1529753.5420517,149
1660210387.31327,1529753.5420618,151
1660210387.31327,1529753.5420653,161
1660210387.31327,1529753.5420698,156
1660210387.31327,1529753.5420737,151
1660210387.31327,1529753.542077,158
1660210387.31327,1529753.542081,175
1660210387.31327,1529753.542085,193
1660210387.31327,1529753.5420885,207
1660210387.31327,1529753.5420925,205
1660210387.31327,1529753.5420962,200
1660210387.31327,1529753.5420999,200
1660210387.31327,1529753.5421037,186
1660210387.31327,1529753.5421081,158
1660210387.31327,1529753.5421128,144
1660210387.31327,1529753.5421167,140
1660210387.31327,1529753.5421197,126
1660210387.31327,1529753.542123,114
1660210387.31327,1529753.5421268,114
1660210387.31327,1529753.5421342,112
1660210387.31327,1529753.5421402,84
1660210387.31327,1529753.5421439,46
1660210387.31327,1529753.5421492,39
1660210387.31327,1529753.5421538,37
1660210387.31327,1529753.5421588,28
1660210387.31327,1529753.5421621,58
1660210387.31327,1529753.5421657,86
1660210387.31327,1529753.542172,70
1660210387.31327,1529753.5421766,67
1660210387.31327,1529753.5421833,79
1660210387.31327,1529754.0312065,79
1660210387.31327,1529754.0312247,84
1660210387.31327,1529754.0312323,98
1660210387.31327,1529754.031237,95
1660210387.31327,1529754.0312411,67
1660210387.31327,1529754.0312472,51
1660210387.31327,1529754.0312517,77
1660210387.31327,1529754.0312578,88
1660210387.31327,1529754.0312649,58
1660210387.31327,1529754.03127,39
1660210387.34019,1529754.0312732,53
1660210387.34019,1529754.0312801,46
1660210387.34019,1529754.0312869,23
1660210387.34019,1529754.0312925,23
1660210387.34019,1529754.0312971,25
1660210387.34019,1529754.0313031,25
1660210387.34019,1529754.0313077,28
1660210387.34019,1529754.0313152,11
1660210387.34019,1529754.0313203,-4
1660210387.34019,1529754.0313266,-2
1660210387.34019,1529754.0313315,23
1660210387.34019,1529754.0313378,42
1660210387.34019,1529754.0313424,11
1660210387.34019,1529754.0313484,-23
1660210387.34019,1529754.0313524,0
1660210387.34019,1529754.0313584,58
1660210387.34019,1529754.0313631,81
1660210387.34019,1529754.0313692,65
1660210387.34019,1529754.0313754,58
1660210387.34019,1529754.0313798,60
1660210387.34019,1529754.0313851,37
1660210387.34019,1529754.0313885,-21
1660210387.34019,1529754.0313922,-67
1660210387.34019,1529754.0313974,-53
1660210387.94614,1529754.0314012,-39
1660210387.94614,1529754.0314048,-60
1660210387.94614,1529754.0314098,-63
1660210387.94614,1529754.0314154,-23
1660210387.94614,1529754.0314216,11
1660210387.94614,1529754.031427,-7
1660210387.94614,1529754.0314361,-37
1660210387.94614,1529754.031443,-35
1660210387.94614,1529754.0314477,35
1660210387.94614,1529754.0314521,217
1660210387.94614,1529754.0314568,448
1660210387.94614,1529754.0314614,376
1660210387.94614,1529754.0314663,-273
1660210387.94614,1529754.0314708,-742
1660210387.94614,1529754.0314755,-390
1660210387.94614,1529754.0314855,7
1660210387.94614,1529754.0314929,-21
1660210387.94614,1529754.0314969,-25
1660210387.94614,1529754.0315037,44
1660210387.94614,1529754.0315121,21
1660210387.94614,1529754.0315234,4
1660210387.94614,1529754.0315304,46
1660210387.94614,1529754.0315378,67
1660210387.94614,1529754.031544,81
1660210387.94614,1529754.0315498,107
1660210387.94614,1529754.0315581,116
1660210387.94614,1529754.0315638,105
1660210387.94614,1529754.0315722,107
1660210387.94614,1529754.0315785,119
1660210387.94614,1529754.0315869,123
1660210387.94614,1529754.031593,119
1660210387.94614,1529754.0316009,116
1660210387.94614,1529754.0316059,151
1660210387.94614,1529754.0316099,193
1660210387.94614,1529754.0316129,177
1660210387.94614,1529754.0316158,182
1660210387.94614,1529754.0316186,249
1660210387.94614,1529754.0316215,266
1660210387.94614,1529754.0316244,231
1660210387.94614,1529754.6633861,233
1660210387.94614,1529754.6634076,226
1660210387.94614,1529754.6634125,184
1660210387.94614,1529754.6634166,196
1660210387.94614,1529754.6634204,224
1660210387.94614,1529754.6634236,193
1660210387.94614,1529754.663427,182
1660210387.94614,1529754.6634305,191
1660210387.94614,1529754.6634345,140
1660210387.94614,1529754.6634384,102
1660210387.94614,1529754.663443,121
1660210387.98304,1529754.6634997,126
1660210387.98304,1529754.6635055,133
1660210387.98304,1529754.6635091,128
1660210387.98304,1529754.6635124,93
1660210387.98304,1529754.6635198,79
1660210387.98304,1529754.6635233,81
1660210387.98304,1529754.6635264,79
1660210387.98304,1529754.6635298,100
1660210387.98304,1529754.6635329,119
1660210387.98304,1529754.6635364,91
1660210387.98304,1529754.6635399,30
1660210387.98304,1529754.6635433,37
1660210387.98304,1529754.6635469,133
1660210387.98304,1529754.6635506,144
1660210387.98304,1529754.663554,72
1660210387.98304,1529754.6635575,70
1660210387.98304,1529754.6635611,100
1660210387.98304,1529754.6635644,93
1660210387.98304,1529754.6635717,88
1660210387.98304,1529754.6635751,95
1660210387.98304,1529754.6635783,91
1660210387.98304,1529754.6635818,86
1660210387.98304,1529754.6635853,74
1660210387.98304,1529754.6635888,53
1660210388.48052,1529754.6635927,56
1660210388.48052,1529754.6635964,51
1660210388.48052,1529754.6635998,42
1660210388.48052,1529754.6636032,58
1660210388.48052,1529754.6636067,74
1660210388.48052,1529754.6636102,79
1660210388.48052,1529754.6636137,67
1660210388.48052,1529754.6636172,32
1660210388.48052,1529754.6636205,32
1660210388.48052,1529754.663624,112
1660210388.48052,1529754.6636277,196
1660210388.48052,1529754.6636312,175
1660210388.48052,1529754.6636346,91
1660210388.48052,1529754.6636397,77
1660210388.48052,1529754.6636427,135
1660210388.48052,1529754.6636459,130
1660210388.48052,1529754.6636499,63
1660210388.48052,1529754.663653,44
1660210388.48052,1529754.6636563,63
1660210388.48052,1529754.6636598,58
1660210388.48052,1529754.6636633,74
1660210388.48052,1529754.663667,114
1660210388.48052,1529754.6636708,112
1660210388.48052,1529754.6636743,35
1660210388.48052,1529754.6636778,-11
1660210388.48052,1529754.6636813,30
1660210388.48052,1529754.6636847,86
1660210388.48052,1529754.6636883,275
1660210388.48052,1529754.6636917,660
1660210388.48052,1529754.6636951,768
1660210388.48052,1529754.6636985,130
1660210388.48052,1529754.663702,-583
1660210388.48052,1529754.6637056,-453
1660210388.48052,1529754.6637091,16
1660210388.48052,1529754.6637128,81
1660210388.48052,1529754.6637163,-14
1660210388.48052,1529754.6637198,16
1660210388.48052,1529754.6637232,100
1660210388.48052,1529755.1992253,112
1660210388.48052,1529755.1992434,88
1660210388.48052,1529755.1992528,121
1660210388.48052,1529755.1992578,140
1660210388.48052,1529755.1992656,130
1660210388.48052,1529755.1992702,154
1660210388.48052,1529755.1992775,144
1660210388.48052,1529755.1992816,137
1660210388.48052,1529755.1992872,179
1660210388.48052,1529755.199291,140
1660210388.48052,1529755.1992949,74
1660210388.48052,1529755.1992985,137
1660210388.49903,1529755.1993021,168
1660210388.49903,1529755.1993056,107
1660210388.49903,1529755.1993108,123
1660210388.49903,1529755.1993149,179
1660210388.49903,1529755.1993182,177
1660210388.49903,1529755.1993214,170
1660210388.49903,1529755.1993249,186
1660210388.49903,1529755.1993284,179
1660210388.49903,1529755.1993321,165
1660210388.49903,1529755.1993359,172
1660210388.49903,1529755.1993398,165
1660210388.49903,1529755.1993434,123
1660210388.49903,1529755.199348,74
1660210388.49903,1529755.1993515,53
1660210388.49903,1529755.1993549,49
1660210388.49903,1529755.1993605,39
1660210388.49903,1529755.199364,23
1660210388.49903,1529755.1993691,-9
1660210388.49903,1529755.199374,-11
1660210388.49903,1529755.1993791,30
1660210388.49903,1529755.1993824,23
1660210388.49903,1529755.1993879,-11
1660210388.49903,1529755.1993913,2
1660210388.49903,1529755.1993947,21
1660210389.05447,1529755.1993983,23
1660210389.05447,1529755.1994016,37
1660210389.05447,1529755.1994049,39
1660210389.05447,1529755.1994083,30
1660210389.05447,1529755.1994116,51
1660210389.05447,1529755.1994149,81
1660210389.05447,1529755.1994182,81
1660210389.05447,1529755.1994216,67
1660210389.05447,1529755.1994247,63
1660210389.05447,1529755.1994289,58
1660210389.05447,1529755.1994323,56
1660210389.05447,1529755.1994354,56
1660210389.05447,1529755.1994385,70
1660210389.05447,1529755.1994417,98
1660210389.05447,1529755.199445,100
1660210389.05447,1529755.1994489,86
1660210389.05447,1529755.1994529,95
1660210389.05447,1529755.1994566,105
1660210389.05447,1529755.1994622,84
1660210389.05447,1529755.1994666,70
1660210389.05447,1529755.1994702,65
1660210389.05447,1529755.1994755,53
1660210389.05447,1529755.1994791,58
1660210389.05447,1529755.1994827,93
1660210389.05447,1529755.1994889,93
1660210389.05447,1529755.1994925,44
1660210389.05447,1529755.1994961,60
1660210389.05447,1529755.1994999,161
1660210389.05447,1529755.1995037,175
1660210389.05447,1529755.1995076,86
1660210389.05447,1529755.1995135,88
1660210389.05447,1529755.1995172,161
1660210389.05447,1529755.199521,144
1660210389.05447,1529755.1995264,79
1660210389.05447,1529755.1995302,65
1660210389.05447,1529755.1995353,74
1660210389.05447,1529755.1995406,42
1660210389.05447,1529755.7843474,23
1660210389.05447,1529755.7843662,67
1660210389.05447,1529755.7843757,107
1660210389.05447,1529755.7843845,95
1660210389.05447,1529755.7843914,81
1660210389.05447,1529755.784398,102
1660210389.05447,1529755.7844052,147
1660210389.05447,1529755.7844121,301
1660210389.05447,1529755.7844198,623
1660210389.05447,1529755.7844278,787
1660210389.05447,1529755.7844324,277
1660210389.05447,1529755.7844402,-520
1660210389.05447,1529755.7844461,-553
1660210389.08139,1529755.78445,-46
1660210389.08139,1529755.7844561,58
1660210389.08139,1529755.784465,-65
1660210389.08139,1529755.7844723,-9
1660210389.08139,1529755.7844781,53
1660210389.08139,1529755.7844814,39
1660210389.08139,1529755.7844848,30
1660210389.08139,1529755.7844892,-11
1660210389.08139,1529755.7844952,-63
1660210389.08139,1529755.7844983,-18
1660210389.08139,1529755.7845014,65
1660210389.08139,1529755.7845087,58
1660210389.08139,1529755.7845213,39
1660210389.08139,1529755.7845305,77
1660210389.08139,1529755.7845368,79
1660210389.08139,1529755.7845508,51
1660210389.08139,1529755.7845609,49
1660210389.08139,1529755.7845697,63
1660210389.08139,1529755.7845773,81
1660210389.08139,1529755.7845837,95
1660210389.08139,1529755.7845909,91
1660210389.08139,1529755.7845982,88
1660210389.08139,1529755.7846059,149
1660210389.08139,1529755.7846136,217
1660210389.55713,1529755.7846264,224
1660210389.55713,1529755.7846313,210
1660210389.55713,1529755.784635,193
1660210389.55713,1529755.7846382,144
1660210389.55713,1529755.7846413,98
1660210389.55713,1529755.7846442,91
1660210389.55713,1529755.7846473,114
1660210389.55713,1529755.7846504,114
1660210389.55713,1529755.7846533,107
1660210389.55713,1529755.7846566,112
1660210389.55713,1529755.7846601,91
1660210389.55713,1529755.7846636,70
1660210389.55713,1529755.7846669,70
1660210389.55713,1529755.7846699,65
1660210389.55713,1529755.784673,49
1660210389.55713,1529755.7846762,44
1660210389.55713,1529755.7847049,60
1660210389.55713,1529755.7847134,81
1660210389.55713,1529755.7847173,93
1660210389.55713,1529755.7847229,88
1660210389.55713,1529755.7847268,74
1660210389.55713,1529755.7847317,67
1660210389.55713,1529755.7847347,79
1660210389.55713,1529755.7847376,105
1660210389.55713,1529755.7847405,116
1660210389.55713,1529755.7847433,107
1660210389.55713,1529755.7847463,102
1660210389.55713,1529755.7847493,95
1660210389.55713,1529755.7847524,74
1660210389.55713,1529755.7847557,63
1660210389.55713,1529755.7847608,53
1660210389.55713,1529755.7847646,56
1660210389.55713,1529755.7847702,84
1660210389.55713,1529755.7847738,88
1660210389.55713,1529755.7847794,79
1660210389.55713,1529755.7847832,74
1660210389.55713,1529756.2712314,65
1660210389.55713,1529756.2712434,56
1660210389.55713,1529756.271246,42
1660210389.55713,1529756.2712493,25
1660210389.55713,1529756.2712514,30
1660210389.55713,1529756.2712534,67
1660210389.55713,1529756.2712555,109
1660210389.55713,1529756.2712574,128
1660210389.55713,1529756.2712594,123
1660210389.55713,1529756.2712614,109
1660210389.55713,1529756.2712636,98
1660210389.55713,1529756.2712668,95
1660210389.55713,1529756.2712784,88
1660210389.55713,1529756.2712854,67
1660210389.57309,1529756.2712915,49
1660210389.57309,1529756.2713013,42
1660210389.57309,1529756.2713099,30
1660210389.57309,1529756.2713138,2
1660210389.57309,1529756.2713166,-30
1660210389.57309,1529756.2713252,-30
1660210389.57309,1529756.2713371,7
1660210389.57309,1529756.2713509,30
1660210389.57309,1529756.2713629,16
1660210389.57309,1529756.2713723,39
1660210389.57309,1529756.2713798,196
1660210389.57309,1529756.2713864,453
1660210389.57309,1529756.271395,420
1660210389.57309,1529756.2714018,-196
1660210389.57309,1529756.2714074,-689
1660210389.57309,1529756.2714125,-439
1660210389.57309,1529756.2714173,-84
1660210389.57309,1529756.2714224,-67
1660210389.57309,1529756.2714254,-65
1660210389.57309,1529756.2714285,-2
1660210389.57309,1529756.2714318,-7
1660210389.57309,1529756.2714368,-23
1660210389.57309,1529756.2714402,-7
1660210389.57309,1529756.2714435,-9
1660210390.1337,1529756.2714468,-16
1660210390.1337,1529756.2714498,7
1660210390.1337,1529756.2714532,25
1660210390.1337,1529756.2714562,11
1660210390.1337,1529756.2714592,9
1660210390.1337,1529756.2714623,25
1660210390.1337,1529756.2714675,28
1660210390.1337,1529756.2714711,28
1660210390.1337,1529756.271474,42
1660210390.1337,1529756.2714771,72
1660210390.1337,1529756.2714803,86
1660210390.1337,1529756.2714836,95
1660210390.1337,1529756.271489,121
1660210390.1337,1529756.2714928,133
1660210390.1337,1529756.2714978,130
1660210390.1337,1529756.2715044,144
1660210390.1337,1529756.2715089,151
1660210390.1337,1529756.271512,142
1660210390.1337,1529756.2715149,140
1660210390.1337,1529756.2715178,140
1660210390.1337,1529756.2715241,135
1660210390.1337,1529756.2715293,140
1660210390.1337,1529756.2715349,142
1660210390.1337,1529756.2715392,123
1660210390.1337,1529756.2715445,102
1660210390.1337,1529756.2715506,91
1660210390.1337,1529756.2715536,70
1660210390.1337,1529756.2715565,49
1660210390.1337,1529756.2715594,46
1660210390.1337,1529756.2715622,46
1660210390.1337,1529756.2715651,32
1660210390.1337,1529756.2715678,35
1660210390.1337,1529756.2715707,63
1660210390.1337,1529756.2715737,88
1660210390.1337,1529756.2715766,102
1660210390.1337,1529756.8558736,100
1660210390.1337,1529756.8558904,86
1660210390.1337,1529756.8559628,91
1660210390.1337,1529756.855982,102
1660210390.1337,1529756.8559906,100
1660210390.1337,1529756.8559968,84
1660210390.1337,1529756.8560025,74
1660210390.1337,1529756.8560081,67
1660210390.1337,1529756.8560135,39
1660210390.1337,1529756.8560283,30
1660210390.1337,1529756.8560387,49
1660210390.1337,1529756.8560456,56
1660210390.1337,1529756.8560925,51
1660210390.1337,1529756.8561064,46
1660210390.1337,1529756.8561143,25
1660210390.15065,1529756.8561206,16
1660210390.15065,1529756.8561271,39
1660210390.15065,1529756.8561336,58
1660210390.15065,1529756.8561383,72
1660210390.15065,1529756.8561434,105
1660210390.15065,1529756.8561488,112
1660210390.15065,1529756.8561561,81
1660210390.15065,1529756.8561655,81
1660210390.15065,1529756.8561735,86
1660210390.15065,1529756.8561821,51
1660210390.15065,1529756.8561891,25
1660210390.15065,1529756.8561956,28
1660210390.15065,1529756.8562014,37
1660210390.15065,1529756.8562083,42
1660210390.15065,1529756.8562152,49
1660210390.15065,1529756.8562221,58
1660210390.15065,1529756.8562265,70
1660210390.15065,1529756.8562299,67
1660210390.15065,1529756.8562332,39
1660210390.15065,1529756.8562368,37
1660210390.15065,1529756.8562413,158
1660210390.15065,1529756.856245,408
1660210390.15065,1529756.8562485,653
1660210390.15065,1529756.8562522,511
1660210390.67971,1529756.8562558,-182
1660210390.67971,1529756.8562594,-614
1660210390.67971,1529756.8562628,-294
1660210390.67971,1529756.8562667,21
1660210390.67971,1529756.8562723,18
1660210390.67971,1529756.8562762,77
1660210390.67971,1529756.8562796,140
1660210390.67971,1529756.856283,93
1660210390.67971,1529756.8562865,91
1660210390.67971,1529756.8562901,133
1660210390.67971,1529756.8562936,133
1660210390.67971,1529756.8562971,130
1660210390.67971,1529756.8563008,142
1660210390.67971,1529756.8563045,137
1660210390.67971,1529756.8563081,133
1660210390.67971,1529756.8563119,130
1660210390.67971,1529756.8563151,133
1660210390.67971,1529756.8563183,151
1660210390.67971,1529756.8563218,177
1660210390.67971,1529756.8563249,184
1660210390.67971,1529756.8563288,179
1660210390.67971,1529756.8563325,184
1660210390.67971,1529756.8563389,198
1660210390.67971,1529756.8563461,210
1660210390.67971,1529756.8563531,224
1660210390.67971,1529756.8563601,238
1660210390.67971,1529756.856367,224
1660210390.67971,1529756.8563738,205
1660210390.67971,1529756.8563833,198
1660210390.67971,1529756.8563921,191
1660210390.67971,1529756.856401,172
1660210390.67971,1529756.8564097,154
1660210390.67971,1529756.8564166,140
1660210390.67971,1529756.8564236,116
1660210390.67971,1529757.3928884,93
1660210390.67971,1529757.3929083,77
1660210390.67971,1529757.3929224,60
1660210390.67971,1529757.3929328,37
1660210390.67971,1529757.3929417,37
1660210390.67971,1529757.3929485,44
1660210390.67971,1529757.3929565,14
1660210390.67971,1529757.3929593,-25
1660210390.67971,1529757.3929613,-11
1660210390.67971,1529757.3929633,32
1660210390.67971,1529757.3929654,49
1660210390.67971,1529757.3929696,32
1660210390.67971,1529757.3929894,23
1660210390.67971,1529757.3930075,39
1660210390.67971,1529757.3930157,39
1660210390.67971,1529757.3930203,35
1660210390.69766,1529757.3930275,42
1660210390.69766,1529757.3930345,28
1660210390.69766,1529757.3930404,11
1660210390.69766,1529757.3930453,39
1660210390.69766,1529757.3930584,58
1660210390.69766,1529757.3930714,37
1660210390.69766,1529757.3930849,32
1660210390.69766,1529757.3930973,44
1660210390.69766,1529757.3931082,35
1660210390.69766,1529757.3931132,28
1660210390.69766,1529757.3931152,30
1660210390.69766,1529757.3931177,30
1660210390.69766,1529757.39312,58
1660210390.69766,1529757.3931299,98
1660210390.69766,1529757.3931386,77
1660210390.69766,1529757.3931411,44
1660210390.69766,1529757.3931431,58
1660210390.69766,1529757.3931451,70
1660210390.69766,1529757.393148,46
1660210390.69766,1529757.3931585,9
1660210390.69766,1529757.3931661,2
1660210390.69766,1529757.3931685,25
1660210390.69766,1529757.3931706,39
1660210390.69766,1529757.3931726,39
1660210391.20091,1529757.3931777,49
1660210391.20091,1529757.3931874,53
1660210391.20091,1529757.3931963,44
1660210391.20091,1529757.3932027,32
1660210391.20091,1529757.393207,25
1660210391.20091,1529757.3932185,81
1660210391.20091,1529757.3932239,310
1660210391.20091,1529757.3932295,651
1660210391.20091,1529757.393238,630
1660210391.20091,1529757.3932475,-56
1660210391.20091,1529757.3932621,-579
1660210391.20091,1529757.3932756,-280
1660210391.20091,1529757.3932888,63
1660210391.20091,1529757.3933019,25
1660210391.20091,1529757.3933155,30
1660210391.20091,1529757.3933287,102
1660210391.20091,1529757.3933418,86
1660210391.20091,1529757.3933552,79
1660210391.20091,1529757.3933684,109
1660210391.20091,1529757.3933816,109
1660210391.20091,1529757.3933949,105
1660210391.20091,1529757.393408,114
1660210391.20091,1529757.393421,109
1660210391.20091,1529757.3934343,88
1660210391.20091,1529757.3934474,70
1660210391.20091,1529757.3934604,67
1660210391.20091,1529757.3934736,93
1660210391.20091,1529757.3934865,112
1660210391.20091,1529757.3934993,107
1660210391.20091,1529757.3935126,119
1660210391.20091,1529757.3935257,142
1660210391.20091,1529757.3935389,149
1660210391.20091,1529757.3935519,161
1660210391.20091,1529757.9294783,170
1660210391.20091,1529757.9294962,158
1660210391.20091,1529757.9295045,161
1660210391.20091,1529757.9295115,170
1660210391.20091,1529757.9295185,156
1660210391.20091,1529757.9295236,130
1660210391.20091,1529757.9295267,105

1660210391.20091,1529757.9295307,79
1660210391.20091,1529757.9295372,53
1660210391.20091,1529757.9295438,32
1660210391.20091,1529757.9295497,18
1660210391.20091,1529757.9295582,-2
1660210391.20091,1529757.9295669,-25
1660210391.20091,1529757.9295748,-46
1660210391.20091,1529757.929582,-79
1660210391.20091,1529757.9295887,-105
1660210391.20091,1529757.9295976,-98
1660210391.22285,1529757.9296052,-91
1660210391.22285,1529757.9296121,-95
1660210391.22285,1529757.9296196,-88
1660210391.22285,1529757.9296286,-81
1660210391.22285,1529757.9296332,-84
1660210391.22285,1529757.9296391,-81
1660210391.22285,1529757.929644,-67
1660210391.22285,1529757.929653,-56
1660210391.22285,1529757.9296573,-53
1660210391.22285,1529757.9296624,-63
1660210391.22285,1529757.9296676,-63
1660210391.22285,1529757.9296748,-56
1660210391.22285,1529757.929679,-51
1660210391.22285,1529757.9296845,-51
1660210391.22285,1529757.9296916,-51
1660210391.22285,1529757.9296961,-49
1660210391.22285,1529757.9297017,-44
1660210391.22285,1529757.9297089,-39
1660210391.22285,1529757.9297135,-35
1660210391.22285,1529757.929719,-18
1660210391.22285,1529757.9297264,-2
1660210391.22285,1529757.929731,9
1660210391.22285,1529757.9297366,11
1660210391.22285,1529757.9297439,0
1660210391.83449,1529757.9297486,-7
1660210391.83449,1529757.9297543,0
1660210391.83449,1529757.9297615,-7
1660210391.83449,1529757.9297659,-23
1660210391.83449,1529757.9297714,-35
1660210391.83449,1529757.9297786,-39
1660210391.83449,1529757.9297834,-30
1660210391.83449,1529757.9297887,-18
1660210391.83449,1529757.9297959,-11
1660210391.83449,1529757.9298005,-4
1660210391.83449,1529757.9298043,4
1660210391.83449,1529757.9298079,0
1660210391.83449,1529757.9298119,-2
1660210391.83449,1529757.9298172,44
1660210391.83449,1529757.9298221,191
1660210391.83449,1529757.929827,394
1660210391.83449,1529757.9298328,425
1660210391.83449,1529757.9298374,-32
1660210391.83449,1529757.9298418,-621
1660210391.83449,1529757.9298458,-558
1660210391.83449,1529757.9298493,-116
1660210391.83449,1529757.9298536,11
1660210391.83449,1529757.9298605,-11
1660210391.83449,1529757.9298667,42
1660210391.83449,1529757.929871,60
1660210391.83449,1529757.9298748,58
1660210391.83449,1529757.9298817,91
1660210391.83449,1529757.9299173,93
1660210391.83449,1529757.9299226,77
1660210391.83449,1529757.9299283,74
1660210391.83449,1529757.9299357,65
1660210391.83449,1529757.9299425,53
1660210391.83449,1529758.5628863,65
1660210391.83449,1529758.5629029,77
1660210391.83449,1529758.5629082,79
1660210391.83449,1529758.5629155,88
1660210391.83449,1529758.5629199,91
1660210391.83449,1529758.5629241,81
1660210391.83449,1529758.5629297,98
1660210391.83449,1529758.5629338,121
1660210391.83449,1529758.5629378,114
1660210391.83449,1529758.5629436,121
1660210391.83449,1529758.562948,121
1660210391.83449,1529758.5629547,86
1660210391.83449,1529758.5629588,74
1660210391.83449,1529758.5629647,102
1660210391.83449,1529758.5629782,109
1660210391.83449,1529758.5629913,98
1660210391.83449,1529758.5630032,93
1660210391.83449,1529758.5630119,79
1660210391.85543,1529758.5630174,60
1660210391.85543,1529758.5630236,51
1660210391.85543,1529758.5630275,39
1660210391.85543,1529758.5630324,39
1660210391.85543,1529758.5630366,21
1660210391.85543,1529758.5630428,-32
1660210391.85543,1529758.563047,-39
1660210391.85543,1529758.563051,-9
1660210391.85543,1529758.5630552,-14
1660210391.85543,1529758.5630618,-14
1660210391.85543,1529758.5630649,-4
1660210391.85543,1529758.5630681,-14
1660210391.85543,1529758.5630742,-7
1660210391.85543,1529758.5630793,14
1660210391.85543,1529758.5630916,-4
1660210391.85543,1529758.5631044,-49
1660210391.85543,1529758.5631137,-49
1660210391.85543,1529758.5631266,-4
1660210391.85543,1529758.5631396,11
1660210391.85543,1529758.5631484,0
1660210391.85543,1529758.5631509,-11
1660210391.85543,1529758.563153,-4
1660210391.85543,1529758.5631607,25
1660210391.85543,1529758.5631712,37
1660210392.43512,1529758.5631756,18
1660210392.43512,1529758.5631777,18
1660210392.43512,1529758.5631797,37
1660210392.43512,1529758.5631816,46
1660210392.43512,1529758.5631835,44
1660210392.43512,1529758.5631858,42
1660210392.43512,1529758.5631939,30
1660210392.43512,1529758.5631994,39
1660210392.43512,1529758.5632032,63
1660210392.43512,1529758.5632077,51
1660210392.43512,1529758.5632126,25
1660210392.43512,1529758.5632198,-4
1660210392.43512,1529758.5632262,-32
1660210392.43512,1529758.5632364,-28
1660210392.43512,1529758.5632429,2
1660210392.43512,1529758.5632451,28
1660210392.43512,1529758.5632485,39
1660210392.43512,1529758.5632612,53
1660210392.43512,1529758.5632668,51
1660210392.43512,1529758.563269,44
1660210392.43512,1529758.5632711,130
1660210392.43512,1529758.5632732,357
1660210392.43512,1529758.5632752,541
1660210392.43512,1529758.5632824,294
1660210392.43512,1529758.5632929,-326
1660210392.43512,1529758.5632963,-518
1660210392.43512,1529758.5632994,-126
1660210392.43512,1529758.5633029,107
1660210392.43512,1529758.5633132,60
1660210392.43512,1529758.5633258,91
1660210392.43512,1529758.563339,140
1660210392.43512,1529759.147292,107
1660210392.43512,1529759.1473045,93
1660210392.43512,1529759.1473091,130
1660210392.43512,1529759.1473114,147
1660210392.43512,1529759.1473135,154
1660210392.43512,1529759.1473156,172
1660210392.43512,1529759.1473176,165
1660210392.43512,1529759.1473197,149
1660210392.43512,1529759.1473217,168
1660210392.43512,1529759.1473237,200
1660210392.43512,1529759.1473257,205
1660210392.43512,1529759.1473278,210
1660210392.43512,1529759.1473298,228
1660210392.43512,1529759.1473318,224
1660210392.43512,1529759.1473338,207
1660210392.43512,1529759.1473358,221
1660210392.43512,1529759.1473379,240
1660210392.43512,1529759.1473399,240
1660210392.43512,1529759.147342,240
1660210392.44908,1529759.147344,247
1660210392.44908,1529759.1473461,233
1660210392.44908,1529759.1473481,214
1660210392.44908,1529759.1473509,224
1660210392.44908,1529759.1473531,200
1660210392.44908,1529759.1473552,147
1660210392.44908,1529759.1473572,135
1660210392.44908,1529759.1473592,119
1660210392.44908,1529759.1473612,77
1660210392.44908,1529759.1473632,91
1660210392.44908,1529759.1473652,137
1660210392.44908,1529759.1473672,119
1660210392.44908,1529759.1473692,74
1660210392.44908,1529759.1473712,67
1660210392.44908,1529759.1473731,67
1660210392.44908,1529759.147377,63
1660210392.44908,1529759.1473791,67
1660210392.44908,1529759.1473811,70
1660210392.44908,1529759.1473844,51
1660210392.44908,1529759.1473982,37
1660210392.44908,1529759.1474134,60
1660210392.44908,1529759.1474205,102
1660210392.44908,1529759.147424,112
1660210392.44908,1529759.1474272,79
1660210392.91044,1529759.1474305,60
1660210392.91044,1529759.1474341,81
1660210392.91044,1529759.1474389,95
1660210392.91044,1529759.147443,74
1660210392.91044,1529759.1474466,39
1660210392.91044,1529759.1474503,14
1660210392.91044,1529759.1474539,23
1660210392.91044,1529759.1474572,77
1660210392.91044,1529759.1474607,126
1660210392.91044,1529759.1474707,119
1660210392.91044,1529759.1474741,88
1660210392.91044,1529759.1474776,72
1660210392.91044,1529759.1474812,70
1660210392.91044,1529759.1474847,81
1660210392.91044,1529759.147488,72
1660210392.91044,1529759.1475062,35
1660210392.91044,1529759.1475178,2
1660210392.91044,1529759.1475254,0
1660210392.91044,1529759.1475317,11
1660210392.91044,1529759.1475409,35
1660210392.91044,1529759.1475531,56
1660210392.91044,1529759.1475565,53
1660210392.91044,1529759.1475593,51
1660210392.91044,1529759.1475659,51
1660210392.91044,1529759.1475812,28
1660210392.91044,1529759.1475946,37
1660210392.91044,1529759.1476047,214
1660210392.91044,1529759.1476104,555
1660210392.91044,1529759.1476208,705
1660210392.91044,1529759.1476263,238
1660210392.91044,1529759.635754,-434
1660210392.91044,1529759.635777,-413
1660210392.91044,1529759.6357888,21
1660210392.91044,1529759.6357953,116
1660210392.91044,1529759.6358027,58
1660210392.91044,1529759.6358091,98
1660210392.91044,1529759.6358131,114
1660210392.91044,1529759.6358171,116
1660210392.91044,1529759.6358211,151
1660210392.91044,1529759.635825,147
1660210392.91044,1529759.6358292,137
1660210392.91044,1529759.6358324,165
1660210392.91044,1529759.6358368,186
1660210392.91044,1529759.6358412,175
1660210392.91044,1529759.6358445,175
1660210392.91044,1529759.6358507,186
1660210392.91044,1529759.6358538,191
1660210392.91044,1529759.6358584,177
1660210392.91044,1529759.6358641,151
1660210392.91044,1529759.6358905,165
1660210392.9234,1529759.6358976,207
1660210392.9234,1529759.6359038,219
1660210392.9234,1529759.6359104,226
1660210392.9234,1529759.6359186,235
1660210392.9234,1529759.6359265,219
1660210392.9234,1529759.6359325,210
1660210392.9234,1529759.6359361,210
1660210392.9234,1529759.6359397,198
1660210392.9234,1529759.6359451,217
1660210392.9234,1529759.6359487,259
1660210392.9234,1529759.6359519,235
1660210392.9234,1529759.6359553,179
1660210392.9234,1529759.6359606,154
1660210392.9234,1529759.635965,144
1660210392.9234,1529759.6359687,140
1660210392.9234,1529759.6359741,119
1660210392.9234,1529759.635978,79
1660210392.9234,1529759.6359815,58
1660210392.9234,1529759.6359863,58
1660210392.9234,1529759.6359905,63
1660210392.9234,1529759.6359983,74
1660210392.9234,1529759.6360056,70
1660210392.9234,1529759.636014,32
1660210392.9234,1529759.6360232,16
1660210393.54861,1529759.6360319,58
1660210393.54861,1529759.6360361,88
1660210393.54861,1529759.6360422,70
1660210393.54861,1529759.636046,77
1660210393.54861,1529759.6360496,107
1660210393.54861,1529759.6360532,102
1660210393.54861,1529759.6360565,86
1660210393.54861,1529759.6360599,81
1660210393.54861,1529759.6360632,72
1660210393.54861,1529759.6360665,72
1660210393.54861,1529759.63607,77
1660210393.54861,1529759.6360736,72
1660210393.54861,1529759.6360771,70
1660210393.54861,1529759.6360805,93
1660210393.54861,1529759.6360844,126
1660210393.54861,1529759.6360883,156
1660210393.54861,1529759.6360924,158
1660210393.54861,1529759.6360982,140
1660210393.54861,1529759.6361068,130
1660210393.54861,1529759.6361141,121
1660210393.54861,1529759.6361224,100
1660210393.54861,1529759.636125,95
1660210393.54861,1529759.6361273,88
1660210393.54861,1529759.6361293,51
1660210393.54861,1529759.6361314,25
1660210393.54861,1529759.6361334,35
1660210393.54861,1529759.6361358,53
1660210393.54861,1529759.6361459,70
1660210393.54861,1529759.6361594,63
1660210393.54861,1529760.2702561,65
1660210393.54861,1529760.2702727,88
1660210393.54861,1529760.2702824,49
1660210393.54861,1529760.2702889,25
1660210393.54861,1529760.2702951,226
1660210393.54861,1529760.2702999,639
1660210393.54861,1529760.2703058,871
1660210393.54861,1529760.2703103,364
1660210393.54861,1529760.2703186,-483
1660210393.54861,1529760.2703284,-532
1660210393.54861,1529760.2703376,-21
1660210393.54861,1529760.2703423,112
1660210393.54861,1529760.2703556,18
1660210393.54861,1529760.2703631,49
1660210393.54861,1529760.2703709,44
1660210393.54861,1529760.2703805,4
1660210393.54861,1529760.2703914,25
1660210393.54861,1529760.2704007,39
1660210393.54861,1529760.2704072,44
1660210393.54861,1529760.2704195,91
1660210393.54861,1529760.2704284,98
1660210393.56158,1529760.2704368,67
