Time,TimeLsl,Value
1658845928.22809,165279.9778704,40
1658845928.22809,165279.9778897,35
1658845928.22809,165279.9778985,19
1658845928.22809,165279.9779046,21
1658845928.22809,165279.9779103,38
1658845928.22809,165279.9779157,61
1658845928.22809,165279.9779217,99
1658845928.22809,165279.9779291,118
1658845928.22809,165279.977934,83
1658845928.22809,165279.9779388,45
1658845928.22809,165279.9779416,49
1658845928.22809,165279.9779453,57
1658845928.22809,165279.9779483,54
1658845928.22809,165279.9779513,61
1658845928.22809,165279.9779572,59
1658845928.22809,165279.9779625,42
1658845928.22809,165279.977969,47
1658845928.22809,165279.9779741,61
1658845928.22809,165279.9779821,64
1658845928.22809,165279.9779857,57
1658845928.22809,165279.9779918,52
1658845928.22809,165279.9779966,26
1658845928.22809,165279.9780022,-28
1658845928.22809,165279.978008,102
1658845928.22809,165279.9780143,703
1658845928.22809,165279.9780174,1589
1658845928.22809,165279.9780203,2179
1658845928.22809,165279.9780232,1870
1658845928.22809,165279.9780271,358
1658845928.22809,165279.9780311,-981
1658845928.22809,165279.9780369,-646
1658845928.22809,165279.9780406,57
1658845928.22809,165279.9780436,-57
1658845928.22809,165279.9780465,-147
1658845928.22809,165279.9780494,16
1658845928.22809,165279.9780523,2
1658845928.22809,165279.9780551,-40
1658845928.22809,165279.9780603,26
1658845928.22809,165279.9780636,52
1658845928.22809,165279.9781052,40
1658845928.22809,165279.9781118,64
1658845928.22809,165279.9781166,92
1658845928.22809,165279.9781213,102
1658845928.22809,165279.978126,121
1658845928.22809,165279.9781307,147
1658845928.22809,165279.9781353,166
1658845928.22809,165279.9781398,182
1658845928.22809,165279.9781443,201
1658845928.22809,165279.9781489,220
1658845928.22809,165279.9781536,240
1658845928.35027,165279.978158,259
1658845928.35027,165279.9781626,256
1658845928.35027,165279.978167,232
1658845928.35027,165279.9781718,216
1658845928.35027,165279.9781765,209
1658845928.35027,165279.978181,192
1658845928.35027,165279.9781859,166
1658845928.35027,165279.978201,130
1658845928.35027,165279.9782114,85
1658845928.35027,165279.9782162,33
1658845928.35027,165279.9782218,-4
1658845928.35027,165279.9782262,-30
1658845928.35027,165279.9782315,-64
1658845928.35027,165279.9782358,-90
1658845928.35027,165279.9782398,-97
1658845928.35027,165279.9782436,-95
1658845928.35027,165279.9782477,-97
1658845928.35027,165279.9782508,-95
1658845928.35027,165279.9782543,-83
1658845928.35027,165279.9782574,-80
1658845928.35027,165279.978261,-83
1658845928.35027,165279.978265,-71
1658845928.35027,165279.9782688,-57
1658845928.35027,165280.6118572,-54
1658845928.35027,165280.6118739,-49
1658845928.35027,165280.6118807,-47
1658845928.35027,165280.6118849,-49
1658845928.35027,165280.6118889,-54
1658845928.35027,165280.6118928,-59
1658845928.35027,165280.6118969,-64
1658845928.35027,165280.6119014,-73
1658845928.35027,165280.6119058,-78
1658845928.35027,165280.6119099,-73
1658845928.35027,165280.6119137,-76
1658845928.35027,165280.6119176,-85
1658845928.35027,165280.6119215,-85
1658845928.35027,165280.6119254,-73
1658845928.35027,165280.6119294,-68
1658845928.35027,165280.6119339,-66
1658845928.35027,165280.6119383,-66
1658845928.35027,165280.6119425,-71
1658845928.35027,165280.6119495,-66
1658845928.35027,165280.6119543,-52
1658845928.35027,165280.6119605,-42
1658845928.35027,165280.6119664,-42
1658845928.35027,165280.6119734,-35
1658845928.35027,165280.6119781,-26
1658845928.35027,165280.6119851,-21
1658845928.35027,165280.6119898,-14
1658845928.35027,165280.6119963,-7
1658845928.40114,165280.6120011,-11
1658845928.40114,165280.6120076,-19
1658845928.40114,165280.6120124,-9
1658845928.40114,165280.6120188,19
1658845928.40114,165280.6120237,54
1658845928.40114,165280.6120306,85
1658845928.40114,165280.612037,80
1658845928.40114,165280.6120433,47
1658845928.40114,165280.6120481,30
1658845928.40114,165280.6120551,38
1658845928.40114,165280.6120597,47
1658845928.40114,165280.6120658,49
1658845928.40114,165280.6120703,49
1658845928.40114,165280.6120769,52
1658845928.40114,165280.6121058,59
1658845928.40114,165280.6121155,66
1658845928.40114,165280.6121201,68
1658845928.40114,165280.6121232,71
1658845928.40114,165280.6121261,73
1658845928.40114,165280.612129,59
1658845928.40114,165280.6121321,-4
1658845928.40114,165280.6121351,-4
1658845928.40114,165280.612138,430
1658845928.40114,165280.6121409,1325
1658845928.40114,165280.6121438,2072
1658845928.40114,165280.6121467,2093
1658845928.40114,165280.6121496,1012
1658845928.40114,165280.6121525,-541
1658845928.40114,165280.6121553,-772
1658845928.40114,165280.6121582,47
1658845928.40114,165280.6121612,154
1658845928.40114,165280.6121641,-133
1658845928.40114,165280.6121669,-11
1658845928.40114,165280.6121699,80
1658845928.40114,165280.6121729,-4
1658845928.40114,165280.6121757,16
1658845928.40114,165280.6121786,73
1658845928.40114,165280.6121814,64
1658845928.40114,165280.6121843,76
1658845928.40114,165280.6121871,111
1658845928.40114,165280.6121902,123
1658845928.40114,165280.6121932,130
1658845928.40114,165280.612196,152
1658845928.40114,165280.612199,171
1658845928.40114,165280.6122018,190
1658845928.40114,165280.6122046,204
1658845928.40114,165281.1476784,213
1658845928.40114,165281.1476993,228
1658845928.40114,165281.1477085,242
1658845928.40114,165281.1477143,249
1658845928.42309,165281.1477193,251
1658845928.42309,165281.1477235,244
1658845928.42309,165281.1477275,228
1658845928.42309,165281.1477308,201
1658845928.42309,165281.1477341,168
1658845928.42309,165281.1477402,137
1658845928.42309,165281.1477452,102
1658845928.42309,165281.147749,57
1658845928.42309,165281.1477529,14
1658845928.42309,165281.1477573,-26
1658845928.42309,165281.1477615,-68
1658845928.42309,165281.1477648,-95
1658845928.42309,165281.1477679,-97
1658845928.42309,165281.1477711,-99
1658845928.42309,165281.1477745,-104
1658845928.42309,165281.1477834,-97
1658845928.42309,165281.1477874,-99
1658845928.42309,165281.1477935,-106
1658845928.42309,165281.1477975,-97
1658845928.42309,165281.1478022,-83
1658845928.42309,165281.1478058,-78
1658845928.42309,165281.1478104,-76
1658845928.42309,165281.1478139,-73
1658845928.42309,165281.1478174,-73
1658845928.42309,165281.1478231,-66
1658845928.42309,165281.1478264,-59
1658845928.42309,165281.1478302,-54
1658845928.42309,165281.1478356,-52
1658845928.42309,165281.1478394,-49
1658845928.42309,165281.1478455,-49
1658845928.42309,165281.1478492,-45
1658845928.42309,165281.1478528,-40
1658845928.42309,165281.1478568,-33
1658845928.42309,165281.1478621,-28
1658845928.42309,165281.1478667,-26
1658845928.42309,165281.147879,-26
1658845928.42309,165281.1478834,-23
1658845928.42309,165281.1478888,-19
1658845928.42309,165281.1478929,-9
1658845928.42309,165281.1478983,-4
1658845928.42309,165281.1479023,-4
1658845928.42309,165281.1479056,-2
1658845928.42309,165281.1479089,0
1658845928.42309,165281.1479126,7
1658845928.42309,165281.1479164,16
1658845928.42309,165281.1479219,19
1658845928.42309,165281.147927,19
1658845928.42309,165281.1479306,19
1658845928.42309,165281.1479342,14
1658845928.42309,165281.1479393,7
1658845928.43605,165281.1479429,16
1658845928.43605,165281.1479467,42
1658845928.43605,165281.1479523,71
1658845928.43605,165281.1479571,97
1658845928.43605,165281.1479632,99
1658845928.43605,165281.1479701,68
1658845928.43605,165281.1479745,47
1658845928.43605,165281.147982,57
1658845928.43605,165281.1479868,64
1658845928.43605,165281.1479926,59
1658845928.43605,165281.1479966,64
1658845928.43605,165281.1480022,61
1658845928.43605,165281.1480085,52
1658845928.43605,165281.1480132,52
1658845928.43605,165281.1480189,57
1658845928.43605,165281.1480238,59
1658845928.43605,165281.14803,66
1658845928.43605,165281.1480361,54
1658845928.43605,165281.1480433,-21
1658845928.43605,165281.6840609,-42
1658845928.43605,165281.6840776,375
1658845928.43605,165281.684087,1290
1658845928.78048,165281.6840947,2095
1658845928.78048,165281.6840987,2198
1658845928.78048,165281.6841023,1150
1658845928.78048,165281.684106,-506
1658845928.78048,165281.6841095,-862
1658845928.78048,165281.6841133,-11
1658845928.78048,165281.6841169,159
1658845928.78048,165281.6841205,-161
1658845928.78048,165281.6841242,-76
1658845928.78048,165281.6841277,30
1658845928.78048,165281.684131,-52
1658845928.78048,165281.6841344,-33
1658845928.78048,165281.6841378,35
1658845928.78048,165281.6841414,26
1658845928.78048,165281.6841446,16
1658845928.78048,165281.684148,38
1658845928.78048,165281.6841517,54
1658845928.78048,165281.6841554,68
1658845928.78048,165281.6841607,95
1658845928.78048,165281.6841644,116
1658845928.78048,165281.6841682,135
1658845928.78048,165281.6841757,149
1658845928.78048,165281.6841796,171
1658845928.78048,165281.6841834,192
1658845928.78048,165281.6841892,211
1658845928.78048,165281.6841945,220
1658845928.78048,165281.6841982,223
1658845928.78048,165281.6842036,213
1658845928.78048,165281.6842074,197
1658845928.78048,165281.6842111,178
1658845928.78048,165281.6842165,163
1658845928.78048,165281.6842306,137
1658845928.78048,165281.6842343,99
1658845928.78048,165281.6842379,52
1658845928.78048,165281.6842416,2
1658845928.78048,165281.6842452,-35
1658845928.78048,165281.6842509,-61
1658845928.78048,165281.6842572,-78
1658845928.78048,165281.6842625,-87
1658845928.78048,165281.6842673,-90
1658845928.78048,165281.6842746,-90
1658845928.78048,165281.6842784,-83
1658845928.78048,165281.6842837,-66
1658845928.78048,165281.6842882,-52
1658845928.78048,165281.6842936,-47
1658845928.78048,165281.6842974,-45
1658845928.78048,165281.6843027,-45
1658845928.78048,165281.6843062,-42
1658845928.78048,165281.6843099,-45
1658845928.78048,165281.6843151,-40
1658845928.79045,165281.6843189,-33
1658845928.79045,165281.6843223,-30
1658845928.79045,165281.6843275,-40
1658845928.79045,165281.6843322,-45
1658845928.79045,165281.6843396,-42
1658845928.79045,165281.6843439,-45
1658845928.79045,165281.6843478,-47
1658845928.79045,165281.6843517,-42
1658845928.79045,165281.6843585,-40
1658845928.79045,165281.6843636,-40
1658845928.79045,165281.6843692,-45
1658845928.79045,165281.6843743,-38
1658845928.79045,165281.6843783,-30
1658845928.79045,165281.684382,-28
1658845928.79045,165281.6843918,-28
1658845928.79045,165281.6844064,-23
1658845928.79045,165281.6844252,-14
1658845928.79045,165281.684439,-9
1658845928.79045,165281.6844495,-2
1658845928.79045,165281.6844569,4
1658845928.79045,165282.3174043,9
1658845928.79045,165282.3174269,7
1658845928.79045,165282.3174408,4
1658845928.79045,165282.3174504,9
1658845929.31662,165282.3174589,23
1658845929.31662,165282.317466,23
1658845929.31662,165282.3174716,0
1658845929.31662,165282.3174762,-11
1658845929.31662,165282.3174808,2
1658845929.31662,165282.317488,40
1658845929.31662,165282.3174953,78
1658845929.31662,165282.3175025,90
1658845929.31662,165282.3175093,66
1658845929.31662,165282.3175183,33
1658845929.31662,165282.3175248,21
1658845929.31662,165282.3175297,23
1658845929.31662,165282.3175378,23
1658845929.31662,165282.3175453,21
1658845929.31662,165282.3175519,26
1658845929.31662,165282.3175619,30
1658845929.31662,165282.3175731,33
1658845929.31662,165282.3175772,35
1658845929.31662,165282.3175808,30
1658845929.31662,165282.3175843,23
1658845929.31662,165282.3175876,30
1658845929.31662,165282.3175911,9
1658845929.31662,165282.3175967,-64
1658845929.31662,165282.3175998,80
1658845929.31662,165282.3176031,777
1658845929.31662,165282.3176084,1732
1658845929.31662,165282.317612,2266
1658845929.31662,165282.3176152,1848
1658845929.31662,165282.3176205,278
1658845929.31662,165282.3176247,-952
1658845929.31662,165282.317628,-468
1658845929.31662,165282.3176315,187
1658845929.31662,165282.3176368,-49
1658845929.31662,165282.3176405,-149
1658845929.31662,165282.3176457,49
1658845929.31662,165282.3176493,19
1658845929.31662,165282.3176543,-49
1658845929.31662,165282.3176576,21
1658845929.31662,165282.3176623,52
1658845929.31662,165282.3176655,35
1658845929.31662,165282.3176685,68
1658845929.31662,165282.3176715,97
1658845929.31662,165282.3176745,95
1658845929.31662,165282.3176772,116
1658845929.31662,165282.3176802,156
1658845929.31662,165282.3176831,168
1658845929.31662,165282.317686,168
1658845929.31662,165282.3176889,178
1658845929.31662,165282.3176918,197
1658845929.31662,165282.3176947,218
1658845929.33856,165282.3176978,223
1658845929.33856,165282.3177007,218
1658845929.33856,165282.3177036,216
1658845929.33856,165282.3177064,220
1658845929.33856,165282.3177093,211
1658845929.33856,165282.3177123,175
1658845929.33856,165282.3177151,147
1658845929.33856,165282.317718,128
1658845929.33856,165282.317721,95
1658845929.33856,165282.3177239,54
1658845929.33856,165282.3177269,14
1658845929.33856,165282.3177297,-33
1658845929.33856,165282.3177328,-61
1658845929.33856,165282.3177357,-80
1658845929.33856,165282.3177387,-95
1658845929.33856,165282.3177416,-90
1658845929.33856,165282.3177446,-78
1658845929.33856,165282.3177474,-68
1658845929.33856,165282.3177503,-57
1658845929.33856,165282.8531752,-49
1658845929.33856,165282.8531927,-47
1658845929.33856,165282.8532028,-38
1658845929.33856,165282.8532112,-28
1658845929.33856,165282.8532174,-35
1658845929.80547,165282.8532249,-45
1658845929.80547,165282.8532315,-38
1658845929.80547,165282.8532372,-23
1658845929.80547,165282.8532434,-26
1658845929.80547,165282.8532477,-42
1658845929.80547,165282.8532513,-59
1658845929.80547,165282.8532541,-68
1658845929.80547,165282.8532571,-64
1658845929.80547,165282.8532604,-66
1658845929.80547,165282.8532635,-83
1658845929.80547,165282.8532681,-73
1658845929.80547,165282.8532729,-59
1658845929.80547,165282.8532804,-73
1658845929.80547,165282.8532876,-90
1658845929.80547,165282.8532907,-80
1658845929.80547,165282.8532937,-59
1658845929.80547,165282.8532965,-57
1658845929.80547,165282.8532994,-64
1658845929.80547,165282.8533022,-57
1658845929.80547,165282.8533051,-42
1658845929.80547,165282.8533079,-40
1658845929.80547,165282.8533107,-40
1658845929.80547,165282.8533135,-30
1658845929.80547,165282.8533164,-26
1658845929.80547,165282.8533193,-38
1658845929.80547,165282.8533222,-42
1658845929.80547,165282.853325,-16
1658845929.80547,165282.853328,14
1658845929.80547,165282.8533307,33
1658845929.80547,165282.8533337,47
1658845929.80547,165282.8533366,52
1658845929.80547,165282.8533395,28
1658845929.80547,165282.8533425,11
1658845929.80547,165282.8533453,23
1658845929.80547,165282.8533481,33
1658845929.80547,165282.853351,30
1658845929.80547,165282.8533539,30
1658845929.80547,165282.8533568,38
1658845929.80547,165282.8533596,38
1658845929.80547,165282.8533625,21
1658845929.80547,165282.8533653,19
1658845929.80547,165282.8533681,30
1658845929.80547,165282.853371,33
1658845929.80547,165282.853374,19
1658845929.80547,165282.8533769,-35
1658845929.80547,165282.8533797,-30
1658845929.80547,165282.8533827,342
1658845929.80547,165282.8533856,1173
1658845929.80547,165282.8533885,1988
1658845929.80547,165282.8533913,2169
1658845929.82741,165282.8533941,1178
1658845929.82741,165282.8533971,-494
1658845929.82741,165282.8533999,-967
1658845929.82741,165282.8534028,-161
1658845929.82741,165282.8534056,102
1658845929.82741,165282.8534086,-142
1658845929.82741,165282.8534114,-52
1658845929.82741,165282.8534143,49
1658845929.82741,165282.8534171,-16
1658845929.82741,165282.85342,7
1658845929.82741,165282.8534229,64
1658845929.82741,165282.8534257,52
1658845929.82741,165282.8534285,61
1658845929.82741,165282.8534314,97
1658845929.82741,165282.8534342,111
1658845929.82741,165282.8534371,125
1658845929.82741,165282.8534401,149
1658845929.82741,165282.853443,163
1658845929.82741,165283.3412421,182
1658845929.82741,165283.3412592,206
1658845929.82741,165283.3412671,223
1658845929.82741,165283.3412721,237
1658845929.82741,165283.3412778,242
1658845929.82741,165283.3412829,242
1658845930.44107,165283.3412885,240
1658845930.44107,165283.341294,232
1658845930.44107,165283.3412978,216
1658845930.44107,165283.3413015,199
1658845930.44107,165283.3413053,175
1658845930.44107,165283.3413089,147
1658845930.44107,165283.3413126,114
1658845930.44107,165283.3413163,71
1658845930.44107,165283.3413199,14
1658845930.44107,165283.3413243,-35
1658845930.44107,165283.3413293,-64
1658845930.44107,165283.3413389,-80
1658845930.44107,165283.3413486,-87
1658845930.44107,165283.3413538,-87
1658845930.44107,165283.3413643,-95
1658845930.44107,165283.3413748,-95
1658845930.44107,165283.3413812,-80
1658845930.44107,165283.3413837,-71
1658845930.44107,165283.3413857,-68
1658845930.44107,165283.3413877,-59
1658845930.44107,165283.3413896,-52
1658845930.44107,165283.3413916,-54
1658845930.44107,165283.3413935,-49
1658845930.44107,165283.3413954,-40
1658845930.44107,165283.3413974,-40
1658845930.44107,165283.3413997,-35
1658845930.44107,165283.3414089,-28
1658845930.44107,165283.3414171,-33
1658845930.44107,165283.3414213,-42
1658845930.44107,165283.3414234,-45
1658845930.44107,165283.3414255,-45
1658845930.44107,165283.3414282,-59
1658845930.44107,165283.3414358,-64
1658845930.44107,165283.3414461,-59
1658845930.44107,165283.3414497,-59
1658845930.44107,165283.3414553,-57
1658845930.44107,165283.3414655,-47
1658845930.44107,165283.3414728,-45
1658845930.44107,165283.3414753,-42
1658845930.44107,165283.3414774,-40
1658845930.44107,165283.3414841,-40
1658845930.44107,165283.3414949,-35
1658845930.44107,165283.3414984,-26
1658845930.44107,165283.3415014,-23
1658845930.44107,165283.3415077,-16
1658845930.44107,165283.3415186,-14
1658845930.44107,165283.3415233,-14
1658845930.44107,165283.3415254,-7
1658845930.44107,165283.341533,-7
1658845930.44107,165283.341546,-21
1658845930.46201,165283.3415586,-16
1658845930.46201,165283.3415705,14
1658845930.46201,165283.3415743,47
1658845930.46201,165283.3415806,73
1658845930.46201,165283.3415892,73
1658845930.46201,165283.3415934,42
1658845930.46201,165283.3415978,23
1658845930.46201,165283.3416032,35
1658845930.46201,165283.3416089,40
1658845930.46201,165283.3416149,35
1658845930.46201,165283.3416196,45
1658845930.46201,165283.3416285,52
1658845930.46201,165283.3416339,42
1658845930.46201,165283.3416377,42
1658845930.46201,165283.3416428,45
1658845930.46201,165283.3416481,45
1658845930.46201,165283.3416517,49
1658845930.46201,165283.9747712,49
1658845930.46201,165283.9747929,0
1658845930.46201,165283.9748076,-76
1658845930.46201,165283.9748211,99
1658845930.46201,165283.9748331,829
1658845930.46201,165283.974841,1775
1658845930.46201,165283.9748473,2259
1658845930.96219,165283.9748577,1751
1658845930.96219,165283.9748622,137
1658845930.96219,165283.9748645,-974
1658845930.96219,165283.9748665,-401
1658845930.96219,165283.9748688,173
1658845930.96219,165283.974877,-111
1658845930.96219,165283.9748846,-180
1658845930.96219,165283.9748909,11
1658845930.96219,165283.9748974,-26
1658845930.96219,165283.974906,-73
1658845930.96219,165283.9749169,-2
1658845930.96219,165283.9749286,14
1658845930.96219,165283.9749406,11
1658845930.96219,165283.974952,45
1658845930.96219,165283.9749647,59
1658845930.96219,165283.9749788,68
1658845930.96219,165283.9749915,102
1658845930.96219,165283.9750046,123
1658845930.96219,165283.9750175,128
1658845930.96219,165283.9750305,152
1658845930.96219,165283.9750437,175
1658845930.96219,165283.9750577,192
1658845930.96219,165283.9750705,209
1658845930.96219,165283.9750835,216
1658845930.96219,165283.9750964,218
1658845930.96219,165283.9751107,220
1658845930.96219,165283.9751188,213
1658845930.96219,165283.9751233,197
1658845930.96219,165283.97513,175
1658845930.96219,165283.9751353,152
1658845930.96219,165283.9751412,123
1658845930.96219,165283.9751459,83
1658845930.96219,165283.9751517,28
1658845930.96219,165283.9751549,-9
1658845930.96219,165283.9751579,-30
1658845930.96219,165283.9751607,-54
1658845930.96219,165283.9751637,-64
1658845930.96219,165283.9751666,-61
1658845930.96219,165283.9752124,-71
1658845930.96219,165283.9752192,-71
1658845930.96219,165283.9752264,-47
1658845930.96219,165283.9752313,-38
1658845930.96219,165283.9752372,-45
1658845930.96219,165283.9752431,-38
1658845930.96219,165283.9752491,-28
1658845930.96219,165283.975255,-16
1658845930.96219,165283.9752609,-7
1658845930.96219,165283.9752644,-14
1658845930.96219,165283.9752679,-16
1658845930.96219,165283.9752712,-4
1658845930.98514,165283.9752747,0
1658845930.98514,165283.9752781,-11
1658845930.98514,165283.9752815,-21
1658845930.98514,165283.9752851,-19
1658845930.98514,165283.9752889,-23
1658845930.98514,165283.9752951,-30
1658845930.98514,165283.9753002,-30
1658845930.98514,165283.9753039,-23
1658845930.98514,165283.9753079,-19
1658845930.98514,165283.9753116,-14
1658845930.98514,165283.9753152,-14
1658845930.98514,165283.9753195,-23
1658845930.98514,165283.9753238,-23
1658845930.98514,165283.975327,-11
1658845930.98514,165283.9753302,-4
1658845930.98514,165283.9753332,-4
1658845930.98514,165284.5122813,2
1658845930.98514,165284.5123058,4
1658845930.98514,165284.5123199,2
1658845930.98514,165284.5123299,9
1658845930.98514,165284.5123356,14
1658845930.98514,165284.512346,14
1658845930.98514,165284.5123532,16
1658845930.98514,165284.5123632,4
1658845931.55167,165284.5123699,-7
1658845931.55167,165284.5123723,14
1658845931.55167,165284.5123744,54
1658845931.55167,165284.5123764,80
1658845931.55167,165284.5123784,90
1658845931.55167,165284.5123803,78
1658845931.55167,165284.5123821,40
1658845931.55167,165284.512384,14
1658845931.55167,165284.5123863,19
1658845931.55167,165284.5124033,23
1658845931.55167,165284.5124288,21
1658845931.55167,165284.5124381,19
1658845931.55167,165284.5124434,4
1658845931.55167,165284.5124552,-9
1658845931.55167,165284.5124629,2
1658845931.55167,165284.5124655,14
1658845931.55167,165284.5124675,9
1658845931.55167,165284.5124695,7
1658845931.55167,165284.512472,-9
1658845931.55167,165284.5124741,-80
1658845931.55167,165284.5124762,-76
1658845931.55167,165284.5124784,370
1658845931.55167,165284.5124804,1278
1658845931.55167,165284.5124825,2093
1658845931.55167,165284.5124848,2219
1658845931.55167,165284.5124869,1119
1658845931.55167,165284.5124897,-589
1658845931.55167,165284.5124919,-926
1658845931.55167,165284.512494,-76
1658845931.55167,165284.512496,85
1658845931.55167,165284.5124981,-192
1658845931.55167,165284.5125002,-73
1658845931.55167,165284.5125022,26
1658845931.55167,165284.5125043,-57
1658845931.55167,165284.5125063,-33
1658845931.55167,165284.5125083,33
1658845931.55167,165284.5125106,33
1658845931.55167,165284.5125127,45
1658845931.55167,165284.5125147,76
1658845931.55167,165284.5125168,92
1658845931.55167,165284.5125188,109
1658845931.55167,165284.5125208,130
1658845931.55167,165284.5125229,144
1658845931.55167,165284.512525,159
1658845931.55167,165284.512527,175
1658845931.55167,165284.512529,199
1658845931.55167,165284.5125312,223
1658845931.55167,165284.5125331,237
1658845931.55167,165284.5125352,247
1658845931.55167,165284.5125373,254
1658845931.56165,165284.5125393,251
1658845931.56165,165284.5125413,237
1658845931.56165,165284.5125434,218
1658845931.56165,165284.5125454,201
1658845931.56165,165284.5125475,163
1658845931.56165,165284.5125495,121
1658845931.56165,165284.5125516,80
1658845931.56165,165284.5125536,28
1658845931.56165,165284.5125556,-16
1658845931.56165,165284.5125577,-38
1658845931.56165,165284.5125597,-59
1658845931.56165,165284.5125617,-78
1658845931.56165,165284.5125637,-85
1658845931.56165,165284.5125658,-83
1658845931.56165,165284.5125679,-71
1658845931.56165,165285.0962331,-59
1658845931.56165,165285.0962455,-57
1658845931.56165,165285.0962487,-47
1658845931.56165,165285.0962511,-33
1658845931.56165,165285.0962539,-33
1658845931.56165,165285.0962566,-35
1658845931.56165,165285.0962593,-30
1658845931.56165,165285.0962619,-26
1658845931.56165,165285.0962646,-26
1658845932.13953,165285.0962672,-30
1658845932.13953,165285.0962692,-45
1658845932.13953,165285.0962711,-61
1658845932.13953,165285.096273,-66
1658845932.13953,165285.096275,-64
1658845932.13953,165285.0962771,-66
1658845932.13953,165285.0962791,-73
1658845932.13953,165285.0962811,-87
1658845932.13953,165285.0962851,-109
1658845932.13953,165285.0962936,-111
1658845932.13953,165285.0962985,-95
1658845932.13953,165285.0963022,-87
1658845932.13953,165285.0963082,-87
1658845932.13953,165285.0963166,-87
1658845932.13953,165285.0963283,-92
1658845932.13953,165285.0963411,-97
1658845932.13953,165285.0963515,-87
1658845932.13953,165285.096355,-73
1658845932.13953,165285.0963579,-68
1658845932.13953,165285.0963607,-64
1658845932.13953,165285.0963635,-57
1658845932.13953,165285.0963663,-57
1658845932.13953,165285.0963692,-54
1658845932.13953,165285.0963721,-47
1658845932.13953,165285.0963749,-52
1658845932.13953,165285.0963777,-54
1658845932.13953,165285.0963817,-33
1658845932.13953,165285.0963847,4
1658845932.13953,165285.0963876,35
1658845932.13953,165285.0963905,42
1658845932.13953,165285.0963933,21
1658845932.13953,165285.0963962,0
1658845932.13953,165285.0963991,0
1658845932.13953,165285.096402,0
1658845932.13953,165285.0964049,-4
1658845932.13953,165285.0964077,-2
1658845932.13953,165285.0964145,4
1658845932.13953,165285.0964256,9
1658845932.13953,165285.0964286,19
1658845932.13953,165285.0964307,19
1658845932.13953,165285.0964329,19
1658845932.13953,165285.0964352,26
1658845932.13953,165285.0964449,33
1658845932.13953,165285.0964534,14
1658845932.13953,165285.096456,-59
1658845932.13953,165285.0964581,-45
1658845932.13953,165285.0964602,434
1658845932.13953,165285.0964634,1363
1658845932.13953,165285.096476,2086
1658845932.13953,165285.0964816,2022
1658845932.1515,165285.0964845,836
1658845932.1515,165285.0964866,-679
1658845932.1515,165285.0964888,-774
1658845932.1515,165285.0964914,45
1658845932.1515,165285.096501,95
1658845932.1515,165285.0965096,-166
1658845932.1515,165285.0965121,-28
1658845932.1515,165285.0965142,47
1658845932.1515,165285.0965163,-35
1658845932.1515,165285.0965222,-4
1658845932.1515,165285.0965331,47
1658845932.1515,165285.0965381,33
1658845932.1515,165285.0965408,47
1658845932.1515,165285.0965429,85
1658845932.1515,165285.6807819,90
1658845932.1515,165285.6808015,92
1658845932.1515,165285.6808165,118
1658845932.1515,165285.6808298,142
1658845932.1515,165285.6808428,161
1658845932.1515,165285.6808548,180
1658845932.1515,165285.6808656,199
1658845932.1515,165285.6808788,211
1658845932.1515,165285.6808908,209
1658845932.1515,165285.6809025,199
1658845932.67154,165285.6809147,201
1658845932.67154,165285.6809232,201
1658845932.67154,165285.6809306,182
1658845932.67154,165285.6809374,156
1658845932.67154,165285.6809455,118
1658845932.67154,165285.6809555,83
1658845932.67154,165285.6809669,47
1658845932.67154,165285.6809706,0
1658845932.67154,165285.6809747,-47
1658845932.67154,165285.6809767,-83
1658845932.67154,165285.6809788,-111
1658845932.67154,165285.6809808,-133
1658845932.67154,165285.6809828,-137
1658845932.67154,165285.6809849,-133
1658845932.67154,165285.6809869,-128
1658845932.67154,165285.6809894,-116
1658845932.67154,165285.6809916,-106
1658845932.67154,165285.6809936,-104
1658845932.67154,165285.6809956,-95
1658845932.67154,165285.6809977,-83
1658845932.67154,165285.6809997,-80
1658845932.67154,165285.6810018,-73
1658845932.67154,165285.6810065,-68
1658845932.67154,165285.681019,-73
1658845932.67154,165285.6810326,-66
1658845932.67154,165285.6810525,-59
1658845932.67154,165285.6810657,-61
1658845932.67154,165285.6810789,-59
1658845932.67154,165285.6811261,-61
1658845932.67154,165285.6811356,-66
1658845932.67154,165285.681144,-68
1658845932.67154,165285.6811566,-66
1658845932.67154,165285.6811651,-64
1658845932.67154,165285.6811676,-61
1658845932.67154,165285.6811697,-57
1658845932.67154,165285.6811718,-57
1658845932.67154,165285.6811738,-59
1658845932.67154,165285.6811759,-52
1658845932.67154,165285.6811779,-47
1658845932.67154,165285.68118,-47
1658845932.67154,165285.681182,-38
1658845932.67154,165285.6811841,-30
1658845932.67154,165285.6811862,-35
1658845932.67154,165285.6811882,-30
1658845932.67154,165285.6811902,-23
1658845932.67154,165285.6811923,-19
1658845932.67154,165285.6811943,-14
1658845932.67154,165285.6811963,-7
1658845932.67154,165285.6811984,-7
1658845932.67154,165285.6812004,-4
1658845932.69248,165285.6812026,0
1658845932.69248,165285.6812047,4
1658845932.69248,165285.6812068,7
1658845932.69248,165285.6812088,4
1658845932.69248,165285.681211,0
1658845932.69248,165285.681213,9
1658845932.69248,165285.681215,42
1658845932.69248,165285.6812171,71
1658845932.69248,165285.6812191,83
1658845932.69248,165285.6812211,68
1658845932.69248,165285.6812232,40
1658845932.69248,165285.6812253,30
1658845932.69248,165285.6812274,38
1658845932.69248,165286.220001,38
1658845932.69248,165286.2200247,33
1658845932.69248,165286.2200342,30
1658845932.69248,165286.2200404,28
1658845932.69248,165286.2200449,28
1658845932.69248,165286.2200493,28
1658845932.69248,165286.2200542,38
1658845932.69248,165286.2200597,47
1658845932.69248,165286.2200638,54
1658845932.69248,165286.2200684,40
1658845932.69248,165286.2200749,-30
1658845933.1598,165286.2200848,-68
1658845933.1598,165286.2200932,306
1658845933.1598,165286.2200998,1197
1658845933.1598,165286.2201062,2036
1658845933.1598,165286.2201129,2171
1658845933.1598,165286.2201198,1102
1658845933.1598,165286.2201271,-567
1658845933.1598,165286.2201608,-924
1658845933.1598,165286.2201701,-85
1658845933.1598,165286.2201755,106
1658845933.1598,165286.2201813,-163
1658845933.1598,165286.2201858,-61
1658845933.1598,165286.2201889,33
1658845933.1598,165286.2201918,-49
1658845933.1598,165286.2201947,-30
1658845933.1598,165286.2201976,35
1658845933.1598,165286.2202005,30
1658845933.1598,165286.2202034,40
1658845933.1598,165286.2202064,71
1658845933.1598,165286.2202093,83
1658845933.1598,165286.2202122,95
1658845933.1598,165286.2202152,121
1658845933.1598,165286.220218,144
1658845933.1598,165286.2202209,166
1658845933.1598,165286.2202238,190
1658845933.1598,165286.2202267,206
1658845933.1598,165286.2202295,223
1658845933.1598,165286.2202324,242
1658845933.1598,165286.2202353,259
1658845933.1598,165286.2202382,266
1658845933.1598,165286.2202411,261
1658845933.1598,165286.2202438,249
1658845933.1598,165286.2202468,235
1658845933.1598,165286.2202497,218
1658845933.1598,165286.2202525,197
1658845933.1598,165286.2202554,161
1658845933.1598,165286.2202583,109
1658845933.1598,165286.2202612,61
1658845933.1598,165286.2202641,21
1658845933.1598,165286.220267,-11
1658845933.1598,165286.2202698,-40
1658845933.1598,165286.2202728,-54
1658845933.1598,165286.2202756,-59
1658845933.1598,165286.2202785,-57
1658845933.1598,165286.2202813,-49
1658845933.1598,165286.2202842,-42
1658845933.1598,165286.2202872,-35
1658845933.1598,165286.2202901,-21
1658845933.1598,165286.220293,-14
1658845933.1598,165286.2202959,-9
1658845933.18174,165286.2202988,-9
1658845933.18174,165286.2203016,-9
1658845933.18174,165286.2203045,-7
1658845933.18174,165286.2203073,-7
1658845933.18174,165286.2203102,-11
1658845933.18174,165286.2203131,-14
1658845933.18174,165286.2203161,-14
1658845933.18174,165286.220319,-23
1658845933.18174,165286.2203219,-28
1658845933.18174,165286.2203248,-21
1658845933.18174,165286.2203277,-16
1658845933.18174,165286.2203306,-16
1658845933.18174,165286.7048057,-11
1658845933.18174,165286.7048208,-7
1658845933.18174,165286.7048256,0
1658845933.18174,165286.7048324,0
1658845933.18174,165286.7048362,0
1658845933.18174,165286.7048401,4
1658845933.18174,165286.7048453,11
1658845933.18174,165286.7048489,9
1658845933.18174,165286.7048542,4
1658845933.18174,165286.7048591,16
1658845933.18174,165286.7048628,28
1658845933.18174,165286.7048683,30
1658845933.8077,165286.7048744,33
1658845933.8077,165286.7048791,28
1658845933.8077,165286.7048829,11
1658845933.8077,165286.704887,0
1658845933.8077,165286.7048932,2
1658845933.8077,165286.704897,9
1658845933.8077,165286.7049024,16
1658845933.8077,165286.7049097,16
1658845933.8077,165286.7049135,19
1658845933.8077,165286.7049176,16
1658845933.8077,165286.7049225,14
1658845933.8077,165286.7049285,33
1658845933.8077,165286.7049348,78
1658845933.8077,165286.70494,111
1658845933.8077,165286.7049447,99
1658845933.8077,165286.7049496,59
1658845933.8077,165286.7049538,38
1658845933.8077,165286.704959,38
1658845933.8077,165286.7049627,45
1658845933.8077,165286.7049659,47
1658845933.8077,165286.704969,49
1658845933.8077,165286.7049721,57
1658845933.8077,165286.7049782,66
1658845933.8077,165286.7049821,64
1658845933.8077,165286.7049865,57
1658845933.8077,165286.7049919,61
1658845933.8077,165286.7049973,73
1658845933.8077,165286.7050023,73
1658845933.8077,165286.7050074,45
1658845933.8077,165286.7050122,-19
1658845933.8077,165286.7050331,83
1658845933.8077,165286.7050446,691
1658845933.8077,165286.7050511,1644
1658845933.8077,165286.705058,2302
1658845933.8077,165286.7050664,2072
1658845933.8077,165286.7050697,586
1658845933.8077,165286.7050755,-872
1658845933.8077,165286.7050797,-622
1658845933.8077,165286.7050831,137
1658845933.8077,165286.7050863,21
1658845933.8077,165286.7050898,-142
1658845933.8077,165286.7050934,16
1658845933.8077,165286.7050992,26
1658845933.8077,165286.7051031,-26
1658845933.8077,165286.7051083,40
1658845933.8077,165286.705112,66
1658845933.8077,165286.7051171,42
1658845933.8077,165286.7051208,68
1658845933.8077,165286.705126,97
1658845933.8077,165286.7051296,104
1658845933.82964,165286.7051348,123
1658845933.82964,165286.7051384,149
1658845933.82964,165286.705142,159
1658845933.82964,165286.7051472,171
1658845933.82964,165286.7051522,197
1658845933.82964,165286.70516,220
1658845933.82964,165286.7051658,242
1658845933.82964,165286.7051695,263
1658845933.82964,165286.7051748,268
1658845933.82964,165286.7051783,263
1658845933.82964,165286.7051836,270
1658845933.82964,165287.3387551,268
1658845933.82964,165287.3387714,242
1658845933.82964,165287.3387756,211
1658845933.82964,165287.3387812,175
1658845933.82964,165287.3387848,109
1658845933.82964,165287.3387899,45
1658845933.82964,165287.3387936,4
1658845933.82964,165287.3387989,-30
1658845933.82964,165287.3388036,-76
1658845933.82964,165287.3388123,-92
1658845933.82964,165287.3388163,-102
1658845933.82964,165287.3388227,-130
1658845933.82964,165287.3388258,-142
1658845934.34068,165287.3388299,-123
1658845934.34068,165287.3388335,-111
1658845934.34068,165287.3388369,-106
1658845934.34068,165287.3388402,-102
1658845934.34068,165287.3388435,-102
1658845934.34068,165287.3388468,-92
1658845934.34068,165287.3388501,-73
1658845934.34068,165287.3388534,-66
1658845934.34068,165287.3388567,-68
1658845934.34068,165287.3388601,-68
1658845934.34068,165287.3388633,-66
1658845934.34068,165287.3388667,-71
1658845934.34068,165287.3388699,-66
1658845934.34068,165287.3388733,-54
1658845934.34068,165287.3388766,-57
1658845934.34068,165287.3388799,-61
1658845934.34068,165287.3388832,-54
1658845934.34068,165287.3388864,-47
1658845934.34068,165287.3388897,-40
1658845934.34068,165287.3388929,-35
1658845934.34068,165287.3388962,-35
1658845934.34068,165287.3388996,-30
1658845934.34068,165287.3389028,-21
1658845934.34068,165287.3389061,-23
1658845934.34068,165287.3389095,-28
1658845934.34068,165287.3389129,-21
1658845934.34068,165287.3389163,-19
1658845934.34068,165287.3389198,-19
1658845934.34068,165287.3389232,-9
1658845934.34068,165287.3389282,0
1658845934.34068,165287.3389315,4
1658845934.34068,165287.338935,4
1658845934.34068,165287.3389401,4
1658845934.34068,165287.3389434,2
1658845934.34068,165287.3389467,4
1658845934.34068,165287.3389506,21
1658845934.34068,165287.3389541,42
1658845934.34068,165287.3389574,66

1658845934.34068,165287.3389608,90
1658845934.34068,165287.3389657,71
1658845934.34068,165287.338969,19
1658845934.34068,165287.3389733,11
1658845934.34068,165287.3389768,33
1658845934.34068,165287.3389801,23
1658845934.34068,165287.3389835,21
1658845934.34068,165287.3389875,38
1658845934.34068,165287.3389925,42
1658845934.34068,165287.3389958,45
1658845934.34068,165287.3389991,52
1658845934.34068,165287.3390025,54
1658845934.36346,165287.3390058,45
1658845934.36346,165287.3390092,47
1658845934.36346,165287.3390125,42
1658845934.36346,165287.3390159,-9
1658845934.36346,165287.3390206,35
1658845934.36346,165287.3390259,527
1658845934.36346,165287.3390306,1437
1658845934.36346,165287.3390339,2193
1658845934.36346,165287.3390378,2141
1658845934.36346,165287.3390423,803
1658845934.36346,165287.874788,-798
1658845934.36346,165287.8748111,-819
1658845934.36346,165287.8748259,-11
1658845934.36346,165287.8748407,19
1658845934.36346,165287.8748556,-159
1658845934.36346,165287.8748657,7
1658845934.36346,165287.8748699,49
1658845934.36346,165287.8748758,-28
1658845934.36346,165287.8748857,16
1658845934.36346,165287.8748904,71
1658845934.36346,165287.8749085,57
1658845934.36346,165287.8749324,66
1658845934.36346,165287.8749358,102
1658845934.36346,165287.8749388,116
1658845934.87372,165287.874941,111
1658845934.87372,165287.8749445,128
1658845934.87372,165287.8749555,154
1658845934.87372,165287.8749607,178
1658845934.87372,165287.874963,199
1658845934.87372,165287.8749694,216
1658845934.87372,165287.8749801,218
1658845934.87372,165287.8749865,220
1658845934.87372,165287.8749897,235
1658845934.87372,165287.8749918,244
1658845934.87372,165287.8749938,237
1658845934.87372,165287.8749958,218
1658845934.87372,165287.8749978,201
1658845934.87372,165287.8749998,175
1658845934.87372,165287.8750018,140
1658845934.87372,165287.8750038,87
1658845934.87372,165287.8750058,28
1658845934.87372,165287.8750078,-21
1658845934.87372,165287.8750098,-59
1658845934.87372,165287.8750119,-95
1658845934.87372,165287.8750144,-114
1658845934.87372,165287.8750165,-121
1658845934.87372,165287.8750185,-123
1658845934.87372,165287.8750204,-114
1658845934.87372,165287.8750225,-106
1658845934.87372,165287.8750378,-106
1658845934.87372,165287.8750397,-99
1658845934.87372,165287.8750418,-87
1658845934.87372,165287.8750437,-83
1658845934.87372,165287.8750607,-80
1658845934.87372,165287.8750628,-71
1658845934.87372,165287.8750649,-76
1658845934.87372,165287.8750669,-83
1658845934.87372,165287.8750688,-78
1658845934.87372,165287.8750709,-68
1658845934.87372,165287.875073,-64
1658845934.87372,165287.8750751,-66
1658845934.87372,165287.8750771,-66
1658845934.87372,165287.8750791,-66
1658845934.87372,165287.8750812,-61
1658845934.87372,165287.8750832,-57
1658845934.87372,165287.8750852,-52
1658845934.87372,165287.8750872,-45
1658845934.87372,165287.8750892,-42
1658845934.87372,165287.8750911,-45
1658845934.87372,165287.8750932,-42
1658845934.87372,165287.8750952,-30
1658845934.87372,165287.8750972,-30
1658845934.87372,165287.8750991,-35
1658845934.87372,165287.8751143,-30
1658845934.89666,165287.8751163,-23
1658845934.89666,165287.8751182,-23
1658845934.89666,165287.8751202,-21
1658845934.89666,165287.8751222,-11
1658845934.89666,165287.8751242,-16
1658845934.89666,165287.8751492,-26
1658845934.89666,165287.8751513,-19
1658845934.89666,165287.8751534,2
1658845934.89666,165287.8751554,40
1658845934.89666,165288.4111214,71
1658845934.89666,165288.4111484,66
1658845934.89666,165288.4111509,38
1658845934.89666,165288.411153,23
1658845934.89666,165288.411155,30
1658845934.89666,165288.411157,38
1658845934.89666,165288.4111593,38
1658845934.89666,165288.4111614,38
1658845934.89666,165288.4111636,42
1658845934.89666,165288.4111657,45
1658845934.89666,165288.4111679,40
1658845934.89666,165288.4111829,28
1658845934.89666,165288.4111851,30
1658845934.89666,165288.4111871,42
1658845934.89666,165288.4111891,26
1658845935.49527,165288.4111912,-49
1658845935.49527,165288.4111932,-64
1658845935.49527,165288.4111954,365
1658845935.49527,165288.4112123,1297
1658845935.49527,165288.4112143,2107
1658845935.49527,165288.4112161,2174
1658845935.49527,165288.41122,1078
1658845935.49527,165288.411231,-565
1658845935.49527,165288.4112399,-872
1658845935.49527,165288.4112444,-33
1658845935.49527,165288.4112464,99
1658845935.49527,165288.4112483,-204
1658845935.49527,165288.4112507,-83
1658845935.49527,165288.4112583,21
1658845935.49527,165288.4112691,-64
1658845935.49527,165288.4112725,-42
1658845935.49527,165288.4112764,21
1658845935.49527,165288.4112784,14
1658845935.49527,165288.4112849,23
1658845935.49527,165288.4112961,61
1658845935.49527,165288.4113005,71
1658845935.49527,165288.4113041,78
1658845935.49527,165288.4113061,99
1658845935.49527,165288.4113082,116
1658845935.49527,165288.4113102,128
1658845935.49527,165288.4113155,156
1658845935.49527,165288.4113268,187
1658845935.49527,165288.4113322,204
1658845935.49527,165288.4113352,220
1658845935.49527,165288.4113373,235
1658845935.49527,165288.4113394,237
1658845935.49527,165288.4113416,230
1658845935.49527,165288.4113491,220
1658845935.49527,165288.4113596,206
1658845935.49527,165288.4114696,182
1658845935.49527,165288.4114959,152
1658845935.49527,165288.4114981,111
1658845935.49527,165288.4115001,54
1658845935.49527,165288.4115028,0
1658845935.49527,165288.411505,-42
1658845935.49527,165288.4115071,-76
1658845935.49527,165288.4115092,-99
1658845935.49527,165288.4115112,-104
1658845935.49527,165288.4115132,-102
1658845935.49527,165288.4115153,-95
1658845935.49527,165288.4115174,-85
1658845935.49527,165288.4115195,-76
1658845935.49527,165288.4115215,-68
1658845935.49527,165288.4115235,-54
1658845935.49527,165288.4115256,-47
1658845935.51819,165288.4115276,-47
1658845935.51819,165288.4115297,-47
1658845935.51819,165288.4115317,-45
1658845935.51819,165288.4115338,-47
1658845935.51819,165288.4115358,-49
1658845935.51819,165288.4115378,-45
1658845935.51819,165288.4115399,-38
1658845935.51819,165288.4115419,-38
1658845935.51819,165289.0453888,-42
1658845935.51819,165289.0454367,-45
1658845935.51819,165289.0454473,-38
1658845935.51819,165289.0454508,-33
1658845935.51819,165289.045463,-30
1658845935.51819,165289.0454684,-28
1658845935.51819,165289.0454743,-26
1658845935.51819,165289.0454805,-38
1658845935.51819,165289.0454908,-47
1658845935.51819,165289.0455032,-38
1658845935.51819,165289.0455145,-28
1658845935.51819,165289.0455288,-30
1658845935.51819,165289.045542,-35
1658845935.51819,165289.0455556,-45
1658845935.51819,165289.0455646,-57
1658845935.51819,165289.0455672,-49
1658845935.98437,165289.0455693,-35
1658845935.98437,165289.0455713,-33
1658845935.98437,165289.0455733,-35
1658845935.98437,165289.0455751,-40
1658845935.98437,165289.045577,-42
1658845935.98437,165289.0455796,-35
1658845935.98437,165289.045588,-9
1658845935.98437,165289.0455997,23
1658845935.98437,165289.0456089,49
1658845935.98437,165289.0456182,47
1658845935.98437,165289.0456252,19
1658845935.98437,165289.0456277,7
1658845935.98437,165289.0456298,21
1658845935.98437,165289.0456319,23
1658845935.98437,165289.0456339,11
1658845935.98437,165289.0456359,9
1658845935.98437,165289.0456379,14
1658845935.98437,165289.04564,19
1658845935.98437,165289.045642,23
1658845935.98437,165289.045644,28
1658845935.98437,165289.045646,33
1658845935.98437,165289.0456481,40
1658845935.98437,165289.0456501,21
1658845935.98437,165289.0456522,-61
1658845935.98437,165289.0456543,-33
1658845935.98437,165289.0456564,506
1658845935.98437,165289.0456584,1494
1658845935.98437,165289.0456605,2247
1658845935.98437,165289.0456626,2205
1658845935.98437,165289.0456647,941
1658845935.98437,165289.0456672,-689
1658845935.98437,165289.0456692,-772
1658845935.98437,165289.0456712,78
1658845935.98437,165289.0456733,87
1658845935.98437,165289.0456754,-187
1658845935.98437,165289.0456774,-40
1658845935.98437,165289.0456795,16
1658845935.98437,165289.0456815,-68
1658845935.98437,165289.0456836,-14
1658845935.98437,165289.0456856,47
1658845935.98437,165289.0456876,30
1658845935.98437,165289.0456897,42
1658845935.98437,165289.0456917,68
1658845935.98437,165289.0456937,71
1658845935.98437,165289.0456957,92
1658845935.98437,165289.0456978,135
1658845935.98437,165289.0456998,154
1658845935.98437,165289.0457019,168
1658845935.98437,165289.0457039,190
1658845935.98437,165289.0457059,204
1658845936.00731,165289.0457079,218
1658845936.00731,165289.0457099,244
1658845936.00731,165289.0457119,266
1658845936.00731,165289.0457139,266
1658845936.00731,165289.04572,259
1658845936.00731,165289.0457306,249
1658845936.00731,165289.045734,223
1658845936.00731,165289.5327974,197
1658845936.00731,165289.532813,178
1658845936.00731,165289.5328192,142
1658845936.00731,165289.5328259,83
1658845936.00731,165289.5328284,26
1658845936.00731,165289.5328305,-9
1658845936.00731,165289.5328324,-35
1658845936.00731,165289.5328345,-52
1658845936.00731,165289.5328382,-59
1658845936.00731,165289.5328464,-68
1658845936.00731,165289.5328511,-78
1658845936.00731,165289.5328544,-83
1658845936.00731,165289.5328575,-78
1658845936.00731,165289.5328628,-66
1658845936.00731,165289.5328682,-57
1658845936.00731,165289.5328773,-47
1658845936.00731,165289.5328902,-49
1658845936.56631,165289.5329012,-61
1658845936.56631,165289.5329046,-59
1658845936.56631,165289.5329083,-47
1658845936.56631,165289.5329169,-47
1658845936.56631,165289.5329272,-45
1658845936.56631,165289.5329319,-47
1658845936.56631,165289.5329353,-61
1658845936.56631,165289.5329431,-71
1658845936.56631,165289.5329556,-66
1658845936.56631,165289.5329616,-61
1658845936.56631,165289.5329643,-68
1658845936.56631,165289.5329717,-64
1658845936.56631,165289.5329841,-57
1658845936.56631,165289.5329909,-57
1658845936.56631,165289.5329938,-57
1658845936.56631,165289.5330014,-49
1658845936.56631,165289.5330143,-42
1658845936.56631,165289.5330207,-40
1658845936.56631,165289.5330251,-47
1658845936.56631,165289.5330523,-47
1658845936.56631,165289.5330581,-35
1658845936.56631,165289.5330673,-23
1658845936.56631,165289.5330792,-14
1658845936.56631,165289.5330827,-11
1658845936.56631,165289.533085,-11
1658845936.56631,165289.5330924,-16
1658845936.56631,165289.533105,-28
1658845936.56631,165289.5331119,-28
1658845936.56631,165289.5331162,-7
1658845936.56631,165289.5331302,23
1658845936.56631,165289.5331398,64
1658845936.56631,165289.5331538,83
1658845936.56631,165289.5331662,57
1658845936.56631,165289.5331767,30
1658845936.56631,165289.5331895,38
1658845936.56631,165289.5332027,38
1658845936.56631,165289.5332164,23
1658845936.56631,165289.5332279,33
1658845936.56631,165289.5332414,59
1658845936.56631,165289.5332542,59
1658845936.56631,165289.5332607,57
1658845936.56631,165289.5332705,66
1658845936.56631,165289.5332819,61
1658845936.56631,165289.5332955,61
1658845936.56631,165289.533309,71
1658845936.56631,165289.5333223,47
1658845936.56631,165289.5333359,-19
1658845936.56631,165289.5333494,66
1658845936.56631,165289.5333628,643
1658845936.56631,165289.5333767,1596
1658845936.58326,165289.5333907,2271
1658845936.58326,165289.5334045,2065
1658845936.58326,165289.5334171,634
1658845936.58326,165289.5334283,-857
1658845936.58326,165289.5334328,-701
1658845936.58326,165289.5334398,73
1658845936.58326,165290.1175284,16
1658845936.58326,165290.1175668,-128
1658845936.58326,165290.1175774,30
1658845936.58326,165290.1175865,26
1658845936.58326,165290.1175935,-35
1658845936.58326,165290.1176004,38
1658845936.58326,165290.1176072,71
1658845936.58326,165290.1176136,35
1658845936.58326,165290.1176205,40
1658845936.58326,165290.1176257,80
1658845936.58326,165290.1176314,102
1658845936.58326,165290.1176394,111
1658845936.58326,165290.1176477,137
1658845936.58326,165290.1176563,159
1658845936.58326,165290.1176653,154
1658845936.58326,165290.1176741,161
1658845936.58326,165290.1176826,182
1658845936.58326,165290.1176894,199
1658845937.16113,165290.1176979,216
1658845937.16113,165290.117704,228
1658845937.16113,165290.11771,225
1658845937.16113,165290.1177164,220
1658845937.16113,165290.1177224,209
1658845937.16113,165290.1177274,192
1658845937.16113,165290.1177345,178
1658845937.16113,165290.1177397,147
1658845937.16113,165290.1177461,95
1658845937.16113,165290.1177504,42
1658845937.16113,165290.1177547,9
1658845937.16113,165290.1177608,-26
1658845937.16113,165290.1177674,-59
1658845937.16113,165290.117776,-73
1658845937.16113,165290.1177803,-80
1658845937.16113,165290.1177834,-90
1658845937.16113,165290.1177863,-87
1658845937.16113,165290.1177893,-71
1658845937.16113,165290.1177923,-59
1658845937.16113,165290.1177952,-54
1658845937.16113,165290.1177981,-47
1658845937.16113,165290.1178131,-38
1658845937.16113,165290.1178262,-30
1658845937.16113,165290.1178393,-30
1658845937.16113,165290.1178524,-26
1658845937.16113,165290.1178656,-16
1658845937.16113,165290.1178789,-16
1658845937.16113,165290.117892,-30
1658845937.16113,165290.117905,-33
1658845937.16113,165290.1179186,-21
1658845937.16113,165290.1179322,-19
1658845937.16113,165290.1179453,-19
1658845937.16113,165290.1179584,-16
1658845937.16113,165290.1179715,-19
1658845937.16113,165290.1179847,-21
1658845937.16113,165290.1179977,-19
1658845937.16113,165290.1180109,-21
1658845937.16113,165290.118024,-28
1658845937.16113,165290.1180373,-23
1658845937.16113,165290.1180505,-23
1658845937.16113,165290.1180635,-35
1658845937.16113,165290.1180766,-35
1658845937.16113,165290.1180899,-33
1658845937.16113,165290.1181028,-35
1658845937.16113,165290.1181159,-35
1658845937.16113,165290.1181291,-30
1658845937.16113,165290.1181421,-11
1658845937.16113,165290.1181552,21
1658845937.16113,165290.1181682,38
1658845937.16113,165290.1181814,21
1658845937.18307,165290.1181944,2
1658845937.18307,165290.1182076,4
1658845937.18307,165290.1182207,11
1658845937.18307,165290.1182337,11
1658845937.18307,165290.1182467,11
1658845937.18307,165290.7025212,16
1658845937.18307,165290.7025327,23
1658845937.18307,165290.702729,28
1658845937.18307,165290.7027524,23
1658845937.18307,165290.7027745,9
1658845937.18307,165290.7027808,4
1658845937.18307,165290.7027902,14
1658845937.18307,165290.7028008,-19
1658845937.18307,165290.7028068,-97
1658845937.18307,165290.7028192,54
1658845937.18307,165290.7028295,762
1658845937.18307,165290.7028347,1722
1658845937.18307,165290.7028475,2247
1658845937.18307,165290.7028559,1810
1658845937.18307,165290.7028635,237
1658845937.18307,165290.7028751,-1009
1658845937.18307,165290.7028854,-548
1658845937.18307,165290.7028919,114
1658845937.18307,165290.7029041,-104
1658845937.69431,165290.7029152,-211
1658845937.69431,165290.7029215,-26
1658845937.69431,165290.7029311,-42
1658845937.69431,165290.70294,-92
1658845937.69431,165290.7029482,-28
1658845937.69431,165290.7029529,-4
1658845937.69431,165290.7029587,-11
1658845937.69431,165290.7029658,19
1658845937.69431,165290.7029775,45
1658845937.69431,165290.7029878,57
1658845937.69431,165290.7029963,78
1658845937.69431,165290.7030076,104
1658845937.69431,165290.7030185,118
1658845937.69431,165290.7030257,140
1658845937.69431,165290.703033,166
1658845937.69431,165290.7030402,187
1658845937.69431,165290.7030497,204
1658845937.69431,165290.7030601,211
1658845937.69431,165290.7030696,216
1658845937.69431,165290.7030762,216
1658845937.69431,165290.7030879,204
1658845937.69431,165290.7031005,187
1658845937.69431,165290.7031098,166
1658845937.69431,165290.7031203,135
1658845937.69431,165290.7031288,106
1658845937.69431,165290.7031362,71
1658845937.69431,165290.7031484,30
1658845937.69431,165290.7031576,-7
1658845937.69431,165290.703164,-28
1658845937.69431,165290.703176,-47
1658845937.69431,165290.703186,-66
1658845937.69431,165290.7031928,-78
1658845937.69431,165290.7032047,-76
1658845937.69431,165290.7032168,-61
1658845937.69431,165290.703222,-47
1658845937.69431,165290.703227,-35
1658845937.69431,165290.7032304,-28
1658845937.69431,165290.7032507,-21
1658845937.69431,165290.7032614,-16
1658845937.69431,165290.703267,-9
1658845937.69431,165290.7032732,-4
1658845937.69431,165290.7032778,0
1658845937.69431,165290.7032808,0
1658845937.69431,165290.7032838,2
1658845937.69431,165290.7032867,2
1658845937.69431,165290.7032896,4
1658845937.69431,165290.7032926,7
1658845937.69431,165290.7032959,11
1658845937.69431,165290.7032987,4
1658845937.69431,165290.7033016,0
1658845937.71625,165290.7033046,2
1658845937.71625,165290.7033075,7
1658845937.71625,165290.7033104,7
1658845937.71625,165290.7033133,11
1658845937.71625,165291.2392423,14
1658845937.71625,165291.2392606,7
1658845937.71625,165291.2392688,0
1658845937.71625,165291.2392781,7
1658845937.71625,165291.2392846,11
1658845937.71625,165291.239295,9
1658845937.71625,165291.2393053,9
1658845937.71625,165291.2393149,9
1658845937.71625,165291.2393211,0
1658845937.71625,165291.2393435,-16
1658845937.71625,165291.2393665,-16
1658845937.71625,165291.2393732,-4
1658845937.71625,165291.239386,7
1658845937.71625,165291.239397,23
1658845937.71625,165291.239402,33
1658845937.71625,165291.2394093,30
1658845937.71625,165291.2394148,11
1658845937.71625,165291.2394187,2
1658845937.71625,165291.2394233,11
1658845937.71625,165291.2394291,9
1658845938.22882,165291.2394322,-9
1658845938.22882,165291.2394374,-11
1658845938.22882,165291.2394409,0
1658845938.22882,165291.2394441,7
1658845938.22882,165291.2394473,11
1658845938.22882,165291.2394505,16
1658845938.22882,165291.2394537,16
1658845938.22882,165291.239457,16
1658845938.22882,165291.2394602,-9
1658845938.22882,165291.2394634,-85
1658845938.22882,165291.2394665,40
1658845938.22882,165291.2394698,739
1658845938.22882,165291.239473,1741
1658845938.22882,165291.2394762,2321
1658845938.22882,165291.2394795,1974
1658845938.22882,165291.2394827,439
1658845938.22882,165291.2394859,-924
1658845938.22882,165291.2394916,-537
1658845938.22882,165291.2394961,187
1658845938.22882,165291.2395003,-40
1658845938.22882,165291.2395074,-204
1658845938.22882,165291.2395154,-7
1658845938.22882,165291.2395197,-4
1658845938.22882,165291.2395235,-71
1658845938.22882,165291.2395266,-7
1658845938.22882,165291.2395308,23
1658845938.22882,165291.2395365,7
1658845938.22882,165291.2395402,38
1658845938.22882,165291.2395439,71
1658845938.22882,165291.2395471,78
1658845938.22882,165291.2395501,92
1658845938.22882,165291.2395535,116
1658845938.22882,165291.239557,133
1658845938.22882,165291.2395604,159
1658845938.22882,165291.239564,185
1658845938.22882,165291.2395674,201
1658845938.22882,165291.239571,216
1658845938.22882,165291.2395745,228
1658845938.22882,165291.2395781,232
1658845938.22882,165291.2395834,228
1658845938.22882,165291.239587,218
1658845938.22882,165291.2395906,204
1658845938.22882,165291.2395957,187
1658845938.22882,165291.2395992,168
1658845938.22882,165291.2396027,144
1658845938.22882,165291.2396063,104
1658845938.22882,165291.2396114,59
1658845938.22882,165291.2396149,11
1658845938.22882,165291.2396184,-30
1658845938.22882,165291.239622,-54
1658845938.25076,165291.239627,-64
1658845938.25076,165291.2396321,-73
1658845938.25076,165291.239637,-76
1658845938.25076,165291.7751291,-66
1658845938.25076,165291.7751467,-52
1658845938.25076,165291.7751541,-40
1658845938.25076,165291.7751591,-30
1658845938.25076,165291.7751641,-23
1658845938.25076,165291.7751675,-19
1658845938.25076,165291.7751717,-11
1658845938.25076,165291.775177,-9
1658845938.25076,165291.7751803,-7
1658845938.25076,165291.7751835,-7
1658845938.25076,165291.7751884,-16
1658845938.25076,165291.7751915,-30
1658845938.25076,165291.7751956,-28
1658845938.25076,165291.7751986,-21
1658845938.25076,165291.7752015,-23
1658845938.25076,165291.7752056,-21
1658845938.25076,165291.7752108,-23
1658845938.25076,165291.7752253,-38
1658845938.25076,165291.775252,-42
1658845938.25076,165291.7752813,-30
1658845938.25076,165291.7752945,-28
1658845938.87254,165291.7753067,-30
1658845938.87254,165291.7753147,-28
1658845938.87254,165291.7753344,-26
1658845938.87254,165291.7753585,-19
1658845938.87254,165291.7753652,-11
1658845938.87254,165291.7753716,-14
1658845938.87254,165291.7753777,-16
1658845938.87254,165291.7753842,-11
1658845938.87254,165291.775391,-14
1658845938.87254,165291.7753975,-38
1658845938.87254,165291.7754042,-54
1658845938.87254,165291.7754128,-47
1658845938.87254,165291.7754161,-21
1658845938.87254,165291.7754183,19
1658845938.87254,165291.7754208,35
1658845938.87254,165291.7754232,26
1658845938.87254,165291.7754252,7
1658845938.87254,165291.7754273,-4
1658845938.87254,165291.7754293,2
1658845938.87254,165291.7754313,16
1658845938.87254,165291.7754333,19
1658845938.87254,165291.7754353,14
1658845938.87254,165291.7754374,14
1658845938.87254,165291.7754401,21
1658845938.87254,165291.7754422,30
1658845938.87254,165291.7754442,45
1658845938.87254,165291.7754463,47
1658845938.87254,165291.7754483,35
1658845938.87254,165291.7754505,-2
1658845938.87254,165291.7754526,-71
1658845938.87254,165291.7754546,42
1658845938.87254,165291.7754566,698
1658845938.87254,165291.7754587,1701
1658845938.87254,165291.7754607,2364
1658845938.87254,165291.7754628,2100
1658845938.87254,165291.7754649,567
1658845938.87254,165291.7754674,-910
1658845938.87254,165291.7754694,-615
1658845938.87254,165291.7754714,149
1658845938.87254,165291.7754735,-23
1658845938.87254,165291.7754755,-201
1658845938.87254,165291.7754776,-19
1658845938.87254,165291.7754795,-9
1658845938.87254,165291.7754816,-71
1658845938.87254,165291.7754837,-4
1658845938.87254,165291.7754857,26
1658845938.87254,165291.7754877,2
1658845938.87254,165291.7754897,35
1658845938.87254,165291.7754918,76
1658845938.87254,165291.7754939,78
1658845938.89349,165291.7754959,95
1658845938.89349,165291.775498,125
1658845938.89349,165292.410979,140
1658845938.89349,165292.4109904,152
1658845938.89349,165292.410993,178
1658845938.89349,165292.4109953,209
1658845938.89349,165292.4109975,230
1658845938.89349,165292.4109996,240
1658845938.89349,165292.4110017,235
1658845938.89349,165292.4110037,218
1658845938.89349,165292.4110057,199
1658845938.89349,165292.4110077,190
1658845938.89349,165292.4110098,187
1658845938.89349,165292.4110118,166
1658845938.89349,165292.4110138,135
1658845938.89349,165292.4110158,95
1658845938.89349,165292.4110178,40
1658845938.89349,165292.4110209,-16
1658845938.89349,165292.4110344,-49
1658845938.89349,165292.4110408,-66
1658845938.89349,165292.4110432,-87
1658845938.89349,165292.4110452,-95
1658845938.89349,165292.4110472,-83
1658845938.89349,165292.4110493,-73
1658845939.34859,165292.4110682,-73
1658845939.34859,165292.4110927,-76
1658845939.34859,165292.4110966,-71
1658845939.34859,165292.4110987,-52
1658845939.34859,165292.4111006,-30
1658845939.34859,165292.4111036,-30
1658845939.34859,165292.4111151,-28
1658845939.34859,165292.4111216,-16
1658845939.34859,165292.4111241,-14
1658845939.34859,165292.4111264,-26
1658845939.34859,165292.4111363,-19
1658845939.34859,165292.4111449,-11
1658845939.34859,165292.4111474,-14
1658845939.34859,165292.4111495,-4
1658845939.34859,165292.4111516,-2
1658845939.34859,165292.4111536,-9
1658845939.34859,165292.4111557,-4
1658845939.34859,165292.4111652,2
1658845939.34859,165292.411174,-2
1658845939.34859,165292.4111765,-2
1658845939.34859,165292.4111786,-2
1658845939.34859,165292.4111806,2
1658845939.34859,165292.4111835,4
1658845939.34859,165292.4111942,2
1658845939.34859,165292.4112014,11
1658845939.34859,165292.4112036,19
1658845939.34859,165292.4112055,9
1658845939.34859,165292.4112075,2
1658845939.34859,165292.4112095,7
1658845939.34859,165292.4112116,16
1658845939.34859,165292.4112197,21
1658845939.34859,165292.41123,28
1658845939.34859,165292.4112326,30
1658845939.34859,165292.4112347,23
1658845939.34859,165292.4112368,4
1658845939.34859,165292.4112389,-4
1658845939.34859,165292.4112444,0
1658845939.34859,165292.4112555,7
1658845939.34859,165292.4112606,14
1658845939.34859,165292.4112627,14
1658845939.34859,165292.4112647,11
1658845939.34859,165292.4112803,19
1658845939.34859,165292.4112823,19
1658845939.34859,165292.4112872,19
1658845939.34859,165292.4113127,35
1658845939.34859,165292.4113179,47
1658845939.34859,165292.4113219,28
1658845939.34859,165292.4113238,-35
1658845939.34859,165292.4113276,-7
1658845939.34859,165292.4113373,461
1658845939.3596,165292.4113459,1383
1658845939.3596,165292.8967972,2195
1658845939.3596,165292.8968129,2233
1658845939.3596,165292.8968165,964
1658845939.3596,165292.8968193,-734
1658845939.3596,165292.8968219,-910
1658845939.3596,165292.8968263,-71
1658845939.3596,165292.8968303,28
1658845939.3596,165292.8968331,-175
1658845939.3596,165292.8968359,-21
1658845939.3596,165292.8968386,38
1658845939.3596,165292.8968413,-61
1658845939.3596,165292.896844,-35
1658845939.3596,165292.8968467,28
1658845939.3596,165292.8968494,16
1658845939.3596,165292.8968522,14
1658845939.3596,165292.896855,57
1658845939.3596,165292.8968581,78
1658845939.3596,165292.8968617,78
1658845939.3596,165292.8968679,95
1658845939.3596,165292.8968719,125
1658845939.3596,165292.8968776,154
1658845939.3596,165292.8968813,175
1658845939.3596,165292.896887,187
1658845939.89224,165292.896891,194
1658845939.89224,165292.8968948,206
1658845939.89224,165292.8968985,218
1658845939.89224,165292.896902,216
1658845939.89224,165292.8969051,201
1658845939.89224,165292.8969083,190
1658845939.89224,165292.8969113,163
1658845939.89224,165292.8969143,130
1658845939.89224,165292.8969174,106
1658845939.89224,165292.8969208,73
1658845939.89224,165292.8969241,26
1658845939.89224,165292.8969281,-7
1658845939.89224,165292.896932,-40
1658845939.89224,165292.8969358,-78
1658845939.89224,165292.8969392,-97
1658845939.89224,165292.8969432,-87
1658845939.89224,165292.8969497,-85
1658845939.89224,165292.8969556,-90
1658845939.89224,165292.8969595,-80
1658845939.89224,165292.8969635,-61
1658845939.89224,165292.8969674,-54
1658845939.89224,165292.8969714,-54
1658845939.89224,165292.8969754,-61
1658845939.89224,165292.89698,-64
1658845939.89224,165292.8969845,-52
1658845939.89224,165292.8969884,-42
1658845939.89224,165292.8969923,-42
1658845939.89224,165292.8969963,-42
1658845939.89224,165292.8970002,-38
1658845939.89224,165292.8970041,-28
1658845939.89224,165292.8970079,-28
1658845939.89224,165292.8970118,-30
1658845939.89224,165292.8970157,-33
1658845939.89224,165292.8970197,-26
1658845939.89224,165292.8970239,-21
1658845939.89224,165292.8970279,-19
1658845939.89224,165292.8970314,-21
1658845939.89224,165292.8970357,-16
1658845939.89224,165292.8970397,-14
1658845939.89224,165292.8970437,-14
1658845939.89224,165292.8970472,-7
1658845939.89224,165292.8970509,-9
1658845939.89224,165292.8970571,-14
1658845939.89224,165292.8970614,-9
1658845939.89224,165292.897065,-2
1658845939.89224,165292.8970686,-4
1658845939.89224,165292.8970741,-9
1658845939.89224,165292.8970793,-11
1658845939.89224,165292.8970828,-11
1658845939.89224,165292.8970864,-4
1658845939.90221,165293.4328273,14
1658845939.90221,165293.4328467,40
1658845939.90221,165293.432862,52
1658845939.90221,165293.4328752,40
1658845939.90221,165293.4328848,14
1658845939.90221,165293.4328918,-4
1658845939.90221,165293.4329007,-7
1658845939.90221,165293.4329067,-14
1658845939.90221,165293.4329195,-19
1658845939.90221,165293.4329298,-21
1658845939.90221,165293.4329384,-19
1658845939.90221,165293.4329479,-11
1658845939.90221,165293.4329582,-4
1658845939.90221,165293.4329657,-11
1658845939.90221,165293.432976,-21
1658845939.90221,165293.4329866,-21
1658845939.90221,165293.4329951,-59
1658845939.90221,165293.4330032,-140
1658845939.90221,165293.4330094,30
1658845939.90221,165293.4330126,788
1658845939.90221,165293.4330147,1784
1658845939.90221,165293.4330168,2302
1658845939.90221,165293.4330188,1810
1658845939.90221,165293.4330209,180
1658845940.52017,165293.433023,-1007
1658845940.52017,165293.4330249,-465
1658845940.52017,165293.4330269,149
1658845940.52017,165293.4330288,-118
1658845940.52017,165293.4330312,-201
1658845940.52017,165293.4330388,-11
1658845940.52017,165293.4330468,-45
1658845940.52017,165293.4330534,-90
1658845940.52017,165293.4330616,-14
1658845940.52017,165293.4330703,4
1658845940.52017,165293.4330791,-4
1658845940.52017,165293.4330862,26
1658845940.52017,165293.4330934,42
1658845940.52017,165293.4330966,42
1658845940.52017,165293.4330987,61
1658845940.52017,165293.4331009,85
1658845940.52017,165293.433103,102
1658845940.52017,165293.433105,128
1658845940.52017,165293.433107,156
1658845940.52017,165293.433109,178
1658845940.52017,165293.4331109,192
1658845940.52017,165293.433113,204
1658845940.52017,165293.433115,201
1658845940.52017,165293.4331171,192
1658845940.52017,165293.4331193,182
1658845940.52017,165293.4331213,171
1658845940.52017,165293.4331234,161
1658845940.52017,165293.4331254,140
1658845940.52017,165293.4331274,102
1658845940.52017,165293.4331295,66
1658845940.52017,165293.4331316,33
1658845940.52017,165293.4331337,-2
1658845940.52017,165293.4331358,-35
1658845940.52017,165293.4331378,-64
1658845940.52017,165293.4331399,-71
1658845940.52017,165293.433142,-66
1658845940.52017,165293.4331474,-66
1658845940.52017,165293.4331581,-57
1658845940.52017,165293.4331665,-40
1658845940.52017,165293.4331737,-30
1658845940.52017,165293.4331851,-26
1658845940.52017,165293.4331983,-16
1658845940.52017,165293.4332117,-7
1658845940.52017,165293.4332252,-4
1658845940.52017,165293.4332393,-2
1658845940.52017,165293.4332532,-7
1658845940.52017,165293.433267,-11
1658845940.52017,165293.4332806,-2
1658845940.52017,165293.4332936,0
1658845940.52017,165294.0664846,-7
1658845940.53414,165294.0665016,-4
1658845940.53414,165294.0665098,2
1658845940.53414,165294.0665141,-7
1658845940.53414,165294.0665203,-23
1658845940.53414,165294.066525,-21
1658845940.53414,165294.0665309,-14
1658845940.53414,165294.0665356,-16
1658845940.53414,165294.0665416,-14
1658845940.53414,165294.066547,-14
1658845940.53414,165294.0665517,-28
1658845940.53414,165294.066558,-35
1658845940.53414,165294.0665625,-28
1658845940.53414,165294.0665687,-30
1658845940.53414,165294.0665732,-35
1658845940.53414,165294.0665793,-26
1658845940.53414,165294.066584,-14
1658845940.53414,165294.0665902,-14
1658845940.53414,165294.0665947,-16
1658845940.53414,165294.0666009,-9
1658845940.53414,165294.0666055,-7
1658845940.53414,165294.0666114,-11
1658845940.53414,165294.0666159,-19
1658845940.53414,165294.0666219,-33
1658845940.53414,165294.0666265,-35
1658845941.10243,165294.0666324,-23
1658845941.10243,165294.0666373,0
1658845941.10243,165294.0666417,33
1658845941.10243,165294.066646,40
1658845941.10243,165294.0666503,7
1658845941.10243,165294.0666551,-23
1658845941.10243,165294.0666595,-16
1658845941.10243,165294.0666639,4
1658845941.10243,165294.0666685,0
1658845941.10243,165294.0666731,-11
1658845941.10243,165294.0666793,-9
1658845941.10243,165294.0666836,0
1658845941.10243,165294.0666888,9
1658845941.10243,165294.0666967,16
1658845941.10243,165294.0667016,19
1658845941.10243,165294.0667076,26
1658845941.10243,165294.0667121,30
1658845941.10243,165294.0667252,4
1658845941.10243,165294.0667312,-61
1658845941.10243,165294.0667334,-38
1658845941.10243,165294.0667357,430
1658845941.10243,165294.0667377,1366
1658845941.10243,165294.0667453,2198
1658845941.10243,165294.0667595,2283
1658845941.10243,165294.0667733,1078
1658845941.10243,165294.066785,-632
1658845941.10243,165294.0667931,-855
1658845941.10243,165294.0668028,-14
1658845941.10243,165294.0668097,68
1658845941.10243,165294.0668202,-199
1658845941.10243,165294.0668307,-59
1658845941.10243,165294.0668389,21
1658845941.10243,165294.0668479,-61
1658845941.10243,165294.0668587,-23
1658845941.10243,165294.0668662,26
1658845941.10243,165294.066874,2
1658845941.10243,165294.0668876,21
1658845941.10243,165294.0669003,64
1658845941.10243,165294.0669135,73
1658845941.10243,165294.0669266,83
1658845941.10243,165294.0669398,106
1658845941.10243,165294.0669529,130
1658845941.10243,165294.0669659,147
1658845941.10243,165294.0669788,163
1658845941.10243,165294.0669903,187
1658845941.10243,165294.0670054,213
1658845941.10243,165294.0670183,232
1658845941.10243,165294.0670321,240
1658845941.10243,165294.6519593,240
1658845941.10243,165294.6519753,240
1658845941.1134,165294.651981,232
1658845941.1134,165294.6519878,213
1658845941.1134,165294.651994,194
1658845941.1134,165294.6520003,171
1658845941.1134,165294.6520041,137
1658845941.1134,165294.6520081,92
1658845941.1134,165294.652013,45
1658845941.1134,165294.6520177,-4
1658845941.1134,165294.6520228,-40
1658845941.1134,165294.6520275,-49
1658845941.1134,165294.6520326,-59
1658845941.1134,165294.6520377,-83
1658845941.1134,165294.6520413,-97
1658845941.1134,165294.652045,-85
1658845941.1134,165294.6520486,-59
1658845941.1134,165294.6520537,-54
1658845941.1134,165294.6520574,-61
1658845941.1134,165294.6520612,-61
1658845941.1134,165294.6520648,-59
1658845941.1134,165294.6520701,-61
1658845941.1134,165294.652074,-68
1658845941.1134,165294.6520791,-71
1658845941.1134,165294.6520827,-64
1658845941.1134,165294.6520864,-49
1658845941.64704,165294.65209,-49
1658845941.64704,165294.6520938,-61
1658845941.64704,165294.6520974,-64
1658845941.64704,165294.652101,-54
1658845941.64704,165294.6521047,-52
1658845941.64704,165294.6521083,-61
1658845941.64704,165294.6521119,-61
1658845941.64704,165294.6521155,-40
1658845941.64704,165294.652119,-30
1658845941.64704,165294.6521227,-40
1658845941.64704,165294.6521289,-42
1658845941.64704,165294.6521344,-33
1658845941.64704,165294.652138,-35
1658845941.64704,165294.6521415,-33
1658845941.64704,165294.652147,-19
1658845941.64704,165294.6521508,-14
1658845941.64704,165294.652157,-19
1658845941.64704,165294.6521605,-14
1658845941.64704,165294.6521637,-11
1658845941.64704,165294.6521699,-23
1658845941.64704,165294.6521758,-23
1658845941.64704,165294.6521798,-16
1658845941.64704,165294.6521857,-23
1658845941.64704,165294.6521894,-19
1658845941.64704,165294.6521934,2
1658845941.64704,165294.6521975,21
1658845941.64704,165294.6522003,35
1658845941.64704,165294.6522034,47
1658845941.64704,165294.6522083,38
1658845941.64704,165294.6522163,14
1658845941.64704,165294.6522228,7
1658845941.64704,165294.6522308,11
1658845941.64704,165294.6522371,11
1658845941.64704,165294.6522436,28
1658845941.64704,165294.652252,38
1658845941.64704,165294.6522602,21
1658845941.64704,165294.6522665,21
1658845941.64704,165294.6522706,38
1658845941.64704,165294.6522738,38
1658845941.64704,165294.6522778,40
1658845941.64704,165294.6522816,52
1658845941.64704,165294.6522851,42
1658845941.64704,165294.6522892,-19
1658845941.64704,165294.6522936,-33
1658845941.64704,165294.6522971,339
1658845941.64704,165294.652302,1219
1658845941.64704,165294.6523081,2103
1658845941.64704,165295.1878792,2319
1658845941.64704,165295.1878992,1276
1658845941.64704,165295.1879092,-484
1658845941.65845,165295.187914,-967
1658845941.65845,165295.1879163,-149
1658845941.65845,165295.1879185,87
1658845941.65845,165295.1879205,-159
1658845941.65845,165295.1879226,-49
1658845941.65845,165295.1879246,47
1658845941.65845,165295.1879266,-33
1658845941.65845,165295.1879287,-11
1658845941.65845,165295.1879307,54
1658845941.65845,165295.1879327,45
1658845941.65845,165295.1879347,38
1658845941.65845,165295.1879368,68
1658845941.65845,165295.1879389,83
1658845941.65845,165295.1879409,83
1658845941.65845,165295.1879429,90
1658845941.65845,165295.1879449,111
1658845941.65845,165295.187947,133
1658845941.65845,165295.1879491,154
1658845941.65845,165295.187952,178
1658845941.65845,165295.1879541,192
1658845941.65845,165295.1879561,199
1658845941.65845,165295.1879583,206
1658845941.65845,165295.1879604,204
1658845941.65845,165295.1879624,190
1658845942.18053,165295.1879644,180
1658845942.18053,165295.1879664,173

1658845942.18053,165295.1879683,149
1658845942.18053,165295.1879702,116
1658845942.18053,165295.1879722,85
1658845942.18053,165295.1879741,42
1658845942.18053,165295.187976,-7
1658845942.18053,165295.187978,-45
1658845942.18053,165295.1879847,-68
1658845942.18053,165295.1879966,-87
1658845942.18053,165295.1880063,-102
1658845942.18053,165295.188016,-106
1658845942.18053,165295.1880268,-97
1658845942.18053,165295.1880302,-80
1658845942.18053,165295.188034,-71
1658845942.18053,165295.188036,-71
1658845942.18053,165295.1880388,-73
1658845942.18053,165295.1880437,-61
1658845942.18053,165295.1880553,-40
1658845942.18053,165295.1880614,-30
1658845942.18053,165295.1880663,-28
1658845942.18053,165295.1880759,-23
1658845942.18053,165295.1880872,-26
1658845942.18053,165295.1880921,-28
1658845942.18053,165295.1881032,-26
1658845942.18053,165295.1881108,-21
1658845942.18053,165295.188115,-16
1658845942.18053,165295.1881212,-21
1658845942.18053,165295.188128,-26
1658845942.18053,165295.1881327,-30
1658845942.18053,165295.188192,-26
1658845942.18053,165295.188202,-21
1658845942.18053,165295.1882118,-16
1658845942.18053,165295.1882199,-16
1658845942.18053,165295.1882273,-16
1658845942.18053,165295.1882391,-21
1658845942.18053,165295.1882492,-23
1658845942.18053,165295.1882569,-23
1658845942.18053,165295.188261,-19
1658845942.18053,165295.1882663,-16
1658845942.18053,165295.1882698,-21
1658845942.18053,165295.1882735,-26
1658845942.18053,165295.188281,-19
1658845942.18053,165295.1882924,-11
1658845942.18053,165295.1883041,-9
1658845942.18053,165295.1883192,-4
1658845942.18053,165295.7244777,-7
1658845942.18053,165295.7244954,-14
1658845942.18053,165295.7245043,-14
1658845942.18053,165295.7245099,-7
1658845942.1925,165295.7245166,2
1658845942.1925,165295.7245219,4
1658845942.1925,165295.7245283,-2
1658845942.1925,165295.7245335,-16
1658845942.1925,165295.72454,-9
1658845942.1925,165295.7245456,16
1658845942.1925,165295.7245518,47
1658845942.1925,165295.7245563,64
1658845942.1925,165295.7245624,52
1658845942.1925,165295.7245675,19
1658845942.1925,165295.7245742,-2
1658845942.1925,165295.7245787,4
1658845942.1925,165295.724585,14
1658845942.1925,165295.7245908,11
1658845942.1925,165295.724597,11
1658845942.1925,165295.7246012,9
1658845942.1925,165295.7246072,0
1658845942.1925,165295.7246147,-4
1658845942.1925,165295.7246206,9
1658845942.1925,165295.7246552,16
1658845942.1925,165295.7246637,19
1658845942.1925,165295.7246699,14
1658845942.1925,165295.7246768,-52
1658845942.1925,165295.7246835,-118
1658845942.71362,165295.7246889,168
1658845942.71362,165295.7246958,1026
1658845942.71362,165295.7247025,1979
1658845942.71362,165295.7247093,2357
1658845942.71362,165295.7247148,1642
1658845942.71362,165295.724721,-73
1658845942.71362,165295.7247243,-964
1658845942.71362,165295.7247286,-251
1658845942.71362,165295.7247317,173
1658845942.71362,165295.7247348,-159
1658845942.71362,165295.7247386,-152
1658845942.71362,165295.7247422,19
1658845942.71362,165295.7247457,-47
1658845942.71362,165295.7247488,-64
1658845942.71362,165295.7247522,9
1658845942.71362,165295.7247559,11
1658845942.71362,165295.7247643,9
1658845942.71362,165295.7247753,47
1658845942.71362,165295.7247868,64
1658845942.71362,165295.724795,68
1658845942.71362,165295.7248064,87
1658845942.71362,165295.7248165,114
1658845942.71362,165295.7248223,135
1658845942.71362,165295.7248355,156
1658845942.71362,165295.724845,178
1658845942.71362,165295.7248509,199
1658845942.71362,165295.7248633,216
1658845942.71362,165295.7248723,230
1658845942.71362,165295.7248815,242
1658845942.71362,165295.7248922,240
1658845942.71362,165295.7249002,225
1658845942.71362,165295.724908,213
1658845942.71362,165295.7249204,194
1658845942.71362,165295.7249347,168
1658845942.71362,165295.7249477,135
1658845942.71362,165295.7249611,95
1658845942.71362,165295.7249743,49
1658845942.71362,165295.7249872,2
1658845942.71362,165295.7250004,-38
1658845942.71362,165295.7250135,-54
1658845942.71362,165295.7250264,-64
1658845942.71362,165295.7250397,-68
1658845942.71362,165295.7250528,-76
1658845942.71362,165295.7250659,-87
1658845942.71362,165295.725079,-83
1658845942.71362,165296.2610795,-68
1658845942.71362,165296.2610937,-54
1658845942.71362,165296.261098,-45
1658845942.71362,165296.2611013,-38
1658845942.71362,165296.2611047,-42
1658845942.7246,165296.2611079,-42
1658845942.7246,165296.2611113,-30
1658845942.7246,165296.2611146,-26
1658845942.7246,165296.2611179,-38
1658845942.7246,165296.2611211,-49
1658845942.7246,165296.2611244,-59
1658845942.7246,165296.2611276,-73
1658845942.7246,165296.2611309,-71
1658845942.7246,165296.2611341,-57
1658845942.7246,165296.2611374,-54
1658845942.7246,165296.2611415,-64
1658845942.7246,165296.2611466,-80
1658845942.7246,165296.2611516,-87
1658845942.7246,165296.2611557,-76
1658845942.7246,165296.261162,-68
1658845942.7246,165296.2611656,-73
1658845942.7246,165296.2611696,-71
1658845942.7246,165296.2611737,-59
1658845942.7246,165296.2611776,-52
1658845942.7246,165296.261181,-54
1658845942.7246,165296.2611843,-61
1658845942.7246,165296.2611874,-61
1658845942.7246,165296.2611906,-45
1658845942.7246,165296.2611938,-35
1658845943.25414,165296.2611968,-40
1658845943.25414,165296.2612,-42
1658845943.25414,165296.2612035,-30
1658845943.25414,165296.2612069,-21
1658845943.25414,165296.2612101,-14
1658845943.25414,165296.2612134,-7
1658845943.25414,165296.2612168,-4
1658845943.25414,165296.2612202,-7
1658845943.25414,165296.2612237,0
1658845943.25414,165296.2612269,16
1658845943.25414,165296.26123,19
1658845943.25414,165296.2612332,16
1658845943.25414,165296.2612363,21
1658845943.25414,165296.2612405,14
1658845943.25414,165296.2612461,7
1658845943.25414,165296.2612507,16
1658845943.25414,165296.2612546,35
1658845943.25414,165296.2612593,61
1658845943.25414,165296.2612625,83
1658845943.25414,165296.2612657,97
1658845943.25414,165296.2612689,97
1658845943.25414,165296.2612721,83
1658845943.25414,165296.2612753,66
1658845943.25414,165296.2612784,59
1658845943.25414,165296.2612815,68
1658845943.25414,165296.2612846,71
1658845943.25414,165296.2612876,68
1658845943.25414,165296.2612908,64
1658845943.25414,165296.261294,61
1658845943.25414,165296.2612972,68
1658845943.25414,165296.2613007,71
1658845943.25414,165296.2613041,73
1658845943.25414,165296.2613078,76
1658845943.25414,165296.2613126,66
1658845943.25414,165296.2613165,19
1658845943.25414,165296.2613197,-30
1658845943.25414,165296.2613229,201
1658845943.25414,165296.2613261,962
1658845943.25414,165296.2613295,1898
1658845943.25414,165296.261333,2383
1658845943.25414,165296.2613363,1810
1658845943.25414,165296.2613395,106
1658845943.25414,165296.2613429,-964
1658845943.25414,165296.261346,-344
1658845943.25414,165296.7962404,175
1658845943.25414,165296.796268,-102
1658845943.25414,165296.7962828,-123
1658845943.25414,165296.7962905,42
1658845943.25414,165296.7962949,-19
1658845943.25414,165296.7962986,-47
1658845943.27808,165296.7963045,26
1658845943.27808,165296.7963079,28
1658845943.27808,165296.7963117,16
1658845943.27808,165296.7963158,49
1658845943.27808,165296.7963225,71
1658845943.27808,165296.7963263,85
1658845943.27808,165296.7963314,106
1658845943.27808,165296.796335,109
1658845943.27808,165296.7963387,111
1658845943.27808,165296.7963423,140
1658845943.27808,165296.7963494,161
1658845943.27808,165296.7963863,180
1658845943.27808,165296.7963942,206
1658845943.27808,165296.7963991,216
1658845943.27808,165296.7964051,209
1658845943.27808,165296.7964098,218
1658845943.27808,165296.7964157,220
1658845943.27808,165296.7964206,206
1658845943.27808,165296.7964252,185
1658845943.27808,165296.7964314,166
1658845943.27808,165296.796436,135
1658845943.27808,165296.7964413,97
1658845943.27808,165296.7964457,47
1658845943.27808,165296.7964502,-11
1658845943.88833,165296.7964547,-64
1658845943.88833,165296.7964585,-95
1658845943.88833,165296.7964629,-116
1658845943.88833,165296.7964667,-128
1658845943.88833,165296.7964712,-130
1658845943.88833,165296.796477,-128
1658845943.88833,165296.7964812,-116
1658845943.88833,165296.7964859,-92
1658845943.88833,165296.796492,-83
1658845943.88833,165296.7964957,-83
1658845943.88833,165296.7965014,-76
1658845943.88833,165296.7965075,-68
1658845943.88833,165296.7965113,-59
1658845943.88833,165296.7965158,-47
1658845943.88833,165296.7965205,-38
1658845943.88833,165296.7965269,-40
1658845943.88833,165296.7965312,-47
1658845943.88833,165296.7965363,-47
1658845943.88833,165296.7965397,-38
1658845943.88833,165296.7965433,-42
1658845943.88833,165296.7965472,-45
1658845943.88833,165296.7965525,-38
1658845943.88833,165296.7965688,-38
1658845943.88833,165296.7965722,-38
1658845943.88833,165296.7965926,-26
1658845943.88833,165296.7965992,-21
1658845943.88833,165296.7966039,-21
1658845943.88833,165296.7966089,-14
1658845943.88833,165296.796614,-19
1658845943.88833,165296.7966219,-21
1658845943.88833,165296.7966266,-21
1658845943.88833,165296.7966339,-16
1658845943.88833,165296.7966404,-7
1658845943.88833,165296.7966491,-7
1658845943.88833,165296.7966542,-11
1658845943.88833,165296.7966625,0
1658845943.88833,165296.7966693,14
1658845943.88833,165296.7966908,11
1658845943.88833,165296.7967105,11
1658845943.88833,165296.7967187,21
1658845943.88833,165296.7967251,23
1658845943.88833,165296.7967327,23
1658845943.88833,165296.7967389,33
1658845943.88833,165297.4316183,42
1658845943.88833,165297.43163,40
1658845943.88833,165297.4316327,23
1658845943.88833,165297.4316349,14
1658845943.88833,165297.4316369,30
1658845943.88833,165297.431639,61
1658845943.88833,165297.4316411,73
1658845943.9003,165297.4316431,68
1658845943.9003,165297.4316451,54
1658845943.9003,165297.431647,28
1658845943.9003,165297.431649,11
1658845943.9003,165297.4316509,11
1658845943.9003,165297.4316549,19
1658845943.9003,165297.431666,21
1658845943.9003,165297.4316703,19
1658845943.9003,165297.4316783,28
1658845943.9003,165297.4316906,33
1658845943.9003,165297.4317035,28
1658845943.9003,165297.431711,40
1658845943.9003,165297.4317153,52
1658845943.9003,165297.4317187,45
1658845943.9003,165297.4317208,4
1658845943.9003,165297.4317233,-57
1658845943.9003,165297.4317308,87
1658845943.9003,165297.4317436,743
1658845943.9003,165297.4317537,1687
1658845943.9003,165297.4317664,2278
1658845943.9003,165297.4317743,1908
1658845943.9003,165297.4317769,344
1658845943.9003,165297.4317839,-936
1658845943.9003,165297.4317964,-537
1658845944.42149,165297.4318034,111
1658845944.42149,165297.4318059,-61
1658845944.42149,165297.4318078,-140
1658845944.42149,165297.4318098,30
1658845944.42149,165297.4318118,4
1658845944.42149,165297.4318137,-42
1658845944.42149,165297.4318157,28
1658845944.42149,165297.4318255,47
1658845944.42149,165297.4318308,26
1658845944.42149,165297.4318361,59
1658845944.42149,165297.4318413,92
1658845944.42149,165297.4318461,92
1658845944.42149,165297.4318499,109
1658845944.42149,165297.4318552,133
1658845944.42149,165297.4318649,140
1658845944.42149,165297.4318828,161
1658845944.42149,165297.4319051,190
1658845944.42149,165297.4319113,201
1658845944.42149,165297.4319185,218
1658845944.42149,165297.4319247,240
1658845944.42149,165297.4319325,240
1658845944.42149,165297.4319401,225
1658845944.42149,165297.4319481,213
1658845944.42149,165297.4319543,197
1658845944.42149,165297.4319626,171
1658845944.42149,165297.4319676,140
1658845944.42149,165297.4319785,104
1658845944.42149,165297.4319881,57
1658845944.42149,165297.4320017,7
1658845944.42149,165297.4320148,-38
1658845944.42149,165297.4320284,-76
1658845944.42149,165297.4320412,-104
1658845944.42149,165297.4320545,-123
1658845944.42149,165297.4320674,-133
1658845944.42149,165297.4320807,-133
1658845944.42149,165297.4320894,-123
1658845944.42149,165297.4320922,-106
1658845944.42149,165297.4320944,-95
1658845944.42149,165297.4320965,-92
1658845944.42149,165297.4320985,-87
1658845944.42149,165297.4321005,-80
1658845944.42149,165297.4321026,-71
1658845944.42149,165297.9671973,-66
1658845944.42149,165297.9672156,-59
1658845944.42149,165297.9672226,-52
1658845944.42149,165297.9672287,-47
1658845944.42149,165297.9672327,-42
1658845944.42149,165297.9672384,-35
1658845944.42149,165297.9672426,-35
1658845944.42149,165297.9672484,-38
1658845944.45142,165297.9672525,-38
1658845944.45142,165297.9672583,-30
1658845944.45142,165297.9672625,-26
1658845944.45142,165297.9672664,-21
1658845944.45142,165297.9672704,-19
1658845944.45142,165297.9672744,-23
1658845944.45142,165297.9672791,-28
1658845944.45142,165297.9672831,-23
1658845944.45142,165297.9672869,-14
1658845944.45142,165297.9672899,-7
1658845944.45142,165297.9672928,-4
1658845944.45142,165297.9672981,-11
1658845944.45142,165297.9673031,-26
1658845944.45142,165297.9673076,-23
1658845944.45142,165297.9673114,-14
1658845944.45142,165297.9673143,-7
1658845944.45142,165297.9673172,0
1658845944.45142,165297.96732,0
1658845944.45142,165297.9673231,-11
1658845944.45142,165297.967326,-14
1658845944.45142,165297.9673288,-2
1658845944.45142,165297.9673318,0
1658845944.45142,165297.9673346,-2
1658845944.45142,165297.9673376,2
1658845944.953,165297.9673418,7
1658845944.953,165297.9673486,4
1658845944.953,165297.9673585,11
1658845944.953,165297.9673656,21
1658845944.953,165297.9673722,26
1658845944.953,165297.9673786,16
1658845944.953,165297.9673849,7
1658845944.953,165297.9673913,21
1658845944.953,165297.9673979,64
1658845944.953,165297.9674045,97
1658845944.953,165297.9674109,106
1658845944.953,165297.9674156,80
1658845944.953,165297.9674214,42
1658845944.953,165297.9674275,30
1658845944.953,165297.9674332,47
1658845944.953,165297.9674383,54
1658845944.953,165297.9674432,49
1658845944.953,165297.9674487,52
1658845944.953,165297.967463,57
1658845944.953,165297.9674756,54
1658845944.953,165297.9674831,59
1658845944.953,165297.9674941,68
1658845944.953,165297.9675038,73
1658845944.953,165297.9675135,73
1658845944.953,165297.9675193,49
1658845944.953,165297.9675255,-38
1658845944.953,165297.9675288,-16
1658845944.953,165297.9675348,513
1658845944.953,165297.9675412,1494
1658845944.953,165297.9675468,2259
1658845944.953,165297.9675523,2236
1658845944.953,165297.9676041,981
1658845944.953,165297.9676134,-639
1658845944.953,165297.9676189,-724
1658845944.953,165297.9676233,95
1658845944.953,165297.9676299,85
1658845944.953,165297.9676368,-187
1658845944.953,165297.9676413,-38
1658845944.953,165297.9676444,26
1658845944.953,165297.9676471,-61
1658845944.953,165297.9676498,-19
1658845944.953,165298.5033029,33
1658845944.953,165298.5033194,14
1658845944.953,165298.5033237,33
1658845944.953,165298.5033282,71
1658845944.953,165298.5033318,73
1658845944.953,165298.5033353,85
1658845944.953,165298.5033397,106
1658845944.953,165298.5033436,118
1658845944.953,165298.503348,133
1658845944.97693,165298.5033518,152
1658845944.97693,165298.503428,152
1658845944.97693,165298.5034331,156
1658845944.97693,165298.5034368,182
1658845944.97693,165298.5034406,199
1658845944.97693,165298.5034466,199
1658845944.97693,165298.5034504,194
1658845944.97693,165298.5034567,173
1658845944.97693,165298.5034633,142
1658845944.97693,165298.5034694,121
1658845944.97693,165298.5034745,102
1658845944.97693,165298.5034787,54
1658845944.97693,165298.5034824,0
1658845944.97693,165298.5034863,-45
1658845944.97693,165298.5034919,-85
1658845944.97693,165298.5034957,-116
1658845944.97693,165298.5034996,-135
1658845944.97693,165298.5035062,-144
1658845944.97693,165298.5035112,-147
1658845944.97693,165298.5035167,-142
1658845944.97693,165298.5035229,-133
1658845944.97693,165298.5035283,-118
1658845944.97693,165298.5035321,-99
1658845944.97693,165298.5035359,-90
1658845945.60178,165298.5035395,-78
1658845945.60178,165298.5035426,-64
1658845945.60178,165298.5035457,-59
1658845945.60178,165298.5035488,-66
1658845945.60178,165298.5035517,-61
1658845945.60178,165298.5035546,-49
1658845945.60178,165298.5035575,-45
1658845945.60178,165298.5035604,-42
1658845945.60178,165298.5035646,-42
1658845945.60178,165298.5035674,-45
1658845945.60178,165298.50357,-40
1658845945.60178,165298.5035725,-30
1658845945.60178,165298.5035752,-23
1658845945.60178,165298.5035778,-23
1658845945.60178,165298.5035804,-23
1658845945.60178,165298.503583,-21
1658845945.60178,165298.5035856,-14
1658845945.60178,165298.5035882,-11
1658845945.60178,165298.5035908,-9
1658845945.60178,165298.5035934,-4
1658845945.60178,165298.503596,-7
1658845945.60178,165298.5035987,-11
1658845945.60178,165298.5036012,-7
1658845945.60178,165298.5036038,2
1658845945.60178,165298.5036064,14
1658845945.60178,165298.503609,26
1658845945.60178,165298.5036116,28
1658845945.60178,165298.5036142,21
1658845945.60178,165298.5036169,19
1658845945.60178,165298.5036194,30
1658845945.60178,165298.503622,35
1658845945.60178,165298.5036245,35
1658845945.60178,165298.5036271,42
1658845945.60178,165298.5036296,49
1658845945.60178,165298.5036323,47
1658845945.60178,165298.5036355,54
1658845945.60178,165298.5036381,66
1658845945.60178,165298.5036407,59
1658845945.60178,165298.5036432,49
1658845945.60178,165298.5036461,52
1658845945.60178,165299.1374126,52
1658845945.60178,165299.1374311,61
1658845945.60178,165299.1374461,97
1658845945.60178,165299.1374593,128
1658845945.60178,165299.1374724,142
1658845945.60178,165299.1374855,130
1658845945.60178,165299.1374983,85
1658845945.60178,165299.1375077,52
1658845945.60178,165299.1375103,57
1658845945.60178,165299.1375125,68
1658845945.62372,165299.1375154,71
1658845945.62372,165299.1375175,68
1658845945.62372,165299.1375196,57
1658845945.62372,165299.1375216,42
1658845945.62372,165299.1375236,42
1658845945.62372,165299.1375262,57
1658845945.62372,165299.1375339,61
1658845945.62372,165299.1375445,52
1658845945.62372,165299.1375492,33
1658845945.62372,165299.1375514,-35
1658845945.62372,165299.1375544,-35
1658845945.62372,165299.1375572,411
1658845945.62372,165299.1375671,1337
1658845945.62372,165299.1375759,2176
1658845945.62372,165299.1375785,2319
1658845945.62372,165299.1375805,1214
1658845945.62372,165299.1375827,-525
1658845945.62372,165299.1375848,-881
1658845945.62372,165299.1375912,-47
1658845945.62372,165299.1376023,83
1658845945.62372,165299.1376123,-204
1658845945.62372,165299.1376209,-76
1658845945.62372,165299.1376336,16
1658845945.62372,165299.137647,-80
1658845946.09097,165299.1376593,-49
1658845946.09097,165299.1376673,21
1658845946.09097,165299.1376744,9
1658845946.09097,165299.137681,16
1658845946.09097,165299.1376884,57
1658845946.09097,165299.1376973,66
1658845946.09097,165299.1377093,64
1658845946.09097,165299.1377224,80
1658845946.09097,165299.1377482,106
1658845946.09097,165299.1377765,133
1658845946.09097,165299.1377897,142
1658845946.09097,165299.1378029,149
1658845946.09097,165299.1378288,180
1658845946.09097,165299.1378588,213
1658845946.09097,165299.1378729,220
1658845946.09097,165299.1378779,209
1658845946.09097,165299.1378827,201
1658845946.09097,165299.1378873,206
1658845946.09097,165299.1378947,206
1658845946.09097,165299.1378982,185
1658845946.09097,165299.1379014,159
1658845946.09097,165299.1379046,128
1658845946.09097,165299.1379083,85
1658845946.09097,165299.137912,28
1658845946.09097,165299.1379171,-28
1658845946.09097,165299.1379211,-66
1658845946.09097,165299.1379251,-85
1658845946.09097,165299.1379288,-99
1658845946.09097,165299.1379325,-104
1658845946.09097,165299.137936,-95
1658845946.09097,165299.1379396,-87
1658845946.09097,165299.1379432,-80
1658845946.09097,165299.1379489,-76
1658845946.09097,165299.1379525,-64
1658845946.09097,165299.1379562,-49
1658845946.09097,165299.1379601,-40
1658845946.09097,165299.1379655,-26
1658845946.09097,165299.1379693,-19
1658845946.09097,165299.1379748,-28
1658845946.09097,165299.624493,-26
1658845946.09097,165299.6245353,-11
1658845946.09097,165299.624541,-11
1658845946.09097,165299.6245445,-23
1658845946.09097,165299.6245495,-23
1658845946.09097,165299.6245528,-21
1658845946.09097,165299.6245562,-19
1658845946.09097,165299.6245608,-14
1658845946.09097,165299.6245643,-14
1658845946.09097,165299.6245692,-23
1658845946.09097,165299.6245739,-38
1658845946.11292,165299.6245787,-38
1658845946.11292,165299.624582,-23
1658845946.11292,165299.6245866,-14
1658845946.11292,165299.6245905,-11
1658845946.11292,165299.6245951,-11
1658845946.11292,165299.624599,-16
1658845946.11292,165299.6246036,-16
1658845946.11292,165299.6246082,-7
1658845946.11292,165299.6246129,0
1658845946.11292,165299.6246163,-2
1658845946.11292,165299.6246196,-2
1658845946.11292,165299.6246243,7
1658845946.11292,165299.6246277,4
1658845946.11292,165299.6246323,-4
1658845946.11292,165299.6246373,0
1658845946.11292,165299.6246424,16
1658845946.11292,165299.6246457,16
1658845946.11292,165299.6246504,0
1658845946.11292,165299.6246555,-2
1658845946.11292,165299.6246601,35
1658845946.11292,165299.6246634,73
1658845946.11292,165299.6246668,78
1658845946.11292,165299.6246714,61
1658845946.11292,165299.6246753,42
1658845946.66546,165299.6246787,28
1658845946.66546,165299.624682,23
1658845946.66546,165299.6246853,23
1658845946.66546,165299.6246885,30
1658845946.66546,165299.6246917,45
1658845946.66546,165299.624695,47
1658845946.66546,165299.6246982,40
1658845946.66546,165299.6247014,45
1658845946.66546,165299.6247046,59
1658845946.66546,165299.6247079,64
1658845946.66546,165299.6247112,59
1658845946.66546,165299.6247145,45
1658845946.66546,165299.6247179,-11
1658845946.66546,165299.6247213,-28
1658845946.66546,165299.6247247,342
1658845946.66546,165299.6247296,1219
1658845946.66546,165299.6247329,2088
1658845946.66546,165299.6247363,2302
1658845946.66546,165299.6247399,1287
1658845946.66546,165299.6247434,-463
1658845946.66546,165299.6247611,-969
1658845946.66546,165299.6247655,-156
1658845946.66546,165299.6247831,92
1658845946.66546,165299.6247866,-156
1658845946.66546,165299.6247915,-49
1658845946.66546,165299.6247956,47
1658845946.66546,165299.6248003,-35
1658845946.66546,165299.6248036,-14
1658845946.66546,165299.6248084,47
1658845946.66546,165299.6248127,38
1658845946.66546,165299.6248176,35
1658845946.66546,165299.6248215,57
1658845946.66546,165299.6248263,66
1658845946.66546,165299.6248432,76
1658845946.66546,165299.6248477,106
1658845946.66546,165299.6248658,128
1658845946.66546,165299.6248698,135
1658845946.66546,165299.6248732,161
1658845946.66546,165300.2086668,194
1658845946.66546,165300.2086845,209
1658845946.66546,165300.2086915,213
1658845946.66546,165300.2086982,223
1658845946.66546,165300.2087232,230
1658845946.66546,165300.2087322,218
1658845946.66546,165300.2087394,190
1658845946.66546,165300.2087461,161
1658845946.66546,165300.2087491,133
1658845946.66546,165300.2087522,106
1658845946.66546,165300.2087571,66
1658845946.66546,165300.2087644,11
1658845946.68641,165300.2087695,-38
1658845946.68641,165300.2087768,-85
1658845946.68641,165300.2087841,-128
1658845946.68641,165300.2087912,-163
1658845946.68641,165300.2087972,-182
1658845946.68641,165300.208806,-178
1658845946.68641,165300.2088103,-173
1658845946.68641,165300.2088166,-173
1658845946.68641,165300.2088196,-163
1658845946.68641,165300.2088232,-147
1658845946.68641,165300.2088367,-130
1658845946.68641,165300.20885,-118
1658845946.68641,165300.2088629,-106
1658845946.68641,165300.2088762,-95
1658845946.68641,165300.2088887,-87
1658845946.68641,165300.208901,-90
1658845946.68641,165300.208928,-87
1658845946.68641,165300.2089445,-76
1658845946.68641,165300.2089578,-66
1658845946.68641,165300.2089709,-66
1658845946.68641,165300.2089834,-68
1658845946.68641,165300.2089941,-64
1658845946.68641,165300.2090027,-64
1658845946.68641,165300.209015,-61
1658845947.2438,165300.2090258,-54
1658845947.2438,165300.2090327,-47
1658845947.2438,165300.2090425,-47
1658845947.2438,165300.2090487,-47
1658845947.2438,165300.2090548,-42
1658845947.2438,165300.2090612,-38
1658845947.2438,165300.2090676,-35
1658845947.2438,165300.2090763,-26
1658845947.2438,165300.2090844,-19
1658845947.2438,165300.2090876,-19
1658845947.2438,165300.2090899,-21
1658845947.2438,165300.2090919,-16
1658845947.2438,165300.2090939,-9
1658845947.2438,165300.2090961,0
1658845947.2438,165300.2090982,2
1658845947.2438,165300.2091003,0
1658845947.2438,165300.2091024,-4
1658845947.2438,165300.2091044,-9
1658845947.2438,165300.2091065,-4
1658845947.2438,165300.2091085,14
1658845947.2438,165300.2091105,47
1658845947.2438,165300.2091126,76
1658845947.2438,165300.2091145,76
1658845947.2438,165300.2091165,42
1658845947.2438,165300.2091185,21
1658845947.2438,165300.2091205,23
1658845947.2438,165300.2091225,33
1658845947.2438,165300.2091245,28
1658845947.2438,165300.2091264,23
1658845947.2438,165300.2091285,30
1658845947.2438,165300.2091305,35
1658845947.2438,165300.2091324,35
1658845947.2438,165300.2091344,40
1658845947.2438,165300.2091365,45
1658845947.2438,165300.2091385,42
1658845947.2438,165300.2091406,42
1658845947.2438,165300.2091426,30
1658845947.2438,165300.7940957,-35
1658845947.2438,165300.7941217,-59
1658845947.2438,165300.7941306,346
1658845947.2438,165300.7941385,1278
1658845947.2438,165300.7941452,2143
1658845947.2438,165300.7941518,2286
1658845947.2438,165300.7941601,1202
1658845947.2438,165300.7941673,-541
1658845947.2438,165300.794172,-952
1658845947.2438,165300.7941768,-106
1658845947.2438,165300.7941815,71
1658845947.2438,165300.7941864,-240
1658845947.2438,165300.7941924,-135
1658845947.25277,165300.7941981,-19
1658845947.25277,165300.7942051,-102
1658845947.25277,165300.7942124,-83
1658845947.25277,165300.7942195,-14
1658845947.25277,165300.7942257,-26
1658845947.25277,165300.7942329,-30
1658845947.25277,165300.7942398,7
1658845947.25277,165300.7942469,26
1658845947.25277,165300.794253,35
1658845947.25277,165300.7942584,57
1658845947.25277,165300.7942656,76
1658845947.25277,165300.7942781,92
1658845947.25277,165300.7942853,116
1658845947.25277,165300.7942916,142
1658845947.25277,165300.7942957,163
1658845947.25277,165300.7943022,180
1658845947.25277,165300.7943061,192
1658845947.25277,165300.7943121,197
1658845947.25277,165300.7943151,194
1658845947.25277,165300.7943181,182
1658845947.25277,165300.7943211,161
1658845947.25277,165300.7943241,133
1658845947.25277,165300.794327,104
1658845947.25277,165300.7943299,64
1658845947.89778,165300.7943332,16
1658845947.89778,165300.7943392,-26
1658845947.89778,165300.7943462,-64
1658845947.89778,165300.794353,-95
1658845947.89778,165300.7943596,-114
1658845947.89778,165300.7943668,-133
1658845947.89778,165300.7943733,-142
1658845947.89778,165300.794383,-135
1658845947.89778,165300.79439,-130
1658845947.89778,165300.7943953,-121
1658845947.89778,165300.7944006,-104
1658845947.89778,165300.7944049,-90
1658845947.89778,165300.7944107,-87
1658845947.89778,165300.7944185,-83
1658845947.89778,165300.7944262,-71
1658845947.89778,165300.7944361,-61
1658845947.89778,165300.7944408,-57
1658845947.89778,165300.7944449,-54
1658845947.89778,165300.7944499,-49
1658845947.89778,165300.7944576,-45
1658845947.89778,165300.7944641,-42
1658845947.89778,165300.7944697,-42
1658845947.89778,165300.7944739,-40
1658845947.89778,165300.7944814,-35
1658845947.89778,165300.7944885,-35
1658845947.89778,165300.7944951,-35
1658845947.89778,165300.7945011,-33
1658845947.89778,165300.7945073,-26
1658845947.89778,165300.7945128,-19
1658845947.89778,165300.7945193,-16
1658845947.89778,165300.7945232,-14
1658845947.89778,165300.7945272,-14
1658845947.89778,165300.7945327,-9
1658845947.89778,165300.7945407,-2
1658845947.89778,165300.7945491,2
1658845947.89778,165300.7945536,-2
1658845947.89778,165301.4284446,-4
1658845947.89778,165301.4284671,-4
1658845947.89778,165301.4284742,-4
1658845947.89778,165301.4284803,0
1658845947.89778,165301.4284863,7
1658845947.89778,165301.4284922,11
1658845947.89778,165301.4284966,16
1658845947.89778,165301.4285008,19
1658845947.89778,165301.4285056,19
1658845947.89778,165301.4285121,11
1658845947.89778,165301.4285207,7
1658845947.89778,165301.4285289,11
1658845947.89778,165301.4285385,7
1658845947.89778,165301.4285456,-4
1658845947.92171,165301.4285506,14
1658845947.92171,165301.4285558,61
1658845947.92171,165301.428561,85
1658845947.92171,165301.4285661,73
1658845947.92171,165301.4285711,42
1658845947.92171,165301.4285761,7
1658845947.92171,165301.428581,-7
1658845947.92171,165301.4285858,7
1658845947.92171,165301.4285904,23
1658845947.92171,165301.4285949,30
1658845947.92171,165301.4285996,40
1658845947.92171,165301.4286043,33
1658845947.92171,165301.428609,23
1658845947.92171,165301.428614,33
1658845947.92171,165301.4286192,42
1658845947.92171,165301.428624,42
1658845947.92171,165301.4286294,49
1658845947.92171,165301.4286344,40
1658845947.92171,165301.428639,-28
1658845947.92171,165301.4286436,-14
1658845947.92171,165301.4286478,446
1658845947.92171,165301.4286519,1385
1658845947.92171,165301.4286564,2247
1658845947.92171,165301.4286604,2362
1658845948.3208,165301.4286651,1150
1658845948.3208,165301.4286742,-603
1658845948.3208,165301.4286785,-874
1658845948.3208,165301.4286827,-38
1658845948.3208,165301.4286868,71
1658845948.3208,165301.4286906,-178
1658845948.3208,165301.4286945,-42
1658845948.3208,165301.4286985,26
1658845948.3208,165301.4287033,-64
1658845948.3208,165301.4287085,-26
1658845948.3208,165301.4287132,42
1658845948.3208,165301.4287176,30
1658845948.3208,165301.4287218,33
1658845948.3208,165301.4287261,61
1658845948.3208,165301.4287311,78
1658845948.3208,165301.4287354,99
1658845948.3208,165301.4287398,128
1658845948.3208,165301.428744,142
1658845948.3208,165301.428748,154
1658845948.3208,165301.4287521,178
1658845948.3208,165301.428756,201
1658845948.3208,165301.42876,220
1658845948.3208,165301.4287681,244
1658845948.3208,165301.4287754,259
1658845948.3208,165301.4287806,261
1658845948.3208,165301.4287874,254
1658845948.3208,165301.4287942,242
1658845948.3208,165301.428801,228
1658845948.3208,165301.4288077,206
1658845948.3208,165301.4288132,173
1658845948.3208,165301.4288185,133
1658845948.3208,165301.4288241,78
1658845948.3208,165301.4288667,23
1658845948.3208,165301.4288869,-26
1658845948.3208,165301.4288926,-85
1658845948.3208,165301.8667893,-116
1658845948.3208,165301.8668306,-114
1658845948.3208,165301.8668363,-133
1658845948.3208,165301.8668484,-149
1658845948.3208,165301.8668547,-130
1658845948.3208,165301.8668656,-106
1658845948.3208,165301.8669188,-92
1658845948.3208,165301.8669261,-85
1658845948.3208,165301.8669299,-83
1658845948.3208,165301.8669338,-78
1658845948.3208,165301.8669395,-78
1658845948.3208,165301.8669461,-78
1658845948.3208,165301.8669497,-68
1658845948.3208,165301.8669547,-57
1658845948.3208,165301.866958,-54
1658845948.34174,165301.8669615,-57
1658845948.34174,165301.8669649,-57
1658845948.34174,165301.8669685,-49
1658845948.34174,165301.8669751,-40
1658845948.34174,165301.8669814,-38
1658845948.34174,165301.8669844,-45
1658845948.34174,165301.8669874,-45
1658845948.34174,165301.8669902,-38
1658845948.34174,165301.866993,-45
1658845948.34174,165301.8669959,-45
1658845948.34174,165301.8669988,-45
1658845948.34174,165301.8670016,-40
1658845948.34174,165301.8670045,-21
1658845948.34174,165301.8670073,-11
1658845948.34174,165301.8670101,-16
1658845948.34174,165301.8670132,-21
1658845948.34174,165301.867016,-21
1658845948.34174,165301.8670188,-14
1658845948.34174,165301.8670216,-2
1658845948.34174,165301.8670244,-2
1658845948.34174,165301.8670273,9
1658845948.34174,165301.8670301,26
1658845948.34174,165301.867033,11
1658845948.34174,165301.8670359,-7
1658845948.95305,165301.8670398,11
1658845948.95305,165301.8670465,30
1658845948.95305,165301.8670534,47
1658845948.95305,165301.8670603,80
1658845948.95305,165301.8670661,99
1658845948.95305,165301.8670707,83
1658845948.95305,165301.8670764,66
1658845948.95305,165301.8670795,66
1658845948.95305,165301.8670856,68
1658845948.95305,165301.8670917,73
1658845948.95305,165301.8670979,73
1658845948.95305,165301.8671063,73
1658845948.95305,165301.8671177,80
1658845948.95305,165301.8671294,90
1658845948.95305,165301.8671424,95
1658845948.95305,165301.8671552,97
1658845948.95305,165301.8671648,92
1658845948.95305,165301.8671707,90
1658845948.95305,165301.8671831,104
1658845948.95305,165301.8671932,90
1658845948.95305,165301.8672018,-4
1658845948.95305,165301.8672143,28
1658845948.95305,165301.8672244,591
1658845948.95305,165301.8672323,1587
1658845948.95305,165301.8672396,2359
1658845948.95305,165301.8672509,2278
1658845948.95305,165301.8672614,867
1658845948.95305,165301.8672686,-798
1658845948.95305,165301.8672798,-786
1658845948.95305,165301.8672897,40
1658845948.95305,165301.867298,33
1658845948.95305,165301.8673099,-152
1658845948.95305,165301.8673191,11
1658845948.95305,165301.8673254,38
1658845948.95305,165302.5006929,-26
1658845948.95305,165302.5007071,28
1658845948.95305,165302.5007126,61
1658845948.95305,165302.5007162,49
1658845948.95305,165302.5007197,80
1658845948.95305,165302.5007231,114
1658845948.95305,165302.5007266,104
1658845948.95305,165302.50073,106
1658845948.95305,165302.5007335,137
1658845948.95305,165302.5007369,168
1658845948.95305,165302.5007403,185
1658845948.95305,165302.5007436,206
1658845948.95305,165302.5007469,232
1658845948.95305,165302.5007503,240
1658845948.95305,165302.5007537,240
1658845948.95305,165302.5007571,259
1658845948.96601,165302.5007605,273
1658845948.96601,165302.5007638,263
1658845948.96601,165302.5007673,249
1658845948.96601,165302.5007707,232
1658845948.96601,165302.5007741,194
1658845948.96601,165302.5007775,156
1658845948.96601,165302.5007809,116
1658845948.96601,165302.5007842,59
1658845948.96601,165302.5007875,2
1658845948.96601,165302.5007909,-40
1658845948.96601,165302.5007943,-76
1658845948.96601,165302.5007977,-95
1658845948.96601,165302.5008012,-106
1658845948.96601,165302.5008051,-109
1658845948.96601,165302.5008085,-99
1658845948.96601,165302.5008118,-92
1658845948.96601,165302.5008152,-92
1658845948.96601,165302.5008185,-80
1658845948.96601,165302.5008219,-68
1658845948.96601,165302.5008253,-66
1658845948.96601,165302.5008286,-59
1658845948.96601,165302.500832,-47
1658845948.96601,165302.5008353,-42
1658845948.96601,165302.5008387,-40
1658845949.4523,165302.5008421,-33
1658845949.4523,165302.5008455,-23
1658845949.4523,165302.5008489,-21
1658845949.4523,165302.5008522,-21
1658845949.4523,165302.5008556,-19
1658845949.4523,165302.500859,-23
1658845949.4523,165302.5008624,-26
1658845949.4523,165302.5008658,-23
1658845949.4523,165302.5008692,-19
1658845949.4523,165302.5008725,-9
1658845949.4523,165302.5008759,-4
1658845949.4523,165302.5008792,-16
1658845949.4523,165302.5008827,-28
1658845949.4523,165302.5008861,-19
1658845949.4523,165302.5008895,-4
1658845949.4523,165302.5008929,-9
1658845949.4523,165302.5008963,-9
1658845949.4523,165302.5008997,-2
1658845949.4523,165302.5009031,0
1658845949.4523,165302.5009064,9
1658845949.4523,165302.5009099,16
1658845949.4523,165302.5009133,7
1658845949.4523,165302.5009167,2
1658845949.4523,165302.50092,11
1658845949.4523,165302.5009234,23
1658845949.4523,165302.5009267,16
1658845949.4523,165302.5009302,2
1658845949.4523,165302.5009336,7
1658845949.4523,165302.5009369,42
1658845949.4523,165302.5009402,80
1658845949.4523,165302.5009436,95
1658845949.4523,165302.500947,85
1658845949.4523,165302.5009503,64
1658845949.4523,165302.989973,59
1658845949.4523,165302.9899916,64
1658845949.4523,165302.9900023,59
1658845949.4523,165302.9900106,59
1658845949.4523,165302.9900221,66
1658845949.4523,165302.9900331,64
1658845949.4523,165302.9900422,61

1658845949.4523,165302.9900518,71
1658845949.4523,165302.9900581,76
1658845949.4523,165302.9900604,71
1658845949.4523,165302.9900625,57
1658845949.4523,165302.9900645,49
1658845949.4523,165302.9900665,49
1658845949.4523,165302.9900687,-19
1658845949.4523,165302.9900707,-68
1658845949.4523,165302.9900728,301
1658845949.4523,165302.9900748,1240
1658845949.47324,165302.9900768,2183
1658845949.47324,165302.9900795,2468
1658845949.47324,165302.9900897,1542
1658845949.47324,165302.9900978,-270
1658845949.47324,165302.9901003,-957
1658845949.47324,165302.9901025,-173
1658845949.47324,165302.9901046,102
1658845949.47324,165302.9901072,-216
1658845949.47324,165302.9901172,-128
1658845949.47324,165302.9901252,9
1658845949.47324,165302.9901278,-78
1658845949.47324,165302.9901299,-71
1658845949.47324,165302.990132,2
1658845949.47324,165302.9901348,0
1658845949.47324,165302.9901452,0
1658845949.47324,165302.9901532,38
1658845949.47324,165302.9901556,64
1658845949.47324,165302.9901577,73
1658845949.47324,165302.9901597,92
1658845949.47324,165302.9901663,114
1658845949.47324,165302.9901771,133
1658845949.47324,165302.9901818,152
1658845949.47324,165302.9901839,180
1658845949.47324,165302.9901865,206
1658845950.02991,165302.990194,225
1658845950.02991,165302.9902028,237
1658845950.02991,165302.9902057,235
1658845950.02991,165302.9902078,218
1658845950.02991,165302.9902097,209
1658845950.02991,165302.9902116,201
1658845950.02991,165302.9902137,178
1658845950.02991,165302.9902221,135
1658845950.02991,165302.9902315,85
1658845950.02991,165302.9902368,40
1658845950.02991,165302.9902396,-4
1658845950.02991,165302.9902417,-57
1658845950.02991,165302.9902438,-92
1658845950.02991,165302.9902459,-109
1658845950.02991,165302.9902479,-123
1658845950.02991,165302.99025,-128
1658845950.02991,165302.990252,-118
1658845950.02991,165302.990254,-114
1658845950.02991,165302.990256,-111
1658845950.02991,165302.9902581,-104
1658845950.02991,165302.9902601,-95
1658845950.02991,165302.9902621,-90
1658845950.02991,165302.9902642,-78
1658845950.02991,165302.9902662,-66
1658845950.02991,165302.9902683,-66
1658845950.02991,165302.9902703,-71
1658845950.02991,165302.9902723,-66
1658845950.02991,165302.9902744,-59
1658845950.02991,165302.9902764,-59
1658845950.02991,165302.9902784,-57
1658845950.02991,165302.9902804,-54
1658845950.02991,165302.9902825,-54
1658845950.02991,165303.5732421,-52
1658845950.02991,165303.5732545,-47
1658845950.02991,165303.5732582,-45
1658845950.02991,165303.5732608,-42
1658845950.02991,165303.573263,-42
1658845950.02991,165303.573265,-49
1658845950.02991,165303.5732671,-61
1658845950.02991,165303.573269,-68
1658845950.02991,165303.5732711,-66
1658845950.02991,165303.5732731,-59
1658845950.02991,165303.573275,-57
1658845950.02991,165303.5732771,-47
1658845950.02991,165303.5732802,-42
1658845950.02991,165303.5732871,-49
1658845950.02991,165303.5732951,-52
1658845950.02991,165303.573301,-42
1658845950.02991,165303.5733116,-38
1658845950.02991,165303.5733165,-35
1658845950.05185,165303.5733204,-30
1658845950.05185,165303.5733238,-38
1658845950.05185,165303.5733258,-54
1658845950.05185,165303.5733278,-57
1658845950.05185,165303.5733302,-47
1658845950.05185,165303.5733322,-40
1658845950.05185,165303.5733342,-35
1658845950.05185,165303.5733363,-26
1658845950.05185,165303.5733383,-16
1658845950.05185,165303.5733403,-14
1658845950.05185,165303.5733424,-16
1658845950.05185,165303.5733444,-11
1658845950.05185,165303.5733464,-4
1658845950.05185,165303.5733484,0
1658845950.05185,165303.5733505,4
1658845950.05185,165303.5733525,7
1658845950.05185,165303.5733546,4
1658845950.05185,165303.5733567,0
1658845950.05185,165303.5733586,-7
1658845950.05185,165303.5733605,-7
1658845950.05185,165303.5733624,19
1658845950.05185,165303.5733643,52
1658845950.05185,165303.5733663,61
1658845950.05185,165303.5733682,47
1658845950.67733,165303.5733701,30
1658845950.67733,165303.5733721,26
1658845950.67733,165303.5733741,26
1658845950.67733,165303.5733759,16
1658845950.67733,165303.5733778,11
1658845950.67733,165303.5733797,26
1658845950.67733,165303.5733946,35
1658845950.67733,165303.5733965,30
1658845950.67733,165303.5733983,28
1658845950.67733,165303.5734002,38
1658845950.67733,165303.573402,38
1658845950.67733,165303.5734208,38
1658845950.67733,165303.5734227,40
1658845950.67733,165303.5734246,9
1658845950.67733,165303.5734265,-66
1658845950.67733,165303.5734284,16
1658845950.67733,165303.5734303,608
1658845950.67733,165303.5734321,1570
1658845950.67733,165303.5734341,2259
1658845950.67733,165303.5734361,2012
1658845950.67733,165303.573438,496
1658845950.67733,165303.5734399,-941
1658845950.67733,165303.5734418,-686
1658845950.67733,165303.5734437,57
1658845950.67733,165303.5734456,-38
1658845950.67733,165303.5734614,-168
1658845950.67733,165303.5734632,7
1658845950.67733,165303.573465,4
1658845950.67733,165303.5734669,-71
1658845950.67733,165303.5734688,-11
1658845950.67733,165303.5734858,28
1658845950.67733,165304.2078175,7
1658845950.67733,165304.2078475,21
1658845950.67733,165304.207855,54
1658845950.67733,165304.2078694,57
1658845950.67733,165304.2078799,61
1658845950.67733,165304.2078838,92
1658845950.67733,165304.2078879,121
1658845950.67733,165304.2078901,137
1658845950.67733,165304.2078922,159
1658845950.67733,165304.2078942,175
1658845950.67733,165304.2078962,178
1658845950.67733,165304.2078982,187
1658845950.67733,165304.2079003,209
1658845950.67733,165304.2079023,211
1658845950.67733,165304.2079043,204
1658845950.67733,165304.2079064,192
1658845950.67733,165304.2079084,168
1658845950.67733,165304.2079104,133
1658845950.67733,165304.2079124,97
1658845950.69928,165304.2079144,66
1658845950.69928,165304.2079164,28
1658845950.69928,165304.2079184,-19
1658845950.69928,165304.2079204,-66
1658845950.69928,165304.2079225,-97
1658845950.69928,165304.2079244,-118
1658845950.69928,165304.2079266,-135
1658845950.69928,165304.2079286,-144
1658845950.69928,165304.2079306,-142
1658845950.69928,165304.2079327,-142
1658845950.69928,165304.2079347,-149
1658845950.69928,165304.2079367,-147
1658845950.69928,165304.2079388,-130
1658845950.69928,165304.2079408,-118
1658845950.69928,165304.2079429,-106
1658845950.69928,165304.2079448,-87
1658845950.69928,165304.2079469,-83
1658845950.69928,165304.2079489,-85
1658845950.69928,165304.2079509,-73
1658845950.69928,165304.207953,-59
1658845950.69928,165304.2079559,-61
1658845950.69928,165304.2079584,-66
1658845950.69928,165304.2079604,-64
1658845950.69928,165304.2079624,-59
1658845951.21032,165304.2079645,-49
1658845951.21032,165304.2079665,-52
1658845951.21032,165304.2079683,-57
1658845951.21032,165304.2079702,-42
1658845951.21032,165304.2079721,-30
1658845951.21032,165304.207974,-30
1658845951.21032,165304.2079758,-28
1658845951.21032,165304.2079779,-23
1658845951.21032,165304.207981,-23
1658845951.21032,165304.2079878,-16
1658845951.21032,165304.2079947,-4
1658845951.21032,165304.2080006,-4
1658845951.21032,165304.2080076,0
1658845951.21032,165304.2080151,4
1658845951.21032,165304.2080191,0
1658845951.21032,165304.2080232,2
1658845951.21032,165304.2080289,21
1658845951.21032,165304.208046,33
1658845951.21032,165304.2080515,30
1658845951.21032,165304.2080694,23
1658845951.21032,165304.2080752,16
1658845951.21032,165304.2080806,23
1658845951.21032,165304.2080867,30
1658845951.21032,165304.2080911,38
1658845951.21032,165304.2081084,42
1658845951.21032,165304.2081128,45
1658845951.21032,165304.2081305,49
1658845951.21032,165304.208135,57
1658845951.21032,165304.2081396,66
1658845951.21032,165304.2081452,66
1658845951.21032,165304.7433128,49
1658845951.21032,165304.7433296,38
1658845951.21032,165304.7433362,42
1658845951.21032,165304.7433445,68
1658845951.21032,165304.7433486,111
1658845951.21032,165304.7433549,137
1658845951.21032,165304.7433632,123
1658845951.21032,165304.7433713,92
1658845951.21032,165304.7433805,66
1658845951.21032,165304.7433925,64
1658845951.21032,165304.7434057,76
1658845951.21032,165304.7434176,78
1658845951.21032,165304.7434243,64
1658845951.21032,165304.7434294,54
1658845951.21032,165304.7434343,47
1658845951.21032,165304.7434408,30
1658845951.21032,165304.7434473,28
1658845951.21032,165304.7434541,57
1658845951.21032,165304.7434606,71
1658845951.21032,165304.7434673,57
1658845951.23292,165304.7434738,49
1658845951.23292,165304.7434802,-4
1658845951.23292,165304.7434871,-57
1658845951.23292,165304.7434939,237
1658845951.23292,165304.7435004,1038
1658845951.23292,165304.7435091,1991
1658845951.23292,165304.7435152,2464
1658845951.23292,165304.7435227,1680
1658845951.23292,165304.7435304,-180
1658845951.23292,165304.7435392,-1097
1658845951.23292,165304.7435456,-387
1658845951.23292,165304.7435502,59
1658845951.23292,165304.7435564,-185
1658845951.23292,165304.743565,-142
1658845951.23292,165304.743572,4
1658845951.23292,165304.7435793,-59
1658845951.23292,165304.7435883,-68
1658845951.23292,165304.7435949,4
1658845951.23292,165304.7436038,14
1658845951.23292,165304.7436109,-2
1658845951.23292,165304.74362,21
1658845951.23292,165304.7436268,52
1658845951.23292,165304.7436327,73
1658845951.23292,165304.7436399,95
1658845951.78626,165304.7436491,97
1658845951.78626,165304.7436535,99
1658845951.78626,165304.7436575,125
1658845951.78626,165304.7436607,161
1658845951.78626,165304.7436636,180
1658845951.78626,165304.7436666,197
1658845951.78626,165304.7436698,209
1658845951.78626,165304.743673,209
1658845951.78626,165304.7436764,199
1658845951.78626,165304.7436795,182
1658845951.78626,165304.7436826,163
1658845951.78626,165304.743686,144
1658845951.78626,165304.7436892,121
1658845951.78626,165304.7436941,97
1658845951.78626,165304.7436976,64
1658845951.78626,165304.7437008,14
1658845951.78626,165304.7437062,-35
1658845951.78626,165304.7437118,-66
1658845951.78626,165304.7437174,-102
1658845951.78626,165304.743721,-133
1658845951.78626,165304.7437264,-137
1658845951.78626,165304.74373,-137
1658845951.78626,165304.7437334,-133
1658845951.78626,165304.7437387,-118
1658845951.78626,165304.7437422,-109
1658845951.78626,165304.7437467,-99
1658845951.78626,165304.7437516,-85
1658845951.78626,165304.7437549,-73
1658845951.78626,165304.7437583,-71
1658845951.78626,165305.3286264,-71
1658845951.78626,165305.3286474,-54
1658845951.78626,165305.3286617,-45
1658845951.78626,165305.3286759,-54
1658845951.78626,165305.3286889,-59
1658845951.78626,165305.3287037,-45
1658845951.78626,165305.3287161,-45
1658845951.78626,165305.3287273,-54
1658845951.78626,165305.3287348,-54
1658845951.78626,165305.3287426,-45
1658845951.78626,165305.3287497,-49
1658845951.78626,165305.3287565,-59
1658845951.78626,165305.3287604,-54
1658845951.78626,165305.3287673,-49
1658845951.78626,165305.3287806,-59
1658845951.78626,165305.328791,-73
1658845951.78626,165305.3288003,-78
1658845951.78626,165305.3288117,-80
1658845951.78626,165305.3288316,-80
1658845951.78626,165305.3288339,-76
1658845951.78626,165305.3288361,-68
1658845951.79823,165305.3288527,-64
1658845951.79823,165305.328855,-73
1658845951.79823,165305.3288571,-85
1658845951.79823,165305.3288593,-78
1658845951.79823,165305.3288613,-76
1658845951.79823,165305.3288634,-80
1658845951.79823,165305.3288655,-68
1658845951.79823,165305.3288675,-59
1658845951.79823,165305.3288697,-71
1658845951.79823,165305.3288717,-68
1658845951.79823,165305.3288738,-38
1658845951.79823,165305.3288758,2
1658845951.79823,165305.3288779,23
1658845951.79823,165305.3288799,23
1658845951.79823,165305.3288818,2
1658845951.79823,165305.3288839,-21
1658845951.79823,165305.328886,-21
1658845951.79823,165305.3288881,-9
1658845951.79823,165305.3288901,-4
1658845951.79823,165305.3288989,2
1658845951.79823,165305.3289009,4
1658845951.79823,165305.328903,-4
1658845951.79823,165305.328905,-14
1658845951.79823,165305.3289072,0
1658845952.27543,165305.3289093,21
1658845952.27543,165305.3289113,26
1658845952.27543,165305.3289132,21
1658845952.27543,165305.3289151,7
1658845952.27543,165305.3289185,-49
1658845952.27543,165305.3289227,-61
1658845952.27543,165305.3289267,294
1658845952.27543,165305.3289309,1157
1658845952.27543,165305.3289352,2081
1658845952.27543,165305.3289418,2350
1658845952.27543,165305.3289492,1340
1658845952.27543,165305.3289541,-413
1658845952.27543,165305.3289603,-971
1658845952.27543,165305.3289644,-209
1658845952.27543,165305.3289682,76
1658845952.27543,165305.3289719,-159
1658845952.27543,165305.3289773,-90
1658845952.27543,165305.3289819,11
1658845952.27543,165305.3289874,-49
1658845952.27543,165305.3290042,-28
1658845952.27543,165305.3290077,26
1658845952.27543,165305.3290259,16
1658845952.27543,165305.3290296,21
1658845952.27543,165305.3290328,57
1658845952.27543,165305.3290382,80
1658845952.27543,165305.3290433,97
1658845952.27543,165305.3290598,118
1658845952.27543,165305.329065,140
1658845952.27543,165305.815747,149
1658845952.27543,165305.8157677,159
1658845952.27543,165305.8157815,182
1658845952.27543,165305.8157909,209
1658845952.27543,165305.8157977,225
1658845952.27543,165305.8158065,240
1658845952.27543,165305.8158128,247
1658845952.27543,165305.8158219,235
1658845952.27543,165305.815835,216
1658845952.27543,165305.8158456,201
1658845952.27543,165305.8158547,180
1658845952.27543,165305.8158666,149
1658845952.27543,165305.8158764,104
1658845952.27543,165305.8158859,47
1658845952.27543,165305.8158982,0
1658845952.27543,165305.8159076,-35
1658845952.27543,165305.8159141,-73
1658845952.27543,165305.8159263,-99
1658845952.27543,165305.8159367,-116
1658845952.27543,165305.8159435,-130
1658845952.27543,165305.8159556,-130
1658845952.27543,165305.8159656,-116
1658845952.29837,165305.8159747,-97
1658845952.29837,165305.8159847,-87
1658845952.29837,165305.8159948,-80
1658845952.29837,165305.8160043,-76
1658845952.29837,165305.8160162,-80
1658845952.29837,165305.816025,-76
