Time,TimeLsl,Value
1658848149.13134,167500.9963168,200
1658848149.13134,167500.996336,228
1658848149.13134,167500.9963463,261
1658848149.13134,167500.9963557,282
1658848149.13134,167500.9963924,285
1658848149.13134,167500.9964039,275
1658848149.13134,167500.9964114,252
1658848149.13134,167500.9964172,219
1658848149.13134,167500.996421,190
1658848149.13134,167500.996427,143
1658848149.13134,167500.996431,77
1658848149.13134,167500.9964382,7
1658848149.13134,167500.9964439,-61
1658848149.13134,167500.9964489,-113
1658848149.13134,167500.9964532,-136
1658848149.13134,167500.9964583,-150
1658848149.13134,167500.9964649,-157
1658848149.13134,167500.9964707,-150
1658848149.13134,167500.9964784,-146
1658848149.13134,167500.9964823,-141
1658848149.13134,167500.9964876,-124
1658848149.13134,167500.9964914,-110
1658848149.13134,167500.9964951,-101
1658848149.13134,167500.9965028,-91
1658848149.13134,167500.9965068,-80
1658848149.13134,167500.9965121,-75
1658848149.13134,167500.9965157,-77
1658848149.13134,167500.9965197,-70
1658848149.13134,167500.9965327,-61
1658848149.13134,167500.9965407,-68
1658848149.13134,167500.9965451,-68
1658848149.13134,167500.9965493,-61
1658848149.13134,167500.9965532,-58
1658848149.13134,167500.9965578,-56
1658848149.13134,167500.9965635,-54
1658848149.13134,167500.9965673,-54
1658848149.13134,167500.9965712,-47
1658848149.13134,167500.9965765,-42
1658848149.13134,167500.9965845,-40
1658848149.13134,167500.9965892,-37
1658848149.13134,167500.996595,-37
1658848149.13134,167500.9966002,-37
1658848149.13134,167500.996608,-35
1658848149.13134,167500.9966121,-37
1658848149.13134,167500.996621,-37
1658848149.13134,167500.9966256,-40
1658848149.13134,167500.9966318,-49
1658848149.13134,167500.9966363,-58
1658848149.13134,167500.9966417,-54
1658848149.13134,167500.9966477,-49
1658848149.22461,167500.9966543,-42
1658848149.22461,167500.9966593,-16
1658848149.22461,167500.9966738,16
1658848149.22461,167500.9966843,25
1658848149.22461,167500.9966978,9
1658848149.22461,167500.9967072,0
1658848149.22461,167500.9967143,4
1658848149.22461,167500.9967185,9
1658848149.22461,167500.9967247,7
1658848149.22461,167500.9967302,9
1658848149.22461,167500.9967368,18
1658848149.22461,167500.9967413,25
1658848149.22461,167500.9967478,28
1658848149.22461,167500.9967536,32
1658848149.22461,167500.9967577,37
1658848149.22461,167500.9967634,40
1658848149.22461,167500.9967677,28
1658848149.22461,167500.9967738,-58
1658848149.22461,167500.996779,-120
1658848149.22461,167500.9967854,334
1658848149.22461,167500.9967903,1418
1658848149.22461,167500.9967981,2353
1658848149.22461,167500.9968047,2469
1658848149.22461,167501.630697,1378
1658848149.22461,167501.6307109,-417
1658848149.22461,167501.6307152,-845
1658848149.22461,167501.6307179,51
1658848149.22461,167501.6307203,146
1658848149.22461,167501.6307227,-259
1658848149.22461,167501.630725,-117
1658848149.22461,167501.6307272,14
1658848149.22461,167501.6307296,-106
1658848149.22461,167501.6307318,-101
1658848149.22461,167501.6307342,-25
1658848149.22461,167501.6307377,-30
1658848149.22461,167501.6307464,-21
1658848149.22461,167501.6307516,23
1658848149.22461,167501.6307557,37
1658848149.22461,167501.6307622,32
1658848149.22461,167501.6307701,49
1658848149.22461,167501.6307752,75
1658848149.22461,167501.6307783,96
1658848149.22461,167501.6307875,117
1658848149.22461,167501.6307991,146
1658848149.22461,167501.6308058,171
1658848149.22461,167501.630814,190
1658848149.22461,167501.6308194,204
1658848149.22461,167501.6308278,214
1658848149.22461,167501.6308321,207
1658848149.22461,167501.6308584,193
1658848149.26151,167501.6308668,171
1658848149.26151,167501.6308722,141
1658848149.26151,167501.6308777,98
1658848149.26151,167501.6308812,44
1658848149.26151,167501.6308859,-9
1658848149.26151,167501.6308886,-54
1658848149.26151,167501.6308915,-89
1658848149.26151,167501.6308942,-110
1658848149.26151,167501.630897,-120
1658848149.26151,167501.6308998,-120
1658848149.26151,167501.6309028,-120
1658848149.26151,167501.630906,-117
1658848149.26151,167501.630909,-108
1658848149.26151,167501.630912,-94
1658848149.26151,167501.6309163,-82
1658848149.26151,167501.6309199,-73
1658848149.26151,167501.6309252,-61
1658848149.26151,167501.6309283,-54
1658848149.26151,167501.6309315,-44
1658848149.26151,167501.6309348,-37
1658848149.26151,167501.6309381,-32
1658848149.26151,167501.6309416,-28
1658848149.26151,167501.6309484,-23
1658848149.26151,167501.6309541,-21
1658848149.26151,167501.6309577,-18
1658848149.26151,167501.6309629,-14
1658848149.26151,167501.6309666,-9
1658848149.26151,167501.6309719,-7
1658848149.26151,167501.6309753,-4
1658848149.26151,167501.6309798,-2
1658848149.26151,167501.6309881,2
1658848149.26151,167501.6309966,7
1658848149.26151,167501.6310022,9
1658848149.26151,167501.6310056,9
1658848149.26151,167501.6310108,14
1658848149.26151,167501.6310142,18
1658848149.26151,167501.6310231,18
1658848149.26151,167501.6310269,18
1658848149.26151,167501.6310336,21
1658848149.26151,167501.6310373,18
1658848149.26151,167501.6310434,18
1658848149.26151,167501.631048,21
1658848149.26151,167501.6310538,21
1658848149.26151,167501.6310581,18
1658848149.26151,167501.6310641,14
1658848149.26151,167501.6310679,2
1658848149.26151,167502.1664365,0
1658848149.26151,167502.1664557,16
1658848149.26151,167502.1664674,37
1658848149.26151,167502.1664774,65
1658848149.28245,167502.1664838,80
1658848149.28245,167502.1664926,58
1658848149.28245,167502.1664981,23
1658848149.28245,167502.1665075,18
1658848149.28245,167502.1665126,30
1658848149.28245,167502.1665162,28
1658848149.28245,167502.1665204,25
1658848149.28245,167502.166527,25
1658848149.28245,167502.1665337,18
1658848149.28245,167502.1665397,16
1658848149.28245,167502.1665436,25
1658848149.28245,167502.166547,30
1658848149.28245,167502.1665502,30
1658848149.28245,167502.1665549,32
1658848149.28245,167502.1665609,-4
1658848149.28245,167502.1665642,-115
1658848149.28245,167502.1665675,-54
1658848149.28245,167502.166573,638
1658848149.28245,167502.1665775,1771
1658848149.28245,167502.1665835,2532
1658848149.28245,167502.1665884,2308
1658848149.28245,167502.1665916,716
1658848149.28245,167502.1665969,-925
1658848149.28245,167502.1666028,-666
1658848149.28245,167502.1666101,148
1658848149.28245,167502.1666176,-82
1658848149.28245,167502.1666225,-301
1658848149.28245,167502.1666276,-82
1658848149.28245,167502.1666312,-77
1658848149.28245,167502.1666372,-162
1658848149.28245,167502.1666445,-82
1658848149.28245,167502.1666507,-35
1658848149.28245,167502.1666545,-51
1658848149.28245,167502.1666621,-28
1658848149.28245,167502.1666668,2
1658848149.28245,167502.1666754,16
1658848149.28245,167502.1666823,40
1658848149.28245,167502.1666901,68
1658848149.28245,167502.1666956,89
1658848149.28245,167502.1666992,110
1658848149.28245,167502.1667042,129
1658848149.28245,167502.1667118,153
1658848149.28245,167502.1667185,179
1658848149.28245,167502.1667234,193
1658848149.28245,167502.166727,200
1658848149.28245,167502.1667315,197
1658848149.28245,167502.1667393,183
1658848149.28245,167502.1667462,162
1658848149.28245,167502.1667499,141
1658848149.28245,167502.1667569,113
1658848149.29542,167502.1667629,80
1658848149.29542,167502.1667681,40
1658848149.29542,167502.1667716,-4
1658848149.29542,167502.1667757,-44
1658848149.29542,167502.1667831,-70
1658848149.29542,167502.1667865,-91
1658848149.29542,167502.1667899,-106
1658848149.29542,167502.1667931,-108
1658848149.29542,167502.1667962,-110
1658848149.29542,167502.1668002,-108
1658848149.29542,167502.1668084,-94
1658848149.29542,167502.1668164,-75
1658848149.29542,167502.1668249,-61
1658848149.29542,167502.1668334,-56
1658848149.29542,167502.1668415,-54
1658848149.29542,167502.1668497,-49
1658848149.29542,167502.1668573,-40
1658848149.29542,167502.166865,-35
1658848149.29542,167502.1668735,-30
1658848149.29542,167502.7050737,-28
1658848149.29542,167502.7051663,-28
1658848149.29542,167502.7053239,-28
1658848149.69326,167502.7053468,-25
1658848149.69326,167502.7053514,-28
1658848149.69326,167502.7053552,-35
1658848149.69326,167502.7053587,-42
1658848149.69326,167502.7053624,-47
1658848149.69326,167502.7053659,-51
1658848149.69326,167502.7053695,-56
1658848149.69326,167502.7053731,-51
1658848149.69326,167502.7053769,-40
1658848149.69326,167502.7053875,-32
1658848149.69326,167502.705392,-32
1658848149.69326,167502.7054002,-32
1658848149.69326,167502.7054052,-42
1658848149.69326,167502.705409,-51
1658848149.69326,167502.7054128,-47
1658848149.69326,167502.7054166,-51
1658848149.69326,167502.7054252,-61
1658848149.69326,167502.7054295,-54
1658848149.69326,167502.7054333,-42
1658848149.69326,167502.7054373,-42
1658848149.69326,167502.7054411,-42
1658848149.69326,167502.7054472,-32
1658848149.69326,167502.7058099,-25
1658848149.69326,167502.7058296,-28
1658848149.69326,167502.7058438,-30
1658848149.69326,167502.7058491,-44
1658848149.69326,167502.7058528,-54
1658848149.69326,167502.7058562,-37
1658848149.69326,167502.7058593,-2
1658848149.69326,167502.7058626,25
1658848149.69326,167502.7058658,32
1658848149.69326,167502.7058691,16
1658848149.69326,167502.7058726,-4
1658848149.69326,167502.705876,-4
1658848149.69326,167502.7058794,-2
1658848149.69326,167502.7058829,2
1658848149.69326,167502.7058866,9
1658848149.69326,167502.7058901,11
1658848149.69326,167502.7058939,9
1658848149.69326,167502.7058976,16
1658848149.69326,167502.7059015,21
1658848149.69326,167502.7059055,25
1658848149.69326,167502.7059097,32
1658848149.69326,167502.7059133,37
1658848149.69326,167502.7059169,-9
1658848149.69326,167502.7059204,-73
1658848149.69326,167502.7059242,183
1658848149.69326,167502.7059282,1029
1658848149.69326,167502.705932,2033
1658848149.69326,167502.7059357,2509
1658848149.70422,167502.7059395,1823
1658848149.70422,167502.7059434,-35
1658848149.70422,167502.705947,-1041
1658848149.70422,167502.7059506,-268
1658848149.70422,167502.7059546,183
1658848149.70422,167502.7059586,-181
1658848149.70422,167502.7059624,-164
1658848149.70422,167502.7059665,16
1658848149.70422,167502.7059704,-61
1658848149.70422,167502.7059743,-77
1658848149.70422,167502.7059779,7
1658848149.70422,167502.7059818,18
1658848149.70422,167502.7059855,25
1658848149.70422,167502.7059893,56
1658848149.70422,167502.7059932,68
1658848149.70422,167502.705997,82
1658848149.70422,167502.7060006,110
1658848149.70422,167502.7060042,127
1658848149.70422,167502.7060078,136
1658848149.70422,167502.7060112,146
1658848149.70422,167503.2394226,157
1658848149.70422,167503.2394415,188
1658848149.70422,167503.239448,219
1658848149.70422,167503.2394538,226
1658848150.3232,167503.239458,214
1658848150.3232,167503.2394621,204
1658848150.3232,167503.2394661,197
1658848150.3232,167503.2394699,179
1658848150.3232,167503.239474,155
1658848150.3232,167503.239478,134
1658848150.3232,167503.239482,96
1658848150.3232,167503.2394861,42
1658848150.3232,167503.2394902,-7
1658848150.3232,167503.2394936,-32
1658848150.3232,167503.2394968,-44
1658848150.3232,167503.2395005,-63
1658848150.3232,167503.2395044,-80
1658848150.3232,167503.2395078,-91
1658848150.3232,167503.2395108,-106
1658848150.3232,167503.2395138,-103
1658848150.3232,167503.2395172,-77
1658848150.3232,167503.2395204,-65
1658848150.3232,167503.2395237,-63
1658848150.3232,167503.2395268,-58
1658848150.3232,167503.23953,-63
1658848150.3232,167503.2395332,-70
1658848150.3232,167503.2395365,-61
1658848150.3232,167503.2395397,-44
1658848150.3232,167503.2395429,-44
1658848150.3232,167503.2395461,-44
1658848150.3232,167503.2395504,-35
1658848150.3232,167503.2395537,-37
1658848150.3232,167503.239559,-49
1658848150.3232,167503.2395639,-42
1658848150.3232,167503.2395672,-30
1658848150.3232,167503.2395724,-35
1658848150.3232,167503.239576,-40
1658848150.3232,167503.2395816,-30
1658848150.3232,167503.2396234,-23
1658848150.3232,167503.2396335,-16
1658848150.3232,167503.2396422,-14
1658848150.3232,167503.2396503,-16
1658848150.3232,167503.2396573,-25
1658848150.3232,167503.2396654,-25
1658848150.3232,167503.2396742,-18
1658848150.3232,167503.2396816,-11
1658848150.3232,167503.2396862,-16
1658848150.3232,167503.2396931,-16
1658848150.3232,167503.2397014,-4
1658848150.3232,167503.2397058,-4
1658848150.3232,167503.2397123,-14
1658848150.3232,167503.2398465,-7
1658848150.3232,167503.2398581,4
1658848150.3232,167503.2398627,-9
1658848150.33417,167503.2398664,-18
1658848150.33417,167503.23987,11
1658848150.33417,167503.2398737,47
1658848150.33417,167503.2398773,65
1658848150.33417,167503.2398812,75
1658848150.33417,167503.2398848,56
1658848150.33417,167503.2398884,28
1658848150.33417,167503.2398919,25
1658848150.33417,167503.239896,32
1658848150.33417,167503.2398997,25
1658848150.33417,167503.2399032,30
1658848150.33417,167503.2399067,40
1658848150.33417,167503.2399102,35
1658848150.33417,167503.2399137,37
1658848150.33417,167503.2399173,47
1658848150.33417,167503.2399209,47
1658848150.33417,167503.2399244,51
1658848150.33417,167503.2399281,56
1658848150.33417,167503.2399316,7
1658848150.33417,167503.8734959,-35
1658848150.33417,167503.8735156,280
1658848150.33417,167503.8735238,1149
1658848150.33417,167503.8735313,2106
1658848150.33417,167503.873541,2466
1658848150.86181,167503.8735459,1564
1658848150.86181,167503.873552,-294
1658848150.86181,167503.8735618,-980
1658848150.86181,167503.8735721,-143
1658848150.86181,167503.8735795,136
1658848150.86181,167503.8735867,-197
1658848150.86181,167503.8735917,-108
1658848150.86181,167503.8735956,28
1658848150.86181,167503.8735984,-61
1658848150.86181,167503.8736018,-49
1658848150.86181,167503.873605,16
1658848150.86181,167503.8736098,0
1658848150.86181,167503.8736169,2
1658848150.86181,167503.8736258,47
1658848150.86181,167503.8736394,70
1658848150.86181,167503.8736456,87
1658848150.86181,167503.8736477,113
1658848150.86181,167503.873656,131
1658848150.86181,167503.8736667,148
1658848150.86181,167503.8736741,174
1658848150.86181,167503.8736814,197
1658848150.86181,167503.8737004,216
1658848150.86181,167503.8737122,226
1658848150.86181,167503.8737236,226
1658848150.86181,167503.8737356,221
1658848150.86181,167503.8737502,219
1658848150.86181,167503.8737637,200
1658848150.86181,167503.873777,174
1658848150.86181,167503.8737899,148
1658848150.86181,167503.8738032,113
1658848150.86181,167503.8738163,73
1658848150.86181,167503.8738295,40
1658848150.86181,167503.8738426,4
1658848150.86181,167503.8738571,-25
1658848150.86181,167503.8738625,-47
1658848150.86181,167503.8738688,-58
1658848150.86181,167503.8738757,-68
1658848150.86181,167503.8738787,-65
1658848150.86181,167503.8738816,-54
1658848150.86181,167503.8738846,-42
1658848150.86181,167503.8738876,-30
1658848150.86181,167503.8738904,-23
1658848150.86181,167503.8738933,-18
1658848150.86181,167503.8738962,-11
1658848150.86181,167503.8738992,-7
1658848150.86181,167503.873902,-4
1658848150.86181,167503.873905,-4
1658848150.86181,167503.8739079,-4
1658848150.86181,167503.873912,-2
1658848150.86181,167503.873915,-4
1658848150.87203,167503.8739181,-11
1658848150.87203,167503.8739211,-14
1658848150.87203,167503.8739242,-4
1658848150.87203,167503.8739271,-7
1658848150.87203,167503.8739299,-14
1658848150.87203,167503.8739336,-14
1658848150.87203,167503.8739373,-14
1658848150.87203,167503.8739404,-11
1658848150.87203,167503.8739441,-7
1658848150.87203,167503.87395,-7
1658848150.87203,167503.8739548,-16
1658848150.87203,167503.8739608,-25
1658848150.87203,167503.8739639,-18
1658848150.87203,167503.873967,-9
1658848150.87203,167503.8739698,-4
1658848150.87203,167503.8739728,0
1658848150.87203,167503.873976,4
1658848150.87203,167503.8739788,4
1658848150.87203,167504.4097781,0
1658848150.87203,167504.4097988,2
1658848150.87203,167504.4098088,14
1658848150.87203,167504.4098199,18
1658848150.87203,167504.4098282,16
1658848150.87203,167504.4098365,0
1658848151.4029,167504.4098446,-23
1658848151.4029,167504.4098528,-18
1658848151.4029,167504.4098608,18
1658848151.4029,167504.4098661,56
1658848151.4029,167504.4098713,73
1658848151.4029,167504.4098763,70
1658848151.4029,167504.4098815,54
1658848151.4029,167504.4098862,37
1658848151.4029,167504.4098914,44
1658848151.4029,167504.4098967,51
1658848151.4029,167504.409904,44
1658848151.4029,167504.4099087,40
1658848151.4029,167504.4099149,35
1658848151.4029,167504.4099199,28
1658848151.4029,167504.4099266,32
1658848151.4029,167504.4099318,44
1658848151.4029,167504.4099383,49
1658848151.4029,167504.4099434,54
1658848151.4029,167504.4099539,35
1658848151.4029,167504.4099647,-42
1658848151.4029,167504.4099741,-18
1658848151.4029,167504.4099819,523
1658848151.4029,167504.4099895,1545
1658848151.4029,167504.4099967,2353
1658848151.4029,167504.4100028,2353
1658848151.4029,167504.4100088,1050
1658848151.4029,167504.4100122,-680
1658848151.4029,167504.4100173,-765
1658848151.4029,167504.4100233,110
1658848151.4029,167504.410029,73
1658848151.4029,167504.4100369,-216
1658848151.4029,167504.4100447,-40
1658848151.4029,167504.4100511,25
1658848151.4029,167504.4100588,-68
1658848151.4029,167504.4100689,-21
1658848151.4029,167504.410076,37
1658848151.4029,167504.4100836,21
1658848151.4029,167504.4100901,42
1658848151.4029,167504.4100986,77
1658848151.4029,167504.4101051,84
1658848151.4029,167504.4101134,103
1658848151.4029,167504.4101218,131
1658848151.4029,167504.4101303,139
1658848151.4029,167504.4101372,148
1658848151.4029,167504.4101437,176
1658848151.4029,167504.4101559,200
1658848151.4029,167504.4101644,209
1658848151.4029,167504.41017,226
1658848151.4029,167504.4101827,237
1658848151.4029,167504.4101909,223
1658848151.41387,167504.4101963,207
1658848151.41387,167504.4102058,190
1658848151.41387,167504.4102141,164
1658848151.41387,167504.4102226,146
1658848151.41387,167504.4102311,124
1658848151.41387,167504.4102392,82
1658848151.41387,167504.4102479,37
1658848151.41387,167504.4102557,7
1658848151.41387,167504.4102636,-18
1658848151.41387,167504.41027,-37
1658848151.41387,167504.4102751,-42
1658848151.41387,167504.4102956,-40
1658848151.41387,167504.4103086,-40
1658848151.41387,167504.4103213,-47
1658848151.41387,167504.4103315,-44
1658848151.41387,167504.4103388,-25
1658848151.41387,167504.4103443,-16
1658848151.41387,167504.9456232,-14
1658848151.41387,167504.9456826,-4
1658848151.41387,167504.9456956,-9
1658848151.41387,167504.9457032,-9
1658848151.41387,167504.9457105,2
1658848151.41387,167504.9457154,2
1658848151.41387,167504.9457202,2
1658848151.93548,167504.9457266,9
1658848151.93548,167504.9457324,-2
1658848151.93548,167504.9457356,-25
1658848151.93548,167504.9457385,-35
1658848151.93548,167504.9457416,-35
1658848151.93548,167504.9457445,-30
1658848151.93548,167504.9457475,-23
1658848151.93548,167504.9457506,-21
1658848151.93548,167504.9457539,-25
1658848151.93548,167504.945757,-30
1658848151.93548,167504.9457602,-25
1658848151.93548,167504.945764,-21
1658848151.93548,167504.9457684,-23
1658848151.93548,167504.9457748,-23
1658848151.93548,167504.94578,-30
1658848151.93548,167504.9457855,-44
1658848151.93548,167504.9457896,-37
1658848151.93548,167504.9457949,-23
1658848151.93548,167504.9457984,-21
1658848151.93548,167504.9458013,-18
1658848151.93548,167504.9458042,-16
1658848151.93548,167504.9458084,-21
1658848151.93548,167504.9458124,-16
1658848151.93548,167504.9458173,-11
1658848151.93548,167504.9458228,-16
1658848151.93548,167504.9458315,-7
1658848151.93548,167504.9458367,18
1658848151.93548,167504.9458458,47
1658848151.93548,167504.9458548,65
1658848151.93548,167504.9458603,63
1658848151.93548,167504.9458687,44
1658848151.93548,167504.9458766,30
1658848151.93548,167504.9458827,30
1658848151.93548,167504.9458902,23
1658848151.93548,167504.9458963,18
1658848151.93548,167504.9459039,30
1658848151.93548,167504.9459098,32
1658848151.93548,167504.9459173,30
1658848151.93548,167504.9459243,44
1658848151.93548,167504.9459316,63
1658848151.93548,167504.9459383,65
1658848151.93548,167504.9459459,51
1658848151.93548,167504.9459518,18
1658848151.93548,167504.9459595,-42
1658848151.93548,167504.9459652,82
1658848151.93548,167504.9459728,756
1658848151.93548,167504.9459787,1755
1658848151.93548,167504.9459862,2403
1658848151.93548,167504.9459922,2118
1658848151.93548,167504.9459996,553
1658848151.94646,167504.9460054,-892
1658848151.94646,167504.9460129,-560
1658848151.94646,167504.9460189,167
1658848151.94646,167504.9460266,-23
1658848151.94646,167504.9460328,-176
1658848151.94646,167504.9460405,2
1658848151.94646,167504.9460466,0
1658848151.94646,167504.9460541,-58
1658848151.94646,167504.9460602,7
1658848151.94646,167504.9460681,32
1658848151.94646,167504.9460727,18
1658848151.94646,167504.9460805,54
1658848151.94646,167504.946087,80
1658848151.94646,167504.9460952,87
1658848151.94646,167504.9461018,110
1658848151.94646,167504.9461052,129
1658848151.94646,167505.482047,143
1658848151.94646,167505.4820698,162
1658848151.94646,167505.4820795,179
1658848151.94646,167505.4820865,200
1658848151.94646,167505.4820954,219
1658848151.94646,167505.4821,219
1658848151.94646,167505.482113,212
1658848151.94646,167505.4821269,200
1658848152.52464,167505.4821386,181
1658848152.52464,167505.4821463,164
1658848152.52464,167505.4821552,146
1658848152.52464,167505.482162,110
1658848152.52464,167505.4821686,63
1658848152.52464,167505.4821722,30
1658848152.52464,167505.4821774,7
1658848152.52464,167505.4821848,-21
1658848152.52464,167505.4821904,-44
1658848152.52464,167505.4821947,-63
1658848152.52464,167505.4821978,-87
1658848152.52464,167505.4822007,-108
1658848152.52464,167505.4822042,-108
1658848152.52464,167505.4822073,-98
1658848152.52464,167505.4822104,-84
1658848152.52464,167505.4822136,-73
1658848152.52464,167505.4822169,-70
1658848152.52464,167505.4822203,-65
1658848152.52464,167505.4822263,-49
1658848152.52464,167505.4822319,-44
1658848152.52464,167505.4822351,-40
1658848152.52464,167505.4822698,-28
1658848152.52464,167505.4822797,-28
1658848152.52464,167505.4822858,-40
1658848152.52464,167505.4822896,-49
1658848152.52464,167505.4822962,-56
1658848152.52464,167505.4823036,-56
1658848152.52464,167505.4823183,-51
1658848152.52464,167505.4823338,-49
1658848152.52464,167505.4823461,-56
1658848152.52464,167505.4823556,-68
1658848152.52464,167505.4823622,-73
1658848152.52464,167505.4824095,-61
1658848152.52464,167505.4824234,-49
1658848152.52464,167505.4824342,-47
1658848152.52464,167505.4824391,-54
1658848152.52464,167505.4824473,-54
1658848152.52464,167505.4824544,-40
1658848152.52464,167505.4824582,-30
1658848152.52464,167505.4824673,-30
1658848152.52464,167505.4824793,-25
1658848152.52464,167505.4824876,-21
1658848152.52464,167505.4825008,-18
1658848152.52464,167505.482512,-18
1658848152.52464,167505.4825245,-11
1658848152.52464,167505.4825393,-7
1658848152.52464,167505.4825522,-9
1658848152.52464,167505.4825635,-9
1658848152.52464,167505.4825742,-4
1658848152.52464,167505.4825869,23
1658848152.53461,167505.4825999,68
1658848152.53461,167505.4826132,94
1658848152.53461,167505.4826276,73
1658848152.53461,167505.4826395,35
1658848152.53461,167505.4826488,25
1658848152.53461,167505.4826583,37
1658848152.53461,167505.4826652,42
1658848152.53461,167505.4826766,44
1658848152.53461,167505.4826876,51
1658848152.53461,167505.4826965,49
1658848152.53461,167505.4827024,40
1658848152.53461,167505.4827148,40
1658848152.53461,167505.4827251,49
1658848152.53461,167505.4827325,54
1658848152.53461,167505.4827362,47
1658848152.53461,167506.0669673,-4
1658848152.53461,167506.0669867,-35
1658848152.53461,167506.0670014,296
1658848152.53461,167506.0670155,1192
1658848152.53461,167506.0670285,2158
1658848152.53461,167506.0670414,2499
1658848152.53461,167506.0670535,1599
1658848152.53461,167506.0670672,-237
1658848152.53461,167506.0670757,-975
1658848153.05579,167506.0670883,-197
1658848153.05579,167506.0670971,120
1658848153.05579,167506.0671048,-186
1658848153.05579,167506.0671114,-134
1658848153.05579,167506.0671183,-2
1658848153.05579,167506.0671252,-82
1658848153.05579,167506.067132,-84
1658848153.05579,167506.0671381,-9
1658848153.05579,167506.0671441,-7
1658848153.05579,167506.0671511,-14
1658848153.05579,167506.0671642,25
1658848153.05579,167506.0671912,61
1658848153.05579,167506.0672021,75
1658848153.05579,167506.0672073,91
1658848153.05579,167506.0672129,110
1658848153.05579,167506.0672165,120
1658848153.05579,167506.0672203,134
1658848153.05579,167506.0672237,160
1658848153.05579,167506.067227,181
1658848153.05579,167506.0672303,190
1658848153.05579,167506.0672336,202
1658848153.05579,167506.0672368,204
1658848153.05579,167506.0672401,190
1658848153.05579,167506.0672451,174
1658848153.05579,167506.0672484,162
1658848153.05579,167506.06726,148
1658848153.05579,167506.0672706,124
1658848153.05579,167506.0672769,91
1658848153.05579,167506.0672871,51
1658848153.05579,167506.0672949,14
1658848153.05579,167506.0673046,-14
1658848153.05579,167506.0673099,-37
1658848153.05579,167506.0673169,-56
1658848153.05579,167506.0673209,-65
1658848153.05579,167506.067373,-70
1658848153.05579,167506.0673804,-65
1658848153.05579,167506.0673839,-58
1658848153.05579,167506.0673882,-56
1658848153.05579,167506.0673915,-37
1658848153.05579,167506.0673958,-16
1658848153.05579,167506.0673995,-21
1658848153.05579,167506.0674032,-25
1658848153.05579,167506.0674074,-9
1658848153.05579,167506.0674109,0
1658848153.05579,167506.0674146,-2
1658848153.05579,167506.0674181,-4
1658848153.05579,167506.0674217,-9
1658848153.05579,167506.0674253,-4
1658848153.05579,167506.0674289,9
1658848153.05579,167506.0674326,18
1658848153.06616,167506.0674362,7
1658848153.06616,167506.0674398,-4
1658848153.06616,167506.0674432,-7
1658848153.06616,167506.0674466,-9
1658848153.06616,167506.0674502,0
1658848153.06616,167506.0674538,4
1658848153.06616,167506.0674575,-11
1658848153.06616,167506.0674611,-18
1658848153.06616,167506.0674649,-2
1658848153.06616,167506.0674688,9
1658848153.06616,167506.0674724,9
1658848153.06616,167506.0674761,21
1658848153.06616,167506.0674795,23
1658848153.06616,167506.0674831,7
1658848153.06616,167506.6044926,-7
1658848153.06616,167506.60451,4
1658848153.06616,167506.6045208,28
1658848153.06616,167506.6045273,58
1658848153.06616,167506.6045334,91
1658848153.06616,167506.6045412,98
1658848153.06616,167506.6045463,73
1658848153.06616,167506.6045496,51
1658848153.06616,167506.6045543,61
1658848153.06616,167506.6045575,70
1658848153.59891,167506.6045608,65
1658848153.59891,167506.6045639,58
1658848153.59891,167506.604568,56
1658848153.59891,167506.6045745,58
1658848153.59891,167506.6045808,61
1658848153.59891,167506.6045873,63
1658848153.59891,167506.604594,63
1658848153.59891,167506.6046013,56
1658848153.59891,167506.6046076,42
1658848153.59891,167506.6046141,7
1658848153.59891,167506.6046209,-47
1658848153.59891,167506.6046278,141
1658848153.59891,167506.6046346,904
1658848153.59891,167506.6046627,1967
1658848153.59891,167506.6046692,2626
1658848153.59891,167506.6046734,2082
1658848153.59891,167506.6046787,176
1658848153.59891,167506.6046843,-1093
1658848153.59891,167506.6046898,-475
1658848153.59891,167506.6046965,103
1658848153.59891,167506.6047014,-157
1658848153.59891,167506.6047057,-162
1658848153.59891,167506.60471,18
1658848153.59891,167506.6047132,-40
1658848153.59891,167506.6047179,-70
1658848153.59891,167506.6047241,4
1658848153.59891,167506.6047329,25
1658848153.59891,167506.6047408,28
1658848153.59891,167506.6047478,63
1658848153.59891,167506.6047563,82
1658848153.59891,167506.60476,89
1658848153.59891,167506.604767,113
1658848153.59891,167506.6047742,141
1658848153.59891,167506.6047819,162
1658848153.59891,167506.6047953,183
1658848153.59891,167506.6048056,207
1658848153.59891,167506.6048113,228
1658848153.59891,167506.6048197,249
1658848153.59891,167506.6048319,256
1658848153.59891,167506.6048407,247
1658848153.59891,167506.6048464,233
1658848153.59891,167506.6048511,223
1658848153.59891,167506.6048578,209
1658848153.59891,167506.6048708,169
1658848153.59891,167506.6048799,124
1658848153.59891,167506.604888,91
1658848153.59891,167506.6048949,58
1658848153.59891,167506.6049042,14
1658848153.59891,167506.6049103,-23
1658848153.59891,167506.6049177,-40
1658848153.60888,167506.604926,-54
1658848153.60888,167506.6049348,-65
1658848153.60888,167506.6049636,-68
1658848153.60888,167506.6049895,-65
1658848153.60888,167506.6050039,-61
1658848153.60888,167506.6050114,-49
1658848153.60888,167506.6050147,-32
1658848153.60888,167506.6050178,-23
1658848153.60888,167506.6050209,-23
1658848153.60888,167506.6050238,-18
1658848153.60888,167506.6050287,-4
1658848153.60888,167506.6050333,2
1658848153.60888,167506.605039,2
1658848153.60888,167507.1396644,9
1658848153.60888,167507.1397241,11
1658848153.60888,167507.1397367,-2
1658848153.60888,167507.1397624,-4
1658848153.60888,167507.1397744,0
1658848153.60888,167507.1397838,-2
1658848153.60888,167507.139795,-2
1658848153.60888,167507.1398024,2
1658848153.60888,167507.1398073,-9
1658848153.60888,167507.139812,-30
1658848153.60888,167507.1398176,-40
1658848154.18002,167507.1398231,-37
1658848154.18002,167507.1398303,-42
1658848154.18002,167507.1398376,-49
1658848154.18002,167507.139845,-47
1658848154.18002,167507.1398512,-56
1658848154.18002,167507.1398566,-70
1658848154.18002,167507.1398614,-68
1658848154.18002,167507.1398659,-54
1658848154.18002,167507.1398705,-51
1658848154.18002,167507.139877,-63
1658848154.18002,167507.1398816,-75
1658848154.18002,167507.1398871,-75
1658848154.18002,167507.1398915,-56
1658848154.18002,167507.1398951,-21
1658848154.18002,167507.1399001,16
1658848154.18002,167507.139903,23
1658848154.18002,167507.1399062,0
1658848154.18002,167507.1399094,-21
1658848154.18002,167507.1399125,-14
1658848154.18002,167507.1399158,-4
1658848154.18002,167507.1399199,-2
1658848154.18002,167507.1399251,2
1658848154.18002,167507.1399284,9
1658848154.18002,167507.1399332,9
1658848154.18002,167507.1399364,11
1658848154.18002,167507.1399397,21
1658848154.18002,167507.1399447,25
1658848154.18002,167507.1399734,28
1658848154.18002,167507.1399931,18
1658848154.18002,167507.1400026,-56
1658848154.18002,167507.1400158,-73
1658848154.18002,167507.1400233,431
1658848154.18002,167507.1400532,1510
1658848154.18002,167507.1400678,2436
1658848154.18002,167507.1400784,2525
1658848154.18002,167507.1400865,1265
1658848154.18002,167507.1400898,-591
1658848154.18002,167507.1400928,-876
1658848154.18002,167507.1400957,25
1658848154.18002,167507.1400986,84
1658848154.18002,167507.1401016,-247
1658848154.18002,167507.1401046,-98
1658848154.18002,167507.1401074,-7
1658848154.18002,167507.1401101,-101
1658848154.18002,167507.1401129,-61
1658848154.18002,167507.1401157,4
1658848154.18002,167507.1401187,-9
1658848154.18002,167507.1401217,7
1658848154.18002,167507.1401247,44
1658848154.18002,167507.1401277,56
1658848154.19199,167507.1401305,75
1658848154.19199,167507.1401334,103
1658848154.19199,167507.1401364,120
1658848154.19199,167507.1401392,141
1658848154.19199,167507.1401421,164
1658848154.19199,167507.140145,183
1658848154.19199,167507.140148,200
1658848154.19199,167507.140151,216
1658848154.19199,167507.140154,223
1658848154.19199,167507.1401569,221
1658848154.19199,167507.1401598,207
1658848154.19199,167507.1401626,186
1658848154.19199,167507.7260014,169
1658848154.19199,167507.7262848,148
1658848154.19199,167507.7262969,110
1658848154.19199,167507.7263007,56
1658848154.19199,167507.7263041,0
1658848154.19199,167507.7263074,-49
1658848154.19199,167507.7263106,-87
1658848154.19199,167507.7263138,-103
1658848154.19199,167507.726317,-108
1658848154.19199,167507.7263202,-113
1658848154.19199,167507.7263233,-115
1658848154.19199,167507.7263265,-115
1658848154.81393,167507.7263296,-115
1658848154.81393,167507.7263327,-108
1658848154.81393,167507.726396,-89
1658848154.81393,167507.7264412,-75
1658848154.81393,167507.7264461,-70
1658848154.81393,167507.7264495,-61
1658848154.81393,167507.7264527,-54
1658848154.81393,167507.726456,-49
1658848154.81393,167507.7264592,-37
1658848154.81393,167507.7264625,-30
1658848154.81393,167507.7264657,-30
1658848154.81393,167507.726469,-23
1658848154.81393,167507.7264722,-21
1658848154.81393,167507.7264755,-23
1658848154.81393,167507.7264787,-21
1658848154.81393,167507.726482,-16
1658848154.81393,167507.7264852,-21
1658848154.81393,167507.7264886,-18
1658848154.81393,167507.7264919,-14
1658848154.81393,167507.7264952,-11
1658848154.81393,167507.7264984,-9
1658848154.81393,167507.7265017,-4
1658848154.81393,167507.726505,-2
1658848154.81393,167507.7265083,-7
1658848154.81393,167507.7265116,-9
1658848154.81393,167507.7265151,-2
1658848154.81393,167507.7265208,0
1658848154.81393,167507.7265251,-4
1658848154.81393,167507.7265286,-4
1658848154.81393,167507.7265333,-11
1658848154.81393,167507.7265366,-23
1658848154.81393,167507.72654,-25
1658848154.81393,167507.7265449,-14
1658848154.81393,167507.7265484,4
1658848154.81393,167507.7265732,37
1658848154.81393,167507.7265793,63
1658848154.81393,167507.7265831,51
1658848154.81393,167507.7265867,25
1658848154.81393,167507.7265903,18
1658848154.81393,167507.726594,28
1658848154.81393,167507.7266027,28
1658848154.81393,167507.726607,30
1658848154.81393,167507.7266108,37
1658848154.81393,167507.726616,40
1658848154.81393,167507.7266417,40
1658848154.81393,167507.7266466,42
1658848154.81393,167507.7266502,47
1658848154.81393,167507.7266537,54
1658848154.81393,167507.7266574,58
1658848154.81393,167507.7266609,28
1658848154.8249,167507.7266643,-58
1658848154.8249,167507.7266678,32
1658848154.8249,167507.7266713,751
1658848154.8249,167507.7266748,1882
1658848154.8249,167507.7266783,2615
1658848154.8249,167507.7266894,2322
1658848154.8249,167507.7267281,673
1658848154.8249,167507.726736,-914
1658848154.8249,167507.7270909,-610
1658848154.8249,167507.727098,181
1658848154.8249,167507.7271083,-47
1658848154.8249,167508.357808,-247
1658848154.8249,167508.3578318,-35
1658848154.8249,167508.3578427,-30
1658848154.8249,167508.3578491,-113
1658848154.8249,167508.3578574,-42
1658848154.8249,167508.3578642,4
1658848154.8249,167508.3578721,-7
1658848154.8249,167508.3578767,21
1658848154.8249,167508.3578838,42
1658848154.8249,167508.3578918,32
1658848154.8249,167508.3578999,54
1658848154.8249,167508.3579053,89
1658848154.8249,167508.3579194,110
1658848155.34662,167508.3579327,134
1658848155.34662,167508.3579422,160
1658848155.34662,167508.3579499,171
1658848155.34662,167508.3579572,186
1658848155.34662,167508.3579616,204
1658848155.34662,167508.3579654,204
1658848155.34662,167508.357971,197
1658848155.34662,167508.3579775,186
1658848155.34662,167508.3579806,155
1658848155.34662,167508.3579836,120
1658848155.34662,167508.3579865,96
1658848155.34662,167508.3579893,70
1658848155.34662,167508.3579921,30
1658848155.34662,167508.3579951,-16
1658848155.34662,167508.357998,-58
1658848155.34662,167508.3580008,-84
1658848155.34662,167508.3580038,-96
1658848155.34662,167508.3580067,-101
1658848155.34662,167508.3580095,-96
1658848155.34662,167508.3580124,-94
1658848155.34662,167508.3580152,-91
1658848155.34662,167508.3580181,-82
1658848155.34662,167508.358021,-65
1658848155.34662,167508.3580239,-54
1658848155.34662,167508.3580267,-42
1658848155.34662,167508.3580296,-35
1658848155.34662,167508.3580324,-32
1658848155.34662,167508.3580352,-23
1658848155.34662,167508.3580382,-11
1658848155.34662,167508.3580411,-7
1658848155.34662,167508.3580439,-4
1658848155.34662,167508.3580469,0
1658848155.34662,167508.3580497,0
1658848155.34662,167508.3580526,-2
1658848155.34662,167508.3580556,0
1658848155.34662,167508.3580585,7
1658848155.34662,167508.3580614,9
1658848155.34662,167508.3580643,11

1658848155.34662,167508.358067,16
1658848155.34662,167508.3580699,11
1658848155.34662,167508.3580728,0
1658848155.34662,167508.3580757,0
1658848155.34662,167508.3580786,14
1658848155.34662,167508.3580814,23
1658848155.34662,167508.3580843,21
1658848155.34662,167508.3580871,18
1658848155.34662,167508.35809,9
1658848155.34662,167508.358093,7
1658848155.34662,167508.3580958,16
1658848155.34662,167508.3580987,14
1658848155.35759,167508.3581016,0
1658848155.35759,167508.3581045,-2
1658848155.35759,167508.3581073,2
1658848155.35759,167508.3581103,0
1658848155.35759,167508.3581132,-11
1658848155.35759,167508.3581324,-23
1658848155.35759,167508.3581453,-25
1658848155.35759,167508.3581536,-2
1658848155.35759,167508.3581561,40
1658848155.35759,167508.3581582,70
1658848155.35759,167508.8947493,73
1658848155.35759,167508.8947629,54
1658848155.35759,167508.8947671,32
1658848155.35759,167508.8947707,30
1658848155.35759,167508.8947743,37
1658848155.35759,167508.8947777,35
1658848155.35759,167508.8947813,35
1658848155.35759,167508.8947848,40
1658848155.35759,167508.8947883,40
1658848155.35759,167508.8947918,42
1658848155.35759,167508.8947953,54
1658848155.35759,167508.8947989,54
1658848155.35759,167508.8948024,42
1658848155.35759,167508.8948059,40
1658848155.88697,167508.8948094,9
1658848155.88697,167508.8948131,-84
1658848155.88697,167508.8948166,68
1658848155.88697,167508.8948202,881
1658848155.88697,167508.8948247,2000
1658848155.88697,167508.8948282,2626
1658848155.88697,167508.8948318,2160
1658848155.88697,167508.8948352,376
1658848155.88697,167508.8948388,-996
1658848155.88697,167508.8948423,-449
1658848155.88697,167508.8948466,207
1658848155.88697,167508.8948501,-131
1658848155.88697,167508.8948536,-242
1658848155.88697,167508.8948572,-18
1658848155.88697,167508.8948607,-56
1658848155.88697,167508.8948642,-113
1658848155.88697,167508.8948676,-23
1658848155.88697,167508.8948711,-4
1658848155.88697,167508.8948746,-28
1658848155.88697,167508.8948782,9
1658848155.88697,167508.8948817,47
1658848155.88697,167508.8948852,56
1658848155.88697,167508.8948887,80
1658848155.88697,167508.8948922,103
1658848155.88697,167508.8948957,127
1658848155.88697,167508.8948991,155
1658848155.88697,167508.8949026,171
1658848155.88697,167508.8949061,186
1658848155.88697,167508.8949101,207
1658848155.88697,167508.8949137,216
1658848155.88697,167508.894921,207
1658848155.88697,167508.8949263,209
1658848155.88697,167508.8949307,209
1658848155.88697,167508.8949358,188
1658848155.88697,167508.8949394,162
1658848155.88697,167508.8949431,136
1658848155.88697,167508.8949482,98
1658848155.88697,167508.8949527,63
1658848155.88697,167508.8949577,25
1658848155.88697,167508.8949626,-14
1658848155.88697,167508.8949661,-54
1658848155.88697,167508.8949705,-77
1658848155.88697,167508.8949755,-82
1658848155.88697,167508.8949799,-82
1658848155.88697,167508.8949851,-84
1658848155.88697,167508.8949901,-77
1658848155.88697,167508.8949937,-63
1658848155.88697,167508.8949973,-51
1658848155.88697,167508.8950023,-42
1658848155.88697,167508.8950068,-28
1658848155.89879,167508.8950117,-21
1658848155.89879,167508.8950168,-18
1658848155.89879,167508.8950203,-11
1658848155.89879,167508.8950241,-4
1658848155.89879,167508.8950291,0
1658848155.89879,167508.8950327,4
1658848155.89879,167508.8950365,4
1658848155.89879,167508.89504,7
1658848155.89879,167508.8950435,7
1658848155.89879,167509.4303325,2
1658848155.89879,167509.4303464,4
1658848155.89879,167509.4303499,9
1658848155.89879,167509.4303549,7
1658848155.89879,167509.4303587,7
1658848155.89879,167509.430361,14
1658848155.89879,167509.4303632,14
1658848155.89879,167509.4303653,7
1658848155.89879,167509.4303681,0
1658848155.89879,167509.4303702,2
1658848155.89879,167509.4303722,7
1658848155.89879,167509.4303742,14
1658848155.89879,167509.4303763,23
1658848155.89879,167509.4303782,23
1658848155.89879,167509.4303803,9
1658848156.42303,167509.4303825,-7
1658848156.42303,167509.4303844,-14
1658848156.42303,167509.4303863,-11
1658848156.42303,167509.4303883,-4
1658848156.42303,167509.4303902,-2
1658848156.42303,167509.4303921,-9
1658848156.42303,167509.4303941,-18
1658848156.42303,167509.430396,-23
1658848156.42303,167509.430398,-16
1658848156.42303,167509.4304,-18
1658848156.42303,167509.430402,-32
1658848156.42303,167509.4304039,-32
1658848156.42303,167509.4304058,-14
1658848156.42303,167509.4304077,28
1658848156.42303,167509.4304096,65
1658848156.42303,167509.4304114,58
1658848156.42303,167509.4304146,37
1658848156.42303,167509.4304263,23
1658848156.42303,167509.4304329,18
1658848156.42303,167509.4304373,18
1658848156.42303,167509.4304394,28
1658848156.42303,167509.4304415,30
1658848156.42303,167509.4304435,28
1658848156.42303,167509.4304455,32
1658848156.42303,167509.4304475,44
1658848156.42303,167509.4304495,47
1658848156.42303,167509.4304515,40
1658848156.42303,167509.4304535,42
1658848156.42303,167509.4304555,49
1658848156.42303,167509.4304575,32
1658848156.42303,167509.4304596,-37
1658848156.42303,167509.4304617,28
1658848156.42303,167509.4304638,612
1658848156.42303,167509.4304658,1620
1658848156.42303,167509.4304678,2419
1658848156.42303,167509.4304698,2325
1658848156.42303,167509.4304718,798
1658848156.42303,167509.4304738,-869
1658848156.42303,167509.4304758,-706
1658848156.42303,167509.4304779,110
1658848156.42303,167509.4304799,-14
1658848156.42303,167509.4304819,-204
1658848156.42303,167509.430484,-14
1658848156.42303,167509.430486,4
1658848156.42303,167509.430488,-68
1658848156.42303,167509.4304901,-9
1658848156.42303,167509.4304921,30
1658848156.42303,167509.4304942,21
1658848156.42303,167509.4304961,51
1658848156.42303,167509.4304981,87
1658848156.434,167509.4305002,96
1658848156.434,167509.4305022,110
1658848156.434,167509.4305042,131
1658848156.434,167509.4305062,150
1658848156.434,167509.4305082,171
1658848156.434,167509.4305102,197
1658848156.434,167509.4305123,214
1658848156.434,167509.4305143,221
1658848156.434,167509.9690291,223
1658848156.434,167509.9690415,226
1658848156.434,167509.9690441,221
1658848156.434,167509.9690462,209
1658848156.434,167509.9690481,186
1658848156.434,167509.96905,155
1658848156.434,167509.969052,122
1658848156.434,167509.9690538,98
1658848156.434,167509.9690557,68
1658848156.434,167509.9690576,28
1658848156.434,167509.9690597,-9
1658848156.434,167509.9690616,-42
1658848156.434,167509.9690636,-77
1658848156.434,167509.9690659,-89
1658848156.434,167509.9690694,-87
1658848156.434,167509.9690784,-87
1658848156.95703,167509.969084,-80
1658848156.95703,167509.9690883,-75
1658848156.95703,167509.9690944,-80
1658848156.95703,167509.9691003,-77
1658848156.95703,167509.9691066,-61
1658848156.95703,167509.969116,-49
1658848156.95703,167509.9691219,-51
1658848156.95703,167509.9691254,-51
1658848156.95703,167509.9691276,-51
1658848156.95703,167509.9691302,-54
1658848156.95703,167509.9691322,-44
1658848156.95703,167509.9691343,-37
1658848156.95703,167509.9691363,-37
1658848156.95703,167509.9691384,-37
1658848156.95703,167509.9691404,-37
1658848156.95703,167509.9691425,-42
1658848156.95703,167509.9691445,-49
1658848156.95703,167509.9691466,-54
1658848156.95703,167509.9691486,-54
1658848156.95703,167509.9691506,-51
1658848156.95703,167509.9691572,-54
1658848156.95703,167509.9691787,-56
1658848156.95703,167509.9691949,-49
1658848156.95703,167509.9692066,-47
1658848156.95703,167509.9692323,-51
1658848156.95703,167509.9692659,-61
1658848156.95703,167509.9693071,-61
1658848156.95703,167509.9693161,-54
1658848156.95703,167509.9693204,-49
1658848156.95703,167509.9693251,-42
1658848156.95703,167509.9693307,-35
1658848156.95703,167509.9693345,-32
1658848156.95703,167509.96934,-30
1658848156.95703,167509.969344,-23
1658848156.95703,167509.9693495,-18
1658848156.95703,167509.9693534,-11
1658848156.95703,167509.9693587,-9
1658848156.95703,167509.9693626,-4
1658848156.95703,167509.9693679,0
1658848156.95703,167509.9693714,4
1658848156.95703,167509.9693748,7
1658848156.95703,167509.9693782,9
1658848156.95703,167509.9693816,4
1658848156.95703,167509.9693849,-7
1658848156.95703,167509.9693884,-4
1658848156.95703,167509.9694196,25
1658848156.95703,167509.9694234,65
1658848156.95703,167509.9694267,82
1658848156.95703,167509.9694299,73
1658848156.95703,167509.9694331,51
1658848156.968,167509.9694362,35
1658848156.968,167509.9694393,40
1658848156.968,167509.9694426,47
1658848156.968,167509.969447,44
1658848156.968,167509.9694504,47
1658848156.968,167509.9694535,51
1658848156.968,167509.9694568,51
1658848156.968,167510.5029958,54
1658848156.968,167510.5030163,63
1658848156.968,167510.5030218,63
1658848156.968,167510.5030279,68
1658848156.968,167510.5030324,58
1658848156.968,167510.5030407,-11
1658848156.968,167510.5030484,-25
1658848156.968,167510.5030561,454
1658848156.968,167510.5030617,1481
1658848156.968,167510.5030652,2363
1658848156.968,167510.5030702,2466
1658848156.968,167510.5030753,1286
1658848156.968,167510.5030794,-530
1658848156.968,167510.5030852,-852
1658848156.968,167510.5030929,35
1658848156.968,167510.503105,108
1658848156.968,167510.5031142,-235
1658848157.54626,167510.5031229,-94
1658848157.54626,167510.503158,11
1658848157.54626,167510.5031653,-84
1658848157.54626,167510.5031949,-56
1658848157.54626,167510.5032146,0
1658848157.54626,167510.503252,-25
1658848157.54626,167510.5032604,-18
1658848157.54626,167510.5032644,23
1658848157.54626,167510.5032676,40
1658848157.54626,167510.5032708,51
1658848157.54626,167510.5032739,75
1658848157.54626,167510.5032771,96
1658848157.54626,167510.5032803,113
1658848157.54626,167510.5032834,136
1658848157.54626,167510.5032866,162
1658848157.54626,167510.5032897,179
1658848157.54626,167510.5032928,186
1658848157.54626,167510.503296,183
1658848157.54626,167510.5032991,179
1658848157.54626,167510.5034496,171
1658848157.54626,167510.5034538,157
1658848157.54626,167510.503457,141
1658848157.54626,167510.5034602,117
1658848157.54626,167510.5034633,82
1658848157.54626,167510.5034664,42
1658848157.54626,167510.5034695,2
1658848157.54626,167510.5034727,-32
1658848157.54626,167510.5034758,-61
1658848157.54626,167510.503479,-80
1658848157.54626,167510.5034821,-94
1658848157.54626,167510.5034851,-103
1658848157.54626,167510.5034882,-101
1658848157.54626,167510.5034913,-91
1658848157.54626,167510.5034944,-82
1658848157.54626,167510.5034974,-70
1658848157.54626,167510.5035006,-58
1658848157.54626,167510.5035037,-56
1658848157.54626,167510.5035068,-56
1658848157.54626,167510.5035099,-56
1658848157.54626,167510.5035129,-54
1658848157.54626,167510.5035162,-54
1658848157.54626,167510.5035193,-49
1658848157.54626,167510.5035223,-49
1658848157.54626,167510.5035255,-51
1658848157.54626,167510.5035285,-47
1658848157.54626,167510.5035317,-40
1658848157.54626,167510.5035348,-37
1658848157.54626,167510.5036058,-37
1658848157.54626,167510.5036343,-40
1658848157.54626,167510.5036411,-37
1658848157.55823,167510.5036448,-30
1658848157.55823,167510.5037844,-28
1658848157.55823,167510.5037929,-25
1658848157.55823,167510.5038738,-21
1658848157.55823,167510.5038782,-21
1658848157.55823,167510.5038818,-18
1658848157.55823,167511.0883793,-11
1658848157.55823,167511.0883995,-4
1658848157.55823,167511.0884139,0
1658848157.55823,167511.088428,4
1658848157.55823,167511.088441,2
1658848157.55823,167511.0884544,-9
1658848157.55823,167511.0884679,-18
1658848157.55823,167511.0884764,-9
1658848157.55823,167511.0884789,2
1658848157.55823,167511.088481,4
1658848157.55823,167511.0884831,4
1658848157.55823,167511.0884852,0
1658848157.55823,167511.0884874,-9
1658848157.55823,167511.0884919,-9
1658848157.55823,167511.0885033,-2
1658848157.55823,167511.0885087,-2
1658848157.55823,167511.0885109,2
1658848157.55823,167511.088513,9
1658848158.17936,167511.0885151,7
1658848158.17936,167511.0885171,-2
1658848158.17936,167511.0885245,-7
1658848158.17936,167511.0885334,7
1658848158.17936,167511.0885364,42
1658848158.17936,167511.0885416,75
1658848158.17936,167511.0885516,87
1658848158.17936,167511.0885582,70
1658848158.17936,167511.0885612,40
1658848158.17936,167511.0885642,28
1658848158.17936,167511.0885748,37
1658848158.17936,167511.0885821,42
1658848158.17936,167511.0885845,42
1658848158.17936,167511.0885866,44
1658848158.17936,167511.0885886,47
1658848158.17936,167511.0885943,49
1658848158.17936,167511.0886051,54
1658848158.17936,167511.08861,61
1658848158.17936,167511.0886129,63
1658848158.17936,167511.0886149,65
1658848158.17936,167511.088617,35
1658848158.17936,167511.0886201,-37
1658848158.17936,167511.0886307,115
1658848158.17936,167511.0886376,871
1658848158.17936,167511.0886407,1924
1658848158.17936,167511.0886429,2518
1658848158.17936,167511.0886455,2082
1658848158.17936,167511.0886554,400
1658848158.17936,167511.0886636,-935
1658848158.17936,167511.0886661,-440
1658848158.17936,167511.0886683,219
1658848158.17936,167511.0886704,-65
1658848158.17936,167511.0886761,-186
1658848158.17936,167511.088687,14
1658848158.17936,167511.0886921,-14
1658848158.17936,167511.0886943,-68
1658848158.17936,167511.0886964,11
1658848158.17936,167511.0886985,37
1658848158.17936,167511.0887013,23
1658848158.17936,167511.0887117,54
1658848158.17936,167511.0887192,82
1658848158.17936,167511.0887216,89
1658848158.17936,167511.0887238,115
1658848158.17936,167511.0887259,143
1658848158.17936,167511.0887318,157
1658848158.17936,167511.0887426,174
1658848158.17936,167511.0887554,190
1658848158.17936,167511.0887684,207
1658848158.17936,167511.0887739,221
1658848158.17936,167511.0887766,233
1658848158.18933,167511.0887793,233
1658848158.18933,167511.0887814,221
1658848158.18933,167511.0887843,204
1658848158.18933,167511.0887912,186
1658848158.18933,167511.0888008,169
1658848158.18933,167511.7222848,141
1658848158.18933,167511.7223026,101
1658848158.18933,167511.7223124,49
1658848158.18933,167511.7223171,4
1658848158.18933,167511.7223224,-28
1658848158.18933,167511.7223263,-58
1658848158.18933,167511.7223295,-82
1658848158.18933,167511.7223346,-91
1658848158.18933,167511.7223377,-110
1658848158.18933,167511.7223428,-131
1658848158.18933,167511.7223523,-124
1658848158.18933,167511.7223641,-103
1658848158.18933,167511.7223743,-94
1658848158.18933,167511.7223782,-84
1658848158.18933,167511.7223842,-84
1658848158.18933,167511.7223872,-91
1658848158.18933,167511.7223903,-87
1658848158.18933,167511.7223932,-70
1658848158.18933,167511.7223967,-63
1658848158.66611,167511.7224023,-75
1658848158.66611,167511.7224061,-82
1658848158.66611,167511.7224091,-75
1658848158.66611,167511.7224119,-65
1658848158.66611,167511.7224147,-56
1658848158.66611,167511.7224175,-51
1658848158.66611,167511.7224203,-47
1658848158.66611,167511.7224231,-47
1658848158.66611,167511.7224259,-51
1658848158.66611,167511.7224287,-47
1658848158.66611,167511.7224316,-40
1658848158.66611,167511.7224344,-32
1658848158.66611,167511.7224379,-21
1658848158.66611,167511.7224493,-14
1658848158.66611,167511.7224561,-11
1658848158.66611,167511.7224682,-11
1658848158.66611,167511.7224761,-7
1658848158.66611,167511.7224787,-2
1658848158.66611,167511.7224807,-2
1658848158.66611,167511.7224829,-2
1658848158.66611,167511.7224849,7
1658848158.66611,167511.7224869,9
1658848158.66611,167511.7224889,7
1658848158.66611,167511.722491,11
1658848158.66611,167511.722493,25
1658848158.66611,167511.722495,32
1658848158.66611,167511.722497,30
1658848158.66611,167511.7224995,32
1658848158.66611,167511.7225015,40
1658848158.66611,167511.7225036,49
1658848158.66611,167511.7225056,49
1658848158.66611,167511.7225076,51
1658848158.66611,167511.7225096,58
1658848158.66611,167511.7225116,54
1658848158.66611,167511.7225136,42
1658848158.66611,167511.7225156,40
1658848158.66611,167511.7225176,47
1658848158.66611,167511.7225196,73
1658848158.66611,167511.7225215,113
1658848158.66611,167511.7225235,134
1658848158.66611,167511.7225255,127
1658848158.66611,167511.7225276,103
1658848158.66611,167511.7225303,89
1658848158.66611,167511.7225323,91
1658848158.66611,167511.7225344,91
1658848158.66611,167511.7225364,94
1658848158.66611,167511.7225385,91
1658848158.66611,167511.7225405,89
1658848158.66611,167511.7225425,96
1658848158.66611,167511.7225446,106
1658848158.67822,167511.7225466,98
1658848158.67822,167511.7225494,96
1658848158.67822,167511.7225514,98
1658848158.67822,167511.7225534,70
1658848158.67822,167512.2098522,4
1658848158.67822,167512.2098655,65
1658848158.67822,167512.2098683,617
1658848158.67822,167512.2098706,1592
1658848158.67822,167512.2098727,2363
1658848158.67822,167512.2098748,2315
1658848158.67822,167512.2098768,930
1658848158.67822,167512.2098789,-732
1658848158.67822,167512.209881,-692
1658848158.67822,167512.2098831,129
1658848158.67822,167512.2098853,54
1658848158.67822,167512.2098874,-167
1658848158.67822,167512.2098897,11
1658848158.67822,167512.2098952,40
1658848158.67822,167512.2099052,-44
1658848158.67822,167512.2099109,4
1658848158.67822,167512.2099202,47
1658848158.67822,167512.2099282,23
1658848158.67822,167512.2099321,30
1658848158.67822,167512.2099341,58
1658848159.34453,167512.2099361,75
1658848159.34453,167512.2099381,84
1658848159.34453,167512.20994,113
1658848159.34453,167512.209942,141
1658848159.34453,167512.2099441,148
1658848159.34453,167512.209946,148
1658848159.34453,167512.209948,171
1658848159.34453,167512.2099498,190
1658848159.34453,167512.2099517,188
1658848159.34453,167512.2099536,188
1658848159.34453,167512.2099555,193
1658848159.34453,167512.2099574,171
1658848159.34453,167512.2099593,143
1658848159.34453,167512.2099613,131
1658848159.34453,167512.2099633,115
1658848159.34453,167512.2099651,82
1658848159.34453,167512.209967,37
1658848159.34453,167512.2099689,-11
1658848159.34453,167512.2099709,-54
1658848159.34453,167512.2099728,-82
1658848159.34453,167512.2099748,-98
1658848159.34453,167512.2099767,-108
1658848159.34453,167512.2099796,-115
1658848159.34453,167512.2099817,-120
1658848159.34453,167512.2099837,-122
1658848159.34453,167512.2099858,-110
1658848159.34453,167512.2099878,-94
1658848159.34453,167512.2099899,-82
1658848159.34453,167512.2099919,-73
1658848159.34453,167512.2099941,-65
1658848159.34453,167512.2099961,-58
1658848159.34453,167512.2099981,-49
1658848159.34453,167512.2100003,-44
1658848159.34453,167512.210003,-37
1658848159.34453,167512.2100051,-30
1658848159.34453,167512.2100071,-32
1658848159.34453,167512.2100092,-35
1658848159.34453,167512.2100112,-32
1658848159.34453,167512.2100132,-28
1658848159.34453,167512.2100152,-25
1658848159.34453,167512.2100174,-30
1658848159.34453,167512.2100194,-32
1658848159.34453,167512.2100215,-30
1658848159.34453,167512.2100235,-28
1658848159.34453,167512.2100256,-23
1658848159.34453,167512.2100276,-18
1658848159.34453,167512.2100297,-21
1658848159.34453,167512.2100317,-18
1658848159.34453,167512.2100337,-11
1658848159.34453,167512.2100422,-9
1658848159.3555,167512.2100442,-7
1658848159.3555,167512.2100463,-2
1658848159.3555,167512.2100484,4
1658848159.3555,167512.8927424,9
1658848159.3555,167512.8927599,9
1658848159.3555,167512.8927646,4
1658848159.3555,167512.8927689,7
1658848159.3555,167512.8927733,11
1658848159.3555,167512.8927776,7
1658848159.3555,167512.8927821,0
1658848159.3555,167512.8927863,-2
1658848159.3555,167512.8927902,-9
1658848159.3555,167512.8927939,-23
1658848159.3555,167512.8927978,-25
1658848159.3555,167512.8928022,-25
1658848159.3555,167512.892807,-21
1658848159.3555,167512.8928118,14
1658848159.3555,167512.8928162,44
1658848159.3555,167512.8928204,35
1658848159.3555,167512.8928243,16
1658848159.3555,167512.8928286,0
1658848159.3555,167512.8928327,-7
1658848159.3555,167512.8928368,-7
1658848159.3555,167512.8928408,-9
1658848159.78168,167512.8928454,-11
1658848159.78168,167512.89285,-7
1658848159.78168,167512.8928545,-2
1658848159.78168,167512.8928592,0
1658848159.78168,167512.8928641,4
1658848159.78168,167512.8928688,9
1658848159.78168,167512.8928732,9
1658848159.78168,167512.8928773,9
1658848159.78168,167512.8928812,-30
1658848159.78168,167512.8928851,-98
1658848159.78168,167512.8928888,120
1658848159.78168,167512.8928928,932
1658848159.78168,167512.8928968,1920
1658848159.78168,167512.8929008,2379
1658848159.78168,167512.8929049,1745
1658848159.78168,167512.8929089,4
1658848159.78168,167512.8929128,-1010
1658848159.78168,167512.8929168,-318
1658848159.78168,167512.892947,174
1658848159.78168,167512.8929544,-153
1658848159.78168,167512.8929592,-171
1658848159.78168,167512.8929639,7
1658848159.78168,167512.8929686,-54
1658848159.78168,167512.892973,-82
1658848159.78168,167512.8929775,-2
1658848159.78168,167512.8929818,2
1658848159.78168,167512.8929866,-11
1658848159.78168,167512.8929923,28
1658848159.78168,167512.892997,56
1658848159.78168,167512.8930023,61
1658848159.78168,167512.8930067,77
1658848159.78168,167512.8930125,96
1658848159.78168,167512.893019,108
1658848159.78168,167512.8930238,131
1658848159.78168,167512.8930278,160
1658848159.78168,167512.8930317,183
1658848159.78168,167512.8930366,193
1658848159.78168,167512.8930428,195
1658848159.78168,167512.8931012,195
1658848159.78168,167512.8931179,188
1658848159.78168,167512.8931249,167
1658848159.78168,167512.8931441,139
1658848159.78168,167512.8931497,108
1658848159.78168,167512.8931565,77
1658848159.78168,167512.8931632,37
1658848159.78168,167512.8931939,-9
1658848159.78168,167512.8933001,-54
1658848159.78168,167512.8933065,-82
1658848159.78168,167512.8933107,-103
1658848159.78168,167512.8933145,-120
1658848159.79394,167512.8933184,-139
1658848159.79394,167512.8933223,-153
1658848159.79394,167513.3324969,-148
1658848159.79394,167513.332518,-136
1658848159.79394,167513.3325321,-127
1658848159.79394,167513.3325425,-110
1658848159.79394,167513.3325531,-96
1658848159.79394,167513.3325608,-91
1658848159.79394,167513.3325668,-84
1658848159.79394,167513.3325799,-75
1658848159.79394,167513.332593,-68
1658848159.79394,167513.332608,-68
1658848159.79394,167513.3326149,-68
1658848159.79394,167513.3326186,-75
1658848159.79394,167513.3326263,-87
1658848159.79394,167513.332641,-82
1658848159.79394,167513.3326542,-73
1658848159.79394,167513.3326636,-75
1658848159.79394,167513.3326689,-70
1658848159.79394,167513.3326798,-70
1658848159.79394,167513.3326848,-75
1658848159.79394,167513.332687,-63
1658848159.79394,167513.3326905,-51
1658848159.79394,167513.3327026,-51
1658848160.31784,167513.3327182,-44
1658848160.31784,167513.3327269,-37
1658848160.31784,167513.3327337,-40
1658848160.31784,167513.33274,-35
1658848160.31784,167513.3327504,-25
1658848160.31784,167513.3327605,-23
1658848160.31784,167513.3327675,-23
1658848160.31784,167513.3327824,-21
1658848160.31784,167513.3327959,-28
1658848160.31784,167513.3328092,-35
1658848160.31784,167513.3328222,-28
1658848160.31784,167513.332859,-18
1658848160.31784,167513.3328757,-14
1658848160.31784,167513.3328819,-9
1658848160.31784,167513.3328864,-7
1658848160.31784,167513.3328899,-11
1658848160.31784,167513.3328948,-4
1658848160.31784,167513.3328995,0
1658848160.31784,167513.3329043,-9
1658848160.31784,167513.3329076,-4
1658848160.31784,167513.3329111,21
1658848160.31784,167513.3329159,47
1658848160.31784,167513.3329192,56
1658848160.31784,167513.3329225,49
1658848160.31784,167513.3329273,32
1658848160.31784,167513.3329306,28
1658848160.31784,167513.3329339,32
1658848160.31784,167513.3329389,32
1658848160.31784,167513.3329421,30
1658848160.31784,167513.3329454,32
1658848160.31784,167513.3329488,40
1658848160.31784,167513.3329521,44
1658848160.31784,167513.3329554,42
1658848160.31784,167513.3329588,40
1658848160.31784,167513.3329635,47
1658848160.31784,167513.3329676,54
1658848160.31784,167513.3329723,21
1658848160.31784,167513.3329761,-47
1658848160.31784,167513.3329809,127
1658848160.31784,167513.3329842,881
1658848160.31784,167513.332989,1875
1658848160.31784,167513.3329942,2393
1658848160.31784,167513.3329988,1851
1658848160.31784,167513.3330033,141
1658848160.31784,167513.333008,-1008
1658848160.31784,167513.3330113,-381
1658848160.31784,167513.3330147,204
1658848160.31784,167513.3330194,-103
1658848160.31784,167513.3330227,-167
1658848160.31784,167513.333026,23
1658848160.32886,167513.3330309,-16
1658848160.32886,167513.866879,-54
1658848160.32886,167513.8668987,18
1658848160.32886,167513.8669089,30
1658848160.32886,167513.8669118,16
1658848160.32886,167513.866914,49
1658848160.32886,167513.8669161,73
1658848160.32886,167513.8669245,84
1658848160.32886,167513.8669374,103
1658848160.32886,167513.8669462,108
1658848160.32886,167513.8669518,108
1658848160.32886,167513.8669558,134
1658848160.32886,167513.8669614,162
1658848160.32886,167513.8669675,171
1658848160.32886,167513.8669713,188
1658848160.32886,167513.866975,209
1658848160.32886,167513.8669789,214
1658848160.32886,167513.8669827,202
1658848160.32886,167513.8669878,188
1658848160.32886,167513.8669939,171
1658848160.32886,167513.8669982,146
1658848160.32886,167513.8670039,106
1658848160.32886,167513.8670081,47
1658848160.32886,167513.8670135,-11
1658848160.91099,167513.8670175,-51
1658848160.91099,167513.8670211,-84
1658848160.91099,167513.8670252,-106
1658848160.91099,167513.8670292,-129
1658848160.91099,167513.8670332,-150
1658848160.91099,167513.8670371,-146
1658848160.91099,167513.867041,-129
1658848160.91099,167513.8670449,-131
1658848160.91099,167513.8670491,-131
1658848160.91099,167513.8670532,-108
1658848160.91099,167513.8670591,-84
1658848160.91099,167513.8670629,-75
1658848160.91099,167513.8670687,-70
1658848160.91099,167513.8670736,-68
1658848160.91099,167513.8670795,-65
1658848160.91099,167513.8670835,-56
1658848160.91099,167513.8670884,-44
1658848160.91099,167513.8670923,-42
1658848160.91099,167513.8670975,-42
1658848160.91099,167513.8671019,-28
1658848160.91099,167513.8671073,-21
1658848160.91099,167513.8671115,-25
1658848160.91099,167513.8671168,-18
1658848160.91099,167513.8671206,-11
1658848160.91099,167513.8671257,-18
1658848160.91099,167513.8671297,-18
1658848160.91099,167513.867135,-16
1658848160.91099,167513.8671389,-9
1658848160.91099,167513.8671443,2
1658848160.91099,167513.8671481,7
1658848160.91099,167513.8671533,9
1658848160.91099,167513.8671575,23
1658848160.91099,167513.8671629,23
1658848160.91099,167513.8671668,14
1658848160.91099,167513.8671717,14
1658848160.91099,167513.8671755,21
1658848160.91099,167513.8671809,21
1658848160.91099,167513.8671847,21
1658848160.91099,167513.8671885,25
1658848160.91099,167513.8671936,28
1658848160.91099,167513.8671973,37
1658848160.91099,167513.8672013,47
1658848160.91099,167513.8672064,44
1658848160.91099,167513.8672103,42
1658848160.91099,167513.8672141,40
1658848160.91099,167513.8672192,42
1658848160.91099,167513.8672248,49
1658848160.91099,167513.86723,65
1658848160.91099,167513.8672338,94
1658848160.91099,167513.8672377,115
1658848160.92096,167514.45206,108
1658848160.92096,167514.4520791,94
1658848160.92096,167514.4520839,77
1658848160.92096,167514.4520877,73
1658848160.92096,167514.4520915,73
1658848160.92096,167514.4520971,63
1658848160.92096,167514.4521029,58
1658848160.92096,167514.4521077,61
1658848160.92096,167514.4521113,65
1658848160.92096,167514.4521154,75
1658848160.92096,167514.4521215,73
1658848160.92096,167514.4521252,63
1658848160.92096,167514.4521288,73
1658848160.92096,167514.452134,80
1658848160.92096,167514.4521381,23
1658848160.92096,167514.452143,18
1658848160.92096,167514.4521484,428
1658848160.92096,167514.4521533,1316
1658848160.92096,167514.4521588,2165
1658848160.92096,167514.4521622,2325
1658848160.92096,167514.4521658,1166
1658848160.92096,167514.4521715,-588
1658848160.92096,167514.4521747,-876
1658848160.92096,167514.452178,-37
1658848161.48853,167514.4521812,101
1658848161.48853,167514.4521847,-120
1658848161.48853,167514.4521882,7
1658848161.48853,167514.4521917,73
1658848161.48853,167514.4521953,0
1658848161.48853,167514.4521996,35
1658848161.48853,167514.452203,84
1658848161.48853,167514.4522064,73
1658848161.48853,167514.4522098,96
1658848161.48853,167514.4522133,141
1658848161.48853,167514.4522166,143
1658848161.48853,167514.4522197,148
1658848161.48853,167514.452223,183
1658848161.48853,167514.4522262,200
1658848161.48853,167514.4522293,204
1658848161.48853,167514.4522322,230
1658848161.48853,167514.4522354,256
1658848161.48853,167514.4522389,266
1658848161.48853,167514.4522425,275
1658848161.48853,167514.452246,282
1658848161.48853,167514.4522496,266
1658848161.48853,167514.4522531,252
1658848161.48853,167514.4522574,247
1658848161.48853,167514.4522637,233
1658848161.48853,167514.4522675,197
1658848161.48853,167514.4522732,153
1658848161.48853,167514.4522769,108
1658848161.48853,167514.4522822,56
1658848161.48853,167514.4522853,9
1658848161.48853,167514.4522905,-23
1658848161.48853,167514.4522936,-49
1658848161.48853,167514.4522968,-73
1658848161.48853,167514.4523001,-94
1658848161.48853,167514.4523034,-101
1658848161.48853,167514.4523066,-96
1658848161.48853,167514.4523098,-91
1658848161.48853,167514.4523147,-84
1658848161.48853,167514.4523181,-73
1658848161.48853,167514.4523215,-58
1658848161.48853,167514.4523247,-56
1658848161.48853,167514.4523281,-51
1658848161.48853,167514.4523313,-44
1658848161.48853,167514.4523365,-30
1658848161.48853,167514.4523399,-23
1658848161.48853,167514.4523449,-23
1658848161.48853,167514.4523482,-21
1658848161.48853,167514.4523513,-16
1658848161.48853,167514.4523547,-16
1658848161.48853,167514.4523582,-11
1658848161.48853,167515.0368736,-7
1658848161.49912,167515.0368913,-7
1658848161.49912,167515.0368996,-9
1658848161.49912,167515.0369042,-9
1658848161.49912,167515.0369096,-9
1658848161.49912,167515.0369134,-7
1658848161.49912,167515.0369191,2
1658848161.49912,167515.0369701,4
1658848161.49912,167515.0369802,-9
1658848161.49912,167515.0369848,-16
1658848161.49912,167515.0369947,-9
1658848161.49912,167515.0369994,-7
1658848161.49912,167515.0370037,2
1658848161.49912,167515.0370063,11
1658848161.49912,167515.0370084,-7
1658848161.49912,167515.0370104,-35
1658848161.49912,167515.0370125,-30
1658848161.49912,167515.0370147,-9
1658848161.49912,167515.0370168,-4
1658848161.49912,167515.0370187,-7
1658848161.49912,167515.0370208,-14
1658848161.49912,167515.0370228,-25
1658848161.49912,167515.0370249,-11
1658848161.49912,167515.0370269,35
1658848161.49912,167515.037029,80
1658848162.02913,167515.037031,80
1658848162.02913,167515.0370329,44
1658848162.02913,167515.0370348,25
1658848162.02913,167515.0370367,32
1658848162.02913,167515.0370387,35
1658848162.02913,167515.0370406,32
1658848162.02913,167515.0370432,44
1658848162.02913,167515.0370502,49
1658848162.02913,167515.0370569,40
1658848162.02913,167515.037061,47
1658848162.02913,167515.037066,63
1658848162.02913,167515.0370713,65
1658848162.02913,167515.0370787,61
1658848162.02913,167515.0370877,61
1658848162.02913,167515.037099,18
1658848162.02913,167515.0371093,-54
1658848162.02913,167515.0371128,171
1658848162.02913,167515.0371169,989
1658848162.02913,167515.037124,1964
1658848162.02913,167515.0371281,2353
1658848162.02913,167515.0371337,1590
1658848162.02913,167515.0371382,-143
1658848162.02913,167515.0371443,-998
1658848162.02913,167515.0371488,-252
1658848162.02913,167515.0371532,200
1658848162.02913,167515.0371575,-106
1658848162.02913,167515.0371635,-110
1658848162.02913,167515.0371698,44
1658848162.02913,167515.0371745,-9
1658848162.02913,167515.0371807,-16
1658848162.02913,167515.0371907,56
1658848162.02913,167515.0371955,54
1658848162.02913,167515.0372,47
1658848162.02913,167515.0372046,84
1658848162.02913,167515.0372085,103
1658848162.02913,167515.0372128,117
1658848162.02913,167515.0372173,148
1658848162.02913,167515.037222,164
1658848162.02913,167515.0372266,174
1658848162.02913,167515.0372312,202
1658848162.02913,167515.0372358,226
1658848162.02913,167515.0372402,242
1658848162.02913,167515.0372449,270
1658848162.02913,167515.0372495,294
1658848162.02913,167515.0372542,285
1658848162.02913,167515.0372581,273
1658848162.02913,167515.0372624,266
1658848162.02913,167515.037267,245
1658848162.02913,167515.5737011,212
1658848162.02913,167515.5737139,176
1658848162.0371,167515.5737166,127
1658848162.0371,167515.5737189,68
1658848162.0371,167515.5737211,21
1658848162.0371,167515.5737234,-16
1658848162.0371,167515.5737255,-49
1658848162.0371,167515.5737276,-75
1658848162.0371,167515.5737297,-87
1658848162.0371,167515.5737318,-84
1658848162.0371,167515.5737337,-84
1658848162.0371,167515.5737358,-94
1658848162.0371,167515.5737379,-96
1658848162.0371,167515.5737399,-87
1658848162.0371,167515.5737419,-82
1658848162.0371,167515.5737439,-82
1658848162.0371,167515.573746,-77
1658848162.0371,167515.573748,-77
1658848162.0371,167515.57375,-84
1658848162.0371,167515.573752,-80
1658848162.0371,167515.573754,-73
1658848162.0371,167515.5737561,-73
1658848162.0371,167515.5737581,-65
1658848162.0371,167515.5737602,-61
1658848162.0371,167515.5737622,-63
1658848162.0371,167515.5737642,-65
1658848162.61014,167515.5737662,-56
1658848162.61014,167515.5737682,-51
1658848162.61014,167515.5737701,-51
1658848162.61014,167515.573772,-56
1658848162.61014,167515.5737739,-54
1658848162.61014,167515.5737758,-47
1658848162.61014,167515.5737776,-40
1658848162.61014,167515.5737795,-32
1658848162.61014,167515.5737814,-32
1658848162.61014,167515.5737833,-42
1658848162.61014,167515.5737852,-42
1658848162.61014,167515.5737871,-32
1658848162.61014,167515.5737892,-30
1658848162.61014,167515.5737945,-40
1658848162.61014,167515.5738022,-37
1658848162.61014,167515.5738106,-23
1658848162.61014,167515.5738156,-16
1658848162.61014,167515.57382,-16
1658848162.61014,167515.5738243,-11
1658848162.61014,167515.573831,-4
1658848162.61014,167515.5738355,2
1658848162.61014,167515.5738392,-2
1658848162.61014,167515.5738442,-4
1658848162.61014,167515.5738478,11
1658848162.61014,167515.5738514,40
1658848162.61014,167515.5738566,73
1658848162.61014,167515.5738601,80
1658848162.61014,167515.5738637,58
1658848162.61014,167515.5738675,42
1658848162.61014,167515.5738727,42
1658848162.61014,167515.5738795,40
1658848162.61014,167515.5738863,42
1658848162.61014,167515.5738926,49
1658848162.61014,167515.5738985,56
1658848162.61014,167515.5739065,61
1658848162.61014,167515.5739112,58
1658848162.61014,167515.5739163,54
1658848162.61014,167515.5739197,58
1658848162.61014,167515.5739232,73
1658848162.61014,167515.5739266,73
1658848162.61014,167515.5739301,28
1658848162.61014,167515.5739335,-42
1658848162.61014,167515.573937,141
1658848162.61014,167515.5739417,909
1658848162.61014,167515.5739452,1915
1658848162.61014,167515.5739502,2412
1658848162.61014,167515.5739535,1783
1658848162.61014,167516.1600826,65
1658848162.61014,167516.1601024,-961
1658848162.61014,167516.1601112,-310
1658848162.6231,167516.1601183,214
1658848162.6231,167516.1601318,-75
1658848162.6231,167516.1601392,-117
1658848162.6231,167516.1601456,47
1658848162.6231,167516.1601511,-11
1658848162.6231,167516.1601548,-54
1658848162.6231,167516.1601624,14
1658848162.6231,167516.1601696,35
1658848162.6231,167516.1601742,35
1658848162.6231,167516.1601798,61
1658848162.6231,167516.1601861,80
1658848162.6231,167516.1601937,82
1658848162.6231,167516.1602119,87
1658848162.6231,167516.1602282,110
1658848162.6231,167516.160235,146
1658848162.6231,167516.1602393,167
1658848162.6231,167516.1602425,186
1658848162.6231,167516.1602457,209
1658848162.6231,167516.160249,228
1658848162.6231,167516.1602523,242
1658848162.6231,167516.1602554,252
1658848162.6231,167516.1602585,247
1658848162.6231,167516.160262,233
1658848162.6231,167516.1602658,221
1658848163.14789,167516.1602714,188
1658848163.14789,167516.1602751,141

1658848163.14789,167516.1602784,98
1658848163.14789,167516.1602818,47
1658848163.14789,167516.1602848,-11
1658848163.14789,167516.1602879,-49
1658848163.14789,167516.1602909,-77
1658848163.14789,167516.1602942,-98
1658848163.14789,167516.1602974,-103
1658848163.14789,167516.160301,-106
1658848163.14789,167516.1603042,-108
1658848163.14789,167516.1603094,-98
1658848163.14789,167516.1603139,-89
1658848163.14789,167516.1603276,-82
1658848163.14789,167516.1603384,-63
1658848163.14789,167516.1603461,-44
1658848163.14789,167516.1603541,-47
1658848163.14789,167516.1603624,-51
1658848163.14789,167516.1603747,-47
1658848163.14789,167516.160384,-44
1658848163.14789,167516.16039,-44
1658848163.14789,167516.1604022,-40
1658848163.14789,167516.1604113,-35
1658848163.14789,167516.1604182,-32
1658848163.14789,167516.1604309,-30
1658848163.14789,167516.160441,-30
1658848163.14789,167516.1604473,-30
1658848163.14789,167516.1604597,-35
1658848163.14789,167516.1604683,-35
1658848163.14789,167516.1604769,-28
1658848163.14789,167516.1604875,-25
1658848163.14789,167516.1604956,-25
1658848163.14789,167516.1605055,-23
1658848163.14789,167516.1605165,-16
1658848163.14789,167516.1605249,-16
1658848163.14789,167516.1605373,-18
1658848163.14789,167516.1605474,-16
1658848163.14789,167516.1605559,-11
1658848163.14789,167516.1605623,-9
1658848163.14789,167516.1605663,-9
1658848163.14789,167516.1605683,-7
1658848163.14789,167516.1605704,0
1658848163.14789,167516.1605724,9
1658848163.14789,167516.1605844,11
1658848163.14789,167516.1605958,14
1658848163.14789,167516.1606009,14
1658848163.14789,167516.6943783,16
1658848163.14789,167516.6943959,21
1658848163.14789,167516.6944002,25
1658848163.14789,167516.6944036,21
1658848163.16043,167516.694407,16
1658848163.16043,167516.6944102,28
1658848163.16043,167516.6944135,56
1658848163.16043,167516.6944188,87
1658848163.16043,167516.6944223,98
1658848163.16043,167516.6944255,82
1658848163.16043,167516.6944307,51
1658848163.16043,167516.6944352,28
1658848163.16043,167516.6944385,16
1658848163.16043,167516.6944425,18
1658848163.16043,167516.6944459,28
1658848163.16043,167516.6944492,32
1658848163.16043,167516.6944542,32
1658848163.16043,167516.6944581,28
1658848163.16043,167516.694463,21
1658848163.16043,167516.6944661,23
1658848163.16043,167516.6944694,23
1658848163.16043,167516.6944726,7
1658848163.16043,167516.6944759,-28
1658848163.16043,167516.694479,-91
1658848163.16043,167516.6944823,58
1658848163.16043,167516.6944872,782
1658848163.16043,167516.6944906,1785
1658848163.16043,167516.6944956,2332
1658848163.73378,167516.6944987,1792
1658848163.73378,167516.6945019,115
1658848163.73378,167516.6945052,-987
1658848163.73378,167516.6945085,-400
1658848163.73378,167516.6945121,157
1658848163.73378,167516.6945155,-106
1658848163.73378,167516.694519,-167
1658848163.73378,167516.6945222,2
1658848163.73378,167516.6945257,-37
1658848163.73378,167516.694529,-75
1658848163.73378,167516.6945327,0
1658848163.73378,167516.6945363,21
1658848163.73378,167516.6945397,14
1658848163.73378,167516.6945435,42
1658848163.73378,167516.6945474,63
1658848163.73378,167516.6945511,75
1658848163.73378,167516.6945572,103
1658848163.73378,167516.6945613,129
1658848163.73378,167516.6945653,148
1658848163.73378,167516.6945691,169
1658848163.73378,167516.6945751,197
1658848163.73378,167516.6945796,221
1658848163.73378,167516.6945836,240
1658848163.73378,167516.6945893,261
1658848163.73378,167516.6945941,266
1658848163.73378,167516.6945997,254
1658848163.73378,167516.6946038,233
1658848163.73378,167516.6946077,216
1658848163.73378,167516.6946113,197
1658848163.73378,167516.6946161,169
1658848163.73378,167516.6946196,131
1658848163.73378,167516.694623,82
1658848163.73378,167516.6946259,30
1658848163.73378,167516.6946289,-18
1658848163.73378,167516.6946316,-51
1658848163.73378,167516.6946343,-73
1658848163.73378,167516.694637,-87
1658848163.73378,167516.6946398,-91
1658848163.73378,167516.6946425,-89
1658848163.73378,167516.6946451,-87
1658848163.73378,167516.694648,-82
1658848163.73378,167516.694652,-73
1658848163.73378,167516.6946552,-58
1658848163.73378,167516.6946596,-44
1658848163.73378,167516.6946625,-37
1658848163.73378,167517.280841,-30
1658848163.73378,167517.2808615,-28
1658848163.73378,167517.280867,-32
1658848163.73378,167517.2808704,-32
1658848163.73378,167517.2808738,-28
1658848163.74322,167517.2808769,-25
1658848163.74322,167517.2808929,-23
1658848163.74322,167517.280911,-23
1658848163.74322,167517.2809181,-40
1658848163.74322,167517.280923,-54
1658848163.74322,167517.2809299,-49
1658848163.74322,167517.2809336,-42
1658848163.74322,167517.2809372,-47
1658848163.74322,167517.2809404,-54
1658848163.74322,167517.2809439,-56
1658848163.74322,167517.2809476,-65
1658848163.74322,167517.280954,-63
1658848163.74322,167517.2809579,-49
1658848163.74322,167517.280979,-47
1658848163.74322,167517.281004,-49
1658848163.74322,167517.2810106,-44
1658848163.74322,167517.2810146,-40
1658848163.74322,167517.2810185,-28
1658848163.74322,167517.281023,-16
1658848163.74322,167517.2810291,-14
1658848163.74322,167517.2810327,-16
1658848163.74322,167517.2810363,-7
1658848163.74322,167517.28104,2
1658848163.74322,167517.2810453,7
1658848164.27669,167517.2810485,11
1658848164.27669,167517.2810517,11
1658848164.27669,167517.2810547,14
1658848164.27669,167517.2810576,18
1658848164.27669,167517.2810606,18
1658848164.27669,167517.2810639,14
1658848164.27669,167517.2810675,30
1658848164.27669,167517.2810707,68
1658848164.27669,167517.2810737,98
1658848164.27669,167517.2810779,103
1658848164.27669,167517.2810808,91
1658848164.27669,167517.2810835,73
1658848164.27669,167517.2810861,70
1658848164.27669,167517.2810886,80
1658848164.27669,167517.2810913,75
1658848164.27669,167517.281094,70
1658848164.27669,167517.2810968,75
1658848164.27669,167517.2810993,73
1658848164.27669,167517.2811019,65
1658848164.27669,167517.2811045,73
1658848164.27669,167517.2811071,80
1658848164.27669,167517.2811096,75
1658848164.27669,167517.2811123,80
1658848164.27669,167517.281115,63
1658848164.27669,167517.2811176,-7
1658848164.27669,167517.2811203,73
1658848164.27669,167517.2811229,662
1658848164.27669,167517.2811256,1630
1658848164.27669,167517.2811282,2363
1658848164.27669,167517.2811309,2195
1658848164.27669,167517.2811335,666
1658848164.27669,167517.2811361,-864
1658848164.27669,167517.2811387,-614
1658848164.27669,167517.2811412,143
1658848164.27669,167517.2811438,11
1658848164.27669,167517.2811463,-139
1658848164.27669,167517.2811489,37
1658848164.27669,167517.2811516,44
1658848164.27669,167517.2811541,-11
1658848164.27669,167517.2811569,40
1658848164.27669,167517.2811608,70
1658848164.27669,167517.2811659,68
1658848164.27669,167517.2811697,96
1658848164.27669,167517.2811736,120
1658848164.27669,167517.8162675,122
1658848164.27669,167517.8162884,139
1658848164.27669,167517.8163033,169
1658848164.27669,167517.8163133,188
1658848164.27669,167517.8163159,202
1658848164.27669,167517.8163181,221
1658848164.28576,167517.8163201,235
1658848164.28576,167517.8163221,252
1658848164.28576,167517.8163243,275
1658848164.28576,167517.8163263,285
1658848164.28576,167517.8163283,275
1658848164.28576,167517.8163303,252
1658848164.28576,167517.8163323,219
1658848164.28576,167517.8163344,200
1658848164.28576,167517.8163364,186
1658848164.28576,167517.8163384,146
1658848164.28576,167517.8163404,82
1658848164.28576,167517.8163425,23
1658848164.28576,167517.8163447,-23
1658848164.28576,167517.8163467,-56
1658848164.28576,167517.8163487,-82
1658848164.28576,167517.8163507,-106
1658848164.28576,167517.8163527,-113
1658848164.28576,167517.8163548,-106
1658848164.28576,167517.8163568,-103
1658848164.28576,167517.8163588,-106
1658848164.28576,167517.8163608,-96
1658848164.28576,167517.8163628,-84
1658848164.28576,167517.8163649,-73
1658848164.28576,167517.8163669,-58
1658848164.90662,167517.8163689,-61
1658848164.90662,167517.8163708,-70
1658848164.90662,167517.8163728,-58
1658848164.90662,167517.8163747,-44
1658848164.90662,167517.8163765,-44
1658848164.90662,167517.8163785,-42
1658848164.90662,167517.8163805,-40
1658848164.90662,167517.8163827,-51
1658848164.90662,167517.8163884,-56
1658848164.90662,167517.8163965,-44
1658848164.90662,167517.8164011,-37
1658848164.90662,167517.8164047,-42
1658848164.90662,167517.8164103,-42
1658848164.90662,167517.8164152,-35
1658848164.90662,167517.8164234,-21
1658848164.90662,167517.816433,-16
1658848164.90662,167517.8164379,-25
1658848164.90662,167517.8164401,-30
1658848164.90662,167517.816443,-18
1658848164.90662,167517.8164453,-9
1658848164.90662,167517.8164474,-7
1658848164.90662,167517.8164495,-7
1658848164.90662,167517.8164515,2
1658848164.90662,167517.8164536,11
1658848164.90662,167517.8164557,11
1658848164.90662,167517.8164577,11
1658848164.90662,167517.8164597,18
1658848164.90662,167517.8164618,23
1658848164.90662,167517.8164638,28
1658848164.90662,167517.816466,35
1658848164.90662,167517.8164682,35
1658848164.90662,167517.8164702,25
1658848164.90662,167517.8164722,16
1658848164.90662,167517.8164743,32
1658848164.90662,167517.8164763,68
1658848164.90662,167517.8164783,98
1658848164.90662,167517.8164804,108
1658848164.90662,167517.8164824,89
1658848164.90662,167517.8164843,56
1658848164.90662,167517.8164864,49
1658848164.90662,167517.8164884,56
1658848164.90662,167517.8164906,37
1658848164.90662,167517.8164927,30
1658848164.90662,167518.449468,49
1658848164.90662,167518.4494876,51
1658848164.90662,167518.4495021,44
1658848164.90662,167518.4495108,51
1658848164.90662,167518.4495135,58
1658848164.90662,167518.4495156,61
1658848164.90662,167518.4495177,70
1658848164.91922,167518.4495197,37
1658848164.91922,167518.4495219,-58
1658848164.91922,167518.4495239,68
1658848164.91922,167518.449526,777
1658848164.91922,167518.449528,1788
1658848164.91922,167518.4495301,2405
1658848164.91922,167518.4495321,1995
1658848164.91922,167518.4495341,313
1658848164.91922,167518.4495362,-1013
1658848164.91922,167518.4495383,-534
1658848164.91922,167518.4495405,120
1658848164.91922,167518.4495426,-96
1658848164.91922,167518.4495447,-169
1658848164.91922,167518.4495468,4
1658848164.91922,167518.4495488,-40
1658848164.91922,167518.4495509,-87
1658848164.91922,167518.449553,-7
1658848164.91922,167518.449555,25
1658848164.91922,167518.449557,16
1658848164.91922,167518.4495591,42
1658848164.91922,167518.4495613,63
1658848164.91922,167518.4495633,70
1658848164.91922,167518.4495653,94
1658848164.91922,167518.4495673,124
1658848165.44181,167518.4495693,146
1658848165.44181,167518.4495713,167
1658848165.44181,167518.4495734,190
1658848165.44181,167518.4495753,214
1658848165.44181,167518.4495773,237
1658848165.44181,167518.4495792,254
1658848165.44181,167518.4495812,259
1658848165.44181,167518.4495831,254
1658848165.44181,167518.4495851,242
1658848165.44181,167518.4495871,221
1658848165.44181,167518.4495896,193
1658848165.44181,167518.4495915,155
1658848165.44181,167518.4495934,106
1658848165.44181,167518.4495953,56
1658848165.44181,167518.4495973,7
1658848165.44181,167518.4495992,-32
1658848165.44181,167518.4496059,-56
1658848165.44181,167518.4496141,-75
1658848165.44181,167518.4496269,-87
1658848165.44181,167518.4496359,-89
1658848165.44181,167518.4496384,-89
1658848165.44181,167518.4496406,-91
1658848165.44181,167518.4496427,-91
1658848165.44181,167518.4496447,-82
1658848165.44181,167518.4496468,-73
1658848165.44181,167518.4496488,-68
1658848165.44181,167518.4496509,-65
1658848165.44181,167518.4496529,-63
1658848165.44181,167518.4496549,-58
1658848165.44181,167518.449657,-51
1658848165.44181,167518.449659,-49
1658848165.44181,167518.449661,-51
1658848165.44181,167518.4496631,-56
1658848165.44181,167518.4496651,-56
1658848165.44181,167518.4496671,-56
1658848165.44181,167518.4496691,-56
1658848165.44181,167518.4496711,-54
1658848165.44181,167518.4496731,-51
1658848165.44181,167518.4496752,-47
1658848165.44181,167518.4496772,-40
1658848165.44181,167518.4496792,-40
1658848165.44181,167518.4496812,-42
1658848165.44181,167518.9856583,-32
1658848165.44181,167518.9856781,-25
1658848165.44181,167518.9856931,-23
1658848165.44181,167518.9857073,-16
1658848165.44181,167518.9857216,-14
1658848165.44181,167518.9857349,-11
1658848165.44181,167518.9857478,-2
1658848165.44181,167518.9857609,0
1658848165.45543,167518.9857739,0
1658848165.45543,167518.985787,7
1658848165.45543,167518.985801,4
1658848165.45543,167518.985814,-9
1658848165.45543,167518.9858271,-9
1658848165.45543,167518.9858411,0
1658848165.45543,167518.9858542,0
1658848165.45543,167518.9858673,-14
1658848165.45543,167518.9858813,-7
1658848165.45543,167518.9858942,21
1658848165.45543,167518.9859074,42
1658848165.45543,167518.9859213,61
1658848165.45543,167518.9859342,73
1658848165.45543,167518.9859471,51
1658848165.45543,167518.9859611,25
1658848165.45543,167518.985974,25
1658848165.45543,167518.9859869,21
1658848165.45543,167518.9860006,9
1658848165.45543,167518.9860135,14
1658848165.45543,167518.9860264,21
1658848165.45543,167518.9860925,23
1658848165.45543,167518.9861005,28
1658848165.45543,167518.9861099,30
1658848165.45543,167518.9861166,30
1658848165.97822,167518.9861286,35
1658848165.97822,167518.9861366,35
1658848165.97822,167518.9861668,-30
1658848165.97822,167518.9861773,-80
1658848165.97822,167518.9861823,280
1658848165.97822,167518.9861881,1243
1658848165.97822,167518.9861929,2186
1658848165.97822,167518.9861976,2403
1658848165.97822,167518.9862027,1437
1658848165.97822,167518.9862076,-325
1658848165.97822,167518.9862132,-907
1658848165.97822,167518.9862174,-56
1658848165.97822,167518.9862219,181
1658848165.97822,167518.9862264,-193
1658848165.97822,167518.9862307,-108
1658848165.97822,167518.986236,40
1658848165.97822,167518.9862404,-61
1658848165.97822,167518.9862454,-61
1658848165.97822,167518.9862499,16
1658848165.97822,167518.9862572,11
1658848165.97822,167518.9862623,16
1658848165.97822,167518.9862692,58
1658848165.97822,167518.9862739,73
1658848165.97822,167518.9862843,82
1658848165.97822,167518.9862968,98
1658848165.97822,167518.9863094,117
1658848165.97822,167518.9863233,143
1658848165.97822,167518.9863351,174
1658848165.97822,167518.9863431,202
1658848165.97822,167518.9863468,221
1658848165.97822,167518.9863516,233
1658848165.97822,167518.9863548,249
1658848165.97822,167518.9863601,261
1658848165.97822,167518.9863705,256
1658848165.97822,167518.9863864,245
1658848165.97822,167518.9863959,221
1658848165.97822,167518.9864013,186
1658848165.97822,167518.9864102,139
1658848165.97822,167518.9864159,94
1658848165.97822,167518.9864297,44
1658848165.97822,167518.9864434,-2
1658848165.97822,167519.5220702,-49
1658848165.97822,167519.5220914,-82
1658848165.97822,167519.5221005,-96
1658848165.97822,167519.5221032,-98
1658848165.97822,167519.5221054,-98
1658848165.97822,167519.5221076,-96
1658848165.97822,167519.5221097,-91
1658848165.97822,167519.5221118,-87
1658848165.97822,167519.5221138,-84
1658848165.98852,167519.5221159,-80
1658848165.98852,167519.5221185,-75
1658848165.98852,167519.5221247,-68
1658848165.98852,167519.5221334,-58
1658848165.98852,167519.5221391,-56
1658848165.98852,167519.5221485,-63
1658848165.98852,167519.5221556,-75
1658848165.98852,167519.5221581,-70
1658848165.98852,167519.5221634,-58
1658848165.98852,167519.5221747,-56
1658848165.98852,167519.5221802,-56
1658848165.98852,167519.5221834,-65
1658848165.98852,167519.5221855,-80
1658848165.98852,167519.5221882,-77
1658848165.98852,167519.5221986,-65
1658848165.98852,167519.5222062,-61
1658848165.98852,167519.5222085,-61
1658848165.98852,167519.5222107,-58
1658848165.98852,167519.5222127,-56
1658848165.98852,167519.5222148,-51
1658848165.98852,167519.5222199,-40
1658848165.98852,167519.5222313,-32
1658848165.98852,167519.522235,-32
1658848165.98852,167519.5222372,-32
1658848166.51523,167519.5222393,-23
1658848166.51523,167519.5222412,-16
1658848166.51523,167519.5222431,-14
1658848166.51523,167519.5222507,-9
1658848166.51523,167519.5222618,-4
1658848166.51523,167519.5222677,0
1658848166.51523,167519.5222721,7
1658848166.51523,167519.522278,9
1658848166.51523,167519.5222844,4
1658848166.51523,167519.5222962,0
1658848166.51523,167519.5223092,-7
1658848166.51523,167519.5223176,-2
1658848166.51523,167519.5223241,18
1658848166.51523,167519.5223324,42
1658848166.51523,167519.5223382,68
1658848166.51523,167519.5223467,75
1658848166.51523,167519.5223529,47
1658848166.51523,167519.5223605,23
1658848166.51523,167519.522369,28
1658848166.51523,167519.5223766,35
1658848166.51523,167519.5223799,32
1658848166.51523,167519.522395,35
1658848166.51523,167519.5224077,42
1658848166.51523,167519.5224115,40
1658848166.51523,167519.5224146,44
1658848166.51523,167519.5224176,51
1658848166.51523,167519.5224205,54
1658848166.51523,167519.5224234,56
1658848166.51523,167519.5224263,56
1658848166.51523,167519.5224292,9
1658848166.51523,167519.5224321,-49
1658848166.51523,167519.522436,230
1658848166.51523,167519.5224393,1128
1658848166.51523,167519.5224427,2129
1658848166.51523,167519.5224461,2473
1658848166.51523,167519.5224501,1644
1658848166.51523,167519.5224537,-117
1658848166.51523,167519.522458,-935
1658848166.51523,167519.5224627,-188
1658848166.51523,167519.5225347,190
1658848166.51523,167520.0587092,-146
1658848166.51523,167520.0587214,-134
1658848166.51523,167520.0587247,23
1658848166.51523,167520.0587275,-44
1658848166.51523,167520.0587299,-56
1658848166.51523,167520.0587322,18
1658848166.51523,167520.0587346,18
1658848166.51523,167520.0587369,14
1658848166.51523,167520.0587394,56
1658848166.51523,167520.0587417,77
1658848166.52539,167520.0587442,80
1658848166.52539,167520.0587465,89
1658848166.52539,167520.0587491,101
1658848166.52539,167520.058755,127
1658848166.52539,167520.0587665,160
1658848166.52539,167520.0587701,183
1658848166.52539,167520.0587739,207
1658848166.52539,167520.0587759,219
1658848166.52539,167520.0587786,216
1658848166.52539,167520.0587808,216
1658848166.52539,167520.0587888,219
1658848166.52539,167520.0587991,204
1658848166.52539,167520.0588018,188
1658848166.52539,167520.058804,167
1658848166.52539,167520.058806,134
1658848166.52539,167520.058808,89
1658848166.52539,167520.05881,42
1658848166.52539,167520.058812,-9
1658848166.52539,167520.0588141,-51
1658848166.52539,167520.0588166,-84
1658848166.52539,167520.0588265,-110
1658848166.52539,167520.0588346,-122
1658848166.52539,167520.0588371,-117
1658848166.52539,167520.0588393,-108
1658848167.05254,167520.0588414,-108
1658848167.05254,167520.0588466,-106
1658848167.05254,167520.0588565,-91
1658848167.05254,167520.0588607,-82
1658848167.05254,167520.0588632,-82
1658848167.05254,167520.0588731,-73
1658848167.05254,167520.0588844,-63
1658848167.05254,167520.0588915,-70
1658848167.05254,167520.0588939,-77
1658848167.05254,167520.058896,-73
1658848167.05254,167520.058898,-68
1658848167.05254,167520.0589005,-63
1658848167.05254,167520.0589104,-54
1658848167.05254,167520.0589187,-54
1658848167.05254,167520.0589212,-61
1658848167.05254,167520.0589233,-63
1658848167.05254,167520.0589255,-61
1658848167.05254,167520.058935,-56
1658848167.05254,167520.0589441,-54
1658848167.05254,167520.0589466,-49
1658848167.05254,167520.0589487,-47
1658848167.05254,167520.0589508,-47
1658848167.05254,167520.0589528,-40
1658848167.05254,167520.0589602,-30
1658848167.05254,167520.0589707,-30
1658848167.05254,167520.0589742,-28
1658848167.05254,167520.0589781,-23
1658848167.05254,167520.0589838,-21
1658848167.05254,167520.0589948,-25
1658848167.05254,167520.059,-23
1658848167.05254,167520.0590043,-16
1658848167.05254,167520.0590066,-16
1658848167.05254,167520.0590175,-16
1658848167.05254,167520.0590312,-14
1658848167.05254,167520.0590388,-9
1658848167.05254,167520.0590491,-11
1658848167.05254,167520.0590612,-18
1658848167.05254,167520.0590764,-14
1658848167.05254,167520.0590818,4
1658848167.05254,167520.5945196,32
1658848167.05254,167520.5945317,63
1658848167.05254,167520.5945364,75
1658848167.05254,167520.59454,56
1658848167.05254,167520.5945422,30
1658848167.05254,167520.5945442,30
1658848167.05254,167520.5945462,42
1658848167.05254,167520.5945484,32
1658848167.05254,167520.5945505,21
1658848167.05254,167520.5945525,23
1658848167.05254,167520.5945546,30
1658848167.06351,167520.5945568,32
1658848167.06351,167520.594559,32
1658848167.06351,167520.5945609,35
1658848167.06351,167520.594563,30
1658848167.06351,167520.5945651,11
1658848167.06351,167520.5945674,-40
1658848167.06351,167520.5945705,-65
1658848167.06351,167520.5945815,296
1658848167.06351,167520.5945896,1234
1658848167.06351,167520.5945932,2160
1658848167.06351,167520.5945953,2353
1658848167.06351,167520.5945974,1349
1658848167.06351,167520.5945995,-379
1658848167.06351,167520.5946015,-916
1658848167.06351,167520.5946036,-117
1658848167.06351,167520.5946056,113
1658848167.06351,167520.5946077,-209
1658848167.06351,167520.5946097,-136
1658848167.06351,167520.5946117,-7
1658848167.06351,167520.5946138,-87
1658848167.06351,167520.5946158,-77
1658848167.06351,167520.5946179,-7
1658848167.06351,167520.5946708,-11
1658848167.06351,167520.5946821,-16
1658848167.68664,167520.5946882,11
1658848167.68664,167520.5946926,30
1658848167.68664,167520.5946967,47
1658848167.68664,167520.5947014,73
1658848167.68664,167520.5947086,94
1658848167.68664,167520.5947143,113
1658848167.68664,167520.5947194,134
1658848167.68664,167520.5947256,160
1658848167.68664,167520.5947327,183
1658848167.68664,167520.5947393,204
1658848167.68664,167520.5947453,219
1658848167.68664,167520.5947547,219
1658848167.68664,167520.5947694,207
1658848167.68664,167520.5947804,197
1658848167.68664,167520.594787,183
1658848167.68664,167520.5947946,160
1658848167.68664,167520.5948021,127
1658848167.68664,167520.5948086,89
1658848167.68664,167520.5948211,42
1658848167.68664,167520.594833,0
1658848167.68664,167520.5948473,-37
1658848167.68664,167520.5948551,-70
1658848167.68664,167520.5948603,-84
1658848167.68664,167520.5948688,-89
1658848167.68664,167520.5948759,-101
1658848167.68664,167520.5948836,-103
1658848167.68664,167520.5948912,-91
1658848167.68664,167520.5948999,-77
1658848167.68664,167520.5949046,-63
1658848167.68664,167520.59491,-51
1658848167.68664,167520.5949135,-47
1658848167.68664,167520.5949173,-47
1658848167.68664,167520.5949221,-42
1658848167.68664,167520.5949267,-35
1658848167.68664,167520.5949322,-32
1658848167.68664,167520.5949359,-35
1658848167.68664,167520.5949438,-40
1658848167.68664,167520.5949486,-35
1658848167.68664,167521.2289083,-30
1658848167.68664,167521.2289216,-30
1658848167.68664,167521.228925,-30
1658848167.68664,167521.22893,-30
1658848167.68664,167521.2289334,-37
1658848167.68664,167521.2289358,-51
1658848167.68664,167521.228938,-49
1658848167.68664,167521.2289401,-42
1658848167.68664,167521.2289421,-42
1658848167.68664,167521.2289441,-40
1658848167.68664,167521.2289461,-42
1658848167.68664,167521.2289481,-51
1658848167.69712,167521.2289502,-54
1658848167.69712,167521.2289522,-47
1658848167.69712,167521.2289542,-42
1658848167.69712,167521.2289562,-44
1658848167.69712,167521.2289581,-42
1658848167.69712,167521.2289602,-35
1658848167.69712,167521.2289623,-40
1658848167.69712,167521.2289643,-49
1658848167.69712,167521.2289663,-47
1658848167.69712,167521.2289684,-35
1658848167.69712,167521.2289704,-14
1658848167.69712,167521.2289728,21
1658848167.69712,167521.2289752,44
1658848167.69712,167521.2289776,40
1658848167.69712,167521.2289799,18
1658848167.69712,167521.2289823,-4
1658848167.69712,167521.2289845,-9
1658848167.69712,167521.2289867,4
1658848167.69712,167521.2289888,14
1658848167.69712,167521.2289911,9
1658848167.69712,167521.2289934,9
1658848167.69712,167521.2289956,18
1658848167.69712,167521.2289979,25
1658848167.69712,167521.2290002,30
1658848168.21747,167521.2290024,32
1658848168.21747,167521.2290046,28
1658848168.21747,167521.2290067,-2
1658848168.21747,167521.2290088,-51
1658848168.21747,167521.2290109,150
1658848168.21747,167521.229013,944
1658848168.21747,167521.229015,1974
1658848168.21747,167521.229017,2466
1658848168.21747,167521.2290192,1823
1658848168.21747,167521.2290212,80
1658848168.21747,167521.2290234,-977
1658848168.21747,167521.2290256,-336
1658848168.21747,167521.2290277,174
1658848168.21747,167521.2290304,-131
1658848168.21747,167521.2290375,-164
1658848168.21747,167521.2290474,14
1658848168.21747,167521.2290533,-37
1658848168.21747,167521.2290564,-68
1658848168.21747,167521.2290587,7
1658848168.21747,167521.2290607,18
1658848168.21747,167521.2290629,14
1658848168.21747,167521.229065,54
1658848168.21747,167521.2290671,77
1658848168.21747,167521.2290692,82
1658848168.21747,167521.2290713,101
1658848168.21747,167521.2290741,122
1658848168.21747,167521.2290763,143
1658848168.21747,167521.2290784,179
1658848168.21747,167521.2290804,204
1658848168.21747,167521.2290825,216
1658848168.21747,167521.2290846,230
1658848168.21747,167521.2290867,249
1658848168.21747,167521.2290889,259
1658848168.21747,167521.2290909,249
1658848168.21747,167521.2290933,233
1658848168.21747,167521.2290954,219
1658848168.21747,167521.2290975,202
1658848168.21747,167521.7651741,169
1658848168.21747,167521.7651952,127
1658848168.21747,167521.7652025,77
1658848168.21747,167521.765209,21
1658848168.21747,167521.7652151,-14
1658848168.21747,167521.7652189,-32
1658848168.21747,167521.765222,-61
1658848168.21747,167521.7652273,-89
1658848168.21747,167521.7652339,-98
1658848168.21747,167521.7652425,-108
1658848168.21747,167521.7652494,-110
1658848168.21747,167521.7652582,-91
1658848168.21747,167521.7652637,-75
1658848168.22744,167521.7652695,-75
1658848168.22744,167521.7652753,-80
1658848168.22744,167521.7652843,-75
1658848168.22744,167521.7652893,-65
1658848168.22744,167521.7653031,-58
1658848168.22744,167521.7653161,-49
1658848168.22744,167521.7653296,-44
1658848168.22744,167521.7653413,-56
1658848168.22744,167521.7653491,-73
1658848168.22744,167521.7653533,-73
1658848168.22744,167521.7653589,-61
1658848168.22744,167521.7653625,-58
1658848168.22744,167521.7653667,-63
1658848168.22744,167521.7653704,-63
1658848168.22744,167521.7653742,-68
1658848168.22744,167521.7653798,-65
1658848168.22744,167521.7653847,-54
1658848168.22744,167521.7653906,-47
1658848168.22744,167521.7653961,-44
1658848168.22744,167521.7654005,-42
1658848168.22744,167521.7654063,-42
1658848168.22744,167521.7654097,-35
1658848168.22744,167521.7654145,-28
1658848168.22744,167521.7654198,-25
1658848168.75288,167521.7654233,-30
1658848168.75288,167521.7654266,-40
1658848168.75288,167521.7654299,-40
1658848168.75288,167521.765433,-30
1658848168.75288,167521.7654366,-7
1658848168.75288,167521.76544,23
1658848168.75288,167521.7654435,40
1658848168.75288,167521.7654473,32
1658848168.75288,167521.7654507,14
1658848168.75288,167521.7654543,7
1658848168.75288,167521.7654578,18
1658848168.75288,167521.7654617,25
1658848168.75288,167521.7654656,30
1658848168.75288,167521.7654698,37
1658848168.75288,167521.7654759,42
1658848168.75288,167521.76548,40
1658848168.75288,167521.7654838,42
1658848168.75288,167521.7654897,47
1658848168.75288,167521.7654935,51
1658848168.75288,167521.7654974,47
1658848168.75288,167521.7655031,0
1658848168.75288,167521.7655074,16
1658848168.75288,167521.7655109,473
1658848168.75288,167521.7655147,1441
1658848168.75288,167521.76552,2358
1658848168.75288,167521.7655243,2485
1658848168.75288,167521.7655287,1168
1658848168.75288,167521.7655315,-685
1658848168.75288,167521.7655344,-904
1658848168.75288,167521.7655373,-21
1658848168.75288,167521.7655403,56
1658848168.75288,167521.7655432,-186
1658848168.75288,167521.7655461,-32
1658848168.75288,167521.765549,21
1658848168.75288,167521.7655519,-65
1658848168.75288,167521.7655548,-18
1658848168.75288,167522.3016311,37
1658848168.75288,167522.301658,23
1658848168.75288,167522.3016635,42
1658848168.75288,167522.3016679,77
1658848168.75288,167522.3016717,87
1658848168.75288,167522.3016763,101
1658848168.75288,167522.3016801,131
1658848168.75288,167522.3016845,153
1658848168.75288,167522.3016882,169
1658848168.75288,167522.3016934,190
1658848168.75288,167522.3018214,204
1658848168.75288,167522.3018289,204
1658848168.75288,167522.3018332,202
1658848168.75288,167522.301837,204
1658848168.77383,167522.3018462,202
1658848168.77383,167522.3018519,188
1658848168.77383,167522.3018556,164
1658848168.77383,167522.3018611,131
1658848168.77383,167522.3018649,96
1658848168.77383,167522.30187,65
1658848168.77383,167522.3018735,28
1658848168.77383,167522.301881,-14
1658848168.77383,167522.3018899,-47
1658848168.77383,167522.3018961,-70
1658848168.77383,167522.3019024,-91
1658848168.77383,167522.3019101,-106
1658848168.77383,167522.3019241,-110
1658848168.77383,167522.3019359,-110
1658848168.77383,167522.3019444,-108
1658848168.77383,167522.3019503,-106
1658848168.77383,167522.301954,-94
1658848168.77383,167522.301959,-77
1658848168.77383,167522.3019643,-65
1658848168.77383,167522.301968,-61
1658848168.77383,167522.3019732,-51
1658848168.77383,167522.3019768,-42
1658848168.77383,167522.3019801,-40
1658848168.77383,167522.3019834,-40
1658848169.39264,167522.3019868,-37
1658848169.39264,167522.3019906,-40
1658848169.39264,167522.3020018,-35
1658848169.39264,167522.3020214,-30
1658848169.39264,167522.3020296,-28
1658848169.39264,167522.3020592,-28
1658848169.39264,167522.3020695,-25
1658848169.39264,167522.3020788,-23
1658848169.39264,167522.3020876,-23
1658848169.39264,167522.3020948,-23
1658848169.39264,167522.3021036,-21
1658848169.39264,167522.3021095,-25
1658848169.39264,167522.3021155,-32
1658848169.39264,167522.302121,-32
1658848169.39264,167522.3021377,-28
1658848169.39264,167522.3021488,-18
1658848169.39264,167522.3021517,-14
1658848169.39264,167522.302158,-18
1658848169.39264,167522.3021702,-25
1658848169.39264,167522.3021789,-30
1658848169.39264,167522.3021836,-25
1658848169.39264,167522.3021973,-21
1658848169.39264,167522.3022057,-9
1658848169.39264,167522.3022143,14
1658848169.39264,167522.3022211,32
1658848169.39264,167522.3022249,35
1658848169.39264,167522.302229,21
1658848169.39264,167522.3022347,11
1658848169.39264,167522.3022398,16
1658848169.39264,167522.3022444,23
1658848169.39264,167522.3022502,21
1658848169.39264,167522.3022546,23
1658848169.39264,167522.3022589,32
1658848169.39264,167522.3022644,37
1658848169.39264,167522.3022685,40
1658848169.39264,167522.9352764,44
1658848169.39264,167522.935309,44
1658848169.39264,167522.9353211,44
1658848169.39264,167522.9353352,4
1658848169.39264,167522.9353456,-51
1658848169.39264,167522.9353536,223
1658848169.39264,167522.9353627,1142
1658848169.39264,167522.9354415,2169
1658848169.39264,167522.935452,2492
1658848169.39264,167522.9354604,1599
1658848169.39264,167522.9354685,-200
1658848169.39264,167522.9354768,-987
1658848169.39264,167522.9354836,-209
1658848169.39264,167522.9354921,150
1658848169.39264,167522.9355008,-207
1658848169.40461,167522.9355094,-181
1658848169.40461,167522.9355177,-14
1658848169.40461,167522.9355254,-87
1658848169.40461,167522.9355312,-101
1658848169.40461,167522.9355373,-28
1658848169.40461,167522.9355424,-30
1658848169.40461,167522.9355461,-35
1658848169.40461,167522.9355511,9
1658848169.40461,167522.9355548,35
1658848169.40461,167522.935561,40
1658848169.40461,167522.9355669,65
1658848169.40461,167522.9355757,96
1658848169.40461,167522.9355813,115
1658848169.40461,167522.9355878,143
1658848169.40461,167522.9355913,171
1658848169.40461,167522.9355985,190
1658848169.40461,167522.9356068,207
1658848169.40461,167522.9356143,221
1658848169.40461,167522.9356198,226
1658848169.40461,167522.9356272,221
1658848169.40461,167522.935631,209
1658848169.40461,167522.9356358,190
1658848169.40461,167522.9356385,169
1658848169.40461,167522.9356419,141
1658848169.92526,167522.9356478,98
1658848169.92526,167522.935651,44
1658848169.92526,167522.9356538,2
1658848169.92526,167522.9356568,-28
1658848169.92526,167522.9356606,-51
1658848169.92526,167522.9356655,-65
1658848169.92526,167522.9356717,-75
1658848169.92526,167522.9356797,-80
1658848169.92526,167522.935688,-73
1658848169.92526,167522.9356995,-61
1658848169.92526,167522.9357097,-56
1658848169.92526,167522.9357159,-44
1658848169.92526,167522.9357209,-30
1658848169.92526,167522.9357256,-28
1658848169.92526,167522.9357311,-23
1658848169.92526,167522.9357358,-16
1658848169.92526,167522.9357404,-14
1658848169.92526,167522.9357494,-9
1658848169.92526,167522.935759,-2
1658848169.92526,167522.9357643,-2
1658848169.92526,167522.935769,-2
1658848169.92526,167522.9357735,2
1658848169.92526,167522.9357781,4
1658848169.92526,167522.9357828,4
1658848169.92526,167522.9357875,7
1658848169.92526,167522.9357922,2
1658848169.92526,167522.9357971,-7
1658848169.92526,167522.9358019,-7
1658848169.92526,167522.9358065,-2
1658848169.92526,167522.9358109,2
1658848169.92526,167522.9358205,4
1658848169.92526,167522.935828,-4
1658848169.92526,167522.9358347,-14
1658848169.92526,167522.9358435,-9
1658848169.92526,167523.4713591,-7
1658848169.92526,167523.4713734,-9
1658848169.92526,167523.4713762,-7
1658848169.92526,167523.4713788,-4
1658848169.92526,167523.471383,-9
1658848169.92526,167523.4713884,-23
1658848169.92526,167523.4713923,-37
1658848169.92526,167523.4713965,-40
1658848169.92526,167523.4714009,-23
1658848169.92526,167523.471403,-2
1658848169.92526,167523.4714053,23
1658848169.92526,167523.4714077,35
1658848169.92526,167523.471414,25
1658848169.92526,167523.4714248,4
1658848169.92526,167523.4714353,0
1658848169.92526,167523.471438,7
1658848169.93727,167523.4714401,7
1658848169.93727,167523.4714423,-7
1658848169.93727,167523.4714444,-16
1658848169.93727,167523.4714465,-11
1658848169.93727,167523.4714486,-2
1658848169.93727,167523.4714507,4
1658848169.93727,167523.4714528,4
1658848169.93727,167523.4714549,-7
1658848169.93727,167523.471457,-25
1658848169.93727,167523.4714592,-65
1658848169.93727,167523.4714612,-110
1658848169.93727,167523.4714633,150
1658848169.93727,167523.4714655,1024
1658848169.93727,167523.4714677,2054
1658848169.93727,167523.4714698,2443
1658848169.93727,167523.4714718,1606
1658848169.93727,167523.471474,-190
1658848169.93727,167523.4714761,-1020
1658848169.93727,167523.4714782,-270
1658848169.93727,167523.4714803,124
1658848169.93727,167523.4714823,-195
1658848169.93727,167523.4714844,-174
1658848169.93727,167523.4714864,-11
1658848169.93727,167523.4714885,-80
1658848170.4126,167523.4714906,-98
1658848170.4126,167523.4714925,-25
1658848170.4126,167523.4714944,-25
1658848170.4126,167523.4714964,-32
1658848170.4126,167523.4714983,7
1658848170.4126,167523.4715002,30
1658848170.4126,167523.4715022,49
1658848170.4126,167523.4715041,77
1658848170.4126,167523.4715061,98
1658848170.4126,167523.4715089,117
1658848170.4126,167523.4715108,141
1658848170.4126,167523.4715127,157
1658848170.4126,167523.4715172,174
1658848170.4126,167523.4715278,195
1658848170.4126,167523.4715332,209
1658848170.4126,167523.4715375,212
1658848170.4126,167523.4715395,209
1658848170.4126,167523.4715414,202
1658848170.4126,167523.4715439,183
1658848170.4126,167523.4715461,160
1658848170.4126,167523.4715482,131
1658848170.4126,167523.4715502,94
1658848170.4126,167523.4715523,44
1658848170.4126,167523.4715544,-11
1658848170.4126,167523.4715564,-58
1658848170.4126,167523.4715585,-77
1658848170.4126,167523.4715606,-84
1658848170.4126,167523.4715626,-101
1658848170.4126,167523.4715647,-110
1658848170.4126,167523.4715668,-101
1658848170.4126,167523.4715688,-87
1658848170.4126,167523.4715708,-82
1658848170.4126,167523.4715729,-82
1658848170.4126,167523.9588347,-68
1658848170.4126,167523.9588534,-49
1658848170.4126,167523.9588586,-47
1658848170.4126,167523.958863,-47
1658848170.4126,167523.9588672,-35
1658848170.4126,167523.9588708,-30
1658848170.4126,167523.9588744,-32

1658848170.4126,167523.958878,-28
1658848170.4126,167523.9588817,-16
1658848170.4126,167523.9588855,-16
1658848170.4126,167523.9588995,-28
1658848170.4126,167523.958905,-37
1658848170.4126,167523.958909,-28
1658848170.4126,167523.9589129,-14
1658848170.4126,167523.9589167,-30
1658848170.4126,167523.9589206,-51
1658848170.4126,167523.9589245,-42
1658848170.42288,167523.9589285,-25
1658848170.42288,167523.9589323,-25
1658848170.42288,167523.958936,-37
1658848170.42288,167523.9589395,-42
1658848170.42288,167523.9589437,-44
1658848170.42288,167523.9589476,-42
1658848170.42288,167523.9589514,-32
1658848170.42288,167523.9589554,-23
1658848170.42288,167523.9589593,-18
1658848170.42288,167523.9589632,-21
1658848170.42288,167523.9589671,-25
1658848170.42288,167523.958971,-32
1658848170.42288,167523.9589744,-40
1658848170.42288,167523.9589779,-40
1658848170.42288,167523.9589816,-7
1658848170.42288,167523.9589857,25
1658848170.42288,167523.9589896,21
1658848170.42288,167523.9589934,4
1658848170.42288,167523.9589971,-2
1658848170.42288,167523.9590011,-2
1658848170.42288,167523.959005,0
1658848170.42288,167523.9590088,0
1658848170.42288,167523.9590127,0
1658848170.42288,167523.9590164,4
1658848171.17593,167523.9590199,11
1658848171.17593,167523.9590237,7
1658848171.17593,167523.9590276,7
1658848171.17593,167523.9590316,16
1658848171.17593,167523.9590355,18
1658848171.17593,167523.9590395,14
1658848171.17593,167523.9590434,-14
1658848171.17593,167523.9590471,-49
1658848171.17593,167523.9590513,212
1658848171.17593,167523.9590555,1043
1658848171.17593,167523.9591416,2052
1658848171.17593,167523.9591463,2527
1658848171.17593,167523.9591515,1710
1658848171.17593,167523.9591569,-204
1658848171.17593,167523.9591622,-1076
1658848171.17593,167523.9591671,-294
1658848171.17593,167523.9591724,103
1658848171.17593,167523.9591767,-181
1658848171.17593,167523.9591802,-129
1658848171.17593,167523.9591851,7
1658848171.17593,167523.9591904,-63
1658848171.17593,167523.9591955,-56
1658848171.17593,167523.9592021,18
1658848171.17593,167523.9592088,18
1658848171.17593,167523.9592155,14
1658848171.17593,167523.9592223,35
1658848171.17593,167523.9592286,51
1658848171.17593,167523.9592351,75
1658848171.17593,167523.9592414,108
1658848171.17593,167523.9592477,122
1658848171.17593,167523.9592545,134
1658848171.17593,167523.9592737,155
1658848171.17593,167524.5455317,179
1658848171.17593,167524.545547,200
1658848171.17593,167524.54555,216
1658848171.17593,167524.5455523,226
1658848171.17593,167524.5455545,230
1658848171.17593,167524.5455571,216
1658848171.17593,167524.5455591,193
1658848171.17593,167524.5455612,171
1658848171.17593,167524.5455631,150
1658848171.17593,167524.5455652,122
1658848171.17593,167524.5455672,84
1658848171.17593,167524.5455692,30
1658848171.17593,167524.5455716,-21
1658848171.17593,167524.5455751,-56
1658848171.17593,167524.5455836,-80
1658848171.17593,167524.5455912,-91
1658848171.17593,167524.5455975,-101
1658848171.17593,167524.5456081,-108
1658848171.23078,167524.545618,-101
1658848171.23078,167524.5456284,-84
1658848171.23078,167524.5456376,-70
1658848171.23078,167524.5456429,-58
1658848171.23078,167524.5456451,-49
1658848171.23078,167524.5456512,-42
1658848171.23078,167524.5456624,-40
1658848171.23078,167524.5456731,-42
1658848171.23078,167524.5456766,-30
1658848171.23078,167524.5456825,-21
1658848171.23078,167524.5456981,-21
1658848171.23078,167524.545706,-16
1658848171.23078,167524.5457085,-14
1658848171.23078,167524.5457107,-11
1658848171.23078,167524.5457127,-9
1658848171.23078,167524.5457148,-2
1658848171.23078,167524.5457175,0
1658848171.23078,167524.5457637,2
1658848171.23078,167524.5457745,2
1658848171.23078,167524.5457807,2
1658848171.23078,167524.5457847,2
1658848171.23078,167524.5457903,7
1658848171.23078,167524.545794,9
1658848171.23078,167524.5457994,11
1658848171.57999,167524.545803,11
1658848171.57999,167524.5458067,11
1658848171.57999,167524.5458103,16
1658848171.57999,167524.5458139,21
1658848171.57999,167524.5458177,23
1658848171.57999,167524.5458216,21
1658848171.57999,167524.5458253,9
1658848171.57999,167524.5458289,4
1658848171.57999,167524.5458327,11
1658848171.57999,167524.5458363,16
1658848171.57999,167524.5458399,9
1658848171.57999,167524.5458436,-2
1658848171.57999,167524.5458472,-7
1658848171.57999,167524.5458507,-2
1658848171.57999,167524.5458543,18
1658848171.57999,167524.545858,51
1658848171.57999,167524.5458617,65
1658848171.57999,167524.5458655,51
1658848171.57999,167524.5458713,25
1658848171.57999,167524.5458751,16
1658848171.57999,167524.5458787,25
1658848171.57999,167524.5458838,30
1658848171.57999,167524.5458875,32
1658848171.57999,167524.5458932,32
1658848171.57999,167524.5458968,32
1658848171.57999,167524.5459003,37
1658848171.57999,167524.5459057,42
1658848171.57999,167524.5459094,44
1658848171.57999,167524.545913,49
1658848171.57999,167524.5459183,54
1658848171.57999,167524.5459219,35
1658848171.57999,167525.1285013,-42
1658848171.57999,167525.1285137,21
1658848171.57999,167525.1285163,657
1658848171.57999,167525.1285186,1726
1658848171.57999,167525.1285207,2466
1658848171.57999,167525.1285228,2224
1658848171.57999,167525.1285248,669
1658848171.57999,167525.1285269,-862
1658848171.57999,167525.1285289,-617
1658848171.57999,167525.128531,153
1658848171.57999,167525.1285332,-4
1658848171.57999,167525.1285366,-188
1658848171.57999,167525.1285472,0
1658848171.57999,167525.1285534,7
1658848171.57999,167525.1285589,-80
1658848171.57999,167525.1285697,-32
1658848171.57999,167525.1285825,9
1658848171.57999,167525.1285929,-2
1658848171.57999,167525.128597,23
1658848171.59196,167525.1286007,54
1658848171.59196,167525.1286146,49
1658848171.59196,167525.1286289,54
1658848171.59196,167525.1286819,87
1658848171.59196,167525.1286958,117
1658848171.59196,167525.1287025,139
1658848171.59196,167525.1287083,164
1658848171.59196,167525.1287139,190
1658848171.59196,167525.1287195,204
1658848171.59196,167525.128726,221
1658848171.59196,167525.1287321,237
1658848171.59196,167525.1287372,245
1658848171.59196,167525.1287408,233
1658848171.59196,167525.1287448,214
1658848171.59196,167525.1287508,188
1658848171.59196,167525.1287555,162
1658848171.59196,167525.1287611,129
1658848171.59196,167525.1287642,87
1658848171.59196,167525.1287674,40
1658848171.59196,167525.1287706,-2
1658848171.59196,167525.128774,-35
1658848171.59196,167525.1287789,-63
1658848171.59196,167525.1287819,-87
1658848171.59196,167525.1287852,-94
1658848172.12398,167525.1287903,-84
1658848172.12398,167525.1287938,-80
1658848172.12398,167525.1288021,-77
1658848172.12398,167525.1288113,-65
1658848172.12398,167525.1288173,-51
1658848172.12398,167525.1288218,-44
1658848172.12398,167525.1288356,-44
1658848172.12398,167525.128844,-35
1658848172.12398,167525.12885,-25
1658848172.12398,167525.1288592,-23
1658848172.12398,167525.1288672,-18
1658848172.12398,167525.1288755,-9
1658848172.12398,167525.1288843,-7
1658848172.12398,167525.1288888,-9
1658848172.12398,167525.1288946,-9
1658848172.12398,167525.1288992,-7
1658848172.12398,167525.1289046,-9
1658848172.12398,167525.1289092,-14
1658848172.12398,167525.1289156,-11
1658848172.12398,167525.1289261,-11
1658848172.12398,167525.1289361,-14
1658848172.12398,167525.1289447,-11
1658848172.12398,167525.128956,-7
1658848172.12398,167525.1289688,-4
1658848172.12398,167525.1289825,0
1658848172.12398,167525.1289952,2
1658848172.12398,167525.1290086,2
1658848172.12398,167525.1290223,-9
1658848172.12398,167525.1290356,-16
1658848172.12398,167525.1290492,-14
1658848172.12398,167525.6663283,-7
1658848172.12398,167525.6663456,-16
1658848172.12398,167525.6663521,-21
1658848172.12398,167525.6663596,-11
1658848172.12398,167525.6663656,-9
1658848172.12398,167525.6663714,-14
1658848172.12398,167525.6663802,-11
1658848172.12398,167525.6663864,-11
1658848172.12398,167525.6663993,-14
1658848172.12398,167525.6664084,-16
1658848172.12398,167525.6664126,-30
1658848172.12398,167525.6664206,-47
1658848172.12398,167525.6664294,-35
1658848172.12398,167525.6664406,0
1658848172.12398,167525.6664534,28
1658848172.12398,167525.666466,44
1658848172.12398,167525.6664798,25
1658848172.12398,167525.6664916,-21
1658848172.12398,167525.6665053,-37
1658848172.12398,167525.6665153,-21
1658848172.13495,167525.6665242,-14
1658848172.13495,167525.6665339,-18
1658848172.13495,167525.6665415,-11
1658848172.13495,167525.6665474,-7
1658848172.13495,167525.6665551,-4
1658848172.13495,167525.6665598,-2
1658848172.13495,167525.6665631,-2
1658848172.13495,167525.6665663,7
1658848172.13495,167525.6665696,18
1658848172.13495,167525.6665728,-11
1658848172.13495,167525.6665762,-84
1658848172.13495,167525.6665805,21
1658848172.13495,167525.6665849,687
1658848172.13495,167525.6665888,1726
1658848172.13495,167525.666592,2393
1658848172.13495,167525.6665951,2059
1658848172.13495,167525.6666008,499
1658848172.13495,167525.6666069,-904
1658848172.13495,167525.6666103,-588
1658848172.13495,167525.6666135,110
1658848172.13495,167525.6666169,-68
1658848172.13495,167525.6666202,-226
1658848172.13495,167525.6666238,-54
1658848172.13495,167525.666628,-54
1658848172.70169,167525.6666311,-110
1658848172.70169,167525.6666341,-44
1658848172.70169,167525.6666374,-9
1658848172.70169,167525.666641,-23
1658848172.70169,167525.6666445,2
1658848172.70169,167525.666648,35
1658848172.70169,167525.6666515,44
1658848172.70169,167525.666655,63
1658848172.70169,167525.6666585,91
1658848172.70169,167525.6666619,117
1658848172.70169,167525.6666654,143
1658848172.70169,167525.6666689,167
1658848172.70169,167525.6666725,183
1658848172.70169,167525.666676,202
1658848172.70169,167525.6666795,228
1658848172.70169,167525.666683,242
1658848172.70169,167525.6666869,240
1658848172.70169,167525.6666913,228
1658848172.70169,167525.6666964,212
1658848172.70169,167525.6667011,190
1658848172.70169,167525.6667074,167
1658848172.70169,167525.6667135,129
1658848172.70169,167525.6667196,82
1658848172.70169,167525.6667256,37
1658848172.70169,167525.6667298,-2
1658848172.70169,167525.6667339,-35
1658848172.70169,167525.6667384,-56
1658848172.70169,167525.6667432,-70
1658848172.70169,167525.6667468,-80
1658848172.70169,167526.2506471,-84
1658848172.70169,167526.250665,-84
1658848172.70169,167526.2506725,-77
1658848172.70169,167526.2506761,-61
1658848172.70169,167526.2506811,-47
1658848172.70169,167526.2506844,-42
1658848172.70169,167526.2506876,-42
1658848172.70169,167526.2506919,-44
1658848172.70169,167526.250697,-44
1658848172.70169,167526.2507003,-40
1658848172.70169,167526.2507034,-30
1658848172.70169,167526.2507068,-23
1658848172.70169,167526.2507099,-21
1658848172.70169,167526.2507386,-32
1658848172.70169,167526.2507507,-49
1658848172.70169,167526.2507602,-49
1658848172.70169,167526.2507663,-47
1658848172.70169,167526.2507743,-54
1658848172.70169,167526.2507805,-54
1658848172.70169,167526.2507889,-58
1658848172.70169,167526.250797,-75
1658848172.71166,167526.2508033,-77
1658848172.71166,167526.2508108,-63
1658848172.71166,167526.2508169,-56
1658848172.71166,167526.250825,-63
1658848172.71166,167526.250831,-61
1658848172.71166,167526.2508386,-58
1658848172.71166,167526.2508449,-65
1658848172.71166,167526.2508528,-61
1658848172.71166,167526.2508591,-47
1658848172.71166,167526.2508652,-51
1658848172.71166,167526.2508711,-58
1658848172.71166,167526.2508794,-49
1658848172.71166,167526.2508856,-42
1658848172.71166,167526.2508936,-37
1658848172.71166,167526.2509002,-32
1658848172.71166,167526.2509083,-25
1658848172.71166,167526.2509145,-23
1658848172.71166,167526.2509228,-16
1658848172.71166,167526.2509289,-9
1658848172.71166,167526.2509369,-7
1658848172.71166,167526.2509432,-2
1658848172.71166,167526.2509513,2
1658848172.71166,167526.2509572,-4
1658848172.71166,167526.250979,-7
1658848173.23815,167526.2510119,14
1658848173.23815,167526.251023,44
1658848173.23815,167526.2510296,70
1658848173.23815,167526.2510373,84
1658848173.23815,167526.251044,75
1658848173.23815,167526.2510543,44
1658848173.23815,167526.2510622,28
1658848173.23815,167526.2510846,44
1658848173.23815,167526.2510985,56
1658848173.23815,167526.2511115,47
1658848173.23815,167526.2511249,40
1658848173.23815,167526.251138,49
1658848173.23815,167526.2511511,58
1658848173.23815,167526.2511685,61
1658848173.23815,167526.251184,63
1658848173.23815,167526.2511957,65
1658848173.23815,167526.2512104,61
1658848173.23815,167526.2512237,37
1658848173.23815,167526.2512389,-30
1658848173.23815,167526.2512499,11
1658848173.23815,167526.2512553,553
1658848173.23815,167526.2512644,1550
1658848173.23815,167526.2512716,2363
1658848173.23815,167526.251275,2315
1658848173.23815,167526.2512846,921
1658848173.23815,167526.2512911,-713
1658848173.23815,167526.2512992,-692
1658848173.23815,167526.2513056,94
1658848173.23815,167526.787147,40
1658848173.23815,167526.7871637,-174
1658848173.23815,167526.7871718,-16
1658848173.23815,167526.7871776,25
1658848173.23815,167526.7871816,-44
1658848173.23815,167526.7871869,4
1658848173.23815,167526.787191,49
1658848173.23815,167526.7871963,44
1658848173.23815,167526.7871999,63
1658848173.23815,167526.787205,87
1658848173.23815,167526.7872095,91
1658848173.23815,167526.7872147,101
1658848173.23815,167526.7872184,120
1658848173.23815,167526.7872236,150
1658848173.23815,167526.7872272,179
1658848173.23815,167526.7872339,207
1658848173.23815,167526.7872391,230
1658848173.23815,167526.7872453,233
1658848173.23815,167526.7872501,226
1658848173.23815,167526.7872549,245
1658848173.23815,167526.7872591,259
1658848173.23815,167526.7872634,242
1658848173.24669,167526.7872664,223
1658848173.24669,167526.7872699,207
1658848173.24669,167526.7872777,188
1658848173.24669,167526.7872857,157
1658848173.24669,167526.7872933,103
