Time,TimeLsl,Value
1658849117.17343,168469.1032373,-113
1658849117.17343,168469.1032527,-110
1658849117.17343,168469.1032585,-106
1658849117.17343,168469.1032663,-94
1658849117.17343,168469.1032703,-89
1658849117.17343,168469.1032769,-96
1658849117.17343,168469.1032802,-98
1658849117.17343,168469.1032836,-84
1658849117.17343,168469.1032888,-75
1658849117.17343,168469.1032922,-75
1658849117.17343,168469.1032962,-73
1658849117.17343,168469.1033018,-70
1658849117.17343,168469.1033049,-73
1658849117.17343,168469.1033089,-70
1658849117.17343,168469.1033124,-73
1658849117.17343,168469.1033158,-80
1658849117.17343,168469.1033192,-77
1658849117.17343,168469.1033239,-77
1658849117.17343,168469.1033291,-91
1658849117.17343,168469.1033354,-106
1658849117.17343,168469.1033401,-103
1658849117.17343,168469.1033449,-98
1658849117.17343,168469.1033524,-94
1658849117.17343,168469.1033575,-87
1658849117.17343,168469.1033634,-84
1658849117.17343,168469.1033667,-91
1658849117.17343,168469.1033696,-91
1658849117.17343,168469.1034534,-94
1658849117.17343,168469.1034652,-103
1658849117.17343,168469.1034754,-106
1658849117.17343,168469.1034846,-110
1658849117.17343,168469.1034918,-108
1658849117.17343,168469.1035005,-84
1658849117.17343,168469.1035079,-56
1658849117.17343,168469.1035163,-47
1658849117.17343,168469.1035245,-61
1658849117.17343,168469.1035329,-82
1658849117.17343,168469.1035409,-87
1658849117.17343,168469.1035488,-80
1658849117.17343,168469.1035572,-84
1658849117.17343,168469.1035633,-82
1658849117.17343,168469.1035724,-73
1658849117.17343,168469.1035782,-70
1658849117.17343,168469.103584,-63
1658849117.17343,168469.1035899,-54
1658849117.17343,168469.1035961,-47
1658849117.17343,168469.1036005,-47
1658849117.17343,168469.1036068,-87
1658849117.17343,168469.1036119,-150
1658849117.17343,168469.103616,87
1658849117.27617,168469.1036217,937
1658849117.27617,168469.1036273,1957
1658849117.27617,168469.1036357,2407
1658849117.27617,168469.1036462,1733
1658849117.27617,168469.1036573,-68
1658849117.27617,168469.1036678,-1107
1658849117.27617,168469.1036823,-376
1658849117.27617,168469.1036949,131
1658849117.27617,168469.103708,-219
1658849117.27617,168469.103721,-237
1658849117.27617,168469.1037342,-42
1658849117.27617,168469.1037473,-103
1658849117.27617,168469.1037615,-141
1658849117.27617,168469.1037744,-61
1658849117.27617,168469.1037875,-47
1658849117.27617,168469.1038016,-54
1658849117.27617,168469.1038137,-11
1658849117.27617,168469.1038214,18
1658849117.27617,168469.1038261,21
1658849117.27617,168469.1038318,44
1658849117.27617,168469.1038366,77
1658849117.27617,168469.1038422,87
1658849117.27617,168469.1038478,91
1658849117.27617,168469.6390892,115
1658849117.27617,168469.6391075,143
1658849117.27617,168469.6391142,155
1658849117.27617,168469.6391206,164
1658849117.27617,168469.6391253,169
1658849117.27617,168469.6391291,160
1658849117.27617,168469.639133,141
1658849117.27617,168469.6391359,131
1658849117.27617,168469.6391389,113
1658849117.27617,168469.6391447,68
1658849117.27617,168469.6391502,21
1658849117.27617,168469.6391569,-21
1658849117.27617,168469.6391638,-61
1658849117.27617,168469.6391728,-89
1658849117.27617,168469.6391808,-120
1658849117.27617,168469.6391882,-160
1658849117.27617,168469.6391919,-174
1658849117.27617,168469.6391968,-160
1658849117.27617,168469.6392,-146
1658849117.27617,168469.6392033,-139
1658849117.27617,168469.6392066,-129
1658849117.27617,168469.6392107,-124
1658849117.27617,168469.6392187,-122
1658849117.27617,168469.6392242,-108
1658849117.27617,168469.6392286,-94
1658849117.27617,168469.6392335,-89
1658849117.27617,168469.6392446,-91
1658849117.31008,168469.6392533,-94
1658849117.31008,168469.6392675,-89
1658849117.31008,168469.6392797,-82
1658849117.31008,168469.6392905,-80
1658849117.31008,168469.6392995,-77
1658849117.31008,168469.639308,-65
1658849117.31008,168469.6393168,-56
1658849117.31008,168469.6393233,-61
1658849117.31008,168469.6393357,-61
1658849117.31008,168469.6393474,-58
1658849117.31008,168469.6393603,-51
1658849117.31008,168469.639371,-42
1658849117.31008,168469.6393746,-23
1658849117.31008,168469.6393784,-11
1658849117.31008,168469.6393924,-28
1658849117.31008,168469.6394015,-49
1658849117.31008,168469.6394051,-37
1658849117.31008,168469.6394129,-16
1658849117.31008,168469.6394213,-25
1658849117.31008,168469.639431,-40
1658849117.31008,168469.6394357,-23
1658849117.31008,168469.6394435,0
1658849117.31008,168469.6394548,2
1658849117.31008,168469.6394659,7
1658849117.31008,168469.6394786,9
1658849117.31008,168469.6394914,-16
1658849117.31008,168469.6395014,-23
1658849117.31008,168469.6395097,4
1658849117.31008,168469.6395159,11
1658849117.31008,168469.6395238,-2
1658849117.31008,168469.6395298,-4
1658849117.31008,168469.6395374,0
1658849117.31008,168469.6395435,2
1658849117.31008,168469.6395511,7
1658849117.31008,168469.6395567,11
1658849117.31008,168469.6395603,-2
1658849117.31008,168469.6395638,-61
1658849117.31008,168469.6395674,-23
1658849117.31008,168469.6395735,478
1658849117.31008,168469.6395781,1434
1658849117.31008,168469.6395822,2271
1658849117.31008,168469.6395858,2297
1658849117.31008,168469.6395901,874
1658849117.31008,168469.6395949,-909
1658849117.31008,168469.6396009,-909
1658849117.31008,168469.6396091,-18
1658849117.31008,168470.1762776,-32
1658849117.31008,168470.1762984,-240
1658849117.31008,168470.1763075,-56
1658849117.31008,168470.1763148,-25
1658849117.33406,168470.17632,-131
1658849117.33406,168470.1763252,-94
1658849117.33406,168470.1763317,-9
1658849117.33406,168470.1763387,14
1658849117.33406,168470.1763445,9
1658849117.33406,168470.1763485,18
1658849117.33406,168470.1763519,49
1658849117.33406,168470.1763555,77
1658849117.33406,168470.1763627,82
1658849117.33406,168470.1763852,87
1658849117.33406,168470.1763948,117
1658849117.33406,168470.176402,148
1658849117.33406,168470.1764091,162
1658849117.33406,168470.176416,195
1658849117.33406,168470.176423,209
1658849117.33406,168470.1764294,190
1658849117.33406,168470.1764364,190
1658849117.33406,168470.1764428,183
1658849117.33406,168470.1764496,150
1658849117.33406,168470.1764564,120
1658849117.33406,168470.176463,98
1658849117.33406,168470.17647,73
1658849117.33406,168470.1764765,35
1658849117.33406,168470.1764831,-4
1658849117.33406,168470.1764883,-32
1658849117.33406,168470.1764946,-58
1658849117.33406,168470.176498,-91
1658849117.33406,168470.1765018,-106
1658849117.33406,168470.1765084,-106
1658849117.33406,168470.1765152,-113
1658849117.33406,168470.176522,-122
1658849117.33406,168470.176529,-108
1658849117.33406,168470.1765406,-89
1658849117.33406,168470.1765462,-84
1658849117.33406,168470.1765549,-80
1658849117.33406,168470.1765609,-65
1658849117.33406,168470.1765695,-49
1658849117.33406,168470.1765781,-42
1658849117.33406,168470.176584,-51
1658849117.33406,168470.176588,-61
1658849117.33406,168470.1765967,-58
1658849117.33406,168470.1766032,-51
1658849117.33406,168470.1766071,-54
1658849117.33406,168470.1766159,-63
1658849117.33406,168470.1766247,-54
1658849117.33406,168470.1766333,-32
1658849117.33406,168470.1766418,-23
1658849117.33406,168470.1766498,-25
1658849117.33406,168470.1766563,-25
1658849117.33406,168470.1766641,-16
1658849117.34707,168470.1766718,-11
1658849117.34707,168470.1766794,-25
1658849117.34707,168470.1766869,-63
1658849117.34707,168470.1766945,-73
1658849117.34707,168470.1767023,-51
1658849117.34707,168470.17671,-44
1658849117.34707,168470.1767175,-30
1658849117.34707,168470.1767252,2
1658849117.34707,168470.1767329,14
1658849117.34707,168470.1767403,9
1658849117.34707,168470.1767479,0
1658849117.34707,168470.1767554,-11
1658849117.34707,168470.1767629,-14
1658849117.34707,168470.1767706,-9
1658849117.34707,168470.1767781,-2
1658849117.34707,168470.1767859,-4
1658849117.34707,168470.1767934,-7
1658849117.34707,168470.176801,7
1658849117.34707,168470.1768081,14
1658849117.34707,168470.7611642,11
1658849117.34707,168470.761181,16
1658849117.34707,168470.761186,14
1658849117.75109,168470.7611933,-40
1658849117.75109,168470.7611983,-75
1658849117.75109,168470.7612037,273
1658849117.75109,168470.761208,1218
1658849117.75109,168470.7612119,2238
1658849117.75109,168470.7612158,2579
1658849117.75109,168470.7612197,1557
1658849117.75109,168470.7612236,-421
1658849117.75109,168470.7612274,-1107
1658849117.75109,168470.7612313,-202
1658849117.75109,168470.7612353,103
1658849117.75109,168470.7612392,-249
1658849117.75109,168470.7612431,-176
1658849117.75109,168470.7612509,-35
1658849117.75109,168470.761255,-108
1658849117.75109,168470.7612589,-106
1658849117.75109,168470.7612628,-40
1658849117.75109,168470.7612681,-32
1658849117.75109,168470.7612736,-14
1658849117.75109,168470.7612786,28
1658849117.75109,168470.7612849,49
1658849117.75109,168470.7612889,61
1658849117.75109,168470.7612942,77
1658849117.75109,168470.7612981,91
1658849117.75109,168470.7613022,94
1658849117.75109,168470.7613078,106
1658849117.75109,168470.7613119,139
1658849117.75109,168470.7613173,169
1658849117.75109,168470.7613213,183
1658849117.75109,168470.7613251,186
1658849117.75109,168470.7613289,181
1658849117.75109,168470.7613328,169
1658849117.75109,168470.7613369,160
1658849117.75109,168470.7613409,153
1658849117.75109,168470.7613464,129
1658849117.75109,168470.7613506,87
1658849117.75109,168470.7613564,51
1658849117.75109,168470.7613605,16
1658849117.75109,168470.7613659,-14
1658849117.75109,168470.7613706,-37
1658849117.75109,168470.7613745,-56
1658849117.75109,168470.76138,-70
1658849117.75109,168470.7613839,-70
1658849117.75109,168470.7613879,-63
1658849117.75109,168470.7613947,-56
1658849117.75109,168470.7613988,-47
1658849117.75109,168470.7614046,-44
1658849117.75109,168470.7614086,-42
1658849117.75109,168470.7614151,-32
1658849117.75109,168470.76142,-37
1658849117.76306,168470.7614254,-37
1658849117.76306,168470.7614301,-23
1658849117.76306,168470.7614349,-23
1658849117.76306,168470.7614403,-23
1658849117.76306,168470.7614442,-9
1658849117.76306,168470.7614502,0
1658849117.76306,168470.7614541,-11
1658849117.76306,168470.7614598,-25
1658849117.76306,168470.7614639,-9
1658849117.76306,168470.7614691,0
1658849117.76306,168470.7614739,-14
1658849117.76306,168470.7614793,-7
1658849117.76306,168470.7614831,18
1658849117.76306,168470.7614871,9
1658849117.76306,168470.7614931,-16
1658849117.76306,168470.761497,-2
1658849117.76306,168470.7615023,23
1658849117.76306,168470.7615072,21
1658849117.76306,168470.7615131,11
1658849117.76306,168470.7615171,14
1658849117.76306,168471.2974896,11
1658849117.76306,168471.2975084,7
1658849117.76306,168471.2975211,25
1658849117.76306,168471.2975275,61
1658849118.34094,168471.2975572,73
1658849118.34094,168471.2975652,65
1658849118.34094,168471.2975704,54
1658849118.34094,168471.2975751,47
1658849118.34094,168471.2975826,56
1658849118.34094,168471.2975896,80
1658849118.34094,168471.2975963,89
1658849118.34094,168471.2976017,75
1658849118.34094,168471.2976068,51
1658849118.34094,168471.2976119,54
1658849118.34094,168471.2976195,70
1658849118.34094,168471.2976232,70
1658849118.34094,168471.2976271,56
1658849118.34094,168471.2976323,32
1658849118.34094,168471.2976359,-30
1658849118.34094,168471.2976409,-94
1658849118.34094,168471.2976477,207
1658849118.34094,168471.2976527,1128
1658849118.34094,168471.297661,2153
1658849118.34094,168471.297672,2589
1658849118.34094,168471.2976771,1854
1658849118.34094,168471.2976831,-37
1658849118.34094,168471.2976895,-1036
1658849118.34094,168471.2976955,-228
1658849118.34094,168471.2977025,216
1658849118.34094,168471.2977083,-193
1658849118.34094,168471.2977147,-186
1658849118.34094,168471.2977184,11
1658849118.34094,168471.2977228,-73
1658849118.34094,168471.2977271,-98
1658849118.34094,168471.2977328,-7
1658849118.34094,168471.297737,-2
1658849118.34094,168471.2977409,-16
1658849118.34094,168471.2977471,23
1658849118.34094,168471.297751,44
1658849118.34094,168471.2977544,49
1658849118.34094,168471.2977582,77
1658849118.34094,168471.2977622,103
1658849118.34094,168471.2977677,101
1658849118.34094,168471.2977713,110
1658849118.34094,168471.2977748,146
1658849118.34094,168471.2977783,164
1658849118.34094,168471.297782,176
1658849118.34094,168471.2977857,190
1658849118.34094,168471.2977892,188
1658849118.34094,168471.2977927,162
1658849118.34094,168471.2977962,143
1658849118.34094,168471.2977996,136
1658849118.34094,168471.2978038,127
1658849118.34094,168471.297808,110
1658849118.35491,168471.2978126,80
1658849118.35491,168471.2978182,28
1658849118.35491,168471.2978223,-21
1658849118.35491,168471.2978278,-47
1658849118.35491,168471.2978317,-58
1658849118.35491,168471.297837,-73
1658849118.35491,168471.2978408,-82
1658849118.35491,168471.2978464,-75
1658849118.35491,168471.2978501,-61
1658849118.35491,168471.2978557,-58
1658849118.35491,168471.2978595,-56
1658849118.35491,168471.2978647,-44
1658849118.35491,168471.2978684,-30
1658849118.35491,168471.2978742,-18
1658849118.35491,168471.2978787,-11
1658849118.35491,168471.2978838,-4
1658849118.35491,168471.2978875,-2
1658849118.35491,168471.2978927,-2
1658849118.35491,168471.2978964,4
1658849118.35491,168471.8818126,4
1658849118.35491,168471.8818332,-4
1658849118.35491,168471.8818479,-7
1658849118.35491,168471.8818614,0
1658849118.35491,168471.8818711,4
1658849118.92642,168471.8818784,11
1658849118.92642,168471.8818869,16
1658849118.92642,168471.8818953,11
1658849118.92642,168471.8819009,-4
1658849118.92642,168471.8819085,-14
1658849118.92642,168471.881918,-7
1658849118.92642,168471.8819298,0
1658849118.92642,168471.8819353,2
1658849118.92642,168471.8819416,7
1658849118.92642,168471.8819509,0
1658849118.92642,168471.8819607,-21
1658849118.92642,168471.8819657,-21
1658849118.92642,168471.8819712,-4
1658849118.92642,168471.8819749,14
1658849118.92642,168471.88198,32
1658849118.92642,168471.8819839,44
1658849118.92642,168471.8819875,42
1658849118.92642,168471.881995,28
1658849118.92642,168471.8820014,23
1658849118.92642,168471.882014,35
1658849118.92642,168471.8820203,40
1658849118.92642,168471.8820227,42
1658849118.92642,168471.8820247,47
1658849118.92642,168471.8820268,51
1658849118.92642,168471.8820288,58
1658849118.92642,168471.8820308,58
1658849118.92642,168471.8820362,68
1658849118.92642,168471.882045,89
1658849118.92642,168471.8820507,80
1658849118.92642,168471.8820553,-14
1658849118.92642,168471.8820603,-65
1658849118.92642,168471.8820648,348
1658849118.92642,168471.8820697,1328
1658849118.92642,168471.8820802,2257
1658849118.92642,168471.8820925,2452
1658849118.92642,168471.8821022,1328
1658849118.92642,168471.882112,-527
1658849118.92642,168471.8821229,-956
1658849118.92642,168471.8821316,-61
1658849118.92642,168471.88214,120
1658849118.92642,168471.8821509,-176
1658849118.92642,168471.8821591,-58
1658849118.92642,168471.8821683,35
1658849118.92642,168471.8821793,-54
1658849118.92642,168471.8821879,-35
1658849118.92642,168471.8821967,30
1658849118.92642,168471.8822073,32
1658849118.92642,168471.8822154,44
1658849118.92642,168471.882225,73
1658849118.92642,168471.8822355,87
1658849118.93739,168471.8822426,98
1658849118.93739,168471.8822535,122
1658849118.93739,168471.8822641,150
1658849118.93739,168471.8822715,167
1658849118.93739,168471.8822829,171
1658849118.93739,168471.8822928,193
1658849118.93739,168471.8823028,226
1658849118.93739,168471.8823134,237
1658849118.93739,168471.882322,230
1658849118.93739,168471.882331,221
1658849118.93739,168471.8823418,214
1658849118.93739,168471.8823497,197
1658849118.93739,168471.8823579,174
1658849118.93739,168471.882369,155
1658849118.93739,168471.8823817,134
1658849118.93739,168471.8823949,101
1658849118.93739,168471.8824038,47
1658849118.93739,168471.8824073,-7
1658849118.93739,168472.4671528,-37
1658849118.93739,168472.4671709,-56
1658849118.93739,168472.4671812,-73
1658849118.93739,168472.4671861,-68
1658849118.93739,168472.4671926,-61
1658849118.93739,168472.4671978,-65
1658849119.5147,168472.4672038,-56
1658849119.5147,168472.4672099,-37
1658849119.5147,168472.4672182,-30
1658849119.5147,168472.4672229,-25
1658849119.5147,168472.4672251,-14
1658849119.5147,168472.4672272,-11
1658849119.5147,168472.4672292,-25
1658849119.5147,168472.4672311,-30
1658849119.5147,168472.467233,-14
1658849119.5147,168472.4672354,-7
1658849119.5147,168472.4672456,-7
1658849119.5147,168472.4672575,-16
1658849119.5147,168472.4672644,-28
1658849119.5147,168472.4672678,-35
1658849119.5147,168472.46727,-25
1658849119.5147,168472.4672722,-14
1658849119.5147,168472.4672816,-14
1658849119.5147,168472.4672912,-18
1658849119.5147,168472.4672955,-18
1658849119.5147,168472.4672976,-7
1658849119.5147,168472.4672996,4
1658849119.5147,168472.4673019,-2
1658849119.5147,168472.467312,-16
1658849119.5147,168472.4673204,-11
1658849119.5147,168472.4673229,-11
1658849119.5147,168472.467325,-14
1658849119.5147,168472.4673271,-2
1658849119.5147,168472.4673297,2
1658849119.5147,168472.4673397,-7
1658849119.5147,168472.4673477,-7
1658849119.5147,168472.4673502,4
1658849119.5147,168472.4673524,28
1658849119.5147,168472.4673544,54
1658849119.5147,168472.4673566,68
1658849119.5147,168472.4673658,65
1658849119.5147,168472.4673755,51
1658849119.5147,168472.4673781,44
1658849119.5147,168472.4673824,51
1658849119.5147,168472.4673922,58
1658849119.5147,168472.4674025,61
1658849119.5147,168472.4674068,65
1658849119.5147,168472.4674108,68
1658849119.5147,168472.467413,70
1658849119.5147,168472.4674153,75
1658849119.5147,168472.4674173,77
1658849119.5147,168472.4674221,75
1658849119.5147,168472.4674333,70
1658849119.5147,168472.4674385,18
1658849119.5147,168472.4674406,-63
1658849119.5147,168472.4674427,141
1658849119.53165,168472.4674456,949
1658849119.53165,168472.4674584,1953
1658849119.53165,168472.4674641,2436
1658849119.53165,168472.4674669,1844
1658849119.53165,168472.467469,120
1658849119.53165,168472.4674711,-961
1658849119.53165,168472.4674775,-296
1658849119.53165,168472.4674904,223
1658849119.53165,168472.4674981,-120
1658849119.53165,168472.4675007,-160
1658849119.53165,168472.4675027,25
1658849119.53165,168472.4675119,-40
1658849119.53165,168472.4675139,-80
1658849119.53165,168472.4675169,2
1658849119.53165,168472.4675288,14
1658849119.53165,168472.4675397,2
1658849119.53165,168472.4675514,37
1658849119.53165,168473.054289,61
1658849119.53165,168473.0543123,58
1658849119.53165,168473.0543173,75
1658849119.53165,168473.0543219,98
1658849119.53165,168473.0543263,110
1658849119.53165,168473.0543309,127
1658849119.53165,168473.0543355,146
1658849119.99323,168473.0543396,164
1658849119.99323,168473.0543439,171
1658849119.99323,168473.0543486,160
1658849119.99323,168473.0543529,153
1658849119.99323,168473.0543574,143
1658849119.99323,168473.0543621,127
1658849119.99323,168473.0543709,113
1658849119.99323,168473.054378,87
1658849119.99323,168473.0543839,37
1658849119.99323,168473.0543899,-9
1658849119.99323,168473.0543964,-44
1658849119.99323,168473.0544023,-75
1658849119.99323,168473.0544084,-115
1658849119.99323,168473.0544136,-153
1658849119.99323,168473.0544187,-176
1658849119.99323,168473.0544236,-181
1658849119.99323,168473.0544283,-179
1658849119.99323,168473.054433,-171
1658849119.99323,168473.0544375,-157
1658849119.99323,168473.0544422,-143
1658849119.99323,168473.0544463,-139
1658849119.99323,168473.0544502,-136
1658849119.99323,168473.0544544,-131
1658849119.99323,168473.0544585,-120
1658849119.99323,168473.0544631,-110
1658849119.99323,168473.0544678,-108
1658849119.99323,168473.0544723,-110
1658849119.99323,168473.0544771,-108
1658849119.99323,168473.0544819,-106
1658849119.99323,168473.0544864,-103
1658849119.99323,168473.054491,-98
1658849119.99323,168473.0544955,-91
1658849119.99323,168473.0544998,-89
1658849119.99323,168473.0545041,-91
1658849119.99323,168473.0545081,-87
1658849119.99323,168473.0545125,-82
1658849119.99323,168473.0545167,-75
1658849119.99323,168473.054521,-73
1658849119.99323,168473.0545252,-73
1658849119.99323,168473.0545296,-70
1658849119.99323,168473.0545342,-70
1658849119.99323,168473.0545389,-70
1658849119.99323,168473.0545437,-68
1658849119.99323,168473.0545483,-63
1658849119.99323,168473.054553,-58
1658849119.99323,168473.0545575,-56
1658849119.99323,168473.0545618,-58
1658849119.99323,168473.0545662,-61
1658849119.99323,168473.0545707,-56
1658849119.99323,168473.054575,-49
1658849120.00519,168473.0545792,-49
1658849120.00519,168473.0545837,-47
1658849120.00519,168473.0545878,-51
1658849120.00519,168473.0545924,-58
1658849120.00519,168473.0545969,-58
1658849120.00519,168473.0546016,-54
1658849120.00519,168473.0546062,-40
1658849120.00519,168473.0546105,-11
1658849120.00519,168473.0546151,-2
1658849120.00519,168473.0546196,-11
1658849120.00519,168473.0546242,-21
1658849120.00519,168473.0546288,-28
1658849120.00519,168473.0546326,-30
1658849120.00519,168473.0546365,-25
1658849120.00519,168473.0546405,-25
1658849120.00519,168473.0546443,-32
1658849120.00519,168473.54027,-28
1658849120.00519,168473.5402876,-21
1658849120.00519,168473.5402974,-18
1658849120.00519,168473.5403056,-16
1658849120.00519,168473.540311,-21
1658849120.00519,168473.5403193,-42
1658849120.00519,168473.5403263,-84
1658849120.00519,168473.5403385,-160
1658849120.58243,168473.5403504,-70
1658849120.58243,168473.5403548,593
1658849120.58243,168473.5403569,1649
1658849120.58243,168473.5403628,2365
1658849120.58243,168473.5403725,2115
1658849120.58243,168473.5403808,518
1658849120.58243,168473.5403902,-1013
1658849120.58243,168473.5403939,-680
1658849120.58243,168473.5403962,91
1658849120.58243,168473.5403983,-139
1658849120.58243,168473.5404004,-325
1658849120.58243,168473.5404025,-113
1658849120.58243,168473.5404045,-113
1658849120.58243,168473.5404076,-190
1658849120.58243,168473.5404199,-115
1658849120.58243,168473.5404257,-73
1658849120.58243,168473.540428,-94
1658849120.58243,168473.54043,-73
1658849120.58243,168473.5404321,-37
1658849120.58243,168473.540434,-23
1658849120.58243,168473.540436,-4
1658849120.58243,168473.540438,18
1658849120.58243,168473.54044,30
1658849120.58243,168473.5404421,37
1658849120.58243,168473.540444,61
1658849120.58243,168473.5404464,82
1658849120.58243,168473.5404483,94
1658849120.58243,168473.5404503,110
1658849120.58243,168473.5404524,127
1658849120.58243,168473.5404543,122
1658849120.58243,168473.5404563,106
1658849120.58243,168473.5404583,94
1658849120.58243,168473.5404603,80
1658849120.58243,168473.5404624,63
1658849120.58243,168473.5404644,40
1658849120.58243,168473.5404664,4
1658849120.58243,168473.5404684,-32
1658849120.58243,168473.5404705,-61
1658849120.58243,168473.5404725,-87
1658849120.58243,168473.5404745,-110
1658849120.58243,168473.5404765,-122
1658849120.58243,168473.5404786,-122
1658849120.58243,168473.5404807,-117
1658849120.58243,168473.5404827,-101
1658849120.58243,168473.5404847,-89
1658849120.58243,168473.5404868,-84
1658849120.58243,168473.5404889,-75
1658849120.58243,168473.5404909,-65
1658849120.58243,168473.5404929,-63
1658849120.58243,168473.540495,-56
1658849120.60138,168473.540497,-44
1658849120.60138,168473.540499,-37
1658849120.60138,168473.540501,-32
1658849120.60138,168473.540503,-28
1658849120.60138,168473.540505,-30
1658849120.60138,168473.540507,-37
1658849120.60138,168473.5405144,-30
1658849120.60138,168473.5405252,-16
1658849120.60138,168473.5405287,-21
1658849120.60138,168473.5405316,-30
1658849120.60138,168473.5405346,-25
1658849120.60138,168473.5405414,-14
1658849120.60138,168473.5405522,-7
1658849120.60138,168473.5405568,-4
1658849120.60138,168473.5405655,-2
1658849120.60138,168474.1242885,-2
1658849120.60138,168474.1243019,-4
1658849120.60138,168474.1243072,0
1658849120.60138,168474.1243096,2
1658849120.60138,168474.1243117,-2
1658849120.60138,168474.1243137,-14
1658849120.60138,168474.1243156,-14
1658849120.60138,168474.1243177,-9
1658849120.60138,168474.1243198,-21
1658849121.15911,168474.1243218,-42
1658849121.15911,168474.1243238,-35
1658849121.15911,168474.1243257,-18
1658849121.15911,168474.1243276,-18
1658849121.15911,168474.1243295,-23
1658849121.15911,168474.1243317,-23
1658849121.15911,168474.1243385,-40
1658849121.15911,168474.1243463,-42
1658849121.15911,168474.1243511,-14
1658849121.15911,168474.1243557,14
1658849121.15911,168474.1243599,37
1658849121.15911,168474.1243639,35
1658849121.15911,168474.1243677,-11
1658849121.15911,168474.1243715,-37
1658849121.15911,168474.1243771,-16
1658849121.15911,168474.1243808,0
1658849121.15911,168474.1243892,-11
1658849121.15911,168474.1243998,-11
1658849121.15911,168474.124409,4
1658849121.15911,168474.1244165,7
1658849121.15911,168474.124427,7
1658849121.15911,168474.124438,16
1658849121.15911,168474.1244466,16
1658849121.15911,168474.1244578,11
1658849121.15911,168474.1244685,16
1658849121.15911,168474.1244763,-16
1658849121.15911,168474.1244831,-89
1658849121.15911,168474.124492,129
1658849121.15911,168474.1244978,947
1658849121.15911,168474.1245107,1971
1658849121.15911,168474.1245215,2494
1658849121.15911,168474.1245293,1823
1658849121.15911,168474.1245378,-44
1658849121.15911,168474.1245429,-1062
1658849121.15911,168474.1245482,-299
1658849121.15911,168474.1245505,181
1658849121.15911,168474.1245526,-155
1658849121.15911,168474.1245546,-141
1658849121.15911,168474.1245567,32
1658849121.15911,168474.1245588,-40
1658849121.15911,168474.1245609,-51
1658849121.15911,168474.124563,30
1658849121.15911,168474.1245651,23
1658849121.15911,168474.1245672,14
1658849121.15911,168474.1245693,58
1658849121.15911,168474.1245714,94
1658849121.15911,168474.1245735,106
1658849121.15911,168474.1245755,127
1658849121.15911,168474.1245775,148
1658849121.15911,168474.1245796,162
1658849121.17108,168474.1245816,183
1658849121.17108,168474.1245836,209
1658849121.17108,168474.1245856,219
1658849121.17108,168474.1245877,223
1658849121.17108,168474.1245897,237
1658849121.17108,168474.1245917,247
1658849121.17108,168474.1245937,247
1658849121.17108,168474.1245958,240
1658849121.17108,168474.1245978,221
1658849121.17108,168474.1245999,188
1658849121.17108,168474.1246019,155
1658849121.17108,168474.1246039,120
1658849121.17108,168474.124606,80
1658849121.17108,168474.1246081,28
1658849121.17108,168474.7098454,-14
1658849121.17108,168474.7098611,-30
1658849121.17108,168474.7098668,-42
1658849121.17108,168474.7098751,-58
1658849121.17108,168474.7098816,-70
1658849121.17108,168474.7098891,-70
1658849121.17108,168474.7098938,-54
1658849121.17108,168474.7099009,-44
1658849121.17108,168474.7099064,-35
1658849121.17108,168474.7099125,-16
1658849121.70516,168474.709917,-9
1658849121.70516,168474.7099214,-18
1658849121.70516,168474.7099258,-18
1658849121.70516,168474.7099303,-7
1658849121.70516,168474.7099355,-4
1658849121.70516,168474.7099398,-2
1658849121.70516,168474.7099443,4
1658849121.70516,168474.7099488,0
1658849121.70516,168474.7099533,-16
1658849121.70516,168474.7099577,-21
1658849121.70516,168474.7099621,-14
1658849121.70516,168474.7099665,-11
1658849121.70516,168474.7099726,-14
1658849121.70516,168474.7099789,-11
1658849121.70516,168474.7099837,-11
1658849121.70516,168474.7099898,-7
1658849121.70516,168474.7099944,0
1658849121.70516,168474.7100008,-2
1658849121.70516,168474.7100054,-4
1658849121.70516,168474.7100114,4
1658849121.70516,168474.710016,11
1658849121.70516,168474.710022,7
1658849121.70516,168474.7100267,9
1658849121.70516,168474.7100327,16
1658849121.70516,168474.7100372,18
1658849121.70516,168474.7100433,16
1658849121.70516,168474.7100483,16
1658849121.70516,168474.7100545,18
1658849121.70516,168474.7100593,16
1658849121.70516,168474.7100653,18
1658849121.70516,168474.7100703,28
1658849121.70516,168474.7100767,25
1658849121.70516,168474.7100823,21
1658849121.70516,168474.7100895,40
1658849121.70516,168474.710094,75
1658849121.70516,168474.7100983,103
1658849121.70516,168474.7101041,106
1658849121.70516,168474.7101078,77
1658849121.70516,168474.7101117,51
1658849121.70516,168474.7101179,56
1658849121.70516,168474.7101225,63
1658849121.70516,168474.7101272,68
1658849121.70516,168474.710133,77
1658849121.70516,168474.7101385,80
1658849121.70516,168474.7101444,75
1658849121.70516,168474.7101496,80
1658849121.70516,168474.7101541,87
1658849121.70516,168474.7101586,89
1658849121.70516,168474.7101644,91
1658849121.70516,168474.710169,84
1658849121.71812,168474.7101753,35
1658849121.71812,168474.7101807,-32
1658849121.71812,168474.7101866,171
1658849121.71812,168474.7101921,954
1658849121.71812,168474.710199,1953
1658849121.71812,168474.7102038,2461
1658849121.71812,168474.7102097,1844
1658849121.71812,168474.7102144,63
1658849121.71812,168474.7102203,-994
1658849121.71812,168474.7102256,-301
1658849121.71812,168474.7102315,216
1658849121.71812,168474.710236,-89
1658849121.71812,168474.7102417,-103
1658849121.71812,168475.2456735,70
1658849121.71812,168475.2456961,7
1658849121.71812,168475.2457106,-23
1658849121.71812,168475.2457262,56
1658849121.71812,168475.2457365,73
1658849121.71812,168475.2457463,68
1658849121.71812,168475.2457736,98
1658849121.71812,168475.2457829,117
1658849121.71812,168475.2457879,120
1658849121.71812,168475.2457918,129
1658849121.71812,168475.2457951,150
1658849122.24189,168475.2457983,167
1658849122.24189,168475.2458015,186
1658849122.24189,168475.2458046,204
1658849122.24189,168475.245808,214
1658849122.24189,168475.2458113,214
1658849122.24189,168475.2458147,216
1658849122.24189,168475.2458183,223
1658849122.24189,168475.2458219,212
1658849122.24189,168475.2458269,188
1658849122.24189,168475.2458327,167
1658849122.24189,168475.2458393,141
1658849122.24189,168475.2458429,110
1658849122.24189,168475.2458467,82
1658849122.24189,168475.2458501,49
1658849122.24189,168475.2458546,14
1658849122.24189,168475.2458608,-16
1658849122.24189,168475.2458637,-37
1658849122.24189,168475.2458668,-56
1658849122.24189,168475.2458697,-63
1658849122.24189,168475.2458725,-63
1658849122.24189,168475.2458761,-58
1658849122.24189,168475.245879,-51
1658849122.24189,168475.2458823,-40
1658849122.24189,168475.2458854,-30
1658849122.24189,168475.2458882,-21
1658849122.24189,168475.245891,-11
1658849122.24189,168475.2458939,-11
1658849122.24189,168475.245897,-9
1658849122.24189,168475.2459011,2
1658849122.24189,168475.2459043,9
1658849122.24189,168475.245909,9
1658849122.24189,168475.245912,9
1658849122.24189,168475.245915,9
1658849122.24189,168475.2459183,7
1658849122.24189,168475.2459216,9
1658849122.24189,168475.2459249,11
1658849122.24189,168475.2459282,11
1658849122.24189,168475.2459318,11
1658849122.24189,168475.2459383,7
1658849122.24189,168475.2460117,2
1658849122.24189,168475.2460203,-2
1658849122.24189,168475.2460247,-2
1658849122.24189,168475.2460305,0
1658849122.24189,168475.2460349,4
1658849122.24189,168475.2460419,4
1658849122.24189,168475.2460523,7
1658849122.24189,168475.2460609,4
1658849122.24189,168475.2460689,-4
1658849122.24189,168475.2460757,-2
1658849122.24189,168475.2460807,4
1658849122.25486,168475.2460838,7
1658849122.25486,168475.2460868,11
1658849122.25486,168475.2460898,21
1658849122.25486,168475.2460931,30
1658849122.25486,168475.2460983,30
1658849122.25486,168475.2461021,28
1658849122.25486,168475.2461054,32
1658849122.25486,168475.2461086,42
1658849122.25486,168475.2461117,47
1658849122.25486,168475.2461154,49
1658849122.25486,168475.2461204,56
1658849122.25486,168475.2461247,51
1658849122.25486,168475.7837832,35
1658849122.25486,168475.7838065,37
1658849122.25486,168475.7838157,68
1658849122.25486,168475.7838211,106
1658849122.25486,168475.7838279,131
1658849122.25486,168475.7838369,134
1658849122.25486,168475.7838404,108
1658849122.25486,168475.7838445,84
1658849122.25486,168475.783848,82
1658849122.25486,168475.7838513,87
1658849122.25486,168475.7838547,82
1658849122.25486,168475.783858,73
1658849122.77019,168475.7838612,61
1658849122.77019,168475.7838646,63
1658849122.77019,168475.7838685,75
1658849122.77019,168475.7838719,80
1658849122.77019,168475.7838765,84
1658849122.77019,168475.7838834,80
1658849122.77019,168475.783887,61
1658849122.77019,168475.7838903,18
1658849122.77019,168475.7838941,-47
1658849122.77019,168475.7838972,134
1658849122.77019,168475.7839003,928
1658849122.77019,168475.7839097,1971
1658849122.77019,168475.7839197,2516
1658849122.77019,168475.7839248,1990
1658849122.77019,168475.7839287,259
1658849122.77019,168475.7839322,-942
1658849122.77019,168475.7839358,-325
1658849122.77019,168475.7839389,259
1658849122.77019,168475.7839422,-82
1658849122.77019,168475.7839455,-157
1658849122.77019,168475.7839487,51
1658849122.77019,168475.7839519,4
1658849122.77019,168475.7839555,-42
1658849122.77019,168475.783959,35
1658849122.77019,168475.7839626,51
1658849122.77019,168475.783966,40
1658849122.77019,168475.7839693,75
1658849122.77019,168475.7839728,98
1658849122.77019,168475.7839762,108
1658849122.77019,168475.7839815,124
1658849122.77019,168475.7839857,139
1658849122.77019,168475.78399,153
1658849122.77019,168475.7839934,176
1658849122.77019,168475.7839965,200
1658849122.77019,168475.7839996,219
1658849122.77019,168475.7840029,235
1658849122.77019,168475.7840061,245
1658849122.77019,168475.7840119,242
1658849122.77019,168475.7840153,228
1658849122.77019,168475.7840204,209
1658849122.77019,168475.784024,200
1658849122.77019,168475.7840292,186
1658849122.77019,168475.7840327,160
1658849122.77019,168475.784036,124
1658849122.77019,168475.7840409,89
1658849122.77019,168475.7840467,47
1658849122.77019,168475.7840519,9
1658849122.77019,168475.7840558,-14
1658849122.77019,168475.7840595,-35
1658849122.77019,168475.7840627,-51
1658849122.78515,168475.7840662,-61
1658849122.78515,168475.7840717,-61
1658849122.78515,168475.7840756,-49
1658849122.78515,168475.7840826,-35
1658849122.78515,168475.7840873,-23
1658849122.78515,168475.7840929,-16
1658849122.78515,168475.7840965,-14
1658849122.78515,168475.7841017,-14
1658849122.78515,168475.7841062,-7
1658849122.78515,168475.7841115,-4
1658849122.78515,168475.784115,-9
1658849122.78515,168476.3185433,-14
1658849122.78515,168476.3185558,-18
1658849122.78515,168476.3185588,-16
1658849122.78515,168476.3185612,-11
1658849122.78515,168476.3185635,-2
1658849122.78515,168476.3185657,-2
1658849122.78515,168476.318568,-7
1658849122.78515,168476.3185703,-9
1658849122.78515,168476.3185725,-7
1658849122.78515,168476.3185748,-7
1658849122.78515,168476.3185771,-7
1658849122.78515,168476.3185802,-7
1658849122.78515,168476.3185901,-2
1658849123.45748,168476.318599,7
1658849123.45748,168476.3186016,4
1658849123.45748,168476.3186037,-9
1658849123.45748,168476.3186057,-11
1658849123.45748,168476.3186076,2
1658849123.45748,168476.3186096,9
1658849123.45748,168476.3186116,14
1658849123.45748,168476.3186135,18
1658849123.45748,168476.3186154,14
1658849123.45748,168476.3186205,9
1658849123.45748,168476.3186282,14
1658849123.45748,168476.3186326,16
1658849123.45748,168476.3186361,23
1658849123.45748,168476.3186419,37
1658849123.45748,168476.3186462,44
1658849123.45748,168476.3186553,40
1658849123.45748,168476.318664,40
1658849123.45748,168476.3186666,49
1658849123.45748,168476.3186687,56
1658849123.45748,168476.3186708,56
1658849123.45748,168476.3186729,44
1658849123.45748,168476.3186749,40
1658849123.45748,168476.3186769,65
1658849123.45748,168476.3186789,110
1658849123.45748,168476.318681,129
1658849123.45748,168476.3186831,117
1658849123.45748,168476.3186852,91
1658849123.45748,168476.3186872,75
1658849123.45748,168476.3186893,80
1658849123.45748,168476.3186914,87
1658849123.45748,168476.3186935,75
1658849123.45748,168476.3186957,77
1658849123.45748,168476.3186977,98
1658849123.45748,168476.3186998,98
1658849123.45748,168476.3187019,77
1658849123.45748,168476.3187039,80
1658849123.45748,168476.3187061,96
1658849123.45748,168476.318708,106

1658849123.45748,168476.3187101,101
1658849123.45748,168476.3187121,30
1658849123.45748,168476.3187141,9
1658849123.45748,168476.3187161,464
1658849123.45748,168476.3187182,1439
1658849123.45748,168476.3187201,2327
1658849123.45748,168476.3187222,2497
1658849123.45748,168476.3187242,1324
1658849123.45748,168476.3187262,-518
1658849123.45748,168476.3187283,-826
1658849123.45748,168476.3187303,70
1658849123.45748,168476.3187324,157
1658849123.47244,168476.3187343,-153
1658849123.47244,168476.3187364,-7
1658849123.47244,168476.3187385,77
1658849123.47244,168476.3187406,-23
1658849123.47244,168476.3187427,16
1658849123.47244,168476.3187526,84
1658849123.47244,168476.3187547,68
1658849123.47244,168476.3187628,82
1658849123.47244,168476.3187773,110
1658849123.47244,168476.3187864,115
1658849123.47244,168477.0007195,136
1658849123.47244,168477.0007333,160
1658849123.47244,168477.0007378,162
1658849123.47244,168477.0007401,181
1658849123.47244,168477.0007422,221
1658849123.47244,168477.0007441,254
1658849123.47244,168477.0007463,261
1658849123.47244,168477.0007483,252
1658849123.47244,168477.0007501,249
1658849123.47244,168477.000752,263
1658849123.47244,168477.000754,273
1658849123.47244,168477.000756,237
1658849123.47244,168477.0007606,188
1658849123.47244,168477.0007689,171
1658849123.94844,168477.0007735,157
1658849123.94844,168477.000777,115
1658849123.94844,168477.0007821,70
1658849123.94844,168477.000787,32
1658849123.94844,168477.0007921,-11
1658849123.94844,168477.0007961,-49
1658849123.94844,168477.0007999,-63
1658849123.94844,168477.0008039,-58
1658849123.94844,168477.000808,-73
1658849123.94844,168477.0008125,-101
1658849123.94844,168477.0008193,-96
1658849123.94844,168477.0008311,-65
1658849123.94844,168477.0008362,-61
1658849123.94844,168477.0008406,-75
1658849123.94844,168477.000848,-70
1658849123.94844,168477.0008544,-49
1658849123.94844,168477.000861,-23
1658849123.94844,168477.0008882,-11
1658849123.94844,168477.0008969,-18
1658849123.94844,168477.0009003,-30
1658849123.94844,168477.0009036,-32
1658849123.94844,168477.0009065,-32
1658849123.94844,168477.0009093,-32
1658849123.94844,168477.0009121,-30
1658849123.94844,168477.0009149,-35
1658849123.94844,168477.0009177,-30
1658849123.94844,168477.0009204,-25
1658849123.94844,168477.0009231,-18
1658849123.94844,168477.0009259,0
1658849123.94844,168477.000929,14
1658849123.94844,168477.000932,4
1658849123.94844,168477.000935,-7
1658849123.94844,168477.0009378,0
1658849123.94844,168477.0009407,25
1658849123.94844,168477.0009436,32
1658849123.94844,168477.0009466,18
1658849123.94844,168477.0009496,18
1658849123.94844,168477.0009525,23
1658849123.94844,168477.0009583,21
1658849123.94844,168477.0009707,37
1658849123.94844,168477.0009857,68
1658849123.94844,168477.0009978,61
1658849123.94844,168477.0010085,40
1658849123.94844,168477.0010209,47
1658849123.94844,168477.0010341,65
1658849123.94844,168477.001044,56
1658849123.94844,168477.0010514,30
1658849123.94844,168477.001083,23
1658849123.94844,168477.0010934,49
1658849123.94844,168477.0010992,80
1658849123.9644,168477.0011029,106
1658849123.9644,168477.0011069,131
1658849123.9644,168477.0011104,143
1658849123.9644,168477.0011139,134
1658849123.9644,168477.0011175,94
1658849123.9644,168477.0011212,65
1658849123.9644,168477.0011249,87
1658849123.9644,168477.0011286,98
1658849123.9644,168477.0011338,98
1658849123.9644,168477.4902708,110
1658849123.9644,168477.490285,101
1658849123.9644,168477.4902897,84
1658849123.9644,168477.4902942,96
1658849123.9644,168477.4902985,110
1658849123.9644,168477.4903029,103
1658849123.9644,168477.4903073,101
1658849123.9644,168477.4903118,96
1658849123.9644,168477.4903163,25
1658849123.9644,168477.4903208,61
1658849123.9644,168477.4903253,591
1658849123.9644,168477.4903297,1550
1658849123.9644,168477.4903341,2339
1658849123.9644,168477.4903385,2280
1658849123.9644,168477.4903429,815
1658849124.48065,168477.4903474,-834
1658849124.48065,168477.4903518,-727
1658849124.48065,168477.4903563,70
1658849124.48065,168477.4903606,23
1658849124.48065,168477.490365,-124
1658849124.48065,168477.4903731,25
1658849124.48065,168477.4903793,18
1658849124.48065,168477.4903855,-51
1658849124.48065,168477.4903923,2
1658849124.48065,168477.4903985,54
1658849124.48065,168477.4904023,54
1658849124.48065,168477.4904058,65
1658849124.48065,168477.4904094,98
1658849124.48065,168477.4904129,110
1658849124.48065,168477.4904165,113
1658849124.48065,168477.4904211,150
1658849124.48065,168477.4904247,181
1658849124.48065,168477.4904282,181
1658849124.48065,168477.4904318,195
1658849124.48065,168477.4904354,223
1658849124.48065,168477.490439,230
1658849124.48065,168477.4904426,233
1658849124.48065,168477.4904479,247
1658849124.48065,168477.4904515,252
1658849124.48065,168477.490455,242
1658849124.48065,168477.4904585,214
1658849124.48065,168477.4904623,188
1658849124.48065,168477.4904659,169
1658849124.48065,168477.4904712,143
1658849124.48065,168477.4904749,108
1658849124.48065,168477.4904799,49
1658849124.48065,168477.4904835,-11
1658849124.48065,168477.4904886,-37
1658849124.48065,168477.4904924,-30
1658849124.48065,168477.4904974,-44
1658849124.48065,168477.4905011,-73
1658849124.48065,168477.4905049,-84
1658849124.48065,168477.49051,-89
1658849124.48065,168477.4905137,-82
1658849124.48065,168477.4905192,-63
1658849124.48065,168477.4905228,-63
1658849124.48065,168477.4905265,-68
1658849124.48065,168477.4905316,-40
1658849124.48065,168477.4905353,-16
1658849124.48065,168477.4905409,-35
1658849124.48065,168477.4905447,-37
1658849124.48065,168477.4905498,-4
1658849124.48065,168477.4905535,-7
1658849124.48065,168477.4905585,-28
1658849124.48065,168477.4905623,-14
1658849124.49462,168477.4905674,0
1658849124.49462,168477.4905712,-14
1658849124.49462,168477.4905763,-28
1658849124.49462,168477.4905799,-16
1658849124.49462,168477.4905834,-4
1658849124.49462,168477.4905873,-9
1658849124.49462,168477.4905924,-16
1658849124.49462,168477.4905961,-4
1658849124.49462,168478.0255973,7
1658849124.49462,168478.0256181,4
1658849124.49462,168478.0256281,0
1658849124.49462,168478.0256364,0
1658849124.49462,168478.025642,2
1658849124.49462,168478.0256503,14
1658849124.49462,168478.0256572,28
1658849124.49462,168478.0256636,23
1658849124.49462,168478.0256727,11
1658849124.49462,168478.025678,16
1658849124.49462,168478.0256842,32
1658849124.49462,168478.0256873,23
1658849124.49462,168478.0256902,4
1658849124.49462,168478.0256931,9
1658849124.49462,168478.0256962,23
1658849124.49462,168478.0256992,28
1658849125.12547,168478.025703,23
1658849125.12547,168478.0257097,21
1658849125.12547,168478.0257145,23
1658849125.12547,168478.0257196,37
1658849125.12547,168478.025725,63
1658849125.12547,168478.0257301,82
1658849125.12547,168478.025737,80
1658849125.12547,168478.0257436,44
1658849125.12547,168478.0257501,4
1658849125.12547,168478.0257562,16
1658849125.12547,168478.0257624,42
1658849125.12547,168478.0257685,23
1658849125.12547,168478.0257732,21
1658849125.12547,168478.0257794,51
1658849125.12547,168478.0257825,51
1658849125.12547,168478.0257854,35
1658849125.12547,168478.0257883,42
1658849125.12547,168478.0257913,54
1658849125.12547,168478.0257942,58
1658849125.12547,168478.0257971,51
1658849125.12547,168478.0258001,-14
1658849125.12547,168478.0258031,-44
1658849125.12547,168478.0258065,386
1658849125.12547,168478.0258122,1380
1658849125.12547,168478.0258182,2297
1658849125.12547,168478.0258271,2473
1658849125.12547,168478.0258337,1340
1658849125.12547,168478.0258411,-499
1658849125.12547,168478.0258479,-895
1658849125.12547,168478.0258568,11
1658849125.12547,168478.0258637,167
1658849125.12547,168478.0258667,-167
1658849125.12547,168478.0258697,-47
1658849125.12547,168478.0258726,65
1658849125.12547,168478.0258757,-32
1658849125.12547,168478.0258787,-16
1658849125.12547,168478.0258816,56
1658849125.12547,168478.0258845,51
1658849125.12547,168478.0258874,63
1658849125.12547,168478.0258904,98
1658849125.12547,168478.0258934,103
1658849125.12547,168478.0258963,115
1658849125.12547,168478.0258992,143
1658849125.12547,168478.0259022,160
1658849125.12547,168478.0259051,179
1658849125.12547,168478.025908,209
1658849125.12547,168478.025911,223
1658849125.12547,168478.025914,228
1658849125.12547,168478.025917,249
1658849125.12547,168478.0259199,263
1658849125.14741,168478.0259229,259
1658849125.14741,168478.0259259,245
1658849125.14741,168478.0259289,226
1658849125.14741,168478.0259318,195
1658849125.14741,168478.0259348,164
1658849125.14741,168478.0259377,143
1658849125.14741,168478.0259406,110
1658849125.14741,168478.6589082,58
1658849125.14741,168478.6589211,-4
1658849125.14741,168478.6589239,-56
1658849125.14741,168478.6589262,-87
1658849125.14741,168478.6589284,-108
1658849125.14741,168478.6589306,-127
1658849125.14741,168478.6589328,-134
1658849125.14741,168478.6589349,-143
1658849125.14741,168478.6589369,-160
1658849125.14741,168478.6589389,-160
1658849125.14741,168478.6589409,-143
1658849125.14741,168478.6589429,-129
1658849125.14741,168478.6589462,-134
1658849125.14741,168478.6589541,-139
1658849125.14741,168478.6589645,-146
1658849125.14741,168478.6589719,-157
1658849125.14741,168478.6589788,-153
1658849125.61179,168478.6589871,-139
1658849125.61179,168478.6589945,-143
1658849125.61179,168478.6590019,-146
1658849125.61179,168478.6590091,-134
1658849125.61179,168478.6590178,-127
1658849125.61179,168478.6590223,-127
1658849125.61179,168478.6590275,-127
1658849125.61179,168478.6590314,-129
1658849125.61179,168478.6590388,-129
1658849125.61179,168478.6590433,-122
1658849125.61179,168478.6590519,-122
1658849125.61179,168478.6590569,-122
1658849125.61179,168478.6590603,-115
1658849125.61179,168478.6590667,-108
1658849125.61179,168478.659071,-108
1658849125.61179,168478.6590764,-108
1658849125.61179,168478.659088,-103
1658849125.61179,168478.6590972,-101
1658849125.61179,168478.6591065,-98
1658849125.61179,168478.6591135,-94
1658849125.61179,168478.6591193,-87
1658849125.61179,168478.659128,-77
1658849125.61179,168478.6591352,-73
1658849125.61179,168478.6591435,-77
1658849125.61179,168478.6591561,-77
1658849125.61179,168478.6591651,-80
1658849125.61179,168478.6591699,-77
1658849125.61179,168478.6591754,-70
1658849125.61179,168478.6591789,-65
1658849125.61179,168478.6591842,-65
1658849125.61179,168478.6591881,-63
1658849125.61179,168478.6591934,-61
1658849125.61179,168478.6591977,-61
1658849125.61179,168478.6592036,-40
1658849125.61179,168478.659207,-2
1658849125.61179,168478.6592122,11
1658849125.61179,168478.6592155,-4
1658849125.61179,168478.6592191,-25
1658849125.61179,168478.6592224,-35
1658849125.61179,168478.6592259,-32
1658849125.61179,168478.6592291,-28
1658849125.61179,168478.6592349,-25
1658849125.61179,168478.6592387,-30
1658849125.61179,168478.6592425,-35
1658849125.61179,168478.6592478,-35
1658849125.61179,168478.6592522,-25
1658849125.61179,168478.6592585,-16
1658849125.61179,168478.6592627,-16
1658849125.61179,168478.659266,-18
1658849125.61179,168478.6592694,-30
1658849125.62874,168478.6592728,-89
1658849125.62874,168478.6592762,-77
1658849125.62874,168478.6592796,419
1658849125.62874,168478.6592827,1437
1658849125.62874,168478.6592862,2337
1658849125.62874,168478.6592912,2410
1658849125.62874,168479.1461223,1050
1658849125.62874,168479.1461406,-770
1658849125.62874,168479.1461488,-885
1658849125.62874,168479.1461539,4
1658849125.62874,168479.1461622,9
1658849125.62874,168479.1461708,-261
1658849125.62874,168479.1461797,-103
1658849125.62874,168479.1461869,-49
1658849125.62874,168479.1461956,-131
1658849125.62874,168479.1462009,-77
1658849125.62874,168479.1462066,-25
1658849125.62874,168479.1462105,-56
1658849125.62874,168479.1462167,-51
1658849125.62874,168479.1462206,-4
1658849125.62874,168479.1462242,16
1658849125.62874,168479.1462279,21
1658849125.62874,168479.1462319,54
1658849125.62874,168479.1462381,80
1658849126.13161,168479.1462417,75
1658849126.13161,168479.1462458,80
1658849126.13161,168479.146253,110
1658849126.13161,168479.1462602,136
1658849126.13161,168479.1462674,155
1658849126.13161,168479.1462744,169
1658849126.13161,168479.1462814,169
1658849126.13161,168479.1462854,157
1658849126.13161,168479.1462891,146
1658849126.13161,168479.1462929,131
1658849126.13161,168479.1462965,110
1658849126.13161,168479.1463003,94
1658849126.13161,168479.1463039,61
1658849126.13161,168479.1463073,4
1658849126.13161,168479.1463108,-54
1658849126.13161,168479.1463144,-91
1658849126.13161,168479.1463181,-113
1658849126.13161,168479.1463216,-134
1658849126.13161,168479.1463254,-153
1658849126.13161,168479.146334,-160
1658849126.13161,168479.1463428,-153
1658849126.13161,168479.1463514,-139
1658849126.13161,168479.1463585,-129
1658849126.13161,168479.1463667,-115
1658849126.13161,168479.1463706,-101
1658849126.13161,168479.1463743,-101
1658849126.13161,168479.1463781,-101
1658849126.13161,168479.1463819,-89
1658849126.13161,168479.1463881,-77
1658849126.13161,168479.1464255,-70
1658849126.13161,168479.1464365,-58
1658849126.13161,168479.1464412,-40
1658849126.13161,168479.146445,-35
1658849126.13161,168479.1464493,-51
1658849126.13161,168479.1464533,-65
1658849126.13161,168479.1464571,-61
1658849126.13161,168479.146461,-56
1658849126.13161,168479.1464647,-51
1658849126.13161,168479.1464682,-47
1658849126.13161,168479.1464725,-42
1658849126.13161,168479.1464763,-32
1658849126.13161,168479.1464802,-23
1658849126.13161,168479.1464844,-18
1658849126.13161,168479.1464884,-16
1658849126.13161,168479.1464921,-21
1658849126.13161,168479.146498,-11
1658849126.13161,168479.146502,-2
1658849126.13161,168479.1465058,-7
1658849126.13161,168479.1465125,0
1658849126.13161,168479.1465163,16
1658849126.15355,168479.1465215,11
1658849126.15355,168479.146525,4
1658849126.15355,168479.1465299,18
1658849126.15355,168479.1465354,35
1658849126.15355,168479.1465389,28
1658849126.15355,168479.6826648,9
1658849126.15355,168479.682677,7
1658849126.15355,168479.6826796,16
1658849126.15355,168479.6826829,21
1658849126.15355,168479.682685,32
1658849126.15355,168479.6826869,65
1658849126.15355,168479.6826889,96
1658849126.15355,168479.6826909,94
1658849126.15355,168479.6826929,61
1658849126.15355,168479.6826949,37
1658849126.15355,168479.6826969,40
1658849126.15355,168479.6826988,37
1658849126.15355,168479.6827008,28
1658849126.15355,168479.6827035,32
1658849126.15355,168479.6827111,37
1658849126.15355,168479.6827199,30
1658849126.15355,168479.6827268,28
1658849126.15355,168479.6827375,37
1658849126.15355,168479.6827411,47
1658849126.76617,168479.6827451,51
1658849126.76617,168479.6827472,58
1658849126.76617,168479.6827491,47
1658849126.76617,168479.6827512,-28
1658849126.76617,168479.6827532,-4
1658849126.76617,168479.6827551,485
1658849126.76617,168479.6827571,1448
1658849126.76617,168479.6827591,2341
1658849126.76617,168479.6827616,2447
1658849126.76617,168479.6827687,1062
1658849126.76617,168479.682776,-763
1658849126.76617,168479.6827806,-836
1658849126.76617,168479.6827856,37
1658849126.76617,168479.6827918,42
1658849126.76617,168479.6828021,-162
1658849126.76617,168479.6828105,16
1658849126.76617,168479.682813,51
1658849126.76617,168479.6828152,-32
1658849126.76617,168479.6828172,28
1658849126.76617,168479.6828193,84
1658849126.76617,168479.6828213,70
1658849126.76617,168479.6828232,89
1658849126.76617,168479.6828253,117
1658849126.76617,168479.6828274,124
1658849126.76617,168479.6828293,141
1658849126.76617,168479.6828313,171
1658849126.76617,168479.6828333,190
1658849126.76617,168479.6828352,209
1658849126.76617,168479.6828373,233
1658849126.76617,168479.6828393,259
1658849126.76617,168479.6828413,275
1658849126.76617,168479.6828433,292
1658849126.76617,168479.6828453,306
1658849126.76617,168479.6828472,306
1658849126.76617,168479.6828493,292
1658849126.76617,168479.6828565,278
1658849126.76617,168479.6828659,256
1658849126.76617,168479.6828721,221
1658849126.76617,168479.6828805,181
1658849126.76617,168479.6828829,136
1658849126.76617,168479.6828851,84
1658849126.76617,168479.6828872,32
1658849126.76617,168479.6828892,-4
1658849126.76617,168479.6828913,-30
1658849126.76617,168479.6828934,-54
1658849126.76617,168479.6828954,-77
1658849126.76617,168479.6828974,-89
1658849126.76617,168479.6828995,-84
1658849126.76617,168479.6829015,-77
1658849126.76617,168479.6829034,-70
1658849126.78213,168479.6829054,-61
1658849126.78213,168479.6829075,-54
1658849126.78213,168479.6829095,-54
1658849126.78213,168479.6829116,-51
1658849126.78213,168480.3158886,-37
1658849126.78213,168480.315909,-30
1658849126.78213,168480.3159244,-32
1658849126.78213,168480.3159383,-28
1658849126.78213,168480.3159491,-25
1658849126.78213,168480.3159582,-44
1658849126.78213,168480.3159702,-51
1658849126.78213,168480.3159816,-40
1658849126.78213,168480.3159913,-30
1658849126.78213,168480.3159971,-30
1658849126.78213,168480.3160077,-32
1658849126.78213,168480.3160168,-40
1658849126.78213,168480.3160319,-49
1658849126.78213,168480.3160487,-44
1658849126.78213,168480.3160617,-32
1658849126.78213,168480.3160724,-25
1658849126.78213,168480.3161012,-21
1658849126.78213,168480.3161059,-21
1658849126.78213,168480.3161094,-21
1658849126.78213,168480.3161116,-11
1658849127.35871,168480.3161136,-2
1658849127.35871,168480.3161156,-4
1658849127.35871,168480.3161177,0
1658849127.35871,168480.3161197,9
1658849127.35871,168480.3161216,11
1658849127.35871,168480.3161238,14
1658849127.35871,168480.3161321,18
1658849127.35871,168480.3161435,23
1658849127.35871,168480.3161528,30
1658849127.35871,168480.3161574,37
1658849127.35871,168480.3161684,40
1658849127.35871,168480.3161797,42
1658849127.35871,168480.3161891,40
1658849127.35871,168480.3161982,25
1658849127.35871,168480.3162119,23
1658849127.35871,168480.3162244,47
1658849127.35871,168480.3162376,80
1658849127.35871,168480.3162509,110
1658849127.35871,168480.3162672,120
1658849127.35871,168480.3162807,101
1658849127.35871,168480.3162937,75
1658849127.35871,168480.3163068,75
1658849127.35871,168480.3163199,82
1658849127.35871,168480.3163331,80
1658849127.35871,168480.3163462,82
1658849127.35871,168480.3163583,94
1658849127.35871,168480.3163692,96
1658849127.35871,168480.3163761,96
1658849127.35871,168480.3163806,98
1658849127.35871,168480.3163849,106
1658849127.35871,168480.3163892,106
1658849127.35871,168480.3163936,108
1658849127.35871,168480.3164013,98
1658849127.35871,168480.3164104,18
1658849127.35871,168480.3164231,4
1658849127.35871,168480.3164362,494
1658849127.35871,168480.3164445,1547
1658849127.35871,168480.3164471,2483
1658849127.35871,168480.3164493,2603
1658849127.35871,168480.3164513,1335
1658849127.35871,168480.3164535,-541
1658849127.35871,168480.3164555,-829
1658849127.35871,168480.3164576,70
1658849127.35871,168480.3164596,134
1658849127.35871,168480.3164616,-188
1658849127.35871,168480.3164637,-40
1658849127.35871,168480.3164657,44
1658849127.35871,168480.3164714,-56
1658849127.35871,168480.3164834,-18
1658849127.35871,168480.3164993,49
1658849127.38059,168480.3165062,32
1658849127.38059,168480.3165177,42
1658849127.38059,168480.3165284,84
1658849127.38059,168480.9020736,101
1658849127.38059,168480.9020949,110
1658849127.38059,168480.9021034,131
1658849127.38059,168480.9021079,153
1658849127.38059,168480.9021137,174
1658849127.38059,168480.9021194,200
1658849127.38059,168480.9021264,223
1658849127.38059,168480.9021333,237
1658849127.38059,168480.902143,240
1658849127.38059,168480.9021505,242
1658849127.38059,168480.9021565,252
1658849127.38059,168480.9021619,247
1658849127.38059,168480.9021708,226
1658849127.38059,168480.9021767,209
1658849127.38059,168480.9021837,183
1658849127.38059,168480.902194,143
1658849127.38059,168480.9021998,98
1658849127.38059,168480.9022024,56
1658849127.38059,168480.9022045,9
1658849127.38059,168480.9022083,-32
1658849127.38059,168480.9022206,-68
1658849127.85883,168480.9022331,-103
1658849127.85883,168480.9022364,-117
1658849127.85883,168480.9022391,-115
1658849127.85883,168480.9022475,-117
1658849127.85883,168480.9022557,-124
1658849127.85883,168480.9022622,-117
1658849127.85883,168480.9022674,-106
1658849127.85883,168480.9022724,-96
1658849127.85883,168480.9022788,-84
1658849127.85883,168480.9022871,-70
1658849127.85883,168480.9023208,-61
1658849127.85883,168480.9023318,-56
1658849127.85883,168480.9023366,-54
1658849127.85883,168480.9023404,-47
1658849127.85883,168480.9023437,-42
1658849127.85883,168480.902351,-40
1658849127.85883,168480.9023547,-35
1658849127.85883,168480.9023583,-25
1658849127.85883,168480.9023618,-25
1658849127.85883,168480.9023652,-30
1658849127.85883,168480.9023987,-25
1658849127.85883,168480.9024054,-18
1658849127.85883,168480.902409,-16
1658849127.85883,168480.9024126,-11
1658849127.85883,168480.902416,-9
1658849127.85883,168480.9024196,-11
1658849127.85883,168480.9024231,-7
1658849127.85883,168480.9024266,0
1658849127.85883,168480.902434,-4
1658849127.85883,168480.9024376,-11
1658849127.85883,168480.9024412,-4
1658849127.85883,168480.9024448,2
1658849127.85883,168480.9024482,4
1658849127.85883,168480.9024518,9
1658849127.85883,168480.9024554,11
1658849127.85883,168480.9024589,16
1658849127.85883,168480.9024624,14
1658849127.85883,168480.9024658,14
1658849127.85883,168480.9024713,16
1658849127.85883,168480.9024759,23
1658849127.85883,168480.9024831,30
1658849127.85883,168480.9024867,37
1658849127.85883,168480.9024903,35
1658849127.85883,168480.902494,35
1658849127.85883,168480.9024975,44
1658849127.85883,168480.902501,51
1658849127.85883,168480.9025045,58
1658849127.85883,168480.9025079,65
1658849127.85883,168480.9025114,63
1658849127.85883,168480.9025148,54
1658849127.87943,168480.9025223,47
1658849127.87943,168480.902526,61
1658849127.87943,168481.3908937,91
1658849127.87943,168481.3909127,122
1658849127.87943,168481.3909226,131
1658849127.87943,168481.3909294,127
1658849127.87943,168481.390936,106
1658849127.87943,168481.3909429,87
1658849127.87943,168481.3909475,89
1658849127.87943,168481.3909566,94
1658849127.87943,168481.3909664,89
1658849127.87943,168481.3909738,91
1658849127.87943,168481.3909802,94
1658849127.87943,168481.3909883,96
1658849127.87943,168481.3909941,103
1658849127.87943,168481.3910024,103
1658849127.87943,168481.3910084,98
1658849127.87943,168481.3910152,101
1658849127.87943,168481.3910226,101
1658849127.87943,168481.391031,42
1658849127.87943,168481.3910356,-54
1658849127.87943,168481.3910496,167
1658849127.87943,168481.3910621,1013
1658849127.87943,168481.3910706,2066
1658849128.43141,168481.3910733,2612
1658849128.43141,168481.3910764,2000
1658849128.43141,168481.3910852,143
1658849128.43141,168481.3910962,-1001
1658849128.43141,168481.3911074,-327
1658849128.43141,168481.3911149,200
1658849128.43141,168481.3911241,-124
1658849128.43141,168481.3911284,-155
1658849128.43141,168481.391142,18
1658849128.43141,168481.3911522,-49
1658849128.43141,168481.3911592,-80
1658849128.43141,168481.3911701,9
1658849128.43141,168481.3911802,28
1658849128.43141,168481.3911891,16
1658849128.43141,168481.3912013,56
1658849128.43141,168481.3912105,84
1658849128.43141,168481.3912191,89
1658849128.43141,168481.3912305,101
1658849128.43141,168481.3912384,124
1658849128.43141,168481.391249,146
1658849128.43141,168481.3912598,157
1658849128.43141,168481.3912684,169
1658849128.43141,168481.3912806,197
1658849128.43141,168481.3912895,221
1658849128.43141,168481.3912979,240
1658849128.43141,168481.3913087,254
1658849128.43141,168481.3913169,254
1658849128.43141,168481.3913289,235
1658849128.43141,168481.3913397,212
1658849128.43141,168481.3913474,190
1658849128.43141,168481.391358,162
1658849128.43141,168481.3914102,127
1658849128.43141,168481.3914241,77
1658849128.43141,168481.3914362,16
1658849128.43141,168481.3914475,-44
1658849128.43141,168481.3914612,-82
1658849128.43141,168481.3914735,-94
1658849128.43141,168481.3914859,-106
1658849128.43141,168481.3914996,-120
1658849128.43141,168481.3915123,-124
1658849128.43141,168481.3915224,-117
1658849128.43141,168481.3915258,-101
1658849128.43141,168481.3915325,-82
1658849128.43141,168481.3915413,-77
1658849128.43141,168481.3915527,-75
1658849128.43141,168481.3915638,-61
1658849128.43141,168481.3915766,-51
1658849128.43141,168481.3915893,-54
1658849128.43141,168481.3916037,-47
1658849128.43141,168481.3916168,-28
1658849128.44737,168481.3916299,-16
1658849128.44737,168481.9738245,-14
1658849128.44737,168481.9738439,-16
1658849128.44737,168481.9738543,-16
1658849128.44737,168481.9738602,-9
1658849128.44737,168481.9738664,-9
1658849128.44737,168481.9738737,-9
1658849128.44737,168481.9738815,-14
1658849128.44737,168481.9738888,-23
1658849128.44737,168481.9739018,-30
1658849128.44737,168481.9739157,-21
1658849128.44737,168481.9739284,-14
1658849128.44737,168481.9739417,-14
1658849128.44737,168481.9739549,-7
1658849128.44737,168481.97397,-2
1658849128.44737,168481.9739853,-18
1658849128.44737,168481.9739969,-32
1658849128.44737,168481.9740064,-21
1658849128.44737,168481.9740117,-11
1658849128.44737,168481.9740156,-9
1658849128.44737,168481.9740196,4
1658849128.44737,168481.9740237,2
1658849128.44737,168481.9740299,-16
1658849128.44737,168481.9740337,-16
1658849129.01189,168481.9740371,-7
1658849129.01189,168481.9740407,-7
1658849129.01189,168481.9740446,-2
1658849129.01189,168481.9740486,14
1658849129.01189,168481.9740523,23
1658849129.01189,168481.9740559,21
1658849129.01189,168481.9740597,23
1658849129.01189,168481.9740652,30
1658849129.01189,168481.9740733,32
1658849129.01189,168481.9740789,42
1658849129.01189,168481.9740842,35
1658849129.01189,168481.9740935,23
1658849129.01189,168481.9741018,21
1658849129.01189,168481.9741064,25
1658849129.01189,168481.9741127,32
1658849129.01189,168481.9741171,58
1658849129.01189,168481.9741211,84
1658849129.01189,168481.974127,89
1658849129.01189,168481.9741332,84
1658849129.01189,168481.9741392,65
1658849129.01189,168481.9741429,47
1658849129.01189,168481.974148,51
1658849129.01189,168481.9741514,68
1658849129.01189,168481.974156,73
1658849129.01189,168481.9741612,65
1658849129.01189,168481.9741648,58
1658849129.01189,168481.9741706,65
1658849129.01189,168481.9741748,75
1658849129.01189,168481.9741815,77
1658849129.01189,168481.9741859,70
1658849129.01189,168481.974192,68
1658849129.01189,168481.9741964,77
1658849129.01189,168481.9742022,40
1658849129.01189,168481.9742062,-23
1658849129.01189,168481.9742093,204
1658849129.01189,168481.9742124,998
1658849129.01189,168481.974217,2021
1658849129.01189,168481.9742202,2615
1658849129.01189,168481.9742245,2002
1658849129.01189,168481.9742273,84
1658849129.01189,168481.9742312,-1031
1658849129.01189,168481.9742341,-313
1658849129.01189,168481.9742371,186
1658849129.01189,168481.97424,-127
1658849129.01189,168481.9742431,-113
1658849129.01189,168481.9742462,54
1658849129.01189,168481.974249,-21
1658849129.01189,168481.9742521,-40
1658849129.01189,168481.974255,35
1658849129.01189,168481.9742578,30
1658849129.02685,168482.5583096,14
1658849129.02685,168482.5583217,58
1658849129.02685,168482.5583263,96
1658849129.02685,168482.5583289,101
1658849129.02685,168482.5583313,110
1658849129.02685,168482.5583334,136
1658849129.02685,168482.5583357,160
1658849129.02685,168482.5583379,181
1658849129.02685,168482.5583402,209
1658849129.02685,168482.5583425,237
1658849129.02685,168482.5583447,242
1658849129.02685,168482.5583477,240
1658849129.02685,168482.5583541,247
1658849129.02685,168482.5583655,254
1658849129.02685,168482.5583706,249
1658849129.02685,168482.5583726,235
1658849129.02685,168482.5583755,202
1658849129.02685,168482.5583776,153
1658849129.02685,168482.5583797,89
1658849129.02685,168482.5583851,28
1658849129.02685,168482.5583962,-11
1658849129.02685,168482.5584016,-54
1658849129.02685,168482.5584045,-110
1658849129.02685,168482.5584066,-146
1658849129.49825,168482.558409,-150
1658849129.49825,168482.5584182,-155
1658849129.49825,168482.5584256,-164
1658849129.49825,168482.5584282,-157
1658849129.49825,168482.5584302,-146
1658849129.49825,168482.5584322,-141
1658849129.49825,168482.5584342,-139
1658849129.49825,168482.5584362,-124
1658849129.49825,168482.5584381,-110
1658849129.49825,168482.5584406,-108
1658849129.49825,168482.5584489,-94
1658849129.49825,168482.5584607,-70
1658849129.49825,168482.5584786,-73
1658849129.49825,168482.5584925,-61
1658849129.49825,168482.5584969,-23
1658849129.49825,168482.5585004,-18
1658849129.49825,168482.5585037,-42
1658849129.49825,168482.5585069,-49
1658849129.49825,168482.5585102,-44
1658849129.49825,168482.5585156,-35
1658849129.49825,168482.5585191,-21
1658849129.49825,168482.5585226,-25
1658849129.49825,168482.5585277,-28
1658849129.49825,168482.5585312,-9
1658849129.49825,168482.5585346,-11
1658849129.49825,168482.5585397,-21
1658849129.49825,168482.5585428,-11
1658849129.49825,168482.5585462,4
1658849129.49825,168482.5585496,11
1658849129.49825,168482.5585529,16
1658849129.49825,168482.5585612,9
1658849129.49825,168482.5585666,9
1658849129.49825,168482.558571,25
1658849129.49825,168482.5585777,32
1658849129.49825,168482.5585836,30
1658849129.49825,168482.5585891,35
1658849129.49825,168482.5585934,42
1658849129.49825,168482.5585983,47
1658849129.49825,168482.5586015,42
1658849129.49825,168482.5586049,42
1658849129.49825,168482.5586097,56
1658849129.49825,168482.5586128,61
1658849129.49825,168482.5586167,49
1658849129.49825,168482.55862,51
1658849129.49825,168482.5586232,63
1658849129.49825,168482.5586265,75
1658849129.49825,168482.5586297,87
1658849129.49825,168482.5586347,73
1658849129.49825,168482.5586396,47
1658849129.49825,168483.0473373,61
1658849129.51615,168483.0473569,94
1658849129.51615,168483.0473645,110
1658849129.51615,168483.0473713,136
1658849129.51615,168483.0473799,164
1658849129.51615,168483.0473941,139
1658849129.51615,168483.0474395,98
1658849129.51615,168483.0474506,91
1658849129.51615,168483.0474546,91
1658849129.51615,168483.0474592,80
1658849129.51615,168483.0474638,80
1658849129.51615,168483.0474688,87
1658849129.51615,168483.0474721,87
1658849129.51615,168483.047476,75
1658849129.51615,168483.04748,73
1658849129.51615,168483.0474835,75
1658849129.51615,168483.0474869,68
1658849129.51615,168483.0474906,73
1658849129.51615,168483.0474975,75
1658849129.51615,168483.0475009,16
1658849129.51615,168483.0475041,-4
1658849129.51615,168483.0475074,372
1658849129.51615,168483.047511,1291
1658849129.51615,168483.047515,2275
1658849129.51615,168483.0475185,2619
1658849130.10052,168483.0475219,1526
1658849130.10052,168483.0475254,-457
1658849130.10052,168483.0475289,-1005
1658849130.10052,168483.0475325,-129
1658849130.10052,168483.0475359,73
1658849130.10052,168483.0475391,-202
1658849130.10052,168483.0475423,-56
1658849130.10052,168483.0475463,44
1658849130.10052,168483.0475503,-54
1658849130.10052,168483.0475543,-23
1658849130.10052,168483.0475582,63
1658849130.10052,168483.0475622,54
1658849130.10052,168483.0475668,42
1658849130.10052,168483.0475725,80
1658849130.10052,168483.0475801,108
1658849130.10052,168483.0475858,108
1658849130.10052,168483.04759,127
1658849130.10052,168483.0475956,157
1658849130.10052,168483.0476173,186
1658849130.10052,168483.047628,212
1658849130.10052,168483.0476383,240
1658849130.10052,168483.047648,268
1658849130.10052,168483.0476584,287
1658849130.10052,168483.0476681,296
1658849130.10052,168483.047675,313
1658849130.10052,168483.0476819,329
1658849130.10052,168483.0476849,325
1658849130.10052,168483.0476879,289
1658849130.10052,168483.0476908,249
1658849130.10052,168483.0476938,212
1658849130.10052,168483.0476967,164
1658849130.10052,168483.0476996,101
1658849130.10052,168483.0477026,21
1658849130.10052,168483.0477055,-37
1658849130.10052,168483.0477084,-68
1658849130.10052,168483.0477114,-89
1658849130.10052,168483.0477143,-106
1658849130.10052,168483.0477171,-103
1658849130.10052,168483.0477201,-96
1658849130.10052,168483.047723,-94
1658849130.10052,168483.0477259,-89
1658849130.10052,168483.0477289,-77
1658849130.10052,168483.0477317,-61
1658849130.10052,168483.0477347,-49
1658849130.10052,168483.0477376,-40
1658849130.10052,168483.0477405,-30
1658849130.10052,168483.0477508,-18
1658849130.10052,168483.0477642,-16
1658849130.10052,168483.6314637,-16
1658849130.10052,168483.6314805,-9
1658849130.11647,168483.6314884,0
1658849130.11647,168483.6314933,2
1658849130.11647,168483.6315015,-7
1658849130.11647,168483.6315079,-21
1658849130.11647,168483.6315143,-23
1658849130.11647,168483.631518,-14
1658849130.11647,168483.6315209,-7
1658849130.11647,168483.631525,-9
1658849130.11647,168483.6315328,-14
1658849130.11647,168483.6315452,-28
1658849130.11647,168483.6315562,-37
1658849130.11647,168483.6315665,-30
1658849130.11647,168483.6315745,-23
1658849130.11647,168483.6315841,-16
1658849130.11647,168483.6315896,-18
1658849130.11647,168483.631599,-35
1658849130.11647,168483.6316096,-30
1658849130.11647,168483.6316202,-2
1658849130.11647,168483.6316272,9
1658849130.11647,168483.6316329,2
1658849130.11647,168483.6316401,4
1658849130.11647,168483.6316452,16
1658849130.11647,168483.6316548,21
1658849130.11647,168483.6316668,28
1658849130.66672,168483.6316792,42
1658849130.66672,168483.631684,49
1658849130.66672,168483.6316862,35
1658849130.66672,168483.6316882,28
1658849130.66672,168483.6316901,42
1658849130.66672,168483.6316934,47
1658849130.66672,168483.6317016,37
1658849130.66672,168483.631707,51
1658849130.66672,168483.6317109,94
1658849130.66672,168483.6317164,127
1658849130.66672,168483.6317213,129
1658849130.66672,168483.6317271,110
1658849130.66672,168483.6317331,89
1658849130.66672,168483.6317393,77
1658849130.66672,168483.6317464,82
1658849130.66672,168483.6317553,98
1658849130.66672,168483.6317643,103
1658849130.66672,168483.63177,96
1658849130.66672,168483.6317789,91
1658849130.66672,168483.6317881,84
1658849130.66672,168483.6317956,84
1658849130.66672,168483.6318044,91
1658849130.66672,168483.6318114,101
1658849130.66672,168483.6318147,106
1658849130.66672,168483.6318195,101
1658849130.66672,168483.6318244,40
1658849130.66672,168483.6318311,-16
1658849130.66672,168483.6318372,310
1658849130.66672,168483.6318413,1232
1658849130.66672,168483.6318476,2231
1658849130.66672,168483.6318544,2589
1658849130.66672,168483.6318625,1689
1658849130.66672,168483.6318679,-171
1658849130.66672,168483.6318733,-935
1658849130.66672,168483.6318794,-153
1658849130.66672,168483.6318834,169
1658849130.66672,168483.6318896,-148
1658849130.66672,168483.6318937,-87
1658849130.66672,168483.6319,51
1658849130.66672,168483.6319046,-23
1658849130.66672,168483.6319088,-18
1658849130.66672,168483.6319145,47
1658849130.66672,168483.6319199,32
1658849130.66672,168483.631923,28
1658849130.66672,168483.6319264,65
1658849130.66672,168483.6319299,84
1658849130.66672,168483.6319349,94
1658849130.66672,168484.2169006,117
1658849130.66672,168484.2169212,141
1658849130.66672,168484.2169304,160
1658849130.68367,168484.2169331,183
1658849130.68367,168484.2169353,202
1658849130.68367,168484.2169373,219
1658849130.68367,168484.2169393,235
1658849130.68367,168484.2169414,252
1658849130.68367,168484.2169434,249
1658849130.68367,168484.2169453,242
1658849130.68367,168484.2169473,242
1658849130.68367,168484.2169493,228
1658849130.68367,168484.2169514,197
1658849130.68367,168484.2169533,150
1658849130.68367,168484.2169553,84
1658849130.68367,168484.2169573,7
1658849130.68367,168484.2169594,-54
1658849130.68367,168484.2169614,-98
1658849130.68367,168484.2169635,-139
1658849130.68367,168484.2169655,-157
1658849130.68367,168484.2169675,-162
1658849130.68367,168484.2169695,-171
1658849130.68367,168484.2169717,-176
1658849130.68367,168484.2169736,-167
1658849130.68367,168484.2169756,-150
1658849130.68367,168484.2169776,-131
1658849130.68367,168484.2169796,-117
1658849131.20719,168484.2169817,-113
1658849131.20719,168484.2169837,-106

1658849131.20719,168484.2169856,-91
1658849131.20719,168484.2169875,-77
1658849131.20719,168484.2169894,-68
1658849131.20719,168484.2169913,-58
1658849131.20719,168484.2169932,-58
1658849131.20719,168484.2169951,-56
1658849131.20719,168484.216997,-51
1658849131.20719,168484.216999,-54
1658849131.20719,168484.217001,-51
1658849131.20719,168484.2170029,-44
1658849131.20719,168484.2170048,-49
1658849131.20719,168484.2170067,-49
1658849131.20719,168484.2170086,-37
1658849131.20719,168484.2170105,-35
1658849131.20719,168484.2170124,-37
1658849131.20719,168484.2170143,-30
1658849131.20719,168484.2170162,-25
1658849131.20719,168484.2170181,-23
1658849131.20719,168484.2170207,-21
1658849131.20719,168484.2170236,-14
1658849131.20719,168484.2170314,-11
1658849131.20719,168484.2170433,0
1658849131.20719,168484.2170517,7
1658849131.20719,168484.2170543,0
1658849131.20719,168484.2170565,0
1658849131.20719,168484.2170619,9
1658849131.20719,168484.217073,14
1658849131.20719,168484.2170783,16
1658849131.20719,168484.2170805,23
1658849131.20719,168484.2170834,28
1658849131.20719,168484.2170932,30
1658849131.20719,168484.2170994,32
1658849131.20719,168484.2171016,37
1658849131.20719,168484.2171036,42
1658849131.20719,168484.2171056,42
1658849131.20719,168484.2171087,40
1658849131.20719,168484.2171108,42
1658849131.20719,168484.2171128,40
1658849131.20719,168484.2171148,35
1658849131.20719,168484.2171168,23
1658849131.20719,168484.2171188,23
1658849131.20719,168484.2171335,44
1658849131.20719,168484.2171411,63
1658849131.20719,168484.2171536,80
1658849131.20719,168484.7522939,91
1658849131.20719,168484.7523124,77
1658849131.20719,168484.7523228,49
1658849131.20719,168484.7523304,47
1658849131.23013,168484.7523353,56
1658849131.23013,168484.7523428,51
1658849131.23013,168484.7523508,49
1658849131.23013,168484.7523581,58
1658849131.23013,168484.7523619,56
1658849131.23013,168484.7523677,58
1658849131.23013,168484.752373,65
1658849131.23013,168484.7523786,61
1658849131.23013,168484.7523821,54
1658849131.23013,168484.7523856,56
1658849131.23013,168484.7523909,42
1658849131.23013,168484.7523943,-40
1658849131.23013,168484.7523979,-44
1658849131.23013,168484.7524039,445
1658849131.23013,168484.7524076,1474
1658849131.23013,168484.7524129,2403
1658849131.23013,168484.7524166,2523
1658849131.23013,168484.7524216,1208
1658849131.23013,168484.7524252,-654
1658849131.23013,168484.7524305,-869
1658849131.23013,168484.7524341,-2
1658849131.23013,168484.752438,21
1658849131.23013,168484.7524415,-249
1658849131.23013,168484.7524452,-80
1658849131.79349,168484.7524517,-11
1658849131.79349,168484.7524563,-110
1658849131.79349,168484.7524598,-68
1658849131.79349,168484.7524632,-2
1658849131.79349,168484.7524667,-16
1658849131.79349,168484.75247,-2
1658849131.79349,168484.7524734,37
1658849131.79349,168484.7524773,44
1658849131.79349,168484.7524809,58
1658849131.79349,168484.7524846,87
1658849131.79349,168484.7524881,103
1658849131.79349,168484.7524915,124
1658849131.79349,168484.752495,162
1658849131.79349,168484.7524986,190
1658849131.79349,168484.7525024,216
1658849131.79349,168484.7525062,247
1658849131.79349,168484.7525121,273
1658849131.79349,168484.7525169,282
1658849131.79349,168484.7525221,287
1658849131.79349,168484.7525272,292
1658849131.79349,168484.7525314,266
1658849131.79349,168484.7525369,219
1658849131.79349,168484.7525416,190
1658849131.79349,168484.7525468,146
1658849131.79349,168484.7525507,63
1658849131.79349,168484.752556,-2
1658849131.79349,168484.7525596,-25
1658849131.79349,168484.752565,-56
1658849131.79349,168484.7525688,-91
1658849131.79349,168484.7525741,-106
1658849131.79349,168484.7525786,-115
1658849131.79349,168484.7525837,-127
1658849131.79349,168484.7525872,-124
1658849131.79349,168484.7525926,-113
1658849131.79349,168484.7525964,-101
1658849131.79349,168484.7526016,-94
1658849131.79349,168484.7526061,-80
1658849131.79349,168484.7526112,-61
1658849131.79349,168484.7526149,-54
1658849131.79349,168484.7526203,-47
1658849131.79349,168484.7526256,-40
1658849131.79349,168484.7526292,-40
1658849131.79349,168484.7526343,-35
1658849131.79349,168484.7526398,-23
1658849131.79349,168484.7526451,-11
1658849131.79349,168485.3376627,-7
1658849131.79349,168485.337684,-11
1658849131.79349,168485.3376992,-9
1658849131.79349,168485.3377127,-4
1658849131.79349,168485.3377228,0
1658849131.81044,168485.3377306,9
1658849131.81044,168485.337738,18
1658849131.81044,168485.337749,-2
1658849131.81044,168485.33776,-18
1658849131.81044,168485.3377684,-4
1658849131.81044,168485.3377788,4
1658849131.81044,168485.3377895,-4
1658849131.81044,168485.3377973,11
1658849131.81044,168485.3378099,25
1658849131.81044,168485.3378203,0
1658849131.81044,168485.3378279,-14
1658849131.81044,168485.3378405,7
1658849131.81044,168485.337851,11
1658849131.81044,168485.3378608,4
1658849131.81044,168485.3378725,4
1658849131.81044,168485.3378825,9
1658849131.81044,168485.3378916,16
1658849131.81044,168485.3378969,30
1658849131.81044,168485.3379009,37
1658849131.81044,168485.3379028,40
1658849131.81044,168485.3379049,37
1658849131.81044,168485.3379071,35
1658849131.81044,168485.3379091,37
1658849131.81044,168485.3379111,42
1658849132.32815,168485.3379131,49
1658849132.32815,168485.337915,61
1658849132.32815,168485.3379169,65
1658849132.32815,168485.3379187,58
1658849132.32815,168485.3379207,63
1658849132.32815,168485.337923,75
1658849132.32815,168485.3379324,87
1658849132.32815,168485.33794,108
1658849132.32815,168485.3379424,127
1658849132.32815,168485.3379481,136
1658849132.32815,168485.3379564,134
1658849132.32815,168485.3379608,110
1658849132.32815,168485.3379644,96
1658849132.32815,168485.337978,98
1658849132.32815,168485.337991,96
1658849132.32815,168485.3380041,103
1658849132.32815,168485.3380173,106
1658849132.32815,168485.3380306,98
1658849132.32815,168485.3380439,103
1658849132.32815,168485.3380595,108
1658849132.32815,168485.3380714,103
1658849132.32815,168485.3381087,106
1658849132.32815,168485.3381194,108
1658849132.32815,168485.338125,91
1658849132.32815,168485.3381284,25
1658849132.32815,168485.3381345,14
1658849132.32815,168485.3381388,419
1658849132.32815,168485.3381473,1368
1658849132.32815,168485.3381546,2339
1658849132.32815,168485.3381584,2577
1658849132.32815,168485.3381638,1382
1658849132.32815,168485.3381703,-506
1658849132.32815,168485.3381751,-902
1658849132.32815,168485.3381781,-51
1658849132.32815,168485.3381811,84
1658849132.32815,168485.3381841,-176
1658849132.32815,168485.3381891,-40
1658849132.32815,168485.3381923,35
1658849132.32815,168485.3381952,-49
1658849132.32815,168485.3381982,-4
1658849132.32815,168485.3382015,58
1658849132.32815,168485.3382083,42
1658849132.32815,168485.3382134,44
1658849132.32815,168485.3382207,70
1658849132.32815,168485.8739781,80
1658849132.32815,168485.8739965,103
1658849132.32815,168485.8740051,129
1658849132.32815,168485.8740091,146
1658849132.32815,168485.874013,167
1658849132.32815,168485.8740169,193
1658849132.34511,168485.8740231,219
1658849132.34511,168485.8740267,249
1658849132.34511,168485.8740304,270
1658849132.34511,168485.8740359,280
1658849132.34511,168485.8740413,294
1658849132.34511,168485.8740455,289
1658849132.34511,168485.8740511,266
1658849132.34511,168485.8740546,256
1658849132.34511,168485.8740599,240
1658849132.34511,168485.874064,186
1658849132.34511,168485.8740683,124
1658849132.34511,168485.8740719,51
1658849132.34511,168485.8740757,-37
1658849132.34511,168485.8740815,-89
1658849132.34511,168485.874085,-106
1658849132.34511,168485.8740885,-127
1658849132.34511,168485.8740919,-146
1658849132.34511,168485.8740976,-150
1658849132.34511,168485.8741014,-146
1658849132.34511,168485.8741051,-136
1658849132.34511,168485.8741112,-131
1658849132.34511,168485.8741144,-122
1658849132.34511,168485.874118,-96
1658849132.34511,168485.874123,-82
1658849132.87311,168485.8741271,-87
1658849132.87311,168485.8741301,-73
1658849132.87311,168485.8741332,-54
1658849132.87311,168485.8741362,-44
1658849132.87311,168485.8741391,-30
1658849132.87311,168485.8741423,-16
1658849132.87311,168485.8741452,-21
1658849132.87311,168485.8741481,-28
1658849132.87311,168485.8741511,-23
1658849132.87311,168485.874154,-16
1658849132.87311,168485.8741576,-18
1658849132.87311,168485.8741605,-25
1658849132.87311,168485.8741635,-23
1658849132.87311,168485.8741665,-18
1658849132.87311,168485.8741694,-11
1658849132.87311,168485.8741722,-4
1658849132.87311,168485.8741753,-2
1658849132.87311,168485.8741783,-7
1658849132.87311,168485.8741814,-16
1658849132.87311,168485.8741845,-16
1658849132.87311,168485.8741878,-9
1658849132.87311,168485.874191,-7
1658849132.87311,168485.8741941,-2
1658849132.87311,168485.8741973,7
1658849132.87311,168485.8742002,11
1658849132.87311,168485.8742034,9
1658849132.87311,168485.8742092,11
1658849132.87311,168485.8742127,28
1658849132.87311,168485.874216,37
1658849132.87311,168485.8742216,30
1658849132.87311,168485.8742251,32
1658849132.87311,168485.8742287,40
1658849132.87311,168485.8742343,42
1658849132.87311,168485.8742378,47
1658849132.87311,168485.8742407,49
1658849132.87311,168485.8742437,56
1658849132.87311,168485.8742468,65
1658849132.87311,168485.874251,56
1658849132.87311,168485.8742542,37
1658849132.87311,168485.8742576,58
1658849132.87311,168485.8742608,87
1658849132.87311,168485.8742638,70
1658849132.87311,168485.874267,56
1658849132.87311,168486.410309,84
1658849132.87311,168486.4103278,108
1658849132.87311,168486.4103375,108
1658849132.87311,168486.4103434,98
1658849132.87311,168486.4103512,87
1658849132.87311,168486.4103552,82
1658849132.87311,168486.4103588,91
1658849132.89074,168486.4103623,82
1658849132.89074,168486.410368,54
1658849132.89074,168486.4103726,63
1658849132.89074,168486.4103782,94
1658849132.89074,168486.4103826,87
1658849132.89074,168486.4103882,70
1658849132.89074,168486.4103925,73
1658849132.89074,168486.4103958,73
1658849132.89074,168486.4103991,61
1658849132.89074,168486.4104029,58
1658849132.89074,168486.4104083,21
1658849132.89074,168486.4104131,-70
1658849132.89074,168486.4104184,82
1658849132.89074,168486.4104222,850
1658849132.89074,168486.4104259,1927
1658849132.89074,168486.4104296,2572
1658849132.89074,168486.4104331,2125
1658849132.89074,168486.4104383,379
1658849132.89074,168486.4104424,-975
1658849132.89074,168486.4104472,-499
1658849132.89074,168486.4104505,139
1658849132.89074,168486.4104537,-101
1658849132.89074,168486.410457,-169
1658849132.89074,168486.4104603,25
1658849133.55642,168486.4104652,-18
1658849133.55642,168486.4104688,-80
1658849133.55642,168486.4104722,-2
1658849133.55642,168486.4104758,21
1658849133.55642,168486.4104792,4
1658849133.55642,168486.4104828,32
1658849133.55642,168486.4104874,56
1658849133.55642,168486.4104912,70
1658849133.55642,168486.4104943,103
1658849133.55642,168486.4104976,120
1658849133.55642,168486.4105009,124
1658849133.55642,168486.4105048,139
1658849133.55642,168486.4105104,169
1658849133.55642,168486.4105153,202
1658849133.55642,168486.4105234,226
1658849133.55642,168486.4105333,263
1658849133.55642,168486.4105426,308
1658849133.55642,168486.4105501,322
1658849133.55642,168486.4105525,327
1658849133.55642,168486.4105546,325
1658849133.55642,168486.4105567,292
1658849133.55642,168486.4105588,235
1658849133.55642,168486.4105609,186
1658849133.55642,168486.4105629,127
1658849133.55642,168486.410565,42
1658849133.55642,168486.4105677,-40
1658849133.55642,168486.4105759,-82
1658849133.55642,168486.410586,-98
1658849133.55642,168486.410595,-127
1658849133.55642,168486.4106016,-141
1658849133.55642,168486.4106107,-129
1658849133.55642,168486.4106206,-127
1658849133.55642,168486.410629,-134
1658849133.55642,168486.4106418,-131
1658849133.55642,168486.4106556,-120
1658849133.55642,168486.410669,-96
1658849133.55642,168486.4106827,-87
1658849133.55642,168486.4106959,-91
1658849133.55642,168486.4107094,-80
1658849133.55642,168486.4107228,-54
1658849133.55642,168486.4107321,-42
1658849133.55642,168486.4107347,-37
1658849133.55642,168487.092247,-42
1658849133.55642,168487.0922674,-44
1658849133.55642,168487.0922753,-35
1658849133.55642,168487.0922823,-23
1658849133.55642,168487.0922899,-32
1658849133.55642,168487.0922974,-44
1658849133.55642,168487.0923053,-42
1658849133.55642,168487.0923117,-40
1658849133.58068,168487.0923166,-37
1658849133.58068,168487.0923208,-28
1658849133.58068,168487.0923296,-30
1658849133.58068,168487.0923356,-49
1658849133.58068,168487.092343,-58
1658849133.58068,168487.0923525,-42
1658849133.58068,168487.0923576,-28
1658849133.58068,168487.0923627,-32
1658849133.58068,168487.0923721,-32
1658849133.58068,168487.0923802,-25
1658849133.58068,168487.0923871,-18
1658849133.58068,168487.0923966,-9
1658849133.58068,168487.0924013,-4
1658849133.58068,168487.0924153,-2
1658849133.58068,168487.092426,4
1658849133.58068,168487.0924343,9
1658849133.58068,168487.092444,7
1658849133.58068,168487.0924554,9
1658849133.58068,168487.0924631,23
1658849133.58068,168487.0924749,32
1658849133.58068,168487.0924857,28
1658849133.58068,168487.0924938,28
1658849133.58068,168487.0924995,30
1658849133.58068,168487.0925052,37
1658849134.03308,168487.0925088,49
1658849134.03308,168487.0925122,49
1658849134.03308,168487.0925158,37
1658849134.03308,168487.0925195,32
1658849134.03308,168487.0925231,30
1658849134.03308,168487.0925271,49
1658849134.03308,168487.0925321,87
1658849134.03308,168487.0925358,106
1658849134.03308,168487.0925397,103
1658849134.03308,168487.0925451,89
1658849134.03308,168487.0925509,68
1658849134.03308,168487.0925569,58
1658849134.03308,168487.0925637,63
1658849134.03308,168487.0925696,63
1658849134.03308,168487.0925735,70
1658849134.03308,168487.0925788,82
1658849134.03308,168487.0925826,82
1658849134.03308,168487.0925876,75
1658849134.03308,168487.0925912,82
1658849134.03308,168487.0925949,96
1658849134.03308,168487.0926002,94
1658849134.03308,168487.0926045,87
1658849134.03308,168487.0926094,73
1658849134.03308,168487.0926143,-18
1658849134.03308,168487.0926187,-28
1658849134.03308,168487.0926247,485
1658849134.03308,168487.0926277,1540
1658849134.03308,168487.0926305,2490
1658849134.03308,168487.0926335,2622
1658849134.03308,168487.0926365,1283
1658849134.03308,168487.0926394,-614
1658849134.03308,168487.0926425,-857
1658849134.03308,168487.0926454,18
1658849134.03308,168487.0926483,65
1658849134.03308,168487.0926515,-214
1658849134.03308,168487.0926545,-58
1658849134.03308,168487.0926574,7
1658849134.03308,168487.0926604,-89
1658849134.03308,168487.0926632,-44
1658849134.03308,168487.0926661,18
1658849134.03308,168487.092669,2
1658849134.03308,168487.5822267,14
1658849134.03308,168487.5822485,51
1658849134.03308,168487.5822573,58
1658849134.03308,168487.5822626,68
1658849134.03308,168487.582266,101
1658849134.03308,168487.582269,129
1658849134.03308,168487.5822725,155
1658849134.03308,168487.5822765,176
1658849134.03308,168487.582281,188
1658849134.05004,168487.5822917,212
1658849134.05004,168487.5823028,245
1658849134.05004,168487.5823127,270
1658849134.05004,168487.582321,289
1658849134.05004,168487.5823298,294
1658849134.05004,168487.5823362,280
1658849134.05004,168487.5823437,263
1658849134.05004,168487.5823516,237
1658849134.05004,168487.5823592,186
1658849134.05004,168487.5823636,122
1658849134.05004,168487.5823742,54
1658849134.05004,168487.5823826,-28
1658849134.05004,168487.5823889,-103
1658849134.05004,168487.5823971,-131
1658849134.05004,168487.5824031,-148
1658849134.05004,168487.5824111,-167
1658849134.05004,168487.5824175,-167
1658849134.05004,168487.5824217,-157
1658849134.05004,168487.5824262,-160
1658849134.05004,168487.5824383,-164
1658849134.05004,168487.5824492,-153
1658849134.05004,168487.5824576,-136
1658849134.05004,168487.5824647,-117
1658849134.05004,168487.58247,-108
1658849134.59003,168487.5824735,-103
1658849134.59003,168487.582477,-87
1658849134.59003,168487.5824803,-75
1658849134.59003,168487.5824856,-77
1658849134.59003,168487.5824922,-75
1658849134.59003,168487.5824958,-68
1658849134.59003,168487.5824991,-73
1658849134.59003,168487.5825027,-75
1658849134.59003,168487.5825076,-56
1658849134.59003,168487.5825145,-40
1658849134.59003,168487.582521,-37
1658849134.59003,168487.5825265,-44
1658849134.59003,168487.5825332,-42
1658849134.59003,168487.5825394,-42
1658849134.59003,168487.5825482,-47
1658849134.59003,168487.5825641,-51
1658849134.59003,168487.5825779,-40
1658849134.59003,168487.5825884,-30
1658849134.59003,168487.5825956,-23
1658849134.59003,168487.582602,-16
1658849134.59003,168487.5826146,-14
1658849134.59003,168487.5826237,-14
1658849134.59003,168487.5826328,-4
1658849134.59003,168487.5826701,0
1658849134.59003,168487.5826873,-2
1658849134.59003,168487.5826975,-4
1658849134.59003,168487.5827066,-7
1658849134.59003,168487.5827112,2
1658849134.59003,168487.5827171,11
1658849134.59003,168487.5827211,11
1658849134.59003,168487.5827266,16
1658849134.59003,168487.5827311,23
1658849134.59003,168487.5827367,18
1658849134.59003,168487.5827416,9
1658849134.59003,168487.5827469,16
1658849134.59003,168487.5827512,21
1658849134.59003,168487.5827588,9
1658849134.59003,168487.5827625,14
1658849134.59003,168487.5827658,35
1658849134.59003,168487.5827688,61
1658849134.59003,168488.1160908,87
1658849134.59003,168488.1161087,89
1658849134.59003,168488.1161137,63
1658849134.59003,168488.116121,40
1658849134.59003,168488.1161252,35
1658849134.59003,168488.1161307,32
1658849134.59003,168488.1161348,25
1658849134.59003,168488.1161402,35
1658849134.59003,168488.1161442,54
1658849134.59003,168488.1161498,51
1658849134.60649,168488.1161538,25
1658849134.60649,168488.116159,16
1658849134.60649,168488.1161671,32
1658849134.60649,168488.1161771,49
1658849134.60649,168488.1161835,42
1658849134.60649,168488.1161916,28
1658849134.60649,168488.1161969,0
1658849134.60649,168488.1162015,-63
1658849134.60649,168488.1162075,84
1658849134.60649,168488.1162119,786
1658849134.60649,168488.1162163,1778
1658849134.60649,168488.1162209,2391
1658849134.60649,168488.1162256,1901
1658849134.60649,168488.1162326,148
1658849134.60649,168488.116239,-1060
1658849134.60649,168488.1162482,-520
1658849134.60649,168488.1162561,35
1658849134.60649,168488.1162623,-176
1658849134.60649,168488.1162695,-179
1658849134.60649,168488.1162767,-14
1658849134.60649,168488.1162839,-70
1658849134.60649,168488.1162896,-106
1658849134.60649,168488.1162937,-30
1658849134.60649,168488.1162969,-23
1658849135.15822,168488.1163042,-40
1658849135.15822,168488.1163118,0
1658849135.15822,168488.1163187,30
1658849135.15822,168488.1163249,28
1658849135.15822,168488.1163289,40
1658849135.15822,168488.116332,65
1658849135.15822,168488.1163353,89
1658849135.15822,168488.1163389,122
1658849135.15822,168488.1163432,160
1658849135.15822,168488.1163482,190
1658849135.15822,168488.1163534,216
1658849135.15822,168488.1163597,252
1658849135.15822,168488.1163645,278
1658849135.15822,168488.1163682,287
1658849135.15822,168488.1163747,289
1658849135.15822,168488.1163782,285
1658849135.15822,168488.1163837,263
1658849135.15822,168488.1163892,226
1658849135.15822,168488.1163923,181
1658849135.15822,168488.1163955,120
1658849135.15822,168488.1164004,47
1658849135.15822,168488.1164127,-21
1658849135.15822,168488.1164203,-75
1658849135.15822,168488.1164265,-108
1658849135.15822,168488.1164325,-124
1658849135.15822,168488.1164452,-131
1658849135.15822,168488.1164555,-134
1658849135.15822,168488.1164629,-134
1658849135.15822,168488.1164696,-129
1658849135.15822,168488.116477,-115
1658849135.15822,168488.116484,-98
1658849135.15822,168488.1164884,-87
1658849135.15822,168488.1164914,-80
1658849135.15822,168488.1164944,-68
1658849135.15822,168488.1164973,-56
1658849135.15822,168488.1165034,-51
1658849135.15822,168488.1165086,-49
1658849135.15822,168488.116518,-37
1658849135.15822,168488.1165212,-32
1658849135.15822,168488.7014996,-30
1658849135.15822,168488.7015194,-28
1658849135.15822,168488.701527,-23
1658849135.15822,168488.7015355,-16
1658849135.15822,168488.7015431,-11
1658849135.15822,168488.7015505,-2
1658849135.15822,168488.7015575,42
1658849135.15822,168488.7015643,75
1658849135.15822,168488.7015681,30
1658849135.15822,168488.7015724,-23
1658849135.15822,168488.7015786,-51
1658849135.17418,168488.7015923,-87
1658849135.17418,168488.7016028,-61
1658849135.17418,168488.7016119,0
1658849135.17418,168488.7016197,-32
1658849135.17418,168488.7016336,-75
1658849135.17418,168488.7016468,-47
1658849135.17418,168488.7016601,-21
1658849135.17418,168488.7016737,-14
1658849135.17418,168488.7016825,9
1658849135.17418,168488.7016851,14
1658849135.17418,168488.7016873,-9
1658849135.17418,168488.7016903,-14
1658849135.17418,168488.7017013,2
1658849135.17418,168488.7017087,0
1658849135.17418,168488.7017113,-11
1658849135.17418,168488.7017133,-9
1658849135.17418,168488.7017201,0
1658849135.17418,168488.7017292,2
1658849135.17418,168488.7017342,2
1658849135.17418,168488.7017406,4
1658849135.17418,168488.7017462,9
1658849135.17418,168488.7017512,16
1658849135.17418,168488.7017573,23
1658849135.17418,168488.7017631,21
1658849135.69091,168488.7017694,-35
1658849135.69091,168488.7017738,-108
1658849135.69091,168488.7017779,157
1658849135.69091,168488.7017819,1048
1658849135.69091,168488.701786,2122
1658849135.69091,168488.7017909,2558
1658849135.69091,168488.7017997,1696
1658849135.69091,168488.7018061,-155
1658849135.69091,168488.7018103,-1027
1658849135.69091,168488.7018162,-318
1658849135.69091,168488.701822,94
1658849135.69091,168488.7018256,-146
1658849135.69091,168488.7018304,-89
1658849135.69091,168488.7018386,47
1658849135.69091,168488.7018449,-21
1658849135.69091,168488.7018498,-18
1658849135.69091,168488.7018563,49
1658849135.69091,168488.7018621,49
1658849135.69091,168488.7018676,54
1658849135.69091,168488.7018709,94
1658849135.69091,168488.7018743,110
1658849135.69091,168488.7018776,115
1658849135.69091,168488.7018808,139
1658849135.69091,168488.7018841,167
1658849135.69091,168488.7018872,190
1658849135.69091,168488.7018905,216
1658849135.69091,168488.7018965,237
1658849135.69091,168488.7019015,268
1658849135.69091,168488.7019048,306
1658849135.69091,168488.701908,329
1658849135.69091,168488.7019113,339
1658849135.69091,168488.7019162,346
1658849135.69091,168488.7019205,334
1658849135.69091,168488.7019259,306
1658849135.69091,168488.7019302,268
1658849135.69091,168488.7019352,216
1658849135.69091,168488.7019382,146
1658849135.69091,168488.7019414,70
1658849135.69091,168489.2380121,4
1658849135.69091,168489.2380328,-51
1658849135.69091,168489.2380476,-84
1658849135.69091,168489.2380607,-103
1658849135.69091,168489.2380737,-115
1658849135.69091,168489.238087,-129
1658849135.69091,168489.2381001,-141
1658849135.69091,168489.2381135,-134
1658849135.69091,168489.2381267,-120
1658849135.69091,168489.2381399,-110
1658849135.69091,168489.2381529,-106
1658849135.69091,168489.2381659,-108
1658849135.70607,168489.2381789,-101
1658849135.70607,168489.2381918,-80
1658849135.70607,168489.2382059,-73
1658849135.70607,168489.2382191,-63
1658849135.70607,168489.2382323,-54
1658849135.70607,168489.2382464,-61
1658849135.70607,168489.2382594,-68
1658849135.70607,168489.2382724,-58
1658849135.70607,168489.2382864,-56
1658849135.70607,168489.2382994,-58
1658849135.70607,168489.2383123,-51
1658849135.70607,168489.2383263,-49
1658849135.70607,168489.2383393,-49
1658849135.70607,168489.2383524,-44
1658849135.70607,168489.2383665,-35
1658849135.70607,168489.2383796,-28
1658849135.70607,168489.2383926,-21
1658849135.70607,168489.2384066,-18
1658849135.70607,168489.2384197,-18
1658849135.70607,168489.2384327,-11
1658849135.70607,168489.2384467,0
1658849135.70607,168489.23846,7
1658849135.70607,168489.238475,9
1658849135.70607,168489.2384877,14
1658849136.22461,168489.238493,18
1658849136.22461,168489.2384982,21
1658849136.22461,168489.2385023,28
1658849136.22461,168489.238508,30
1658849136.22461,168489.2385123,21
1658849136.22461,168489.2385166,21
1658849136.22461,168489.238521,32
1658849136.22461,168489.2385264,56
1658849136.22461,168489.2385308,89
1658849136.22461,168489.2385348,103
1658849136.22461,168489.2385391,87
1658849136.22461,168489.2385435,68
1658849136.22461,168489.2385494,63
1658849136.22461,168489.2385541,65
1658849136.22461,168489.2385584,63
1658849136.22461,168489.2385629,61
1658849136.22461,168489.2385674,61
1658849136.22461,168489.2385726,58
1658849136.22461,168489.2385773,61
1658849136.22461,168489.238582,63
1658849136.22461,168489.2385866,68
1658849136.22461,168489.2385915,75
1658849136.22461,168489.2385962,77
1658849136.22461,168489.2386008,73
1658849136.22461,168489.2386057,35
1658849136.22461,168489.2386104,-61
1658849136.22461,168489.2386152,30
1658849136.22461,168489.2386199,718
1658849136.22461,168489.2386247,1823
1658849136.22461,168489.2386293,2567
1658849136.22461,168489.2386344,2245
1658849136.22461,168489.2386391,581
1658849136.22461,168489.2386438,-935
1658849136.22461,168489.2386484,-619
1658849136.22461,168489.2386532,127
1658849136.22461,168489.2386586,-47
1658849136.22461,168489.2386634,-186
1658849136.22461,168489.7735952,4
1658849136.22461,168489.7736157,-7
1658849136.22461,168489.7736264,-70
1658849136.22461,168489.7736344,0
1658849136.22461,168489.7736395,32
1658849136.22461,168489.7736467,11
1658849136.22461,168489.7736603,37
1658849136.22461,168489.7736705,58
1658849136.22461,168489.7736791,54
1658849136.22461,168489.7736897,75
1658849136.22461,168489.7736941,110
1658849136.22461,168489.7736978,124
1658849136.22461,168489.7737099,143
1658849136.23957,168489.7737217,179
1658849136.23957,168489.7737277,204
1658849136.23957,168489.7737314,228
1658849136.23957,168489.7737386,266
1658849136.23957,168489.7737492,296
1658849136.23957,168489.7737597,308
1658849136.23957,168489.7737634,315
1658849136.23957,168489.7737687,310
1658849136.23957,168489.7737814,285
1658849136.23957,168489.773789,249
1658849136.23957,168489.7737963,193
1658849136.23957,168489.7738033,115
1658849136.23957,168489.7738086,35
1658849136.23957,168489.7738188,-30
1658849136.23957,168489.7738252,-84
1658849136.23957,168489.7738383,-127
1658849136.23957,168489.7738468,-148
1658849136.23957,168489.7738493,-157
1658849136.23957,168489.7738513,-160
1658849136.23957,168489.7738534,-164
1658849136.23957,168489.7738554,-164
1658849136.23957,168489.7738576,-155
1658849136.23957,168489.7738596,-146
1658849136.23957,168489.7738616,-134
1658849136.82068,168489.7738636,-117
1658849136.82068,168489.7738656,-108
1658849136.82068,168489.7738675,-103
1658849136.82068,168489.7738694,-94
1658849136.82068,168489.7738713,-87
1658849136.82068,168489.7738733,-84
1658849136.82068,168489.7738753,-82
1658849136.82068,168489.7738772,-80
1658849136.82068,168489.7738791,-73
1658849136.82068,168489.7738811,-73
1658849136.82068,168489.7738829,-75
1658849136.82068,168489.7738884,-77
1658849136.82068,168489.7738992,-70
1658849136.82068,168489.7739099,-63
1658849136.82068,168489.7739212,-56
1658849136.82068,168489.7739312,-54
1658849136.82068,168489.7739362,-51
1658849136.82068,168489.7739384,-49
1658849136.82068,168489.7739414,-44
1658849136.82068,168489.7739435,-37
1658849136.82068,168489.7739455,-28
1658849136.82068,168489.7739476,-25
1658849136.82068,168489.7739501,-28
1658849136.82068,168489.7739584,-23
1658849136.82068,168489.7739669,-14
1658849136.82068,168489.7739714,-9
1658849136.82068,168489.7739772,-11
1658849136.82068,168489.7739835,-16
1658849136.82068,168489.7739885,-23
1658849136.82068,168489.7739925,-28
1658849136.82068,168489.7739978,-16
1658849136.82068,168489.7740016,7
1658849136.82068,168489.7740055,35
1658849136.82068,168489.7740094,65
1658849136.82068,168489.7740147,68
1658849136.82068,168489.7740193,44
1658849136.82068,168490.3584304,23
1658849136.82068,168490.3584512,23
1658849136.82068,168490.3584663,25
1658849136.82068,168490.3584802,18
1658849136.82068,168490.3584913,9
1658849136.82068,168490.3584993,2
1658849136.82068,168490.3585081,4
1658849136.82068,168490.3585136,16
1658849136.82068,168490.3585209,23
1658849136.82068,168490.3585274,28
1658849136.82068,168490.3585405,23
1658849136.82068,168490.3585473,9
1658849136.82068,168490.358555,9
1658849136.82068,168490.3585602,-4
1658849136.83365,168490.3585656,-84
1658849136.83365,168490.3585695,-2
1658849136.83365,168490.3585752,664
1658849136.83365,168490.3585808,1783
1658849136.83365,168490.3585864,2643
1658849136.83365,168490.3585902,2457
1658849136.83365,168490.358599,737
1658849136.83365,168490.3586097,-968
1658849136.83365,168490.3586201,-725
1658849136.83365,168490.3586265,75
1658849136.83365,168490.3586374,-61
1658849136.83365,168490.3586437,-207
1658849136.83365,168490.3586542,-18
1658849136.83365,168490.3586607,-28
1658849136.83365,168490.3586733,-91
1658849136.83365,168490.3586846,-14
1658849136.83365,168490.3586964,18
1658849136.83365,168490.3587065,4
1658849136.83365,168490.358715,32
1658849136.83365,168490.35872,56
1658849136.83365,168490.3587258,58
1658849136.83365,168490.3587334,84
1658849136.83365,168490.358739,117
1658849136.83365,168490.3587431,129
1658849137.39277,168490.3587453,155
1658849137.39277,168490.3587473,200
1658849137.39277,168490.3587502,233
1658849137.39277,168490.3587588,261
1658849137.39277,168490.3587644,296
1658849137.39277,168490.3587691,320
1658849137.39277,168490.3587746,334
1658849137.39277,168490.3587786,341
1658849137.39277,168490.3587828,341
1658849137.39277,168490.3587866,332
1658849137.39277,168490.3587929,303
1658849137.39277,168490.3587976,249
1658849137.39277,168490.3588061,190
1658849137.39277,168490.3588104,129
1658849137.39277,168490.3588184,54
1658849137.39277,168490.3588265,-4
1658849137.39277,168490.3588342,-40
1658849137.39277,168490.3588428,-77
1658849137.39277,168490.3588518,-108
1658849137.39277,168490.3588574,-108
1658849137.39277,168490.358868,-103
1658849137.39277,168490.3588714,-103
1658849137.39277,168490.3588737,-98
1658849137.39277,168490.3588757,-91
1658849137.39277,168490.3588792,-82
1658849137.39277,168490.3588873,-63
1658849137.39277,168490.358898,-44
1658849137.39277,168490.3589058,-30
1658849137.39277,168490.3589147,-23
1658849137.39277,168490.3589196,-28
1658849137.39277,168490.3589219,-35
1658849137.39277,168490.3589239,-35
1658849137.39277,168490.3589259,-30
1658849137.39277,168490.3589279,-25
1658849137.39277,168490.3589299,-28
1658849137.39277,168490.9436031,-40
1658849137.39277,168490.9436238,-37
1658849137.39277,168490.943635,-23
1658849137.39277,168490.9436396,-23
1658849137.39277,168490.943643,-35
1658849137.39277,168490.9436461,-37
1658849137.39277,168490.9436492,-32
1658849137.39277,168490.9436523,-32
1658849137.39277,168490.9436554,-44
1658849137.39277,168490.9436586,-44
1658849137.39277,168490.9436618,-37
1658849137.39277,168490.9436656,-28
1658849137.39277,168490.9436695,-16
1658849137.39277,168490.9436829,-18
1658849137.39277,168490.9436938,-30
1658849137.40873,168490.9437027,-30
1658849137.40873,168490.9437104,-44
1658849137.40873,168490.943721,-49
1658849137.40873,168490.9437319,-16
1658849137.40873,168490.9437404,14
1658849137.40873,168490.9437516,35
1658849137.40873,168490.9437603,51
1658849137.40873,168490.9437681,42
1658849137.40873,168490.9437796,9
1658849137.40873,168490.9437913,4
1658849137.40873,168490.943798,18
1658849137.40873,168490.9438015,14
1658849137.40873,168490.9438048,16
1658849137.40873,168490.9438081,25
1658849137.40873,168490.9438115,21
1658849137.40873,168490.943815,25
1658849137.40873,168490.9438206,47
1658849137.40873,168490.9438281,44
1658849137.40873,168490.9438357,42
1658849137.40873,168490.9438443,54
1658849137.40873,168490.9438577,61
1658849137.40873,168490.9438666,47
1658849137.40873,168490.9438706,-16
1658849137.40873,168490.9438744,-37
1658849137.98144,168490.9438778,374
1658849137.98144,168490.9438811,1352
1658849137.98144,168490.9438843,2363
1658849137.98144,168490.9438875,2671
1658849137.98144,168490.9438905,1547
1658849137.98144,168490.9438939,-438
1658849137.98144,168490.943897,-1022
1658849137.98144,168490.9439001,-162
1658849137.98144,168490.9439031,80
1658849137.98144,168490.9439061,-193
1658849137.98144,168490.9439093,-73
1658849137.98144,168490.9439127,35
1658849137.98144,168490.943916,-49
1658849137.98144,168490.9439194,-28
1658849137.98144,168490.9439225,32
1658849137.98144,168490.9439268,30
1658849137.98144,168490.9439319,49
1658849137.98144,168490.943936,80
1658849137.98144,168490.9439399,91
1658849137.98144,168490.943943,117
1658849137.98144,168490.9439458,143
1658849137.98144,168490.9439486,155
1658849137.98144,168490.9439513,176
1658849137.98144,168490.943954,221
1658849137.98144,168490.9439567,256
1658849137.98144,168490.9439595,270
1658849137.98144,168490.9439623,299
1658849137.98144,168490.9439652,341
1658849137.98144,168490.9439681,365
1658849137.98144,168490.943971,379
1658849137.98144,168490.9439737,391
1658849137.98144,168490.9439764,381
1658849137.98144,168490.9439792,343
1658849137.98144,168490.943982,294
1658849137.98144,168491.5286286,237
1658849137.98144,168491.5286463,171
1658849137.98144,168491.5286553,89
1658849137.98144,168491.5286614,18
1658849137.98144,168491.5286689,-18
1658849137.98144,168491.5286761,-49
1658849137.98144,168491.5286851,-80
1658849137.98144,168491.5286958,-82
1658849137.98144,168491.5287018,-77
1658849137.98144,168491.5287046,-82
1658849137.98144,168491.5287149,-89
1658849137.98144,168491.5287236,-89
1658849137.98144,168491.5287261,-75
1658849137.98144,168491.5287282,-63
1658849137.98144,168491.5287303,-56
1658849137.98144,168491.5287325,-47
1658849138.00438,168491.5287409,-44
1658849138.00438,168491.5287514,-51
1658849138.00438,168491.528754,-56
1658849138.00438,168491.5287561,-51
1658849138.00438,168491.5287581,-47
1658849138.00438,168491.5287654,-49
1658849138.00438,168491.5287761,-49
1658849138.00438,168491.5287796,-44
1658849138.00438,168491.528783,-42
1658849138.00438,168491.5287961,-42
1658849138.00438,168491.5288025,-42
1658849138.00438,168491.5288075,-37
1658849138.00438,168491.5288106,-32
1658849138.00438,168491.5288235,-40
1658849138.00438,168491.5288295,-40
1658849138.00438,168491.5288316,-30
1658849138.00438,168491.5288337,-35
1658849138.00438,168491.5288386,-47
1658849138.00438,168491.5288501,-47
1658849138.00438,168491.5288556,-40
1658849138.00438,168491.5288589,-25
1658849138.00438,168491.5288689,-2
1658849138.00438,168491.528877,14
1658849138.00438,168491.5288795,4
1658849138.62936,168491.5288816,-14
1658849138.62936,168491.5288892,-28
1658849138.62936,168491.5288984,-35
1658849138.62936,168491.5289022,-32
1658849138.62936,168491.5289099,-28
1658849138.62936,168491.528918,-25
1658849138.62936,168491.5289272,-18
1658849138.62936,168491.5289387,-16
1658849138.62936,168491.5289508,-16
1658849138.62936,168491.5289624,-14
1658849138.62936,168491.5289769,-4
1658849138.62936,168491.5289902,4
1658849138.62936,168491.5290044,4
1658849138.62936,168491.5290132,-32
1658849138.62936,168491.5290186,-134
1658849138.62936,168491.529024,-61
1658849138.62936,168491.5290302,617
1658849138.62936,168491.5290395,1750
1658849138.62936,168491.5290492,2523
1658849138.62936,168491.5290579,2212
1658849138.62936,168491.5290704,593
1658849138.62936,168491.5290807,-944
1658849138.62936,168491.5290894,-718
1658849138.62936,168491.5291015,47
1658849138.62936,168491.5291105,-77
1658849138.62936,168491.5291166,-228
1658849138.62936,168491.5291292,-35
1658849138.62936,168491.5291382,-28
1658849138.62936,168491.5291472,-98
1658849138.62936,168491.5291581,-30
1658849138.62936,168491.529166,9
1658849138.62936,168491.5291737,-2
1658849138.62936,168491.5291809,25
1658849138.62936,168492.1628648,51
1658849138.62936,168492.1628861,56
1658849138.62936,168492.1629016,80
1658849138.62936,168492.162915,115
1658849138.62936,168492.1629254,136
1658849138.62936,168492.1629329,157
1658849138.62936,168492.1629417,190

1658849138.62936,168492.1629523,223
1658849138.62936,168492.1629619,240
1658849138.62936,168492.1629707,268
1658849138.62936,168492.1629746,306
1658849138.62936,168492.1629812,322
1658849138.62936,168492.1629852,325
1658849138.62936,168492.1629898,318
1658849138.62936,168492.1629931,285
1658849138.62936,168492.1629965,235
1658849138.62936,168492.1630039,171
1658849138.64931,168492.1630094,98
1658849138.64931,168492.1630149,28
1658849138.64931,168492.1630187,-37
1658849138.64931,168492.1630238,-94
1658849138.64931,168492.1630293,-122
1658849138.64931,168492.1630331,-124
1658849138.64931,168492.1630376,-124
1658849138.64931,168492.1630414,-127
1658849138.64931,168492.1630461,-124
1658849138.64931,168492.16305,-115
1658849138.64931,168492.1630541,-106
1658849138.64931,168492.1630585,-94
1658849138.64931,168492.1630641,-73
1658849138.64931,168492.1630679,-58
1658849138.64931,168492.1630716,-47
1658849138.64931,168492.1630752,-40
1658849138.64931,168492.1630788,-44
1658849138.64931,168492.1630859,-47
1658849138.64931,168492.1630915,-30
1658849138.64931,168492.1630953,-18
1658849138.64931,168492.1631013,-21
1658849138.64931,168492.1631052,-21
1658849138.64931,168492.1631108,-18
1658849138.64931,168492.1631147,-23
1658849139.05355,168492.1631202,-21
1658849139.05355,168492.1631244,-9
1658849139.05355,168492.1631284,-4
1658849139.05355,168492.1631323,-9
1658849139.05355,168492.163136,-11
1658849139.05355,168492.1631397,-4
1658849139.05355,168492.1631478,7
1658849139.05355,168492.1631516,16
1658849139.05355,168492.1631562,11
1658849139.05355,168492.1631599,7
1658849139.05355,168492.163164,11
1658849139.05355,168492.1631678,14
1658849139.05355,168492.1631715,11
1658849139.05355,168492.1631752,14
1658849139.05355,168492.1631788,18
1658849139.05355,168492.1631826,18
1658849139.05355,168492.1631863,21
1658849139.05355,168492.16319,18
1658849139.05355,168492.1631937,14
1658849139.05355,168492.1631978,16
1658849139.05355,168492.1632017,18
1658849139.05355,168492.1632054,32
1658849139.05355,168492.163209,70
1658849139.05355,168492.1632135,96
1658849139.05355,168492.1632168,84
1658849139.05355,168492.1632207,61
1658849139.05355,168492.1632245,54
1658849139.05355,168492.1632282,58
1658849139.05355,168492.1632321,58
1658849139.05355,168492.1632359,61
1658849139.05355,168492.1632396,61
1658849139.05355,168492.1632526,54
1658849139.05355,168492.6014729,56
1658849139.05355,168492.6014917,65
1658849139.05355,168492.6015067,68
1658849139.05355,168492.6015138,63
1658849139.05355,168492.6015164,63
1658849139.05355,168492.6015186,65
1658849139.05355,168492.6015206,54
1658849139.05355,168492.6015227,-32
1658849139.05355,168492.6015247,-77
1658849139.05355,168492.6015267,384
1658849139.05355,168492.6015287,1467
1658849139.05355,168492.6015308,2412
1658849139.05355,168492.6015328,2447
1658849139.05355,168492.6015348,1236
1658849139.05355,168492.6015369,-482
1658849139.05355,168492.6015389,-836
1658849139.05355,168492.6015409,-30
1658849139.05355,168492.601543,80
1658849139.06751,168492.6015451,-226
1658849139.06751,168492.6015471,-96
1658849139.06751,168492.6015492,11
1658849139.06751,168492.6015512,-77
1658849139.06751,168492.6015532,-56
1658849139.06751,168492.6015552,-7
1658849139.06751,168492.6015572,-30
1658849139.06751,168492.6015592,-23
1658849139.06751,168492.6015612,9
1658849139.06751,168492.6015632,11
1658849139.06751,168492.6015651,32
1658849139.06751,168492.6015671,73
1658849139.06751,168492.6015691,84
1658849139.06751,168492.6015741,96
1658849139.06751,168492.6015761,131
1658849139.06751,168492.6015789,162
1658849139.06751,168492.6015809,190
1658849139.06751,168492.601583,230
1658849139.06751,168492.601585,252
1658849139.06751,168492.6015915,259
1658849139.06751,168492.601603,273
1658849139.06751,168492.6016083,278
1658849139.06751,168492.6016104,270
1658849139.06751,168492.6016124,252
1658849139.64446,168492.6016144,207
1658849139.64446,168492.6016172,141
1658849139.64446,168492.6016276,77
1658849139.64446,168492.601634,16
1658849139.64446,168492.6016421,-47
1658849139.64446,168492.6016547,-91
1658849139.64446,168492.601662,-113
1658849139.64446,168492.6016653,-124
1658849139.64446,168492.6016676,-131
1658849139.64446,168492.6016696,-127
1658849139.64446,168492.6016722,-113
1658849139.64446,168492.6016817,-101
1658849139.64446,168492.6016907,-94
1658849139.64446,168492.6016932,-84
1658849139.64446,168492.6016953,-73
1658849139.64446,168492.6016973,-63
1658849139.64446,168492.6016994,-54
1658849139.64446,168492.6017028,-44
1658849139.64446,168492.6017161,-44
1658849139.64446,168492.6017218,-47
1658849139.64446,168492.6017245,-49
1658849139.64446,168492.6017266,-54
1658849139.64446,168492.6017286,-56
1658849139.64446,168492.6017355,-61
1658849139.64446,168492.6017471,-65
1658849139.64446,168492.6017524,-63
1658849139.64446,168492.6017567,-61
1658849139.64446,168492.6017588,-63
1658849139.64446,168492.6017609,-65
1658849139.64446,168492.601763,-56
1658849139.64446,168492.601765,-44
1658849139.64446,168493.1865876,-54
1658849139.64446,168493.1866084,-63
1658849139.64446,168493.1866167,-61
1658849139.64446,168493.1866244,-58
1658849139.64446,168493.1866305,-65
1658849139.64446,168493.1866365,-68
1658849139.64446,168493.1866404,-68
1658849139.64446,168493.1866433,-75
1658849139.64446,168493.1866465,-89
1658849139.64446,168493.1866503,-84
1658849139.64446,168493.1866573,-70
1658849139.64446,168493.1866637,-63
1658849139.64446,168493.1866721,-68
1658849139.64446,168493.1866775,-73
1658849139.64446,168493.1866849,-82
1658849139.64446,168493.1866935,-84
1658849139.64446,168493.1867025,-87
1658849139.64446,168493.1867064,-91
1658849139.64446,168493.1867119,-82
1658849139.65843,168493.1867158,-61
1658849139.65843,168493.1867295,-40
1658849139.65843,168493.1867426,-32
1658849139.65843,168493.1867561,-49
1658849139.65843,168493.1867697,-73
1658849139.65843,168493.1867843,-75
1658849139.65843,168493.1867973,-61
1658849139.65843,168493.1868099,-70
1658849139.65843,168493.1868193,-77
1658849139.65843,168493.1868264,-54
1658849139.65843,168493.1868347,-35
1658849139.65843,168493.1868465,-47
1658849139.65843,168493.1868538,-54
1658849139.65843,168493.1868607,-44
1658849139.65843,168493.1868722,-37
1658849139.65843,168493.1868772,-28
1658849139.65843,168493.1868815,-21
1658849139.65843,168493.1868858,-51
1658849139.65843,168493.1868922,-155
1658849139.65843,168493.1868971,-122
1658849139.65843,168493.186901,494
1658849139.65843,168493.1869046,1623
1658849139.65843,168493.1869133,2513
1658849139.65843,168493.1869245,2428
1658849140.28081,168493.1869367,895
1658849140.28081,168493.1869446,-855
1658849140.28081,168493.1869518,-810
1658849140.28081,168493.1869592,9
1658849140.28081,168493.186966,-75
1658849140.28081,168493.1869714,-287
1658849140.28081,168493.1869776,-101
1658849140.28081,168493.1869834,-70
1658849140.28081,168493.1869869,-148
1658849140.28081,168493.18699,-94
1658849140.28081,168493.1869933,-54
1658849140.28081,168493.1870065,-68
1658849140.28081,168493.1870191,-42
1658849140.28081,168493.1870312,-2
1658849140.28081,168493.1872398,9
1658849140.28081,168493.1872518,23
1658849140.28081,168493.1872593,44
1658849140.28081,168493.1872667,70
1658849140.28081,168493.1872714,96
1658849140.28081,168493.1872776,122
1658849140.28081,168493.1872828,153
1658849140.28081,168493.1872899,183
1658849140.28081,168493.1872952,200
1658849140.28081,168493.1873022,219
1658849140.28081,168493.1873074,240
1658849140.28081,168493.1873144,242
1658849140.28081,168493.1873192,235
1658849140.28081,168493.1873243,226
1658849140.28081,168493.1873294,204
1658849140.28081,168493.1873345,164
1658849140.28081,168493.8205945,117
1658849140.28081,168493.8206116,58
1658849140.28081,168493.820616,0
1658849140.28081,168493.8206195,-51
1658849140.28081,168493.8206231,-106
1658849140.28081,168493.8206266,-143
1658849140.28081,168493.8206301,-153
1658849140.28081,168493.8206334,-155
1658849140.28081,168493.8206363,-155
1658849140.28081,168493.8206394,-143
1658849140.28081,168493.8206425,-136
1658849140.28081,168493.8206456,-139
1658849140.28081,168493.8206506,-134
1658849140.28081,168493.8206572,-122
1658849140.28081,168493.8206612,-113
1658849140.28081,168493.820665,-106
1658849140.28081,168493.8206679,-106
1658849140.28081,168493.8206709,-120
1658849140.28081,168493.8206738,-124
1658849140.28081,168493.8206767,-113
1658849140.29377,168493.8206796,-103
1658849140.29377,168493.8206827,-103
1658849140.29377,168493.8206855,-101
1658849140.29377,168493.8206884,-103
1658849140.29377,168493.8206913,-103
1658849140.29377,168493.8206941,-98
1658849140.29377,168493.820697,-101
1658849140.29377,168493.8206999,-98
1658849140.29377,168493.8207027,-87
1658849140.29377,168493.8207057,-82
1658849140.29377,168493.8207085,-89
1658849140.29377,168493.8207115,-89
1658849140.29377,168493.8207171,-82
1658849140.29377,168493.8207238,-73
1658849140.29377,168493.8207272,-65
1658849140.29377,168493.8207326,-65
1658849140.29377,168493.820736,-65
1658849140.29377,168493.8207419,-61
1658849140.29377,168493.8207459,-56
1658849140.29377,168493.820749,-51
1658849140.29377,168493.820752,-44
1658849140.29377,168493.820755,-42
1658849140.29377,168493.8207583,-37
1658849140.29377,168493.8207614,-28
1658849140.76864,168493.8207649,-25
1658849140.76864,168493.8207681,-28
1658849140.76864,168493.8207713,-25
1658849140.76864,168493.8207744,-16
1658849140.76864,168493.8207777,-14
1658849140.76864,168493.8207814,-14
1658849140.76864,168493.8207864,-7
1658849140.76864,168493.8207899,0
1658849140.76864,168493.8207931,-7
1658849140.76864,168493.8207963,-7
1658849140.76864,168493.8207996,7
1658849140.76864,168493.8208038,35
1658849140.76864,168493.8208083,65
1658849140.76864,168493.820812,82
1658849140.76864,168493.8208149,77
1658849140.76864,168493.8208178,58
1658849140.76864,168493.8208211,42
1658849140.76864,168493.8208264,49
1658849140.76864,168493.8208293,61
1658849140.76864,168493.8208325,54
1658849140.76864,168493.8208356,54
1658849140.76864,168493.8208388,63
1658849140.76864,168493.8208419,75
1658849140.76864,168493.820845,77
1658849140.76864,168493.8208483,82
1658849140.76864,168493.8208532,91
1658849140.76864,168493.8208582,91
1658849140.76864,168493.8208615,80
1658849140.76864,168493.8208646,61
1658849140.76864,168494.3081235,-4
1658849140.76864,168494.308145,11
1658849140.76864,168494.308159,515
1658849140.76864,168494.3081692,1536
1658849140.76864,168494.3081763,2454
1658849140.76864,168494.3081852,2570
1658849140.76864,168494.3081907,1251
1658849140.76864,168494.3082033,-586
1658849140.76864,168494.3082142,-803
1658849140.76864,168494.3082229,9
1658849140.76864,168494.3082322,30
1658849140.76864,168494.3082385,-197
1658849140.76864,168494.3082416,-32
1658849140.76864,168494.3082446,14
1658849140.76864,168494.3082478,-77
1658849140.76864,168494.3082604,-21
1658849140.76864,168494.3082675,42
1658849140.76864,168494.3082742,23
1658849140.76864,168494.3082779,37
1658849140.76864,168494.308284,73
1658849140.76864,168494.3082896,70
1658849140.78161,168494.3082929,73
1658849140.78161,168494.3082989,103
1658849140.78161,168494.3083024,134
1658849140.78161,168494.308308,150
1658849140.78161,168494.3083111,164
1658849140.78161,168494.3083141,174
1658849140.78161,168494.3083171,195
1658849140.78161,168494.3083201,230
1658849140.78161,168494.3083231,249
1658849140.78161,168494.3083261,249
1658849140.78161,168494.3083292,261
1658849140.78161,168494.3083323,270
1658849140.78161,168494.3083383,252
1658849140.78161,168494.3083424,237
1658849140.78161,168494.3083481,223
1658849140.78161,168494.308351,183
1658849140.78161,168494.3083538,131
1658849140.78161,168494.3083567,82
1658849140.78161,168494.3083595,23
1658849140.78161,168494.3083623,-35
1658849140.78161,168494.3083652,-63
1658849140.78161,168494.308368,-65
1658849140.78161,168494.3083709,-75
1658849140.78161,168494.3083748,-94
1658849141.30024,168494.3083808,-101
1658849141.30024,168494.3083868,-91
1658849141.30024,168494.3083937,-77
1658849141.30024,168494.3084004,-56
1658849141.30024,168494.3084063,-32
1658849141.30024,168494.3084103,-25
1658849141.30024,168494.3084142,-37
1658849141.30024,168494.3084171,-37
1658849141.30024,168494.3084207,-40
1658849141.30024,168494.3084253,-47
1658849141.30024,168494.308429,-37
1658849141.30024,168494.3084325,-25
1658849141.30024,168494.3084368,-35
1658849141.30024,168494.3084405,-40
1658849141.30024,168494.3084435,-23
1658849141.30024,168494.3084467,-11
1658849141.30024,168494.3084496,-25
1658849141.30024,168494.3084526,-44
1658849141.30024,168494.3084557,-35
1658849141.30024,168494.3084602,-14
1658849141.30024,168494.308464,-16
1658849141.30024,168494.3084683,-32
1658849141.30024,168494.308473,-16
1658849141.30024,168494.3084793,-7
1658849141.30024,168494.3084854,-28
1658849141.30024,168494.3084915,-32
1658849141.30024,168494.3084981,-21
1658849141.30024,168494.3085043,-18
1658849141.30024,168494.8447376,-9
1658849141.30024,168494.8447548,2
1658849141.30024,168494.8447613,-2
1658849141.30024,168494.8447684,0
1658849141.30024,168494.8447744,23
1658849141.30024,168494.8447803,28
1658849141.30024,168494.8447884,9
1658849141.30024,168494.8447971,16
1658849141.30024,168494.8448083,25
1658849141.30024,168494.8448222,18
1658849141.30024,168494.8448294,25
1658849141.30024,168494.8448335,51
