Time,TimeLsl,Value
1660219538.86607,1538904.1073708,33
1660219538.86607,1538904.1073984,18
1660219538.86607,1538904.1074065,16
1660219538.86607,1538904.1074138,7
1660219538.86607,1538904.1074207,9
1660219538.86607,1538904.1074245,21
1660219538.86607,1538904.1074278,-9
1660219538.86607,1538904.1074322,-44
1660219538.86607,1538904.107437,-28
1660219538.86607,1538904.1074403,0
1660219538.86607,1538904.1074606,23
1660219538.86607,1538904.107466,59
1660219538.86607,1538904.1074693,99
1660219538.86607,1538904.1074725,132
1660219538.86607,1538904.107476,156
1660219538.86607,1538904.1074842,151
1660219538.86607,1538904.1074879,146
1660219538.86607,1538904.1074916,151
1660219538.86607,1538904.1074953,132
1660219538.86607,1538904.1074989,101
1660219538.86607,1538904.1075025,89
1660219538.86607,1538904.1075063,87
1660219538.86607,1538904.1075136,82
1660219538.86607,1538904.1075173,73
1660219538.86607,1538904.1075208,68
1660219538.86607,1538904.1075243,73
1660219538.86607,1538904.1075282,66
1660219538.86607,1538904.1075338,47
1660219538.86607,1538904.1075375,44
1660219538.86607,1538904.1075433,54
1660219538.86607,1538904.1075473,68
1660219538.86607,1538904.1075514,73
1660219538.86607,1538904.1075572,52
1660219538.86607,1538904.1075611,16
1660219538.86607,1538904.1075665,-11
1660219538.86607,1538904.1075743,-18
1660219538.86607,1538904.1075796,-4
1660219538.86607,1538904.1075832,14
1660219538.86607,1538904.1075885,40
1660219538.86607,1538904.1075963,49
1660219538.86607,1538904.1076025,49
1660219538.86607,1538904.1076062,66
1660219538.86607,1538904.1076101,82
1660219538.86607,1538904.1076156,87
1660219538.86607,1538904.10762,94
1660219538.86607,1538904.1076252,96
1660219538.86607,1538904.1076288,106
1660219538.86607,1538904.1076344,158
1660219538.86607,1538904.1076381,172
1660219538.86607,1538904.1076441,-63
1660219539.0057,1538904.1076481,-515
1660219539.0057,1538904.1076538,-666
1660219539.0057,1538904.1076572,-215
1660219539.0057,1538904.1076633,326
1660219539.0057,1538904.1076667,406
1660219539.0057,1538904.1076722,229
1660219539.0057,1538904.1076759,165
1660219539.0057,1538904.1076859,170
1660219539.0057,1538904.1076897,134
1660219539.0057,1538904.107695,115
1660219539.0057,1538904.1076987,132
1660219539.0057,1538904.1077024,139
1660219539.0057,1538904.1077065,130
1660219539.0057,1538904.10771,113
1660219539.0057,1538904.1077143,108
1660219539.0057,1538904.1077193,108
1660219539.0057,1538904.107723,96
1660219539.0057,1538904.1077285,89
1660219539.0057,1538904.107732,99
1660219539.0057,1538904.1077354,104
1660219539.0057,1538904.1077391,87
1660219539.0057,1538904.1077428,56
1660219539.0057,1538904.1077463,42
1660219539.0057,1538904.6443398,47
1660219539.0057,1538904.6443574,42
1660219539.0057,1538904.6443645,28
1660219539.0057,1538904.6443686,28
1660219539.0057,1538904.6443723,44
1660219539.0057,1538904.6443757,54
1660219539.0057,1538904.6443789,59
1660219539.0057,1538904.6443823,82
1660219539.0057,1538904.6443859,113
1660219539.0057,1538904.6443893,118
1660219539.0057,1538904.6443931,94
1660219539.0057,1538904.6443964,99
1660219539.0057,1538904.6443997,125
1660219539.0057,1538904.6444031,134
1660219539.0057,1538904.6444064,141
1660219539.0057,1538904.6444098,146
1660219539.0057,1538904.6444135,111
1660219539.0057,1538904.644417,70
1660219539.0057,1538904.6444204,82
1660219539.0057,1538904.6444241,89
1660219539.0057,1538904.6444275,56
1660219539.0057,1538904.644431,54
1660219539.0057,1538904.6444346,54
1660219539.0057,1538904.6444382,40
1660219539.0057,1538904.6444421,49
1660219539.0057,1538904.6444459,54
1660219539.0057,1538904.6444499,44
1660219539.07551,1538904.6444539,42
1660219539.07551,1538904.644458,16
1660219539.07551,1538904.6444621,-7
1660219539.07551,1538904.6444663,9
1660219539.07551,1538904.6444728,18
1660219539.07551,1538904.6444763,-2
1660219539.07551,1538904.6444822,-11
1660219539.07551,1538904.6444861,-2
1660219539.07551,1538904.6444917,7
1660219539.07551,1538904.6444955,18
1660219539.07551,1538904.6445008,35
1660219539.07551,1538904.6445046,44
1660219539.07551,1538904.6445099,59
1660219539.07551,1538904.6445147,73
1660219539.07551,1538904.6445202,59
1660219539.07551,1538904.644524,52
1660219539.07551,1538904.6445291,78
1660219539.07551,1538904.6445329,92
1660219539.07551,1538904.6445383,101
1660219539.07551,1538904.6445417,153
1660219539.07551,1538904.644547,125
1660219539.07551,1538904.6445509,-179
1660219539.07551,1538904.6445561,-579
1660219539.07551,1538904.64456,-546
1660219539.07551,1538904.6445657,-23
1660219539.07551,1538904.6445698,371
1660219539.07551,1538904.644575,328
1660219539.07551,1538904.6445798,179
1660219539.07551,1538904.6445853,148
1660219539.07551,1538904.6445894,141
1660219539.07551,1538904.6445957,122
1660219539.07551,1538904.6446,125
1660219539.07551,1538904.6446053,130
1660219539.07551,1538904.644613,120
1660219539.07551,1538904.6446167,113
1660219539.07551,1538904.6446207,106
1660219539.07551,1538904.6446263,104
1660219539.07551,1538904.6446299,101
1660219539.07551,1538904.6446335,96
1660219539.07551,1538904.644641,89
1660219539.07551,1538904.6446458,78
1660219539.07551,1538904.6446495,82
1660219539.07551,1538904.6446532,82
1660219539.07551,1538904.6446586,59
1660219539.07551,1538904.6446621,33
1660219539.07551,1538904.6446658,18
1660219539.07551,1538905.1324718,4
1660219539.07551,1538905.1324881,4
1660219539.09845,1538905.1324932,14
1660219539.09845,1538905.1324976,21
1660219539.09845,1538905.1325015,42
1660219539.09845,1538905.1325053,56
1660219539.09845,1538905.1325099,37
1660219539.09845,1538905.1325147,40
1660219539.09845,1538905.1325186,73
1660219539.09845,1538905.1325218,87
1660219539.09845,1538905.1325252,92
1660219539.09845,1538905.1325283,104
1660219539.09845,1538905.1325341,92
1660219539.09845,1538905.1325392,66
1660219539.09845,1538905.1325429,52
1660219539.09845,1538905.1325474,54
1660219539.09845,1538905.1325511,61
1660219539.09845,1538905.1325548,54
1660219539.09845,1538905.1325603,37
1660219539.09845,1538905.1325716,21
1660219539.09845,1538905.1325838,11
1660219539.09845,1538905.1325926,14
1660219539.09845,1538905.1325968,7
1660219539.09845,1538905.1326025,-2
1660219539.09845,1538905.1326081,9
1660219539.09845,1538905.1326135,18
1660219539.09845,1538905.1326191,16
1660219539.09845,1538905.1326229,11
1660219539.09845,1538905.1326268,21
1660219539.09845,1538905.1326322,35
1660219539.09845,1538905.1326363,30
1660219539.09845,1538905.1326422,21
1660219539.09845,1538905.1326478,16
1660219539.09845,1538905.1326528,0
1660219539.09845,1538905.1326581,-18
1660219539.09845,1538905.1326621,-11
1660219539.09845,1538905.1326675,21
1660219539.09845,1538905.1326721,37
1660219539.09845,1538905.1326778,28
1660219539.09845,1538905.1326817,33
1660219539.09845,1538905.132689,56
1660219539.09845,1538905.1326929,92
1660219539.09845,1538905.1326986,113
1660219539.09845,1538905.1327027,92
1660219539.09845,1538905.1327081,80
1660219539.09845,1538905.132712,96
1660219539.09845,1538905.1327178,101
1660219539.09845,1538905.1327223,127
1660219539.09845,1538905.1327262,182
1660219539.09845,1538905.132732,85
1660219539.09845,1538905.1327367,-248
1660219539.09845,1538905.1327439,-520
1660219539.11042,1538905.1327485,-354
1660219539.11042,1538905.1327539,122
1660219539.11042,1538905.1327584,397
1660219539.11042,1538905.1327622,307
1660219539.11042,1538905.132768,174
1660219539.11042,1538905.1327719,167
1660219539.11042,1538905.1327758,158
1660219539.11042,1538905.1327812,122
1660219539.11042,1538905.132785,141
1660219539.11042,1538905.1327922,170
1660219539.11042,1538905.132796,141
1660219539.11042,1538905.1327999,108
1660219539.11042,1538905.1328052,108
1660219539.11042,1538905.1328114,108
1660219539.11042,1538905.1328354,104
1660219539.11042,1538905.1328486,108
1660219539.11042,1538905.132856,108
1660219539.11042,1538905.1328615,92
1660219539.11042,1538905.1328672,70
1660219539.11042,1538905.1328722,66
1660219539.11042,1538905.1328761,59
1660219539.11042,1538905.8139781,54
1660219539.11042,1538905.813997,66
1660219539.11042,1538905.8140125,61
1660219539.58579,1538905.8140212,28
1660219539.58579,1538905.8140253,0
1660219539.58579,1538905.8140291,-9
1660219539.58579,1538905.8140341,-14
1660219539.58579,1538905.8140386,7
1660219539.58579,1538905.8140424,42
1660219539.58579,1538905.8140459,59
1660219539.58579,1538905.8140496,61
1660219539.58579,1538905.8140534,44
1660219539.58579,1538905.8140572,18
1660219539.58579,1538905.814061,11
1660219539.58579,1538905.8140646,14
1660219539.58579,1538905.8140685,7
1660219539.58579,1538905.8140722,-2
1660219539.58579,1538905.8140758,2
1660219539.58579,1538905.8140795,11
1660219539.58579,1538905.8140832,21
1660219539.58579,1538905.8140869,28
1660219539.58579,1538905.8140904,30
1660219539.58579,1538905.814094,23
1660219539.58579,1538905.8140978,26
1660219539.58579,1538905.8141016,35
1660219539.58579,1538905.8141053,26
1660219539.58579,1538905.814112,18
1660219539.58579,1538905.814116,42
1660219539.58579,1538905.814122,59
1660219539.58579,1538905.8141259,54
1660219539.58579,1538905.8141318,61
1660219539.58579,1538905.8141357,78
1660219539.58579,1538905.8141413,82
1660219539.58579,1538905.814145,73
1660219539.58579,1538905.8141485,75
1660219539.58579,1538905.8141549,75
1660219539.58579,1538905.8141587,73
1660219539.58579,1538905.8141648,92
1660219539.58579,1538905.814169,115
1660219539.58579,1538905.8141746,92
1660219539.58579,1538905.8141781,61
1660219539.58579,1538905.8141871,73
1660219539.58579,1538905.8141995,99
1660219539.58579,1538905.8142057,104
1660219539.58579,1538905.814212,118
1660219539.58579,1538905.8142159,170
1660219539.58579,1538905.81422,250
1660219539.58579,1538905.8142252,356
1660219539.58579,1538905.8142292,359
1660219539.58579,1538905.8142346,208
1660219539.58579,1538905.8142388,139
1660219539.58579,1538905.8142442,193
1660219539.58579,1538905.8142483,231
1660219539.59676,1538905.8142523,260
1660219539.59676,1538905.8142568,196
1660219539.59676,1538905.814263,-78
1660219539.59676,1538905.814267,-392
1660219539.59676,1538905.8142725,-368
1660219539.59676,1538905.8142783,49
1660219539.59676,1538905.814282,387
1660219539.59676,1538905.8142876,354
1660219539.59676,1538905.8142924,198
1660219539.59676,1538905.8142971,189
1660219539.59676,1538905.8143007,222
1660219539.59676,1538905.8143043,184
1660219539.59676,1538905.81431,160
1660219539.59676,1538905.8143141,170
1660219539.59676,1538905.8143197,158
1660219539.59676,1538905.814323,144
1660219539.59676,1538905.8143266,146
1660219539.59676,1538905.8143319,153
1660219539.59676,1538905.8143362,151
1660219539.59676,1538905.8143411,132
1660219539.59676,1538906.3031257,122
1660219539.59676,1538906.3031493,118
1660219539.59676,1538906.3031597,104
1660219539.59676,1538906.3031755,80
1660219540.16323,1538906.3031842,49
1660219540.16323,1538906.3031903,35
1660219540.16323,1538906.3031969,30
1660219540.16323,1538906.3032018,9
1660219540.16323,1538906.3032083,-11
1660219540.16323,1538906.3032134,-4
1660219540.16323,1538906.3032167,4
1660219540.16323,1538906.3032233,0
1660219540.16323,1538906.3032302,2
1660219540.16323,1538906.3032398,-4
1660219540.16323,1538906.3032469,2
1660219540.16323,1538906.3032531,35
1660219540.16323,1538906.3032624,54
1660219540.16323,1538906.3032701,56
1660219540.16323,1538906.3032781,75
1660219540.16323,1538906.3032864,70
1660219540.16323,1538906.3032947,44
1660219540.16323,1538906.3033032,47
1660219540.16323,1538906.3033099,56
1660219540.16323,1538906.3033185,52
1660219540.16323,1538906.3033251,63
1660219540.16323,1538906.3033327,61
1660219540.16323,1538906.3033388,33
1660219540.16323,1538906.3033462,28
1660219540.16323,1538906.303353,40
1660219540.16323,1538906.3033608,40
1660219540.16323,1538906.303367,47
1660219540.16323,1538906.3033743,61
1660219540.16323,1538906.3033814,61
1660219540.16323,1538906.303389,52
1660219540.16323,1538906.303395,66
1660219540.16323,1538906.3034015,89
1660219540.16323,1538906.3034054,96
1660219540.16323,1538906.3034109,92
1660219540.16323,1538906.3034217,80
1660219540.16323,1538906.3034275,78
1660219540.16323,1538906.3034308,94
1660219540.16323,1538906.303433,118
1660219540.16323,1538906.3034383,118
1660219540.16323,1538906.3034488,115
1660219540.16323,1538906.3034543,130
1660219540.16323,1538906.3034611,132
1660219540.16323,1538906.3034677,113
1660219540.16323,1538906.3034717,101
1660219540.16323,1538906.3034776,92
1660219540.16323,1538906.3034845,78
1660219540.16323,1538906.3034934,80
1660219540.16323,1538906.3034996,87
1660219540.16323,1538906.3035069,104
1660219540.16323,1538906.303511,130
1660219540.1752,1538906.3035171,137
1660219540.1752,1538906.3035233,146
1660219540.1752,1538906.3035269,167
1660219540.1752,1538906.3035319,174
1660219540.1752,1538906.3035389,172
1660219540.1752,1538906.3035464,167
1660219540.1752,1538906.3035503,167
1660219540.1752,1538906.3035583,177
1660219540.1752,1538906.3035661,198
1660219540.1752,1538906.3035776,215
1660219540.1752,1538906.3035861,170
1660219540.1752,1538906.3035926,-66
1660219540.1752,1538906.3035997,-392
1660219540.1752,1538906.3036034,-366
1660219540.1752,1538906.3036096,75
1660219540.1752,1538906.3036161,408
1660219540.1752,1538906.3036223,375
1660219540.1752,1538906.303636,229
1660219540.1752,1538906.3036488,186
1660219540.1752,1538906.8887468,193
1660219540.1752,1538906.888763,160
1660219540.1752,1538906.8887663,137
1660219540.1752,1538906.8887691,141
1660219540.1752,1538906.8887721,127
1660219540.6996,1538906.8887748,101
1660219540.6996,1538906.8887775,92
1660219540.6996,1538906.8887803,70
1660219540.6996,1538906.8887828,47
1660219540.6996,1538906.8887854,26
1660219540.6996,1538906.8887882,-9
1660219540.6996,1538906.888791,-28
1660219540.6996,1538906.8887936,-21
1660219540.6996,1538906.8887985,-28
1660219540.6996,1538906.888805,-40
1660219540.6996,1538906.8888084,-52
1660219540.6996,1538906.8888118,-78
1660219540.6996,1538906.8888153,-96
1660219540.6996,1538906.8888186,-87
1660219540.6996,1538906.888824,-68
1660219540.6996,1538906.8888305,-52
1660219540.6996,1538906.8888339,-35
1660219540.6996,1538906.8888366,-37
1660219540.6996,1538906.8888393,-47
1660219540.6996,1538906.888842,-40
1660219540.6996,1538906.8888446,-18
1660219540.6996,1538906.8888472,-2
1660219540.6996,1538906.8888498,30
1660219540.6996,1538906.8888525,80
1660219540.6996,1538906.888855,92
1660219540.6996,1538906.8888578,89
1660219540.6996,1538906.8888623,104
1660219540.6996,1538906.8888651,115
1660219540.6996,1538906.8888679,111
1660219540.6996,1538906.8888706,106
1660219540.6996,1538906.8888735,111
1660219540.6996,1538906.8888762,111
1660219540.6996,1538906.8888789,99
1660219540.6996,1538906.8888816,87
1660219540.6996,1538906.8888843,101
1660219540.6996,1538906.8888869,122
1660219540.6996,1538906.8888895,130
1660219540.6996,1538906.8888923,125
1660219540.6996,1538906.8888951,125
1660219540.6996,1538906.8888978,139
1660219540.6996,1538906.8889006,137
1660219540.6996,1538906.8889033,134
1660219540.6996,1538906.888906,144
1660219540.6996,1538906.8889086,137
1660219540.6996,1538906.8889114,130
1660219540.6996,1538906.8889154,153
1660219540.6996,1538906.8889222,179
1660219540.6996,1538906.8889258,172
1660219540.6996,1538906.8889291,151
1660219540.6996,1538906.8889324,148
1660219540.71356,1538906.8889375,160
1660219540.71356,1538906.8889426,156
1660219540.71356,1538906.8889467,148
1660219540.71356,1538906.8889513,148
1660219540.71356,1538906.8889547,130
1660219540.71356,1538906.8889595,120
1660219540.71356,1538906.8889628,137
1660219540.71356,1538906.8889661,141
1660219540.71356,1538906.8889715,132
1660219540.71356,1538906.8889751,127
1660219540.71356,1538906.8889809,141
1660219540.71356,1538906.8889853,156
1660219540.71356,1538906.8889891,153
1660219540.71356,1538906.8889942,144
1660219540.71356,1538906.8889978,139
1660219540.71356,1538906.8890016,144
1660219540.71356,1538906.8890051,153
1660219540.71356,1538906.8890086,158
1660219540.71356,1538907.4230015,177
1660219540.71356,1538907.4230203,144
1660219540.71356,1538907.423027,-99
1660219540.71356,1538907.4230328,-465
1660219540.71356,1538907.4230368,-489
1660219540.71356,1538907.4230423,-56
1660219541.24015,1538907.42305,304
1660219541.24015,1538907.4230536,286
1660219541.24015,1538907.4230571,144
1660219541.24015,1538907.4230609,99
1660219541.24015,1538907.4230646,82
1660219541.24015,1538907.4230681,52
1660219541.24015,1538907.423072,49
1660219541.24015,1538907.4230756,42
1660219541.24015,1538907.4230972,30
1660219541.24015,1538907.4231111,42
1660219541.24015,1538907.4231175,47
1660219541.24015,1538907.4231236,33
1660219541.24015,1538907.4231425,28
1660219541.24015,1538907.4231491,30
1660219541.24015,1538907.4231534,35
1660219541.24015,1538907.4231574,37
1660219541.24015,1538907.4231613,26
1660219541.24015,1538907.4231653,16
1660219541.24015,1538907.4231691,4
1660219541.24015,1538907.4231732,-21
1660219541.24015,1538907.4231771,-47
1660219541.24015,1538907.4231809,-61
1660219541.24015,1538907.423185,-61
1660219541.24015,1538907.423189,-56
1660219541.24015,1538907.4231929,-56
1660219541.24015,1538907.423197,-44
1660219541.24015,1538907.4232009,-26
1660219541.24015,1538907.4232049,-7
1660219541.24015,1538907.4232089,16
1660219541.24015,1538907.4232128,40
1660219541.24015,1538907.4232165,70
1660219541.24015,1538907.4232202,104
1660219541.24015,1538907.4232241,111
1660219541.24015,1538907.4232279,118
1660219541.24015,1538907.4232316,148
1660219541.24015,1538907.4232352,160
1660219541.24015,1538907.4232398,146
1660219541.24015,1538907.4232467,156
1660219541.24015,1538907.4232517,179
1660219541.24015,1538907.4232569,163
1660219541.24015,1538907.4232627,141
1660219541.24015,1538907.4232705,156
1660219541.24015,1538907.4232782,177
1660219541.24015,1538907.4232825,167
1660219541.24015,1538907.4232911,158
1660219541.24015,1538907.4233019,177
1660219541.24015,1538907.4233119,184
1660219541.24015,1538907.4233231,177
1660219541.24015,1538907.4233329,179
1660219541.24015,1538907.4233393,174
1660219541.25112,1538907.4233479,160
1660219541.25112,1538907.4233563,144
1660219541.25112,1538907.4233643,134
1660219541.25112,1538907.4233701,137
1660219541.25112,1538907.4233775,134
1660219541.25112,1538907.4233849,137
1660219541.25112,1538907.4233929,151
1660219541.25112,1538907.4233988,156
1660219541.25112,1538907.4234062,137
1660219541.25112,1538907.4234121,130
1660219541.25112,1538907.4234199,151
1660219541.25112,1538907.4234258,148
1660219541.25112,1538907.4234331,134
1660219541.25112,1538907.4234391,127
1660219541.25112,1538907.4234466,101
1660219541.25112,1538907.4234524,82
1660219541.25112,1538907.42346,99
1660219541.25112,1538907.9592458,118
1660219541.25112,1538907.9593066,118
1660219541.25112,1538907.9593156,120
1660219541.25112,1538907.9593218,132
1660219541.25112,1538907.9593252,120
1660219541.25112,1538907.9593306,111
1660219541.25112,1538907.9593335,120
1660219541.77622,1538907.9593366,115
1660219541.77622,1538907.9593411,104
1660219541.77622,1538907.9593444,113
1660219541.77622,1538907.9593476,122
1660219541.77622,1538907.9593524,78
1660219541.77622,1538907.9593567,-122
1660219541.77622,1538907.9593597,-456
1660219541.77622,1538907.9593647,-539
1660219541.77622,1538907.9593719,-160
1660219541.77622,1538907.9593764,226
1660219541.77622,1538907.9593827,238
1660219541.77622,1538907.959389,101
1660219541.77622,1538907.9593935,59
1660219541.77622,1538907.9594003,49
1660219541.77622,1538907.959405,28
1660219541.77622,1538907.959408,35
1660219541.77622,1538907.9594109,49
1660219541.77622,1538907.9594138,44
1660219541.77622,1538907.9594167,35
1660219541.77622,1538907.9594196,37
1660219541.77622,1538907.9594226,37
1660219541.77622,1538907.9594258,30
1660219541.77622,1538907.9594291,26
1660219541.77622,1538907.9594327,28
1660219541.77622,1538907.9594362,30
1660219541.77622,1538907.95944,33
1660219541.77622,1538907.9594453,37
1660219541.77622,1538907.959451,26
1660219541.77622,1538907.959456,2
1660219541.77622,1538907.9594601,-9
1660219541.77622,1538907.9594655,9
1660219541.77622,1538907.9594704,16
1660219541.77622,1538907.9594791,14
1660219541.77622,1538907.9594885,37
1660219541.77622,1538907.9594952,49
1660219541.77622,1538907.9595003,40
1660219541.77622,1538907.9595035,44
1660219541.77622,1538907.9595065,73
1660219541.77622,1538907.9595094,99
1660219541.77622,1538907.9595124,120
1660219541.77622,1538907.9595152,139
1660219541.77622,1538907.9595182,148
1660219541.77622,1538907.959527,146
1660219541.77622,1538907.9595336,127
1660219541.77622,1538907.9595376,113
1660219541.77622,1538907.9595426,139
1660219541.77622,1538907.9595478,144
1660219541.77622,1538907.959556,122
1660219541.77622,1538907.9595627,132
1660219541.77622,1538907.9595692,146
1660219541.78819,1538907.9595744,127
1660219541.78819,1538907.9595801,139
1660219541.78819,1538907.9595873,170
1660219541.78819,1538907.9595939,153
1660219541.78819,1538907.9595995,137
1660219541.78819,1538907.9596085,158
1660219541.78819,1538907.959616,156
1660219541.78819,1538907.9596245,146
1660219541.78819,1538907.9596325,167
1660219541.78819,1538907.9596409,174
1660219541.78819,1538907.9596497,158
1660219541.78819,1538907.9596565,156
1660219541.78819,1538907.9596619,158
1660219541.78819,1538907.9596684,148
1660219541.78819,1538907.9596748,144
1660219541.78819,1538907.9596802,139
1660219541.78819,1538908.4955515,139
1660219541.78819,1538908.4955729,144
1660219541.78819,1538908.4955824,127
1660219541.78819,1538908.4955879,92
1660219541.78819,1538908.4955958,73
1660219541.78819,1538908.4956013,68
1660219541.78819,1538908.4956072,42
1660219541.78819,1538908.4956124,14
1660219542.5092,1538908.4956178,28
1660219542.5092,1538908.4956221,49
1660219542.5092,1538908.4956265,40
1660219542.5092,1538908.4956302,30
1660219542.5092,1538908.4956341,33
1660219542.5092,1538908.4956379,16
1660219542.5092,1538908.4956418,4
1660219542.5092,1538908.4956455,23
1660219542.5092,1538908.4956491,40
1660219542.5092,1538908.4956527,40
1660219542.5092,1538908.4956563,68
1660219542.5092,1538908.49566,75
1660219542.5092,1538908.4956661,-70
1660219542.5092,1538908.4956699,-387
1660219542.5092,1538908.4956737,-560
1660219542.5092,1538908.4956786,-276
1660219542.5092,1538908.4956854,174
1660219542.5092,1538908.4956912,309
1660219542.5092,1538908.495695,179
1660219542.5092,1538908.4956985,104
1660219542.5092,1538908.495702,113
1660219542.5092,1538908.4957078,106
1660219542.5092,1538908.4957118,94
1660219542.5092,1538908.4957173,101
1660219542.5092,1538908.4957217,99
1660219542.5092,1538908.4957253,70
1660219542.5092,1538908.4957318,68
1660219542.5092,1538908.4957358,99
1660219542.5092,1538908.4957416,106
1660219542.5092,1538908.4957453,89
1660219542.5092,1538908.495749,89
1660219542.5092,1538908.4957524,87
1660219542.5092,1538908.495756,59
1660219542.5092,1538908.4957612,21
1660219542.5092,1538908.4957648,0
1660219542.5092,1538908.4957695,-7
1660219542.5092,1538908.4957752,-4
1660219542.5092,1538908.4957802,-2
1660219542.5092,1538908.4957859,-4
1660219542.5092,1538908.4957897,-9
1660219542.5092,1538908.495795,0
1660219542.5092,1538908.4957995,21
1660219542.5092,1538908.4958055,44
1660219542.5092,1538908.4958112,63
1660219542.5092,1538908.4958153,66
1660219542.5092,1538908.4958204,61
1660219542.5092,1538908.4958246,89
1660219542.5092,1538908.495828,130
1660219542.5092,1538908.4958341,153
1660219542.5092,1538908.4958392,165
1660219542.51917,1538908.4958455,170
1660219542.51917,1538908.4958503,170
1660219542.51917,1538908.495854,170
1660219542.51917,1538908.4958578,182
1660219542.51917,1538908.495863,189
1660219542.51917,1538908.4958674,177
1660219542.51917,1538908.4958707,167
1660219542.51917,1538908.495874,172
1660219542.51917,1538908.4958776,174
1660219542.51917,1538908.4958812,182
1660219542.51917,1538908.4958849,198
1660219542.51917,1538908.4958908,196
1660219542.51917,1538908.4958946,167
1660219542.51917,1538908.4958982,148
1660219542.51917,1538908.4959017,151
1660219542.51917,1538909.2271573,146
1660219542.51917,1538909.2271731,130
1660219542.51917,1538909.227178,111
1660219542.51917,1538909.2271837,75
1660219542.51917,1538909.2271883,54
1660219542.51917,1538909.2271944,49
1660219542.51917,1538909.2271986,33
1660219542.51917,1538909.2272082,35
1660219542.51917,1538909.227214,54
1660219542.95918,1538909.2272191,21
1660219542.95918,1538909.227223,-37
1660219542.95918,1538909.2272268,-33
1660219542.95918,1538909.2272307,-23
1660219542.95918,1538909.2272345,-44
1660219542.95918,1538909.2272383,-26
1660219542.95918,1538909.2272423,-2
1660219542.95918,1538909.2272471,-21
1660219542.95918,1538909.2272526,-9
1660219542.95918,1538909.2272564,42
1660219542.95918,1538909.2272604,61
1660219542.95918,1538909.2272658,59
1660219542.95918,1538909.2272695,61
1660219542.95918,1538909.2272732,44
1660219542.95918,1538909.2272786,33
1660219542.95918,1538909.2272834,59
1660219542.95918,1538909.2272887,87
1660219542.95918,1538909.2272923,106
1660219542.95918,1538909.227297,96
1660219542.95918,1538909.2273044,-87
1660219542.95918,1538909.2273149,-423
1660219542.95918,1538909.2273205,-491
1660219542.95918,1538909.2273273,-113
1660219542.95918,1538909.2273319,269
1660219542.95918,1538909.2273471,300
1660219542.95918,1538909.2273529,141
1660219542.95918,1538909.2273569,70
1660219542.95918,1538909.2273605,96
1660219542.95918,1538909.2273654,94
1660219542.95918,1538909.2273688,66
1660219542.95918,1538909.2273718,61
1660219542.95918,1538909.227375,70
1660219542.95918,1538909.2273781,66
1660219542.95918,1538909.2273812,56
1660219542.95918,1538909.2273844,63
1660219542.95918,1538909.2273876,70
1660219542.95918,1538909.2273912,66
1660219542.95918,1538909.2273944,59
1660219542.95918,1538909.2273978,54
1660219542.95918,1538909.227401,42
1660219542.95918,1538909.2274048,44
1660219542.95918,1538909.2274088,52
1660219542.95918,1538909.2274124,33
1660219542.95918,1538909.2274156,7
1660219542.95918,1538909.2274188,9
1660219542.95918,1538909.2274219,33
1660219542.95918,1538909.2274254,28
1660219542.95918,1538909.2274296,14
1660219542.95918,1538909.2274338,30
1660219542.95918,1538909.2274419,63
1660219542.97215,1538909.2274474,80
1660219542.97215,1538909.2274519,87
1660219542.97215,1538909.227456,115
1660219542.97215,1538909.2274604,139
1660219542.97215,1538909.2274649,148
1660219542.97215,1538909.2274694,170
1660219542.97215,1538909.2274734,182
1660219542.97215,1538909.2274776,165
1660219542.97215,1538909.2274817,163
1660219542.97215,1538909.2274856,179
1660219542.97215,1538909.2274894,184
1660219542.97215,1538909.2274933,177
1660219542.97215,1538909.2274973,163
1660219542.97215,1538909.2275014,163
1660219542.97215,1538909.6654735,179
1660219542.97215,1538909.6654949,170
1660219542.97215,1538909.6655104,151
1660219542.97215,1538909.6655243,156
1660219542.97215,1538909.6655347,163
1660219542.97215,1538909.6655424,165
1660219542.97215,1538909.6655519,174
1660219542.97215,1538909.6655575,160
1660219542.97215,1538909.6655624,139
1660219542.97215,1538909.6655667,139
1660219543.53024,1538909.6655741,125
1660219543.53024,1538909.6655821,106
1660219543.53024,1538909.6655901,115
1660219543.53024,1538909.6655978,108
1660219543.53024,1538909.6656038,94
1660219543.53024,1538909.6656081,89
1660219543.53024,1538909.6656121,80
1660219543.53024,1538909.665616,78
1660219543.53024,1538909.6656232,63
1660219543.53024,1538909.6656305,21
1660219543.53024,1538909.6656407,-2
1660219543.53024,1538909.6656524,18
1660219543.53024,1538909.6656643,35
1660219543.53024,1538909.6656688,44
1660219543.53024,1538909.6656729,61
1660219543.53024,1538909.6656761,52
1660219543.53024,1538909.6656856,23
1660219543.53024,1538909.6656991,21
1660219543.53024,1538909.6657137,42
1660219543.53024,1538909.6657252,49
1660219543.53024,1538909.6657349,44
1660219543.53024,1538909.6657411,49
1660219543.53024,1538909.6657555,54
1660219543.53024,1538909.6657663,-4
1660219543.53024,1538909.6657745,-252
1660219543.53024,1538909.6657828,-591
1660219543.53024,1538909.6657896,-543
1660219543.53024,1538909.6657936,-59
1660219543.53024,1538909.6658064,293
1660219543.53024,1538909.6658195,269
1660219543.53024,1538909.6658341,127
1660219543.53024,1538909.6658464,80
1660219543.53024,1538909.6658556,96
1660219543.53024,1538909.6658636,87
1660219543.53024,1538909.6658714,63
1660219543.53024,1538909.6658781,59
1660219543.53024,1538909.6658873,70
1660219543.53024,1538909.665893,66
1660219543.53024,1538909.6659018,35
1660219543.53024,1538909.665908,28
1660219543.53024,1538909.665922,40
1660219543.53024,1538909.6659346,35
1660219543.53024,1538909.665943,33
1660219543.53024,1538909.6659509,35
1660219543.53024,1538909.6659588,30
1660219543.53024,1538909.6659652,7
1660219543.53024,1538909.6659743,-23
1660219543.53024,1538909.6659827,-35
1660219543.53024,1538909.6659919,-44
1660219543.53024,1538909.6659979,-52
1660219543.54347,1538909.6660077,-30
1660219543.54347,1538909.6660136,-18
1660219543.54347,1538909.666022,-23
1660219543.54347,1538909.6660299,0
1660219543.54347,1538909.6660424,21
1660219543.54347,1538909.6660537,30
1660219543.54347,1538909.6660659,59
1660219543.54347,1538909.6660752,96
1660219543.54347,1538909.666083,115
1660219543.54347,1538909.666092,127
1660219543.54347,1538909.6660989,141
1660219543.54347,1538909.6661075,165
1660219543.54347,1538909.6661134,174
1660219543.54347,1538910.2506039,165
1660219543.54347,1538910.2506283,163
1660219543.54347,1538910.2506378,184
1660219543.54347,1538910.2506405,198
1660219543.54347,1538910.2506426,179
1660219543.54347,1538910.2506446,165
1660219543.54347,1538910.2506466,177
1660219543.54347,1538910.2506487,172
1660219543.54347,1538910.2506507,158
1660219543.54347,1538910.2506527,141
1660219543.54347,1538910.2506546,108
1660219544.05952,1538910.2506566,94
1660219544.05952,1538910.2506586,96
1660219544.05952,1538910.2506605,101
1660219544.05952,1538910.2506624,115
1660219544.05952,1538910.2506644,96
1660219544.05952,1538910.2506663,35
1660219544.05952,1538910.2506682,7
1660219544.05952,1538910.2506702,11
1660219544.05952,1538910.2506722,-16
1660219544.05952,1538910.2506744,-52
1660219544.05952,1538910.2506775,-61
1660219544.05952,1538910.2506855,-70
1660219544.05952,1538910.2506905,-75
1660219544.05952,1538910.2506945,-56
1660219544.05952,1538910.2506984,-33
1660219544.05952,1538910.2507072,-18
1660219544.05952,1538910.2507156,11
1660219544.05952,1538910.2507241,23
1660219544.05952,1538910.2507351,-2
1660219544.05952,1538910.2507423,9
1660219544.05952,1538910.2507447,42
1660219544.05952,1538910.2507468,37
1660219544.05952,1538910.2507488,35
1660219544.05952,1538910.2507509,70
1660219544.05952,1538910.2507529,101
1660219544.05952,1538910.2507549,9
1660219544.05952,1538910.2507569,-283
1660219544.05952,1538910.2507589,-569
1660219544.05952,1538910.2507609,-434
1660219544.05952,1538910.2507629,56
1660219544.05952,1538910.2507649,342
1660219544.05952,1538910.2507669,248
1660219544.05952,1538910.2507689,118
1660219544.05952,1538910.2507709,132
1660219544.05952,1538910.2507729,144
1660219544.05952,1538910.2507751,108
1660219544.05952,1538910.250777,94
1660219544.05952,1538910.250779,92
1660219544.05952,1538910.250781,70
1660219544.05952,1538910.250783,68
1660219544.05952,1538910.250785,89
1660219544.05952,1538910.250787,92
1660219544.05952,1538910.250789,80
1660219544.05952,1538910.250791,80
1660219544.05952,1538910.250793,75
1660219544.05952,1538910.2507951,63
1660219544.05952,1538910.2507971,54
1660219544.05952,1538910.2507991,49
1660219544.05952,1538910.2508011,49
1660219544.05952,1538910.2508031,44
1660219544.0725,1538910.2508051,26
1660219544.0725,1538910.2508071,16
1660219544.0725,1538910.2508091,23
1660219544.0725,1538910.2508111,28
1660219544.0725,1538910.2508133,42
1660219544.0725,1538910.2508158,78
1660219544.0725,1538910.2508178,85
1660219544.0725,1538910.2508198,78
1660219544.0725,1538910.2508218,115
1660219544.0725,1538910.2508238,167
1660219544.0725,1538910.2508259,174
1660219544.0725,1538910.2508279,163
1660219544.0725,1538910.786448,186
1660219544.0725,1538910.7864673,217
1660219544.0725,1538910.7864786,215
1660219544.0725,1538910.7864867,200
1660219544.0725,1538910.7864926,198
1660219544.0725,1538910.7865025,212
1660219544.0725,1538910.7865101,219
1660219544.0725,1538910.7865166,198
1660219544.0725,1538910.7865197,186
1660219544.0725,1538910.7865256,196
1660219544.0725,1538910.7865287,186
1660219544.0725,1538910.7865316,158
1660219544.59652,1538910.7865362,127
1660219544.59652,1538910.7865414,101
1660219544.59652,1538910.7865466,85
1660219544.59652,1538910.7865508,73
1660219544.59652,1538910.7865548,87
1660219544.59652,1538910.7865578,120
1660219544.59652,1538910.7865613,122
1660219544.59652,1538910.7865645,85
1660219544.59652,1538910.7865719,44
1660219544.59652,1538910.7865758,33
1660219544.59652,1538910.7865832,18
1660219544.59652,1538910.7865889,-7
1660219544.59652,1538910.7865926,14
1660219544.59652,1538910.786596,66
1660219544.59652,1538910.7865995,73
1660219544.59652,1538910.7866067,59
1660219544.59652,1538910.7866105,56
1660219544.59652,1538910.7866156,54
1660219544.59652,1538910.786619,44
1660219544.59652,1538910.7866235,40
1660219544.59652,1538910.7866274,59
1660219544.59652,1538910.7866311,80
1660219544.59652,1538910.7866354,80
1660219544.59652,1538910.7866384,87
1660219544.59652,1538910.7866414,111
1660219544.59652,1538910.7866443,66
1660219544.59652,1538910.7866475,-163
1660219544.59652,1538910.7866508,-498
1660219544.59652,1538910.7866541,-510
1660219544.59652,1538910.7866572,-68
1660219544.59652,1538910.7866606,286
1660219544.59652,1538910.786664,278
1660219544.59652,1538910.786667,160
1660219544.59652,1538910.78667,108
1660219544.59652,1538910.786673,96
1660219544.59652,1538910.786676,82
1660219544.59652,1538910.7866791,75
1660219544.59652,1538910.7866823,85
1660219544.59652,1538910.7866856,87
1660219544.59652,1538910.7866914,80
1660219544.59652,1538910.786697,82
1660219544.59652,1538910.7867007,85
1660219544.59652,1538910.786704,73
1660219544.59652,1538910.78671,61
1660219544.59652,1538910.7867168,66
1660219544.59652,1538910.78672,70
1660219544.59652,1538910.7867277,52
1660219544.59652,1538910.7867329,40
1660219544.59652,1538910.7867383,40
1660219544.59652,1538910.7867443,37
1660219544.60849,1538910.7867532,47
1660219544.60849,1538910.7867603,26
1660219544.60849,1538910.7867644,-2
1660219544.60849,1538910.786768,23
1660219544.60849,1538910.786771,42
1660219544.60849,1538910.7867739,26
1660219544.60849,1538910.7867767,42
1660219544.60849,1538910.7867808,85
1660219544.60849,1538910.7867876,104
1660219544.60849,1538910.7867907,111
1660219544.60849,1538910.7867937,122
1660219544.60849,1538911.3244666,151
1660219544.60849,1538911.3244851,167
1660219544.60849,1538911.3244963,158
1660219544.60849,1538911.3245045,163
1660219544.60849,1538911.3245115,172
1660219544.60849,1538911.32452,156
1660219544.60849,1538911.3245257,139
1660219544.60849,1538911.3245337,146
1660219544.60849,1538911.3245428,153
1660219544.60849,1538911.3245496,134
1660219544.60849,1538911.3245583,108
1660219544.60849,1538911.3245671,104
1660219544.60849,1538911.3245742,106
1660219545.18128,1538911.3245828,108
1660219545.18128,1538911.324589,122
1660219545.18128,1538911.3245946,113
1660219545.18128,1538911.3245999,75
1660219545.18128,1538911.3246465,61
1660219545.18128,1538911.3246563,70
1660219545.18128,1538911.3246599,68
1660219545.18128,1538911.3246633,73
1660219545.18128,1538911.3246788,89
1660219545.18128,1538911.324697,82
1660219545.18128,1538911.3247121,54
1660219545.18128,1538911.3247208,49
1660219545.18128,1538911.3247329,70
1660219545.18128,1538911.324742,96
1660219545.18128,1538911.3247496,118
1660219545.18128,1538911.3247527,134
1660219545.18128,1538911.3247577,134
1660219545.18128,1538911.3247637,120
1660219545.18128,1538911.3247667,130
1660219545.18128,1538911.3247698,139
1660219545.18128,1538911.3247728,134
1660219545.18128,1538911.3247756,134
1660219545.18128,1538911.3247785,122
1660219545.18128,1538911.3247814,125
1660219545.18128,1538911.3247843,163
1660219545.18128,1538911.3247872,94
1660219545.18128,1538911.3247901,-191
1660219545.18128,1538911.324793,-482
1660219545.18128,1538911.3247958,-373
1660219545.18128,1538911.3247987,66
1660219545.18128,1538911.3248016,321
1660219545.18128,1538911.3248045,271
1660219545.18128,1538911.3248074,163
1660219545.18128,1538911.3248103,120
1660219545.18128,1538911.3248131,106
1660219545.18128,1538911.3248161,89
1660219545.18128,1538911.3248189,89
1660219545.18128,1538911.3248217,85

1660219545.18128,1538911.3248245,66
1660219545.18128,1538911.3248273,61
1660219545.18128,1538911.3248302,56
1660219545.18128,1538911.3248331,56
1660219545.18128,1538911.3248359,70
1660219545.18128,1538911.3248388,73
1660219545.18128,1538911.3248417,56
1660219545.18128,1538911.3248445,44
1660219545.18128,1538911.3248473,47
1660219545.18128,1538911.3248501,33
1660219545.18128,1538911.324853,2
1660219545.18128,1538911.3248558,-23
1660219545.19524,1538911.3248587,-23
1660219545.19524,1538911.3248615,-21
1660219545.19524,1538911.3248643,-21
1660219545.19524,1538911.3248671,-2
1660219545.19524,1538911.32487,11
1660219545.19524,1538911.3248729,-4
1660219545.19524,1538911.3248758,-14
1660219545.19524,1538911.3248786,4
1660219545.19524,1538911.3248815,26
1660219545.19524,1538911.3248845,49
1660219545.19524,1538911.9083435,75
1660219545.19524,1538911.9083653,96
1660219545.19524,1538911.9083797,115
1660219545.19524,1538911.9083858,127
1660219545.19524,1538911.9083906,127
1660219545.19524,1538911.9083974,134
1660219545.19524,1538911.9084041,125
1660219545.19524,1538911.9084109,82
1660219545.19524,1538911.9084176,82
1660219545.19524,1538911.9084245,118
1660219545.19524,1538911.9084296,108
1660219545.19524,1538911.9084348,92
1660219545.19524,1538911.9084391,94
1660219545.19524,1538911.9084437,73
1660219545.77455,1538911.9084484,68
1660219545.77455,1538911.9084529,94
1660219545.77455,1538911.9084611,89
1660219545.77455,1538911.9084678,80
1660219545.77455,1538911.9084789,96
1660219545.77455,1538911.9084896,80
1660219545.77455,1538911.9085023,35
1660219545.77455,1538911.9085156,18
1660219545.77455,1538911.9085256,28
1660219545.77455,1538911.9085336,26
1660219545.77455,1538911.9085407,18
1660219545.77455,1538911.9085431,37
1660219545.77455,1538911.9085452,70
1660219545.77455,1538911.9085471,85
1660219545.77455,1538911.9085491,85
1660219545.77455,1538911.9085512,104
1660219545.77455,1538911.9085531,130
1660219545.77455,1538911.9085551,127
1660219545.77455,1538911.9085571,115
1660219545.77455,1538911.9085597,120
1660219545.77455,1538911.9085684,130
1660219545.77455,1538911.9085795,137
1660219545.77455,1538911.9085874,156
1660219545.77455,1538911.9086003,179
1660219545.77455,1538911.9086088,146
1660219545.77455,1538911.9086173,-59
1660219545.77455,1538911.908627,-399
1660219545.77455,1538911.9086352,-475
1660219545.77455,1538911.9086436,-75
1660219545.77455,1538911.9086528,342
1660219545.77455,1538911.9086612,397
1660219545.77455,1538911.9086695,248
1660219545.77455,1538911.9086787,156
1660219545.77455,1538911.9086885,132
1660219545.77455,1538911.9086978,108
1660219545.77455,1538911.9087091,101
1660219545.77455,1538911.9087174,87
1660219545.77455,1538911.9087292,75
1660219545.77455,1538911.90874,75
1660219545.77455,1538911.9087487,49
1660219545.77455,1538911.90876,30
1660219545.77455,1538911.908769,37
1660219545.77455,1538911.9087772,21
1660219545.77455,1538911.9087889,2
1660219545.77455,1538911.9088032,7
1660219545.77455,1538911.9088164,-2
1660219545.77455,1538911.9088298,-16
1660219545.77455,1538911.9088429,-30
1660219545.77455,1538911.9088557,-66
1660219545.77455,1538911.9088679,-78
1660219545.78468,1538911.9088772,-66
1660219545.78468,1538911.908886,-75
1660219545.78468,1538911.9088973,-80
1660219545.78468,1538911.9089062,-68
1660219545.78468,1538911.908917,-59
1660219545.78468,1538911.9089278,-35
1660219545.78468,1538911.908936,-4
1660219545.78468,1538911.9089408,7
1660219545.78468,1538911.908947,30
1660219545.78468,1538912.4933908,73
1660219545.78468,1538912.4934107,94
1660219545.78468,1538912.4934234,101
1660219545.78468,1538912.4934325,101
1660219545.78468,1538912.4934449,80
1660219545.78468,1538912.4934585,80
1660219545.78468,1538912.4934727,99
1660219545.78468,1538912.4934856,111
1660219545.78468,1538912.4934985,111
1660219545.78468,1538912.4935071,85
1660219545.78468,1538912.4935095,47
1660219545.78468,1538912.4935116,47
1660219545.78468,1538912.4935136,49
1660219545.78468,1538912.4935157,37
1660219545.78468,1538912.4935177,40
1660219546.30773,1538912.4935197,52
1660219546.30773,1538912.4935217,59
1660219546.30773,1538912.4935236,66
1660219546.30773,1538912.4935255,68
1660219546.30773,1538912.4935274,68
1660219546.30773,1538912.4935293,75
1660219546.30773,1538912.4935312,68
1660219546.30773,1538912.493533,44
1660219546.30773,1538912.4935382,35
1660219546.30773,1538912.4935464,54
1660219546.30773,1538912.4935531,73
1660219546.30773,1538912.4935589,82
1660219546.30773,1538912.4935657,99
1660219546.30773,1538912.4935744,111
1660219546.30773,1538912.4935878,122
1660219546.30773,1538912.4936009,134
1660219546.30773,1538912.4936139,134
1660219546.30773,1538912.4936272,132
1660219546.30773,1538912.4936406,132
1660219546.30773,1538912.4936538,127
1660219546.30773,1538912.4936673,141
1660219546.30773,1538912.4936784,179
1660219546.30773,1538912.4936859,196
1660219546.30773,1538912.4936908,111
1660219546.30773,1538912.4936962,-179
1660219546.30773,1538912.4937055,-534
1660219546.30773,1538912.4937131,-475
1660219546.30773,1538912.493718,49
1660219546.30773,1538912.4937286,425
1660219546.30773,1538912.4937399,378
1660219546.30773,1538912.4937488,234
1660219546.30773,1538912.4937548,191
1660219546.30773,1538912.4937672,167
1660219546.30773,1538912.4937783,120
1660219546.30773,1538912.4937862,106
1660219546.30773,1538912.4937935,120
1660219546.30773,1538912.4937987,120
1660219546.30773,1538912.4938027,106
1660219546.30773,1538912.4938089,80
1660219546.30773,1538912.4938123,54
1660219546.30773,1538912.493818,30
1660219546.30773,1538912.4938214,4
1660219546.30773,1538912.4938271,-7
1660219546.30773,1538912.493831,-18
1660219546.30773,1538912.4938387,-35
1660219546.30773,1538912.4938465,-37
1660219546.30773,1538912.4938533,-44
1660219546.30773,1538912.4938697,-75
1660219546.30773,1538912.4938735,-80
1660219546.30773,1538912.4938777,-70
1660219546.31969,1538912.4938847,-94
1660219546.31969,1538912.4938906,-106
1660219546.31969,1538912.4938936,-59
1660219546.31969,1538912.4938965,-33
1660219546.31969,1538912.4938995,-47
1660219546.31969,1538912.4939023,-16
1660219546.31969,1538912.4939052,37
1660219546.31969,1538912.493908,59
1660219546.31969,1538913.0292869,73
1660219546.31969,1538913.0293074,111
1660219546.31969,1538913.0293219,132
1660219546.31969,1538913.0293361,115
1660219546.31969,1538913.0293495,113
1660219546.31969,1538913.0293628,137
1660219546.31969,1538913.0293759,148
1660219546.31969,1538913.0293844,139
1660219546.31969,1538913.0293869,122
1660219546.31969,1538913.029389,115
1660219546.31969,1538913.0293911,122
1660219546.31969,1538913.0293931,127
1660219546.31969,1538913.029395,108
1660219546.31969,1538913.029397,78
1660219546.31969,1538913.029399,75
1660219546.31969,1538913.0294011,94
1660219546.84805,1538913.0294032,96
1660219546.84805,1538913.0294052,94
1660219546.84805,1538913.0294071,85
1660219546.84805,1538913.029409,52
1660219546.84805,1538913.0294119,21
1660219546.84805,1538913.0294139,16
1660219546.84805,1538913.0294158,33
1660219546.84805,1538913.0294177,52
1660219546.84805,1538913.0294196,47
1660219546.84805,1538913.0294215,47
1660219546.84805,1538913.0294234,63
1660219546.84805,1538913.0294253,70
1660219546.84805,1538913.0294272,80
1660219546.84805,1538913.0294301,101
1660219546.84805,1538913.0294386,113
1660219546.84805,1538913.029444,113
1660219546.84805,1538913.0294493,118
1660219546.84805,1538913.0294571,130
1660219546.84805,1538913.0294638,122
1660219546.84805,1538913.0294663,120
1660219546.84805,1538913.0294684,156
1660219546.84805,1538913.0294711,170
1660219546.84805,1538913.0294792,9
1660219546.84805,1538913.029487,-368
1660219546.84805,1538913.0294913,-621
1660219546.84805,1538913.0294991,-342
1660219546.84805,1538913.029511,203
1660219546.84805,1538913.029522,418
1660219546.84805,1538913.0295367,286
1660219546.84805,1538913.0295472,184
1660219546.84805,1538913.0295529,174
1660219546.84805,1538913.0295595,132
1660219546.84805,1538913.029567,101
1660219546.84805,1538913.0295719,125
1660219546.84805,1538913.029581,118
1660219546.84805,1538913.0295887,85
1660219546.84805,1538913.0295973,92
1660219546.84805,1538913.0296029,99
1660219546.84805,1538913.0296071,85
1660219546.84805,1538913.0296092,78
1660219546.84805,1538913.0296124,63
1660219546.84805,1538913.0296145,37
1660219546.84805,1538913.0296203,26
1660219546.84805,1538913.0296312,16
1660219546.84805,1538913.0296364,0
1660219546.84805,1538913.0296386,-14
1660219546.84805,1538913.0296408,-47
1660219546.84805,1538913.0296432,-80
1660219546.84805,1538913.029653,-68
1660219546.84805,1538913.0296616,-54
1660219546.86102,1538913.0296642,-75
1660219546.86102,1538913.0296663,-89
1660219546.86102,1538913.0296737,-70
1660219546.86102,1538913.0296842,-42
1660219546.86102,1538913.0296876,-16
1660219546.86102,1538913.0296965,14
1660219546.86102,1538913.0297048,59
1660219546.86102,1538913.5669102,92
1660219546.86102,1538913.5669353,94
1660219546.86102,1538913.566945,92
1660219546.86102,1538913.5669493,101
1660219546.86102,1538913.5669535,113
1660219546.86102,1538913.5669578,134
1660219546.86102,1538913.566962,146
1660219546.86102,1538913.5669663,127
1660219546.86102,1538913.5669734,120
1660219546.86102,1538913.5671359,111
1660219546.86102,1538913.567149,80
1660219546.86102,1538913.5671544,78
1660219546.86102,1538913.5671628,101
1660219546.86102,1538913.5672837,94
1660219546.86102,1538913.5672939,85
1660219546.86102,1538913.5672982,75
1660219546.86102,1538913.5673032,52
1660219547.42518,1538913.5673075,47
1660219547.42518,1538913.5673122,52
1660219547.42518,1538913.5673161,61
1660219547.42518,1538913.5673202,80
1660219547.42518,1538913.5673248,78
1660219547.42518,1538913.5673287,54
1660219547.42518,1538913.5673331,56
1660219547.42518,1538913.5673371,68
1660219547.42518,1538913.5673414,49
1660219547.42518,1538913.5673459,28
1660219547.42518,1538913.5673515,42
1660219547.42518,1538913.5673579,59
1660219547.42518,1538913.5673634,66
1660219547.42518,1538913.5673675,78
1660219547.42518,1538913.5673713,87
1660219547.42518,1538913.567375,101
1660219547.42518,1538913.5673788,125
1660219547.42518,1538913.5673828,134
1660219547.42518,1538913.5673867,130
1660219547.42518,1538913.5673904,125
1660219547.42518,1538913.5673942,118
1660219547.42518,1538913.5673978,125
1660219547.42518,1538913.5674018,158
1660219547.42518,1538913.5674066,167
1660219547.42518,1538913.5674105,2
1660219547.42518,1538913.5674147,-380
1660219547.42518,1538913.5674187,-617
1660219547.42518,1538913.5674226,-326
1660219547.42518,1538913.5674268,196
1660219547.42518,1538913.5674309,390
1660219547.42518,1538913.5674351,269
1660219547.42518,1538913.5674392,177
1660219547.42518,1538913.5674436,172
1660219547.42518,1538913.5674479,158
1660219547.42518,1538913.5674524,141
1660219547.42518,1538913.5674568,137
1660219547.42518,1538913.5674616,137
1660219547.42518,1538913.5674658,144
1660219547.42518,1538913.5674698,134
1660219547.42518,1538913.567474,111
1660219547.42518,1538913.567478,99
1660219547.42518,1538913.567482,92
1660219547.42518,1538913.5674859,73
1660219547.42518,1538913.5674902,63
1660219547.42518,1538913.5674948,49
1660219547.42518,1538913.5674993,11
1660219547.42518,1538913.5675039,-7
1660219547.42518,1538913.5675086,-7
1660219547.42518,1538913.5675132,-28
1660219547.42518,1538913.5675178,-66
1660219547.43715,1538913.5675223,-87
1660219547.43715,1538913.5675272,-75
1660219547.43715,1538913.5675318,-61
1660219547.43715,1538913.5675358,-56
1660219547.43715,1538913.5675396,-44
1660219547.43715,1538913.5675437,-21
1660219547.43715,1538914.1529707,2
1660219547.43715,1538914.1529912,28
1660219547.43715,1538914.1530005,61
1660219547.43715,1538914.1530095,92
1660219547.43715,1538914.1530186,115
1660219547.43715,1538914.1530302,118
1660219547.43715,1538914.1530403,96
1660219547.43715,1538914.1530479,73
1660219547.43715,1538914.1530543,75
1660219547.43715,1538914.1530591,96
1660219547.43715,1538914.1530652,115
1660219547.43715,1538914.15307,106
1660219547.43715,1538914.1530762,75
1660219547.43715,1538914.1530808,44
1660219547.43715,1538914.1530877,52
1660219547.43715,1538914.1530923,85
1660219547.43715,1538914.1530998,87
1660219547.43715,1538914.1531069,59
1660219548.01511,1538914.1531156,30
1660219548.01511,1538914.1531221,18
1660219548.01511,1538914.1531268,35
1660219548.01511,1538914.153132,61
1660219548.01511,1538914.1531373,66
1660219548.01511,1538914.1531418,63
1660219548.01511,1538914.1531464,63
1660219548.01511,1538914.1531506,54
1660219548.01511,1538914.1531551,66
1660219548.01511,1538914.15316,92
1660219548.01511,1538914.1531647,94
1660219548.01511,1538914.1531707,92
1660219548.01511,1538914.1531762,82
1660219548.01511,1538914.1531843,52
1660219548.01511,1538914.1531921,49
1660219548.01511,1538914.1531976,66
1660219548.01511,1538914.1532035,52
1660219548.01511,1538914.1532104,35
1660219548.01511,1538914.1532202,47
1660219548.01511,1538914.1532254,66
1660219548.01511,1538914.1532333,78
1660219548.01511,1538914.1532407,101
1660219548.01511,1538914.1532464,120
1660219548.01511,1538914.1532528,118
1660219548.01511,1538914.1532559,122
1660219548.01511,1538914.1532588,148
1660219548.01511,1538914.1532618,156
1660219548.01511,1538914.1532647,134
1660219548.01511,1538914.15327,137
1660219548.01511,1538914.153276,165
1660219548.01511,1538914.1532792,203
1660219548.01511,1538914.1532845,193
1660219548.01511,1538914.1532885,-2
1660219548.01511,1538914.1532931,-366
1660219548.01511,1538914.1532967,-517
1660219548.01511,1538914.1532997,-198
1660219548.01511,1538914.1533026,250
1660219548.01511,1538914.1533055,390
1660219548.01511,1538914.1533085,276
1660219548.01511,1538914.1533114,189
1660219548.01511,1538914.1533145,179
1660219548.01511,1538914.1533214,165
1660219548.01511,1538914.1533246,141
1660219548.01511,1538914.1533277,144
1660219548.01511,1538914.1533308,148
1660219548.01511,1538914.1533341,125
1660219548.01511,1538914.1533372,106
1660219548.01511,1538914.1533408,111
1660219548.01511,1538914.1533447,96
1660219548.01511,1538914.1533506,73
1660219548.02902,1538914.1533558,73
1660219548.02902,1538914.1533617,63
1660219548.02902,1538914.1533647,35
1660219548.02902,1538914.1533676,26
1660219548.02902,1538914.1533705,21
1660219548.02902,1538914.7368132,4
1660219548.02902,1538914.7368351,-7
1660219548.02902,1538914.73685,-16
1660219548.02902,1538914.7368647,-33
1660219548.02902,1538914.7368793,-35
1660219548.02902,1538914.7368928,-30
1660219548.02902,1538914.7369064,-26
1660219548.02902,1538914.7369195,-14
1660219548.02902,1538914.7369328,-9
1660219548.02902,1538914.7369459,-11
1660219548.02902,1538914.7369584,2
1660219548.02902,1538914.7369711,18
1660219548.02902,1538914.7369801,33
1660219548.02902,1538914.7369849,68
1660219548.02902,1538914.7369912,101
1660219548.02902,1538914.7369952,94
1660219548.02902,1538914.7369993,78
1660219548.02902,1538914.7370035,82
1660219548.02902,1538914.7370078,94
1660219548.64552,1538914.7370139,101
1660219548.64552,1538914.737018,106
1660219548.64552,1538914.7370221,101
1660219548.64552,1538914.7370271,85
1660219548.64552,1538914.7370335,63
1660219548.64552,1538914.7370421,44
1660219548.64552,1538914.7370484,47
1660219548.64552,1538914.7370527,56
1660219548.64552,1538914.7370591,63
1660219548.64552,1538914.737064,75
1660219548.64552,1538914.7370695,68
1660219548.64552,1538914.7370746,54
1660219548.64552,1538914.7370805,70
1660219548.64552,1538914.7370857,94
1660219548.64552,1538914.7370926,99
1660219548.64552,1538914.7370977,92
1660219548.64552,1538914.7371054,101
1660219548.64552,1538914.7371159,120
1660219548.64552,1538914.7371191,111
1660219548.64552,1538914.737122,87
1660219548.64552,1538914.7371318,104
1660219548.64552,1538914.7371408,118
1660219548.64552,1538914.7371538,96
1660219548.64552,1538914.7371622,85
1660219548.64552,1538914.7371646,104
1660219548.64552,1538914.7371668,111
1660219548.64552,1538914.7371687,111
1660219548.64552,1538914.7371708,113
1660219548.64552,1538914.7371736,85
1660219548.64552,1538914.7371756,49
1660219548.64552,1538914.7371776,75
1660219548.64552,1538914.7371799,120
1660219548.64552,1538914.737182,130
1660219548.64552,1538914.737184,130
1660219548.64552,1538914.7371861,137
1660219548.64552,1538914.7371881,151
1660219548.64552,1538914.73719,172
1660219548.64552,1538914.7371921,167
1660219548.64552,1538914.7371942,153
1660219548.64552,1538914.7371962,153
1660219548.64552,1538914.7371981,151
1660219548.64552,1538914.7372002,148
1660219548.64552,1538914.7372021,179
1660219548.64552,1538914.7372042,193
1660219548.64552,1538914.7372062,47
1660219548.64552,1538914.7372084,-295
1660219548.64552,1538914.7372104,-529
1660219548.64552,1538914.7372149,-297
1660219548.64552,1538914.7372171,156
1660219548.64552,1538914.7372205,333
1660219548.65649,1538914.7372284,229
1660219548.65649,1538914.7372333,137
1660219548.65649,1538914.7372391,130
1660219548.65649,1538914.7372448,115
1660219548.65649,1538915.3703833,92
1660219548.65649,1538915.3704023,82
1660219548.65649,1538915.3704116,75
1660219548.65649,1538915.3704173,68
1660219548.65649,1538915.3704244,70
1660219548.65649,1538915.3704301,68
1660219548.65649,1538915.3704363,59
1660219548.65649,1538915.370441,54
1660219548.65649,1538915.3704473,44
1660219548.65649,1538915.3704521,40
1660219548.65649,1538915.3704629,47
1660219548.65649,1538915.3704684,35
1660219548.65649,1538915.3704754,-9
1660219548.65649,1538915.3704807,-49
1660219548.65649,1538915.3704923,-61
1660219548.65649,1538915.3705016,-78
1660219548.65649,1538915.3705098,-101
1660219548.65649,1538915.3705164,-113
1660219548.65649,1538915.3705252,-120
1660219548.65649,1538915.370532,-137
1660219549.14355,1538915.3705387,-132
1660219549.14355,1538915.3705452,-106
1660219549.14355,1538915.3705502,-73
1660219549.14355,1538915.3705539,-28
1660219549.14355,1538915.3705597,7
1660219549.14355,1538915.3705662,21
1660219549.14355,1538915.3705727,42
1660219549.14355,1538915.370578,68
1660219549.14355,1538915.3705843,78
1660219549.14355,1538915.3705924,94
1660219549.14355,1538915.3705981,113
1660219549.14355,1538915.370603,104
1660219549.14355,1538915.3706077,92
1660219549.14355,1538915.3706596,104
1660219549.14355,1538915.3706705,113
1660219549.14355,1538915.3706763,115
1660219549.14355,1538915.3706813,108
1660219549.14355,1538915.370686,99
1660219549.14355,1538915.3706904,115
1660219549.14355,1538915.3706947,139
1660219549.14355,1538915.3706994,132
1660219549.14355,1538915.3707036,115
1660219549.14355,1538915.3707078,125
1660219549.14355,1538915.3707123,144
1660219549.14355,1538915.3707181,141
1660219549.14355,1538915.3707221,144
1660219549.14355,1538915.3707261,148
1660219549.14355,1538915.3707305,139
1660219549.14355,1538915.3707348,134
1660219549.14355,1538915.3707394,146
1660219549.14355,1538915.3707458,153
1660219549.14355,1538915.37075,144
1660219549.14355,1538915.3707554,146
1660219549.14355,1538915.3707592,156
1660219549.14355,1538915.3707647,146
1660219549.14355,1538915.3707697,146
1660219549.14355,1538915.3707732,165
1660219549.14355,1538915.3707779,146
1660219549.14355,1538915.3707831,101
1660219549.14355,1538915.3707877,80
1660219549.14355,1538915.3707914,92
1660219549.14355,1538915.3707962,113
1660219549.14355,1538915.3707998,127
1660219549.14355,1538915.3708058,120
1660219549.14355,1538915.3708109,106
1660219549.14355,1538915.3708143,111
1660219549.14355,1538915.3708178,120
1660219549.14355,1538915.3708231,113
1660219549.14355,1538915.3708277,106
1660219549.14355,1538915.370831,89
1660219549.15452,1538915.3708346,63
1660219549.15452,1538915.370838,85
1660219549.15452,1538915.3708416,148
1660219549.15452,1538915.8590707,85
1660219549.15452,1538915.8590874,-238
1660219549.15452,1538915.8590921,-617
1660219549.15452,1538915.8590978,-569
1660219549.15452,1538915.8591013,-56
1660219549.15452,1538915.8591046,345
1660219549.15452,1538915.8591088,333
1660219549.15452,1538915.8591124,191
1660219549.15452,1538915.8591157,115
1660219549.15452,1538915.8591192,49
1660219549.15452,1538915.8591226,4
1660219549.15452,1538915.8591272,11
1660219549.15452,1538915.8591303,14
1660219549.15452,1538915.8591334,9
1660219549.15452,1538915.8591366,21
1660219549.15452,1538915.8591398,21
1660219549.15452,1538915.8591431,9
1660219549.15452,1538915.8591466,0
1660219549.15452,1538915.85915,2
1660219549.15452,1538915.8591534,18
1660219549.15452,1538915.8591566,21
1660219549.72386,1538915.85916,7
1660219549.72386,1538915.8591635,-18
1660219549.72386,1538915.8591669,-54
1660219549.72386,1538915.8591711,-78
1660219549.72386,1538915.8591744,-63
1660219549.72386,1538915.8591776,-59
1660219549.72386,1538915.8591809,-92
1660219549.72386,1538915.8591843,-115
1660219549.72386,1538915.859188,-113
1660219549.72386,1538915.8591919,-89
1660219549.72386,1538915.8591952,-59
1660219549.72386,1538915.8591988,-42
1660219549.72386,1538915.8592022,-14
1660219549.72386,1538915.8592056,33
1660219549.72386,1538915.859209,61
1660219549.72386,1538915.8592124,82
1660219549.72386,1538915.8592159,108
1660219549.72386,1538915.8592196,130
1660219549.72386,1538915.8592256,141
1660219549.72386,1538915.8592303,148
1660219549.72386,1538915.8592336,153
1660219549.72386,1538915.8592372,151
1660219549.72386,1538915.8592431,151
1660219549.72386,1538915.8592484,148
1660219549.72386,1538915.8592536,134
1660219549.72386,1538915.8592571,132
1660219549.72386,1538915.8592618,141
1660219549.72386,1538915.8592668,144
1660219549.72386,1538915.8592713,153
1660219549.72386,1538915.8592748,163
1660219549.72386,1538915.8592785,153
1660219549.72386,1538915.8592823,141
1660219549.72386,1538915.8592877,141
1660219549.72386,1538915.8592913,139
1660219549.72386,1538915.8592963,137
1660219549.72386,1538915.8593,139
1660219549.72386,1538915.8593057,141
1660219549.72386,1538915.8593101,134
1660219549.72386,1538915.8593153,130
1660219549.72386,1538915.8593189,125
1660219549.72386,1538915.8593237,120
1660219549.72386,1538915.859328,132
1660219549.72386,1538915.859333,125
1660219549.72386,1538915.8593364,94
1660219549.72386,1538915.8593412,96
1660219549.72386,1538915.859345,92
1660219549.72386,1538915.8593499,47
1660219549.72386,1538915.8593532,18
1660219549.72386,1538915.8593583,28
1660219549.72386,1538915.8593633,47
1660219549.73583,1538915.8593686,56
1660219549.73583,1538915.8593724,54
1660219549.73583,1538916.4420927,63
1660219549.73583,1538916.4421163,82
1660219549.73583,1538916.4421253,56
1660219549.73583,1538916.442137,18
1660219549.73583,1538916.4421498,33
1660219549.73583,1538916.4421652,63
1660219549.73583,1538916.4421783,61
1660219549.73583,1538916.4421916,85
1660219549.73583,1538916.4422048,134
1660219549.73583,1538916.4422182,52
1660219549.73583,1538916.4422313,-274
1660219549.73583,1538916.4422445,-628
1660219549.73583,1538916.442259,-576
1660219549.73583,1538916.4422722,-92
1660219549.73583,1538916.4422853,264
1660219549.73583,1538916.4422998,212
1660219549.73583,1538916.442313,70
1660219549.73583,1538916.4423261,66
1660219549.73583,1538916.4423406,75
1660219549.73583,1538916.4423537,28
1660219549.73583,1538916.4423622,7
1660219549.73583,1538916.4423647,23
1660219550.25084,1538916.4423668,26
1660219550.25084,1538916.4423687,23
1660219550.25084,1538916.4423707,26
1660219550.25084,1538916.4423727,-2
1660219550.25084,1538916.4423746,-23
1660219550.25084,1538916.4423788,-18
1660219550.25084,1538916.4423831,-23
1660219550.25084,1538916.4423872,-26
1660219550.25084,1538916.4423914,-28
1660219550.25084,1538916.4423955,-44
1660219550.25084,1538916.4424001,-59
1660219550.25084,1538916.4424041,-49
1660219550.25084,1538916.4424088,-47
1660219550.25084,1538916.4424154,-75
1660219550.25084,1538916.4424217,-85
1660219550.25084,1538916.4424328,-63
1660219550.25084,1538916.4424439,-68
1660219550.25084,1538916.4424583,-59
1660219550.25084,1538916.4424714,-7
1660219550.25084,1538916.4424799,21
1660219550.25084,1538916.4424822,35
1660219550.25084,1538916.4424843,85
1660219550.25084,1538916.4424863,127
1660219550.25084,1538916.4424883,130
1660219550.25084,1538916.442494,134
1660219550.25084,1538916.4425052,141
1660219550.25084,1538916.4425104,144
1660219550.25084,1538916.4425127,160
1660219550.25084,1538916.4425148,174
1660219550.25084,1538916.4425178,163
1660219550.25084,1538916.4425305,146
1660219550.25084,1538916.4425362,148
1660219550.25084,1538916.4425385,174
1660219550.25084,1538916.4425405,196
1660219550.25084,1538916.4425426,172
1660219550.25084,1538916.4425506,146
1660219550.25084,1538916.4425611,144
1660219550.25084,1538916.4425643,141
1660219550.25084,1538916.4425679,139
1660219550.25084,1538916.4425699,160
1660219550.25084,1538916.4425808,165
1660219550.25084,1538916.4426002,134
1660219550.25084,1538916.4426135,104
1660219550.25084,1538916.4426221,99
1660219550.25084,1538916.4426256,111
1660219550.25084,1538916.4426277,89
1660219550.25084,1538916.4426298,49
1660219550.25084,1538916.4426319,54
1660219550.25084,1538916.4426339,66
1660219550.25084,1538916.4426369,52
1660219550.26879,1538916.4426475,52
1660219550.26879,1538916.9780694,52
1660219550.26879,1538916.9780937,47
1660219550.26879,1538916.9781017,63
1660219550.26879,1538916.9781083,80
1660219550.26879,1538916.978122,66
1660219550.26879,1538916.9781304,42
1660219550.26879,1538916.978136,33
1660219550.26879,1538916.9781429,37
1660219550.26879,1538916.9781483,14
1660219550.26879,1538916.9781535,-28
1660219550.26879,1538916.9781575,-23
1660219550.26879,1538916.9781631,14
1660219550.26879,1538916.9781682,16
1660219550.26879,1538916.9781786,7
1660219550.26879,1538916.9781912,21
1660219550.26879,1538916.9782007,26
1660219550.26879,1538916.9782088,11
1660219550.26879,1538916.978218,18
1660219550.26879,1538916.9782239,42
1660219550.26879,1538916.978227,42
1660219550.26879,1538916.9782292,40
1660219550.26879,1538916.9782312,61
1660219550.26879,1538916.9782333,96
1660219550.79115,1538916.9782354,125
1660219550.79115,1538916.9782373,2
1660219550.79115,1538916.9782403,-345
1660219550.79115,1538916.978251,-588
1660219550.79115,1538916.9782566,-364
1660219550.79115,1538916.9782629,111
1660219550.79115,1538916.9782745,323
1660219550.79115,1538916.9782879,234
1660219550.79115,1538916.9782977,146
1660219550.79115,1538916.9783062,137
1660219550.79115,1538916.9783168,130
1660219550.79115,1538916.9783287,122
1660219550.79115,1538916.9783406,125
1660219550.79115,1538916.9783543,108
1660219550.79115,1538916.9783667,82
1660219550.79115,1538916.9783788,89
1660219550.79115,1538916.9783839,108
1660219550.79115,1538916.978386,101
1660219550.79115,1538916.9783882,80
1660219550.79115,1538916.9783906,82
1660219550.79115,1538916.9783927,87
1660219550.79115,1538916.9783947,68
1660219550.79115,1538916.9783969,61
1660219550.79115,1538916.978399,59
1660219550.79115,1538916.9784011,40
1660219550.79115,1538916.9784032,23
1660219550.79115,1538916.9784106,18
1660219550.79115,1538916.9784252,16
1660219550.79115,1538916.9784389,9
1660219550.79115,1538916.9784546,4
1660219550.79115,1538916.9784656,9
1660219550.79115,1538916.978475,28
1660219550.79115,1538916.9784809,49
1660219550.79115,1538916.9784849,70
1660219550.79115,1538916.9784903,96
1660219550.79115,1538916.9784948,127
1660219550.79115,1538916.9785009,160
1660219550.79115,1538916.9785059,174
1660219550.79115,1538916.9785103,158
1660219550.79115,1538916.9785157,141
1660219550.79115,1538916.9785209,144
1660219550.79115,1538916.9785253,165
1660219550.79115,1538916.9785307,179
1660219550.79115,1538916.9785353,163
1660219550.79115,1538916.9785413,144
1660219550.79115,1538916.9785459,130
1660219550.79115,1538916.9785511,108
1660219550.79115,1538916.9785566,99
1660219550.79115,1538916.9785627,106
1660219550.79115,1538916.9785684,99
1660219550.80212,1538917.5145811,75
1660219550.80212,1538917.5145986,66
1660219550.80212,1538917.5146042,73
1660219550.80212,1538917.5146108,89
1660219550.80212,1538917.5146157,106
1660219550.80212,1538917.514622,92
1660219550.80212,1538917.5146263,73
1660219550.80212,1538917.5146322,80
1660219550.80212,1538917.5146363,87
1660219550.80212,1538917.5146404,87
1660219550.80212,1538917.514646,99
1660219550.80212,1538917.5146502,104
1660219550.80212,1538917.5146546,66
1660219550.80212,1538917.5146608,28
1660219550.80212,1538917.514665,44
1660219550.80212,1538917.5146707,68
1660219550.80212,1538917.5146748,61
1660219550.80212,1538917.5146803,61
1660219550.80212,1538917.5146851,56
1660219550.80212,1538917.5146891,33
1660219550.80212,1538917.5146948,28
1660219550.80212,1538917.514699,49
1660219550.80212,1538917.5147031,59
1660219550.80212,1538917.5147087,42
1660219551.32832,1538917.5147128,16
1660219551.32832,1538917.5147169,14
1660219551.32832,1538917.514721,21
1660219551.32832,1538917.5147251,35
1660219551.32832,1538917.5147292,52
1660219551.32832,1538917.5147332,44
1660219551.32832,1538917.5147373,33
1660219551.32832,1538917.514743,42
1660219551.32832,1538917.5147473,61
1660219551.32832,1538917.5147515,82
1660219551.32832,1538917.5147569,113
1660219551.32832,1538917.514761,118
1660219551.32832,1538917.5147654,89
1660219551.32832,1538917.5147712,99
1660219551.32832,1538917.5147752,127
1660219551.32832,1538917.514779,132
1660219551.32832,1538917.5147835,165
1660219551.32832,1538917.514789,132
1660219551.32832,1538917.514793,-134
1660219551.32832,1538917.5147984,-458
1660219551.32832,1538917.5148022,-420
1660219551.32832,1538917.5148077,7
1660219551.32832,1538917.5148115,345
1660219551.32832,1538917.5148154,335
1660219551.32832,1538917.5148194,212
1660219551.32832,1538917.5148247,182
1660219551.32832,1538917.5148293,172
1660219551.32832,1538917.514835,151
1660219551.32832,1538917.5148389,151
1660219551.32832,1538917.5148429,137
1660219551.32832,1538917.5148468,111
1660219551.32832,1538917.5148505,111
1660219551.32832,1538917.5148563,115
1660219551.32832,1538917.5148603,94
1660219551.32832,1538917.5148658,87
1660219551.32832,1538917.5148698,96
1660219551.32832,1538917.5148735,75
1660219551.32832,1538917.5148774,52
1660219551.32832,1538917.514883,59
1660219551.32832,1538917.5148869,52
1660219551.32832,1538917.5148925,33
1660219551.32832,1538917.5148962,30
1660219551.32832,1538917.5148999,30
1660219551.32832,1538917.5149038,11
1660219551.32832,1538917.5149093,0
1660219551.32832,1538917.5149133,2
1660219551.32832,1538917.5149188,0
1660219551.32832,1538917.5149226,0
1660219551.32832,1538917.5149265,16
1660219551.32832,1538918.0504345,35
1660219551.34129,1538918.0504531,44
1660219551.34129,1538918.050459,78
1660219551.34129,1538918.0504624,106
1660219551.34129,1538918.0504676,94
1660219551.34129,1538918.0504736,92
1660219551.34129,1538918.0504797,111
1660219551.34129,1538918.0504839,118
1660219551.34129,1538918.0504903,106
1660219551.34129,1538918.0504954,80
1660219551.34129,1538918.0505002,63
1660219551.34129,1538918.0505064,66
1660219551.34129,1538918.0505125,73
1660219551.34129,1538918.0505187,68
1660219551.34129,1538918.0505255,49
1660219551.34129,1538918.0505295,30
1660219551.34129,1538918.0505331,26
1660219551.34129,1538918.0505367,16
1660219551.34129,1538918.0505404,4
1660219551.34129,1538918.0505441,-4
1660219551.34129,1538918.0505476,0
1660219551.34129,1538918.0505511,18
1660219551.34129,1538918.0505546,16
1660219551.34129,1538918.0505581,14
1660219551.34129,1538918.0505617,33
1660219551.9688,1538918.0505652,33
1660219551.9688,1538918.0505686,30
1660219551.9688,1538918.0505724,42
1660219551.9688,1538918.0505759,35
1660219551.9688,1538918.0505794,33
1660219551.9688,1538918.0505829,59
1660219551.9688,1538918.0505864,75
1660219551.9688,1538918.05059,63
1660219551.9688,1538918.0505936,63
1660219551.9688,1538918.0505971,70
1660219551.9688,1538918.0506005,54
1660219551.9688,1538918.050604,44
1660219551.9688,1538918.0506075,59
1660219551.9688,1538918.0506111,54
1660219551.9688,1538918.0506145,68
1660219551.9688,1538918.0506179,96
1660219551.9688,1538918.0506214,85
1660219551.9688,1538918.0506249,75
1660219551.9688,1538918.0506288,106
1660219551.9688,1538918.0506322,134
1660219551.9688,1538918.0506366,144
1660219551.9688,1538918.0506403,139
1660219551.9688,1538918.0506437,104
1660219551.9688,1538918.0506472,78
1660219551.9688,1538918.0506507,106
1660219551.9688,1538918.0506542,134
1660219551.9688,1538918.0506584,148
1660219551.9688,1538918.0506619,96
1660219551.9688,1538918.0506655,-167
1660219551.9688,1538918.0506692,-482
1660219551.9688,1538918.0506726,-413
1660219551.9688,1538918.0506761,33
1660219551.9688,1538918.0506797,347
1660219551.9688,1538918.0506832,321
1660219551.9688,1538918.0506867,193
1660219551.9688,1538918.0506904,151
1660219551.9688,1538918.0506939,148
1660219551.9688,1538918.0506975,130
1660219551.9688,1538918.0507011,134
1660219551.9688,1538918.0507052,146
1660219551.9688,1538918.0507086,125
1660219551.9688,1538918.0507121,113
1660219551.9688,1538918.0507158,130
1660219551.9688,1538918.0507193,130
1660219551.9688,1538918.0507229,118
1660219551.9688,1538918.0507267,104
1660219551.9688,1538918.0507307,94
1660219551.9688,1538918.0507349,104
1660219551.9688,1538918.6854985,106
1660219551.9688,1538918.6855201,80
1660219551.98875,1538918.685535,61
1660219551.98875,1538918.6855481,61
1660219551.98875,1538918.6855601,56
1660219551.98875,1538918.6855677,18
1660219551.98875,1538918.6855742,-21
1660219551.98875,1538918.6855865,-18
1660219551.98875,1538918.6855922,7
1660219551.98875,1538918.6855965,11
1660219551.98875,1538918.6855987,-7
1660219551.98875,1538918.6856007,-7
1660219551.98875,1538918.6856027,2
1660219551.98875,1538918.6856048,4
1660219551.98875,1538918.685607,35
1660219551.98875,1538918.685609,73
1660219551.98875,1538918.6856111,75
1660219551.98875,1538918.6856131,68
1660219551.98875,1538918.6856153,73
1660219551.98875,1538918.6856226,78
1660219551.98875,1538918.6856336,68
1660219551.98875,1538918.6856382,63
1660219551.98875,1538918.6856404,68
1660219551.98875,1538918.6856424,70
1660219551.98875,1538918.6856445,70
1660219551.98875,1538918.6856465,70
1660219552.55063,1538918.6856491,70
1660219552.55063,1538918.6856596,70
1660219552.55063,1538918.6856657,68
1660219552.55063,1538918.6856681,68
1660219552.55063,1538918.6856702,73
1660219552.55063,1538918.6856776,80
1660219552.55063,1538918.6856875,78
1660219552.55063,1538918.6856943,80
1660219552.55063,1538918.6856972,89
1660219552.55063,1538918.6856993,94
1660219552.55063,1538918.6857014,99
1660219552.55063,1538918.6857034,99
1660219552.55063,1538918.6857054,92
1660219552.55063,1538918.6857074,68
1660219552.55063,1538918.6857095,49
1660219552.55063,1538918.6857115,47
1660219552.55063,1538918.6857135,44
1660219552.55063,1538918.6857155,33
1660219552.55063,1538918.6857175,33
1660219552.55063,1538918.6857196,26
1660219552.55063,1538918.6857216,26
1660219552.55063,1538918.6857236,52
1660219552.55063,1538918.6857257,78
1660219552.55063,1538918.6857277,85
1660219552.55063,1538918.6857297,96
1660219552.55063,1538918.6857317,118
1660219552.55063,1538918.6857337,120
1660219552.55063,1538918.6857357,122
1660219552.55063,1538918.6857377,137
1660219552.55063,1538918.6857398,146
1660219552.55063,1538918.6857418,139
1660219552.55063,1538918.6857449,151
1660219552.55063,1538918.685747,184
1660219552.55063,1538918.685749,134
1660219552.55063,1538918.685751,-118
1660219552.55063,1538918.6857531,-406
1660219552.55063,1538918.6857552,-335
1660219552.55063,1538918.6857572,85
1660219552.55063,1538918.6857592,375
1660219552.55063,1538918.6857612,342
1660219552.55063,1538918.6857631,222
1660219552.55063,1538918.6857655,186
1660219552.55063,1538918.6857675,196
1660219552.55063,1538918.6857696,184
1660219552.55063,1538918.6857716,153
1660219552.55063,1538918.6857737,144
1660219552.55063,1538918.6857757,165
1660219552.55063,1538919.2710288,174
1660219552.55063,1538919.2710485,148
1660219552.55063,1538919.2710584,120
1660219552.5616,1538919.2710668,108
1660219552.5616,1538919.2710748,104
1660219552.5616,1538919.2710809,113
1660219552.5616,1538919.2710876,115
1660219552.5616,1538919.2710921,101
1660219552.5616,1538919.2710976,82
1660219552.5616,1538919.2711013,40
1660219552.5616,1538919.2711062,7
1660219552.5616,1538919.2711098,16
1660219552.5616,1538919.271115,18
1660219552.5616,1538919.2711185,4
1660219552.5616,1538919.2711236,2
1660219552.5616,1538919.2711282,14
1660219552.5616,1538919.2711332,21
1660219552.5616,1538919.2711368,40
1660219552.5616,1538919.2711418,70
1660219552.5616,1538919.2711454,99
1660219552.5616,1538919.2711503,113
1660219552.5616,1538919.271154,108
1660219552.5616,1538919.2711587,96
1660219552.5616,1538919.2711623,99
1660219552.5616,1538919.2711661,113
1660219552.5616,1538919.2711711,120
1660219552.5616,1538919.2711803,113
1660219553.08673,1538919.2711916,104
1660219553.08673,1538919.2712028,78

1660219553.08673,1538919.2712123,40
1660219553.08673,1538919.2712183,35
1660219553.08673,1538919.2712263,44
1660219553.08673,1538919.2712336,21
1660219553.08673,1538919.2712436,-14
1660219553.08673,1538919.2712487,-18
1660219553.08673,1538919.2712531,-9
1660219553.08673,1538919.2712551,-14
1660219553.08673,1538919.2712595,-11
1660219553.08673,1538919.2712713,7
1660219553.08673,1538919.2712833,9
1660219553.08673,1538919.2712936,2
1660219553.08673,1538919.2713062,11
1660219553.08673,1538919.2713139,26
1660219553.08673,1538919.2713163,26
1660219553.08673,1538919.2713227,18
1660219553.08673,1538919.2713353,30
1660219553.08673,1538919.271344,33
1660219553.08673,1538919.2713586,4
1660219553.08673,1538919.2713715,-9
1660219553.08673,1538919.271381,-2
1660219553.08673,1538919.2713905,23
1660219553.08673,1538919.2713967,56
1660219553.08673,1538919.2714042,63
1660219553.08673,1538919.271412,61
1660219553.08673,1538919.2714189,70
1660219553.08673,1538919.2714315,87
1660219553.08673,1538919.271446,99
1660219553.08673,1538919.2714577,104
1660219553.08673,1538919.2714722,106
1660219553.08673,1538919.2714857,108
1660219553.08673,1538919.271499,113
1660219553.08673,1538919.2715125,134
1660219553.08673,1538919.2715262,156
1660219553.08673,1538919.2715396,122
1660219553.08673,1538919.2715538,-54
1660219553.08673,1538919.2715658,-373
1660219553.08673,1538919.2715789,-479
1660219553.08673,1538919.2715917,-122
1660219553.08673,1538919.271602,283
1660219553.08673,1538919.2716133,326
1660219553.08673,1538919.2716263,191
1660219553.08673,1538919.27164,139
1660219553.08673,1538919.2716529,146
1660219553.08673,1538919.8057963,134
1660219553.08673,1538919.8058465,122
1660219553.08673,1538919.8058523,115
1660219553.08673,1538919.8058569,111
1660219553.0987,1538919.8058614,118
1660219553.0987,1538919.8059871,113
1660219553.0987,1538919.8059969,94
1660219553.0987,1538919.806002,82
1660219553.0987,1538919.8060062,87
1660219553.0987,1538919.8060215,92
1660219553.0987,1538919.8060303,80
1660219553.0987,1538919.8060374,59
1660219553.0987,1538919.8060439,42
1660219553.0987,1538919.8060496,26
1660219553.0987,1538919.806056,0
1660219553.0987,1538919.8060606,-7
1660219553.0987,1538919.8060642,4
1660219553.0987,1538919.8060682,7
1660219553.0987,1538919.8060718,-23
1660219553.0987,1538919.8060752,-63
1660219553.0987,1538919.8060793,-68
1660219553.0987,1538919.8060827,-40
1660219553.0987,1538919.806086,-4
1660219553.0987,1538919.8060893,40
1660219553.0987,1538919.8060931,59
1660219553.0987,1538919.8060966,47
1660219553.0987,1538919.8061008,61
1660219553.0987,1538919.8061044,96
1660219553.61733,1538919.8061087,101
1660219553.61733,1538919.8061125,87
1660219553.61733,1538919.8061169,85
1660219553.61733,1538919.8061206,70
1660219553.61733,1538919.806125,42
1660219553.61733,1538919.8061289,40
1660219553.61733,1538919.8061333,54
1660219553.61733,1538919.8061376,49
1660219553.61733,1538919.8061415,30
1660219553.61733,1538919.806146,16
1660219553.61733,1538919.8061507,14
1660219553.61733,1538919.8061553,16
1660219553.61733,1538919.8061597,7
1660219553.61733,1538919.8061635,4
1660219553.61733,1538919.8061678,35
1660219553.61733,1538919.8061718,37
1660219553.61733,1538919.8061767,0
1660219553.61733,1538919.8061812,2
1660219553.61733,1538919.8061882,37
1660219553.61733,1538919.8061919,23
1660219553.61733,1538919.8061963,0
1660219553.61733,1538919.8062,28
1660219553.61733,1538919.8062044,28
1660219553.61733,1538919.8062082,-11
1660219553.61733,1538919.8062127,-9
1660219553.61733,1538919.806217,23
1660219553.61733,1538919.8062209,37
1660219553.61733,1538919.8062255,49
1660219553.61733,1538919.8062296,56
1660219553.61733,1538919.806234,42
1660219553.61733,1538919.8062381,52
1660219553.61733,1538919.8062422,80
1660219553.61733,1538919.8062469,68
1660219553.61733,1538919.8062518,68
1660219553.61733,1538919.8062567,94
1660219553.61733,1538919.8062604,99
1660219553.61733,1538919.806264,118
1660219553.61733,1538919.8062676,134
1660219553.61733,1538919.8062712,42
1660219553.61733,1538919.806275,-231
1660219553.61733,1538919.8062786,-534
1660219553.61733,1538919.8062822,-456
1660219553.61733,1538919.8062873,28
1660219553.61733,1538919.8062955,375
1660219553.61733,1538919.8063007,333
1660219553.61733,1538920.3432443,184
1660219553.61733,1538920.3432676,141
1660219553.61733,1538920.3432771,141
1660219553.61733,1538920.3432808,125
1660219553.61733,1538920.3432859,122
1660219553.6283,1538920.3432901,127
1660219553.6283,1538920.3432951,125
1660219553.6283,1538920.3432986,120
1660219553.6283,1538920.3433048,99
1660219553.6283,1538920.3433101,56
1660219553.6283,1538920.3433134,44
1660219553.6283,1538920.3433168,49
1660219553.6283,1538920.3433203,26
1660219553.6283,1538920.3433258,14
1660219553.6283,1538920.3433292,21
1660219553.6283,1538920.343334,4
1660219553.6283,1538920.3433374,-23
1660219553.6283,1538920.3433407,-37
1660219553.6283,1538920.3433445,-56
1660219553.6283,1538920.3433497,-66
1660219553.6283,1538920.3433552,-66
1660219553.6283,1538920.343361,-104
1660219553.6283,1538920.343367,-134
1660219553.6283,1538920.3433704,-94
1660219553.6283,1538920.3433768,-44
1660219553.6283,1538920.3433809,-35
1660219553.6283,1538920.3433877,0
1660219553.6283,1538920.3433926,56
1660219553.6283,1538920.3433985,68
1660219554.15328,1538920.3434048,70
1660219554.15328,1538920.3434435,104
1660219554.15328,1538920.3434518,134
1660219554.15328,1538920.3434553,134
1660219554.15328,1538920.3434586,132
1660219554.15328,1538920.3434621,134
1660219554.15328,1538920.3434651,139
1660219554.15328,1538920.3434681,141
1660219554.15328,1538920.3434713,137
1660219554.15328,1538920.3434745,130
1660219554.15328,1538920.3434777,141
1660219554.15328,1538920.3434811,160
1660219554.15328,1538920.3434843,160
1660219554.15328,1538920.3434877,148
1660219554.15328,1538920.3434912,134
1660219554.15328,1538920.3434944,127
1660219554.15328,1538920.3434977,130
1660219554.15328,1538920.3435027,134
1660219554.15328,1538920.343508,137
1660219554.15328,1538920.3435147,125
1660219554.15328,1538920.3435187,106
1660219554.15328,1538920.343526,104
1660219554.15328,1538920.3435307,106
1660219554.15328,1538920.343538,87
1660219554.15328,1538920.3435432,44
1660219554.15328,1538920.3435488,30
1660219554.15328,1538920.3435525,54
1660219554.15328,1538920.3435571,63
1660219554.15328,1538920.3435631,52
1660219554.15328,1538920.343568,56
1660219554.15328,1538920.3435716,92
1660219554.15328,1538920.3435754,108
1660219554.15328,1538920.3435806,92
1660219554.15328,1538920.3435864,106
1660219554.15328,1538920.3435899,134
1660219554.15328,1538920.3436046,120
1660219554.15328,1538920.3436091,99
1660219554.15328,1538920.3436154,127
1660219554.15328,1538920.3436189,167
1660219554.15328,1538920.3436225,80
1660219554.15328,1538920.3436274,-236
1660219554.15328,1538920.3436308,-560
1660219554.15328,1538920.3436342,-442
1660219554.15328,1538920.3436374,68
1660219554.15328,1538920.878214,399
1660219554.15328,1538920.8782343,330
1660219554.15328,1538920.8782454,193
1660219554.15328,1538920.8782546,182
1660219554.15328,1538920.8782612,191
1660219554.15328,1538920.8782738,160
1660219554.17323,1538920.8782841,137
1660219554.17323,1538920.8782902,125
1660219554.17323,1538920.8783028,108
1660219554.17323,1538920.878313,89
1660219554.17323,1538920.8783224,75
1660219554.17323,1538920.8783282,61
1660219554.17323,1538920.8783326,21
1660219554.17323,1538920.8783347,-16
1660219554.17323,1538920.8783367,-4
1660219554.17323,1538920.8783387,14
1660219554.17323,1538920.8783408,2
1660219554.17323,1538920.8783429,-28
1660219554.17323,1538920.8783449,-66
1660219554.17323,1538920.8783469,-85
1660219554.17323,1538920.8783494,-94
1660219554.17323,1538920.8783593,-99
1660219554.17323,1538920.8783677,-89
1660219554.17323,1538920.878372,-82
1660219554.17323,1538920.8783742,-87
1660219554.17323,1538920.8783775,-85
1660219554.17323,1538920.8783892,-52
1660219554.17323,1538920.8783983,4
1660219554.17323,1538920.8784056,61
1660219554.17323,1538920.8784103,80
1660219554.73746,1538920.878414,82
1660219554.73746,1538920.8784173,92
1660219554.73746,1538920.8784207,106
1660219554.73746,1538920.8784241,122
1660219554.73746,1538920.8784276,148
1660219554.73746,1538920.8784311,167
1660219554.73746,1538920.8784351,179
1660219554.73746,1538920.8784388,172
1660219554.73746,1538920.8784423,148
1660219554.73746,1538920.8784468,141
1660219554.73746,1538920.8784508,144
1660219554.73746,1538920.8784542,151
1660219554.73746,1538920.8784581,158
1660219554.73746,1538920.8784619,146
1660219554.73746,1538920.8784658,137
1660219554.73746,1538920.8784696,146
1660219554.73746,1538920.8784737,151
1660219554.73746,1538920.8784775,146
1660219554.73746,1538920.8784813,153
1660219554.73746,1538920.878485,174
1660219554.73746,1538920.8784885,165
1660219554.73746,1538920.878492,144
1660219554.73746,1538920.8784956,151
1660219554.73746,1538920.8784992,156
1660219554.73746,1538920.8785027,137
1660219554.73746,1538920.8785067,127
1660219554.73746,1538920.8785107,139
1660219554.73746,1538920.8785145,134
1660219554.73746,1538920.878518,134
1660219554.73746,1538920.8785217,167
1660219554.73746,1538920.8785254,182
1660219554.73746,1538920.8785292,177
1660219554.73746,1538920.878533,172
1660219554.73746,1538920.8785367,170
1660219554.73746,1538920.8785405,167
1660219554.73746,1538920.8785442,165
1660219554.73746,1538920.878548,163
1660219554.73746,1538920.8785518,170
1660219554.73746,1538920.8785567,179
1660219554.73746,1538920.8785604,184
1660219554.73746,1538920.8785641,99
1660219554.73746,1538920.8785678,-210
1660219554.73746,1538920.8785724,-539
1660219554.73746,1538921.4635834,-439
1660219554.73746,1538921.4636086,35
1660219554.73746,1538921.463624,330
1660219554.73746,1538921.4636328,257
1660219554.73746,1538921.463646,115
1660219554.73746,1538921.4636531,89
1660219554.73746,1538921.4636606,96
1660219554.74843,1538921.4636676,85
1660219554.74843,1538921.4636769,73
1660219554.74843,1538921.4636855,40
1660219554.74843,1538921.4636944,4
1660219554.74843,1538921.4637032,9
1660219554.74843,1538921.4637124,26
1660219554.74843,1538921.4637215,23
1660219554.74843,1538921.4637301,9
1660219554.74843,1538921.4637386,-11
1660219554.74843,1538921.4637443,-37
1660219554.74843,1538921.4637477,-47
1660219554.74843,1538921.4637508,-44
1660219554.74843,1538921.4637569,-52
1660219554.74843,1538921.4637601,-66
1660219554.74843,1538921.463763,-66
1660219554.74843,1538921.4637659,-73
1660219554.74843,1538921.4637689,-78
1660219554.74843,1538921.4637719,-66
1660219554.74843,1538921.463775,-63
1660219554.74843,1538921.4637779,-63
1660219554.74843,1538921.4637808,-35
1660219554.74843,1538921.4637837,-2
1660219554.74843,1538921.4637866,9
1660219554.74843,1538921.4637896,37
1660219555.28118,1538921.4637936,73
1660219555.28118,1538921.4638005,89
1660219555.28118,1538921.4638072,108
1660219555.28118,1538921.4638141,127
1660219555.28118,1538921.4638213,125
1660219555.28118,1538921.4638282,132
1660219555.28118,1538921.4638318,156
1660219555.28118,1538921.4638366,148
1660219555.28118,1538921.4638399,146
1660219555.28118,1538921.4638431,165
1660219555.28118,1538921.4638467,156
1660219555.28118,1538921.4638499,139
1660219555.28118,1538921.4638534,156
1660219555.28118,1538921.4638568,179
1660219555.28118,1538921.4638602,172
1660219555.28118,1538921.4638652,158
1660219555.28118,1538921.4638709,141
1660219555.28118,1538921.463878,146
1660219555.28118,1538921.4638897,179
1660219555.28118,1538921.4638955,179
1660219555.28118,1538921.4639085,170
1660219555.28118,1538921.4639213,186
1660219555.28118,1538921.4639352,182
1660219555.28118,1538921.4639471,156
1660219555.28118,1538921.4639514,156
1660219555.28118,1538921.4639535,165
1660219555.28118,1538921.4639573,170
1660219555.28118,1538921.4639594,172
1660219555.28118,1538921.4639615,148
1660219555.28118,1538921.4639636,120
1660219555.28118,1538921.463966,132
1660219555.28118,1538921.4639686,158
1660219555.28118,1538921.4639706,170
1660219555.28118,1538921.4639726,165
1660219555.28118,1538921.4639753,158
1660219555.28118,1538921.463986,174
1660219555.28118,1538921.463999,191
1660219555.28118,1538921.4640106,177
1660219555.28118,1538921.4640255,163
1660219555.28118,1538921.4640396,170
1660219555.28118,1538921.4640544,165
1660219555.28118,1538921.4640678,158
1660219555.28118,1538921.9999104,167
1660219555.28118,1538921.999931,111
1660219555.28118,1538921.9999379,-111
1660219555.28118,1538921.9999447,-390
1660219555.28118,1538921.9999483,-356
1660219555.28118,1538921.999952,37
1660219555.28118,1538921.9999566,304
1660219555.28118,1538921.9999597,236
1660219555.29215,1538921.9999627,111
1660219555.29215,1538921.9999656,82
1660219555.29215,1538921.9999684,78
1660219555.29215,1538921.9999713,49
1660219555.29215,1538921.9999741,18
1660219555.29215,1538921.9999769,9
1660219555.29215,1538921.9999817,14
1660219555.29215,1538921.9999846,11
1660219555.29215,1538921.9999875,9
1660219555.29215,1538921.9999903,7
1660219555.29215,1538921.9999933,-9
1660219555.29215,1538921.9999962,-18
1660219555.29215,1538921.9999991,-9
1660219555.29215,1538922.000002,-4
1660219555.29215,1538922.0000049,-23
1660219555.29215,1538922.0000078,-40
1660219555.29215,1538922.0000106,-37
1660219555.29215,1538922.0000136,-37
1660219555.29215,1538922.0000164,-59
1660219555.29215,1538922.0000193,-70
1660219555.29215,1538922.0000221,-59
1660219555.29215,1538922.000025,-44
1660219555.29215,1538922.0000277,-33
1660219555.29215,1538922.0000306,-14
1660219555.86635,1538922.0000347,2
1660219555.86635,1538922.0000414,18
1660219555.86635,1538922.0000483,44
1660219555.86635,1538922.0000552,80
1660219555.86635,1538922.0000621,101
1660219555.86635,1538922.0000694,113
1660219555.86635,1538922.0000734,130
1660219555.86635,1538922.0000779,146
1660219555.86635,1538922.0000816,148
1660219555.86635,1538922.0000873,148
1660219555.86635,1538922.000093,158
1660219555.86635,1538922.0001025,165
1660219555.86635,1538922.0001141,160
1660219555.86635,1538922.0001222,158
1660219555.86635,1538922.0001294,163
1660219555.86635,1538922.0001369,167
1660219555.86635,1538922.0001462,172
1660219555.86635,1538922.0001529,170
1660219555.86635,1538922.0001619,163
1660219555.86635,1538922.0001708,163
1660219555.86635,1538922.0001776,158
1660219555.86635,1538922.0001869,146
1660219555.86635,1538922.000195,144
1660219555.86635,1538922.0002037,148
1660219555.86635,1538922.0002094,156
1660219555.86635,1538922.0002152,141
1660219555.86635,1538922.0002265,134
1660219555.86635,1538922.0002374,163
1660219555.86635,1538922.0002486,174
1660219555.86635,1538922.0002607,141
1660219555.86635,1538922.0002665,104
1660219555.86635,1538922.0002702,87
1660219555.86635,1538922.0002839,85
1660219555.86635,1538922.0002951,85
1660219555.86635,1538922.0003038,87
1660219555.86635,1538922.0003115,104
1660219555.86635,1538922.0003172,125
1660219555.86635,1538922.0003212,127
1660219555.86635,1538922.0003269,120
1660219555.86635,1538922.0003328,132
1660219555.86635,1538922.0003379,151
1660219555.86635,1538922.5848107,167
1660219555.86635,1538922.5848236,177
1660219555.86635,1538922.584826,160
1660219555.86635,1538922.5848295,148
1660219555.86635,1538922.5848317,170
1660219555.86635,1538922.5848337,191
1660219555.86635,1538922.5848358,193
1660219555.86635,1538922.5848378,118
1660219555.86635,1538922.58484,-160
1660219555.8843,1538922.5848421,-487
1660219555.8843,1538922.5848442,-404
1660219555.8843,1538922.5848474,47
1660219555.8843,1538922.5848546,316
1660219555.8843,1538922.5848643,245
1660219555.8843,1538922.584869,118
1660219555.8843,1538922.5848755,61
1660219555.8843,1538922.5848797,21
1660219555.8843,1538922.5848857,2
1660219555.8843,1538922.5848919,16
1660219555.8843,1538922.5848958,21
1660219555.8843,1538922.5849011,7
1660219555.8843,1538922.5849069,-2
1660219555.8843,1538922.5849156,-4
1660219555.8843,1538922.5849237,-14
1660219555.8843,1538922.5849304,-14
1660219555.8843,1538922.5849374,-9
1660219555.8843,1538922.5849447,-9
1660219555.8843,1538922.5849531,-14
1660219555.8843,1538922.5849591,-16
1660219555.8843,1538922.5849654,-18
1660219555.8843,1538922.5849701,-37
1660219555.8843,1538922.584977,-49
1660219555.8843,1538922.5849813,-44
1660219556.39875,1538922.5849868,-47
1660219556.39875,1538922.584991,-52
1660219556.39875,1538922.5849951,-42
1660219556.39875,1538922.5849988,-37
1660219556.39875,1538922.585002,-23
1660219556.39875,1538922.5850056,7
1660219556.39875,1538922.585009,37
1660219556.39875,1538922.5850127,68
1660219556.39875,1538922.585016,87
1660219556.39875,1538922.5850193,96
1660219556.39875,1538922.5850225,111
1660219556.39875,1538922.5850257,120
1660219556.39875,1538922.5850293,134
1660219556.39875,1538922.5850358,146
1660219556.39875,1538922.5850442,146
1660219556.39875,1538922.5850505,146
1660219556.39875,1538922.585057,156
1660219556.39875,1538922.5850608,158
1660219556.39875,1538922.585065,148
1660219556.39875,1538922.585073,146
1660219556.39875,1538922.5850789,153
1660219556.39875,1538922.585083,146
1660219556.39875,1538922.585088,127
1660219556.39875,1538922.5850964,120
1660219556.39875,1538922.5851045,115
1660219556.39875,1538922.5851127,118
1660219556.39875,1538922.5851207,125
1660219556.39875,1538922.5851274,137
1660219556.39875,1538922.5851362,141
1660219556.39875,1538922.5851444,134
1660219556.39875,1538922.5851509,141
1660219556.39875,1538922.585159,153
1660219556.39875,1538922.5851652,146
1660219556.39875,1538922.5851733,134
1660219556.39875,1538922.5851799,130
1660219556.39875,1538922.5851883,118
1660219556.39875,1538922.5851964,99
1660219556.39875,1538922.5852021,104
1660219556.39875,1538922.5852078,141
1660219556.39875,1538922.5852113,165
1660219556.39875,1538923.1211738,156
1660219556.39875,1538923.1212017,165
1660219556.39875,1538923.1212127,184
1660219556.39875,1538923.1212217,174
1660219556.39875,1538923.1212277,156
1660219556.39875,1538923.1212358,158
1660219556.39875,1538923.1212424,158
1660219556.39875,1538923.1212508,153
1660219556.39875,1538923.1212546,172
1660219556.39875,1538923.1212603,203
1660219556.41969,1538923.1212635,177
1660219556.41969,1538923.1212696,-52
1660219556.41969,1538923.1212781,-465
1660219556.41969,1538923.121312,-593
1660219556.41969,1538923.1213179,-182
1660219556.41969,1538923.1213201,290
1660219556.41969,1538923.1213226,375
1660219556.41969,1538923.1213247,215
1660219556.41969,1538923.1213269,92
1660219556.41969,1538923.1213289,47
1660219556.41969,1538923.121331,23
1660219556.41969,1538923.121333,9
1660219556.41969,1538923.121335,7
1660219556.41969,1538923.1213371,9
1660219556.41969,1538923.1213391,4
1660219556.41969,1538923.1213444,-11
1660219556.41969,1538923.1213562,-21
1660219556.41969,1538923.1213621,-21
1660219556.41969,1538923.1213642,-21
1660219556.41969,1538923.1213662,-16
1660219556.41969,1538923.1213682,-21
1660219556.41969,1538923.1213702,-28
1660219556.41969,1538923.1213807,-49
1660219556.41969,1538923.121392,-87
1660219556.98418,1538923.1213983,-92
1660219556.98418,1538923.1214078,-80
1660219556.98418,1538923.1214169,-106
1660219556.98418,1538923.1214263,-132
1660219556.98418,1538923.1214313,-113
1660219556.98418,1538923.121435,-70
1660219556.98418,1538923.1214397,-52
1660219556.98418,1538923.1214468,-42
1660219556.98418,1538923.1214524,-18
1660219556.98418,1538923.1214609,14
1660219556.98418,1538923.1214662,42
1660219556.98418,1538923.1214733,66
1660219556.98418,1538923.1214834,94
1660219556.98418,1538923.1214923,111
1660219556.98418,1538923.1214948,115
1660219556.98418,1538923.121502,134
1660219556.98418,1538923.1215144,132
1660219556.98418,1538923.1215276,115
1660219556.98418,1538923.1215413,122
1660219556.98418,1538923.1215545,134
1660219556.98418,1538923.1215678,127
1660219556.98418,1538923.1215809,122
1660219556.98418,1538923.1215942,125
1660219556.98418,1538923.1216073,125
1660219556.98418,1538923.1216206,132
1660219556.98418,1538923.1216292,139
1660219556.98418,1538923.1216316,144
1660219556.98418,1538923.1216377,141
1660219556.98418,1538923.1216505,134
1660219556.98418,1538923.1216583,132
1660219556.98418,1538923.1216613,127
1660219556.98418,1538923.1216732,130
1660219556.98418,1538923.1216846,148
1660219556.98418,1538923.1216975,158
1660219556.98418,1538923.1217102,141
1660219556.98418,1538923.121718,125
1660219556.98418,1538923.1217208,101
1660219556.98418,1538923.1217285,78
1660219556.98418,1538923.1217408,89
1660219556.98418,1538923.7075248,118
1660219556.98418,1538923.7075403,118
1660219556.98418,1538923.707546,120
1660219556.98418,1538923.7075497,144
1660219556.98418,1538923.7075531,156
1660219556.98418,1538923.7075579,177
1660219556.98418,1538923.7075613,196
1660219556.98418,1538923.7075646,170
1660219556.98418,1538923.7075678,144
1660219556.98418,1538923.7075961,134
1660219556.98418,1538923.7076059,122
1660219556.99515,1538923.7076137,146
1660219556.99515,1538923.7076186,172
1660219556.99515,1538923.7076253,21
1660219556.99515,1538923.7076302,-390
1660219556.99515,1538923.7076357,-697
1660219556.99515,1538923.7076395,-432
1660219556.99515,1538923.7076438,148
1660219556.99515,1538923.707652,392
1660219556.99515,1538923.707656,234
1660219556.99515,1538923.7076621,101
1660219556.99515,1538923.7076663,108
1660219556.99515,1538923.707672,80
1660219556.99515,1538923.7076773,40
1660219556.99515,1538923.7076828,44
1660219556.99515,1538923.7076865,33
1660219556.99515,1538923.7076903,0
1660219556.99515,1538923.7076964,0
1660219556.99515,1538923.7077003,11
1660219556.99515,1538923.7077057,2
1660219556.99515,1538923.7077103,0
1660219556.99515,1538923.7077149,-7
1660219556.99515,1538923.7077193,-26
1660219556.99515,1538923.7077253,-33
1660219556.99515,1538923.7077292,-23
1660219557.56416,1538923.7077331,-42
1660219557.56416,1538923.7077372,-75
1660219557.56416,1538923.7077411,-75
1660219557.56416,1538923.7077447,-68
1660219557.56416,1538923.7077483,-87
1660219557.56416,1538923.7077522,-101
1660219557.56416,1538923.7077562,-94
1660219557.56416,1538923.7077618,-68
1660219557.56416,1538923.7077656,-35
1660219557.56416,1538923.7077711,-16
1660219557.56416,1538923.7077752,7
1660219557.56416,1538923.707781,54
1660219557.56416,1538923.7077866,96
1660219557.56416,1538923.7077906,120
1660219557.56416,1538923.7077962,132
1660219557.56416,1538923.707801,137
1660219557.56416,1538923.7078063,148
1660219557.56416,1538923.7078105,170
1660219557.56416,1538923.707816,184
1660219557.56416,1538923.70782,179
1660219557.56416,1538923.7078256,170
1660219557.56416,1538923.7078295,165
1660219557.56416,1538923.7078346,170
1660219557.56416,1538923.7078389,165
1660219557.56416,1538923.7078442,144
1660219557.56416,1538923.707848,132
1660219557.56416,1538923.7078534,144
1660219557.56416,1538923.7078587,156
1660219557.56416,1538923.7078627,163
1660219557.56416,1538923.7078683,165
1660219557.56416,1538923.7078721,153
1660219557.56416,1538923.7078774,146
1660219557.56416,1538923.7078816,151
1660219557.56416,1538923.707887,153
1660219557.56416,1538923.7078905,151
1660219557.56416,1538923.7078943,160
1660219557.56416,1538923.7079002,170
1660219557.56416,1538923.707904,151
1660219557.56416,1538924.2908229,127
1660219557.56416,1538924.2908426,127
1660219557.56416,1538924.2908511,139
1660219557.56416,1538924.2908609,156
1660219557.56416,1538924.2908687,163
1660219557.56416,1538924.2908788,153
1660219557.56416,1538924.2908876,158
1660219557.56416,1538924.2908976,179
1660219557.56416,1538924.2909056,198
1660219557.56416,1538924.290917,203
1660219557.56416,1538924.2909258,203
1660219557.56416,1538924.290935,191
1660219557.57513,1538924.2909458,179
1660219557.57513,1538924.290953,198
1660219557.57513,1538924.2909658,184
1660219557.57513,1538924.2909769,-2
1660219557.57513,1538924.2909832,-380
1660219557.57513,1538924.290996,-607
1660219557.57513,1538924.2910071,-309
1660219557.57513,1538924.2910165,217
1660219557.57513,1538924.2910271,354
1660219557.57513,1538924.2910366,160
1660219557.57513,1538924.291045,85
1660219557.57513,1538924.2910558,106
1660219557.57513,1538924.2910647,33
1660219557.57513,1538924.2910743,-18
1660219557.57513,1538924.2910851,16
1660219557.57513,1538924.2910911,23
1660219557.57513,1538924.2911046,-7
1660219557.57513,1538924.2911152,0
1660219557.57513,1538924.2911213,14
1660219557.57513,1538924.291135,-14
1660219557.57513,1538924.2911447,-61
1660219557.57513,1538924.2911491,-75
1660219557.57513,1538924.291157,-66
1660219557.57513,1538924.2911654,-70
1660219558.05984,1538924.2911755,-85
1660219558.05984,1538924.2911833,-94
1660219558.05984,1538924.2911885,-96
1660219558.05984,1538924.2911937,-94
1660219558.05984,1538924.291199,-96
1660219558.05984,1538924.2912031,-115
1660219558.05984,1538924.2912069,-132
1660219558.05984,1538924.2912129,-106
1660219558.05984,1538924.2912173,-61
1660219558.05984,1538924.2912242,-42
1660219558.05984,1538924.2912298,-14
1660219558.05984,1538924.2912357,33
1660219558.05984,1538924.2912527,63
1660219558.05984,1538924.2912665,68
1660219558.05984,1538924.2912748,68
1660219558.05984,1538924.2912806,94
1660219558.05984,1538924.2912845,130
1660219558.05984,1538924.2912891,127
1660219558.05984,1538924.2913231,125
1660219558.05984,1538924.2913334,137
1660219558.05984,1538924.2913387,148
1660219558.05984,1538924.2913441,163
1660219558.05984,1538924.2913473,160
1660219558.05984,1538924.2913514,141
1660219558.05984,1538924.2913568,130
1660219558.05984,1538924.2913615,153
1660219558.05984,1538924.2913681,174
1660219558.05984,1538924.2913747,141
1660219558.05984,1538924.2913813,127
1660219558.05984,1538924.2913998,156
1660219558.05984,1538924.2914062,144
1660219558.05984,1538924.2914127,111
1660219558.05984,1538924.2914192,120
1660219558.05984,1538924.2914277,132
1660219558.05984,1538924.2914381,130
1660219558.05984,1538924.2914448,151
1660219558.05984,1538924.2914501,172
1660219558.05984,1538924.7785836,170
1660219558.05984,1538924.7786055,170
1660219558.05984,1538924.7786153,153
1660219558.05984,1538924.77863,134
1660219558.05984,1538924.7786394,151
1660219558.05984,1538924.7786453,148
1660219558.05984,1538924.7786494,118
1660219558.05984,1538924.7786527,125
1660219558.05984,1538924.7786648,151
1660219558.05984,1538924.7786734,151
1660219558.05984,1538924.778677,139
1660219558.05984,1538924.7786898,151
1660219558.05984,1538924.778698,172
1660219558.07978,1538924.7787107,179
1660219558.07978,1538924.7787234,177
1660219558.07978,1538924.7787373,151
1660219558.07978,1538924.7787504,115
1660219558.07978,1538924.7787634,111
1660219558.07978,1538924.7787766,127
1660219558.07978,1538924.77879,163
1660219558.07978,1538924.7787985,139
1660219558.07978,1538924.7788023,-99
1660219558.07978,1538924.7788045,-468
1660219558.07978,1538924.7788066,-536
1660219558.07978,1538924.7788086,-148
1660219558.07978,1538924.7788107,224
1660219558.07978,1538924.7788127,229
1660219558.07978,1538924.7788147,70
1660219558.07978,1538924.7788169,11
1660219558.07978,1538924.7788189,23
1660219558.07978,1538924.778821,16
1660219558.07978,1538924.7788232,0
1660219558.07978,1538924.7788253,-4
1660219558.07978,1538924.7788273,7
1660219558.07978,1538924.7788294,4
1660219558.07978,1538924.7788313,-9
1660219558.07978,1538924.7788334,-2
1660219558.64262,1538924.7788354,0
1660219558.64262,1538924.7788374,-4
1660219558.64262,1538924.7788394,11
1660219558.64262,1538924.7788414,2
1660219558.64262,1538924.7788433,-37
1660219558.64262,1538924.7788453,-44
1660219558.64262,1538924.7788472,-33
1660219558.64262,1538924.7788491,-40
1660219558.64262,1538924.778851,-40
1660219558.64262,1538924.7788533,-37
1660219558.64262,1538924.7788553,-61
1660219558.64262,1538924.7788572,-68
1660219558.64262,1538924.7788591,-44
1660219558.64262,1538924.7788609,-21
1660219558.64262,1538924.7788628,0
1660219558.64262,1538924.7788648,33
1660219558.64262,1538924.7788672,49
1660219558.64262,1538924.7788746,66
1660219558.64262,1538924.7788805,101
1660219558.64262,1538924.7788844,134
1660219558.64262,1538924.7788881,158
1660219558.64262,1538924.7788935,170
1660219558.64262,1538924.7788969,163
1660219558.64262,1538924.7789005,158
1660219558.64262,1538924.7789055,170
1660219558.64262,1538924.7789091,179
1660219558.64262,1538924.7789138,177
1660219558.64262,1538924.7789183,170
1660219558.64262,1538924.7789231,165
1660219558.64262,1538924.7789323,165
1660219558.64262,1538924.7789377,172
1660219558.64262,1538924.7789398,179
1660219558.64262,1538924.7789441,191
1660219558.64262,1538924.7789461,184
1660219558.64262,1538924.7789481,160
1660219558.64262,1538924.7789502,153
1660219558.64262,1538925.3636377,163
1660219558.64262,1538925.3636565,170
1660219558.64262,1538925.3636636,177
1660219558.64262,1538925.363669,163
1660219558.64262,1538925.3636739,148
1660219558.64262,1538925.36368,139
1660219558.64262,1538925.3636863,113
1660219558.64262,1538925.3636949,111
1660219558.64262,1538925.3637016,122
1660219558.64262,1538925.3637064,113
1660219558.64262,1538925.3637107,108
1660219558.64262,1538925.3637149,99
1660219558.64262,1538925.3637216,54
1660219558.64262,1538925.3637585,18
1660219558.65459,1538925.3637694,35
1660219558.65459,1538925.3637733,63
1660219558.65459,1538925.3637766,66
1660219558.65459,1538925.3637798,56
1660219558.65459,1538925.3637831,54
1660219558.65459,1538925.3637864,73
1660219558.65459,1538925.3637896,106
1660219558.65459,1538925.3637927,94
1660219558.65459,1538925.3637957,61
1660219558.65459,1538925.3637991,70
1660219558.65459,1538925.3638023,89
1660219558.65459,1538925.3638056,87
1660219558.65459,1538925.3638115,106
1660219558.65459,1538925.363818,120
1660219558.65459,1538925.3638215,28
1660219558.65459,1538925.3638255,-243
1660219558.65459,1538925.3638309,-527
1660219558.65459,1538925.3638368,-425
1660219558.65459,1538925.3638418,35
1660219558.65459,1538925.3638463,309
1660219558.65459,1538925.3638508,217
1660219558.65459,1538925.3638565,94
1660219558.65459,1538925.3638632,87
1660219558.65459,1538925.3638668,78
1660219559.23035,1538925.3638702,61
1660219559.23035,1538925.3638731,68
1660219559.23035,1538925.3638843,54
1660219559.23035,1538925.3638925,44
1660219559.23035,1538925.363896,52
1660219559.23035,1538925.3638991,42
1660219559.23035,1538925.3639021,33
1660219559.23035,1538925.363905,37
1660219559.23035,1538925.3639081,28
1660219559.23035,1538925.363911,18
1660219559.23035,1538925.3639139,30
1660219559.23035,1538925.3639167,28
1660219559.23035,1538925.3639196,-2
1660219559.23035,1538925.3639263,-7
1660219559.23035,1538925.3639327,2
1660219559.23035,1538925.3639469,-35
1660219559.23035,1538925.3639589,-61
1660219559.23035,1538925.3639648,-26
1660219559.23035,1538925.3639677,0
1660219559.23035,1538925.3639704,-2
1660219559.23035,1538925.3639735,4
1660219559.23035,1538925.3639763,30
1660219559.23035,1538925.3639791,56
1660219559.23035,1538925.3639817,82
1660219559.23035,1538925.3639844,125
1660219559.23035,1538925.3639871,148
1660219559.23035,1538925.3639897,144
1660219559.23035,1538925.3639924,160
1660219559.23035,1538925.3639951,196
1660219559.23035,1538925.3639978,196
1660219559.23035,1538925.3640005,186
1660219559.23035,1538925.3640032,191
1660219559.23035,1538925.3640059,189
1660219559.23035,1538925.3640086,186
1660219559.23035,1538925.3640112,189
1660219559.23035,1538925.948645,191
1660219559.23035,1538925.9486649,189
1660219559.23035,1538925.9486761,174
1660219559.23035,1538925.9486811,174
1660219559.23035,1538925.9486895,186
1660219559.23035,1538925.9486939,182
1660219559.23035,1538925.948701,170
1660219559.23035,1538925.9487149,174
1660219559.23035,1538925.9487275,163
1660219559.23035,1538925.9487368,118
1660219559.23035,1538925.9487464,96
1660219559.23035,1538925.9487548,108
1660219559.23035,1538925.9487645,120
1660219559.23035,1538925.9487774,108
1660219559.23035,1538925.9487871,82
1660219559.24032,1538925.9487948,56
1660219559.24032,1538925.9488027,47
1660219559.24032,1538925.9488051,49
1660219559.24032,1538925.9488072,49
1660219559.24032,1538925.9488092,54
1660219559.24032,1538925.9488113,66
1660219559.24032,1538925.948814,68
1660219559.24032,1538925.9488225,56
1660219559.24032,1538925.948835,63
1660219559.24032,1538925.948842,94
1660219559.24032,1538925.9488443,111
1660219559.24032,1538925.9488464,101
1660219559.24032,1538925.9488484,94
1660219559.24032,1538925.9488505,108
1660219559.24032,1538925.9488525,132
1660219559.24032,1538925.9488545,127
1660219559.24032,1538925.9488565,127
1660219559.24032,1538925.9488585,137
1660219559.24032,1538925.9488606,-14
1660219559.24032,1538925.9488627,-401
1660219559.24032,1538925.9488647,-652
1660219559.24032,1538925.9488667,-373
1660219559.24032,1538925.9488687,115
1660219559.24032,1538925.9488708,321
1660219559.75885,1538925.9488729,269
1660219559.75885,1538925.9488749,177
1660219559.75885,1538925.9488769,130
1660219559.75885,1538925.9488788,115
1660219559.75885,1538925.9488807,99
1660219559.75885,1538925.9488826,82
1660219559.75885,1538925.9488845,73
1660219559.75885,1538925.9488864,63
1660219559.75885,1538925.9488882,49
1660219559.75885,1538925.9488901,42
1660219559.75885,1538925.9488924,42
1660219559.75885,1538925.9488959,35
1660219559.75885,1538925.9488995,40
1660219559.75885,1538925.9489063,37
1660219559.75885,1538925.9489165,9
1660219559.75885,1538925.9489267,-11
1660219559.75885,1538925.9489329,-28
1660219559.75885,1538925.9489374,-49
1660219559.75885,1538925.9489438,-54
1660219559.75885,1538925.9489506,-66
1660219559.75885,1538925.9489621,-89
1660219559.75885,1538925.9489731,-87
1660219559.75885,1538925.9489791,-63
1660219559.75885,1538925.9489915,-56
1660219559.75885,1538925.9490024,-35
1660219559.75885,1538925.9490114,11
1660219559.75885,1538925.9490192,63
1660219559.75885,1538925.9490283,87
1660219559.75885,1538925.9490401,92
1660219559.75885,1538925.9490514,115
1660219559.75885,1538925.9490612,144
1660219559.75885,1538925.9490663,153
1660219559.75885,1538925.9490728,165
1660219559.75885,1538925.9490775,186
1660219559.75885,1538926.4844871,193
1660219559.75885,1538926.4845044,208
1660219559.75885,1538926.4845139,196
1660219559.75885,1538926.484521,156
1660219559.75885,1538926.4845279,144
1660219559.75885,1538926.4845326,146
1660219559.75885,1538926.4845391,132
1660219559.75885,1538926.4845503,130
1660219559.75885,1538926.4845612,139
1660219559.75885,1538926.4845658,141
1660219559.75885,1538926.4845744,139
1660219559.75885,1538926.4845825,122
1660219559.75885,1538926.4845881,92
1660219559.75885,1538926.4845931,80
1660219559.75885,1538926.4846013,87
1660219559.75885,1538926.4846092,75
1660219559.76883,1538926.4846166,63
1660219559.76883,1538926.4846209,68
1660219559.76883,1538926.4846285,66
1660219559.76883,1538926.4846359,56
1660219559.76883,1538926.4846497,54
1660219559.76883,1538926.4846562,49
1660219559.76883,1538926.4846693,47
1660219559.76883,1538926.4846817,49
1660219559.76883,1538926.4846967,49
1660219559.76883,1538926.4847101,47
1660219559.76883,1538926.4847225,56
1660219559.76883,1538926.4847287,82
1660219559.76883,1538926.4847394,108
1660219559.76883,1538926.4847538,122
1660219559.76883,1538926.4847643,118
1660219559.76883,1538926.4847725,108
1660219559.76883,1538926.4847841,115
1660219559.76883,1538926.4847951,127
1660219559.76883,1538926.4848039,127
1660219559.76883,1538926.4848167,148
1660219559.76883,1538926.4848272,146
1660219559.76883,1538926.4848362,-33
1660219559.76883,1538926.4848502,-411
1660219559.76883,1538926.4848602,-617
1660219560.34634,1538926.4848729,-297
1660219560.34634,1538926.4848802,191
1660219560.34634,1538926.4848914,328
1660219560.34634,1538926.4848992,203
1660219560.34634,1538926.4849083,134
1660219560.34634,1538926.484915,120
1660219560.34634,1538926.4849196,82
1660219560.34634,1538926.484923,59
1660219560.34634,1538926.4849808,59
1660219560.34634,1538926.4849898,44
1660219560.34634,1538926.4849978,35
1660219560.34634,1538926.4850046,42
1660219560.34634,1538926.4850115,56
1660219560.34634,1538926.4850159,54
1660219560.34634,1538926.4850199,40
1660219560.34634,1538926.4850236,33
1660219560.34634,1538926.4850273,35
1660219560.34634,1538926.485031,26
1660219560.34634,1538926.485035,4
1660219560.34634,1538926.4850407,-16
1660219560.34634,1538926.4850457,-37
1660219560.34634,1538926.4850896,-35
1660219560.34634,1538926.4851002,-40
1660219560.34634,1538926.4851133,-52
1660219560.34634,1538926.4851236,-44
1660219560.34634,1538926.4851329,-26
1660219560.34634,1538926.4851457,-11
1660219560.34634,1538926.4851541,11
1660219560.34634,1538926.4851588,30
1660219560.34634,1538926.4851644,30
1660219560.34634,1538926.4851702,54
1660219560.34634,1538926.4851756,99
1660219560.34634,1538926.4851824,125
1660219560.34634,1538927.0696759,127
1660219560.34634,1538927.0696884,144
1660219560.34634,1538927.0696928,163
1660219560.34634,1538927.0696949,167
1660219560.34634,1538927.0696971,165
1660219560.34634,1538927.0696991,158
1660219560.34634,1538927.0697011,153

1660219560.34634,1538927.0697032,141
1660219560.34634,1538927.0697051,113
1660219560.34634,1538927.0697072,82
1660219560.34634,1538927.0697092,70
1660219560.34634,1538927.0697112,70
1660219560.34634,1538927.0697133,82
1660219560.34634,1538927.0697153,111
1660219560.34634,1538927.0697173,118
1660219560.34634,1538927.0697193,70
1660219560.34634,1538927.0697213,35
1660219560.3583,1538927.0697249,49
1660219560.3583,1538927.0697317,70
1660219560.3583,1538927.0697446,80
1660219560.3583,1538927.0697518,87
1660219560.3583,1538927.069755,80
1660219560.3583,1538927.0697571,52
1660219560.3583,1538927.0697592,40
1660219560.3583,1538927.0697616,70
1660219560.3583,1538927.0697709,87
1660219560.3583,1538927.0697796,66
1660219560.3583,1538927.0697823,52
1660219560.3583,1538927.0697845,61
1660219560.3583,1538927.0697864,85
1660219560.3583,1538927.0697926,106
1660219560.3583,1538927.0698041,115
1660219560.3583,1538927.0698087,115
1660219560.3583,1538927.0698109,125
1660219560.3583,1538927.0698133,130
1660219560.3583,1538927.069823,115
1660219560.3583,1538927.0698318,111
1660219560.3583,1538927.0698341,111
1660219560.3583,1538927.0698362,101
1660219560.3583,1538927.0698386,118
1660219560.3583,1538927.0698469,118
1660219560.87804,1538927.069857,-78
1660219560.87804,1538927.0698646,-442
1660219560.87804,1538927.0698758,-550
1660219560.87804,1538927.0698837,-184
1660219560.87804,1538927.0698973,226
1660219560.87804,1538927.0699079,288
1660219560.87804,1538927.0699115,156
1660219560.87804,1538927.0699445,94
1660219560.87804,1538927.069954,111
1660219560.87804,1538927.0699645,113
1660219560.87804,1538927.0699766,101
1660219560.87804,1538927.0699883,94
1660219560.87804,1538927.0700004,82
1660219560.87804,1538927.0700112,63
1660219560.87804,1538927.0700239,56
1660219560.87804,1538927.0700335,66
1660219560.87804,1538927.0700468,80
1660219560.87804,1538927.0700544,73
1660219560.87804,1538927.0700576,47
1660219560.87804,1538927.0700718,37
1660219560.87804,1538927.0700807,28
1660219560.87804,1538927.0700849,-7
1660219560.87804,1538927.0700869,-33
1660219560.87804,1538927.0700902,-21
1660219560.87804,1538927.0700922,-18
1660219560.87804,1538927.0700942,-33
1660219560.87804,1538927.0700963,-42
1660219560.87804,1538927.0700982,-49
1660219560.87804,1538927.0701002,-54
1660219560.87804,1538927.070103,-47
1660219560.87804,1538927.070105,-16
1660219560.87804,1538927.070107,16
1660219560.87804,1538927.6059832,35
1660219560.87804,1538927.6060071,35
1660219560.87804,1538927.6060165,47
1660219560.87804,1538927.6060218,118
1660219560.87804,1538927.6060356,203
1660219560.87804,1538927.6060493,212
1660219560.87804,1538927.6060616,182
1660219560.87804,1538927.6060699,179
1660219560.87804,1538927.6060833,186
1660219560.87804,1538927.606089,184
1660219560.87804,1538927.6060921,179
1660219560.87804,1538927.6061027,158
1660219560.87804,1538927.6061143,122
1660219560.87804,1538927.6061242,101
1660219560.87804,1538927.6061325,89
1660219560.87804,1538927.6061459,87
1660219560.87804,1538927.6061529,132
1660219560.87804,1538927.6061571,160
1660219560.89434,1538927.6062121,99
1660219560.89434,1538927.6062201,44
1660219560.89434,1538927.6062297,87
1660219560.89434,1538927.6062349,132
1660219560.89434,1538927.6062428,108
1660219560.89434,1538927.6062476,78
1660219560.89434,1538927.6062531,70
1660219560.89434,1538927.6062591,75
1660219560.89434,1538927.6062676,99
1660219560.89434,1538927.6062729,92
1660219560.89434,1538927.6062777,42
1660219560.89434,1538927.6062844,26
1660219560.89434,1538927.6062912,40
1660219560.89434,1538927.6062978,37
1660219560.89434,1538927.6063026,61
1660219560.89434,1538927.606309,94
1660219560.89434,1538927.6063121,92
1660219560.89434,1538927.6063193,89
1660219560.89434,1538927.6063255,101
1660219560.89434,1538927.6063329,99
1660219560.89434,1538927.6063392,89
1660219560.89434,1538927.6063444,94
1660219560.89434,1538927.6063528,101
1660219560.89434,1538927.6063606,99
1660219561.42326,1538927.6063668,108
1660219561.42326,1538927.6063728,113
1660219561.42326,1538927.6063768,35
1660219561.42326,1538927.6063798,-222
1660219561.42326,1538927.6063827,-567
1660219561.42326,1538927.6063882,-560
1660219561.42326,1538927.6063942,-94
1660219561.42326,1538927.6063974,281
1660219561.42326,1538927.6064003,288
1660219561.42326,1538927.6064034,174
1660219561.42326,1538927.6064069,132
1660219561.42326,1538927.6064104,111
1660219561.42326,1538927.6064144,70
1660219561.42326,1538927.6064185,40
1660219561.42326,1538927.606422,33
1660219561.42326,1538927.6064262,42
1660219561.42326,1538927.6064298,52
1660219561.42326,1538927.6064332,33
1660219561.42326,1538927.606437,7
1660219561.42326,1538927.6064413,9
1660219561.42326,1538927.6064469,14
1660219561.42326,1538927.6064507,-9
1660219561.42326,1538927.6064583,-2
1660219561.42326,1538927.6064641,11
1660219561.42326,1538927.6064696,-16
1660219561.42326,1538927.6064751,-44
1660219561.42326,1538927.6064811,-59
1660219561.42326,1538927.6064857,-80
1660219561.42326,1538927.6064913,-80
1660219561.42326,1538927.6064974,-68
1660219561.42326,1538927.6065026,-63
1660219561.42326,1538928.1435502,-54
1660219561.42326,1538928.1435703,-37
1660219561.42326,1538928.1435785,-16
1660219561.42326,1538928.1435847,28
1660219561.42326,1538928.1435893,85
1660219561.42326,1538928.1435939,125
1660219561.42326,1538928.1435982,137
1660219561.42326,1538928.1436026,125
1660219561.42326,1538928.143608,108
1660219561.42326,1538928.1436124,118
1660219561.42326,1538928.1436168,144
1660219561.42326,1538928.1436212,134
1660219561.42326,1538928.1436255,122
1660219561.42326,1538928.1436308,170
1660219561.42326,1538928.1436354,184
1660219561.42326,1538928.1436398,130
1660219561.42326,1538928.1436451,96
1660219561.42326,1538928.143651,111
1660219561.42326,1538928.1436563,108
1660219561.43123,1538928.1436618,87
1660219561.43123,1538928.1436659,82
1660219561.43123,1538928.1436697,92
1660219561.43123,1538928.1436735,111
1660219561.43123,1538928.1436772,130
1660219561.43123,1538928.1436811,125
1660219561.43123,1538928.1436869,113
1660219561.43123,1538928.1436919,118
1660219561.43123,1538928.1436976,120
1660219561.43123,1538928.1437011,115
1660219561.43123,1538928.1437048,127
1660219561.43123,1538928.143709,139
1660219561.43123,1538928.1437144,115
1660219561.43123,1538928.1437212,92
1660219561.43123,1538928.1437237,106
1660219561.43123,1538928.1437258,115
1660219561.43123,1538928.1437278,125
1660219561.43123,1538928.1437297,156
1660219561.43123,1538928.1437316,160
1660219561.43123,1538928.1437337,141
1660219561.43123,1538928.1437355,148
1660219561.43123,1538928.1437374,163
1660219561.43123,1538928.1437396,148
1660219561.43123,1538928.1437416,148
1660219561.99943,1538928.1437436,179
1660219561.99943,1538928.1437456,189
1660219561.99943,1538928.1437475,179
1660219561.99943,1538928.1437494,191
1660219561.99943,1538928.1437513,184
1660219561.99943,1538928.1437532,35
1660219561.99943,1538928.1437557,-342
1660219561.99943,1538928.1437576,-713
1660219561.99943,1538928.1437595,-572
1660219561.99943,1538928.1437614,4
1660219561.99943,1538928.1437633,342
1660219561.99943,1538928.1437652,267
1660219561.99943,1538928.1437671,148
1660219561.99943,1538928.1437691,141
1660219561.99943,1538928.143771,122
1660219561.99943,1538928.1437729,89
1660219561.99943,1538928.1437748,87
1660219561.99943,1538928.1437769,87
1660219561.99943,1538928.1437789,78
1660219561.99943,1538928.1437808,73
1660219561.99943,1538928.1437839,61
1660219561.99943,1538928.1437927,49
1660219561.99943,1538928.1438065,59
1660219561.99943,1538928.1438194,59
1660219561.99943,1538928.1438219,37
1660219561.99943,1538928.143824,18
1660219561.99943,1538928.143826,14
1660219561.99943,1538928.143828,16
1660219561.99943,1538928.14383,21
1660219561.99943,1538928.143832,18
1660219561.99943,1538928.7273051,-18
1660219561.99943,1538928.7273257,-78
1660219561.99943,1538928.72734,-92
1660219561.99943,1538928.7273546,-56
1660219561.99943,1538928.727369,-33
1660219561.99943,1538928.7273844,-33
1660219561.99943,1538928.7273919,0
1660219561.99943,1538928.7273955,54
1660219561.99943,1538928.7273978,87
1660219561.99943,1538928.7273998,101
1660219561.99943,1538928.7274018,96
1660219561.99943,1538928.7274038,94
1660219561.99943,1538928.7274058,120
1660219561.99943,1538928.7274077,141
1660219561.99943,1538928.7274105,151
1660219561.99943,1538928.7274125,165
1660219561.99943,1538928.7274145,148
1660219561.99943,1538928.7274165,87
1660219561.99943,1538928.7274186,56
1660219561.99943,1538928.7274206,89
1660219562.01239,1538928.7274226,120
1660219562.01239,1538928.7274246,130
1660219562.01239,1538928.7274266,132
1660219562.01239,1538928.7274286,125
1660219562.01239,1538928.7274305,122
1660219562.01239,1538928.7274325,120
1660219562.01239,1538928.7274351,125
1660219562.01239,1538928.7274372,163
1660219562.01239,1538928.7274398,170
1660219562.01239,1538928.7274419,111
1660219562.01239,1538928.7274439,63
1660219562.01239,1538928.7274458,70
1660219562.01239,1538928.7274478,115
1660219562.01239,1538928.7274498,179
1660219562.01239,1538928.7274526,229
1660219562.01239,1538928.7274642,234
1660219562.01239,1538928.7274781,156
1660219562.01239,1538928.7274852,49
1660219562.01239,1538928.7274878,33
1660219562.01239,1538928.7274899,75
1660219562.01239,1538928.7274919,70
1660219562.01239,1538928.727494,44
1660219562.01239,1538928.727496,49
1660219562.01239,1538928.727498,73
1660219562.63604,1538928.7275,82
1660219562.63604,1538928.7275249,89
1660219562.63604,1538928.7275487,99
1660219562.63604,1538928.7275582,106
1660219562.63604,1538928.7275645,113
1660219562.63604,1538928.72757,122
1660219562.63604,1538928.7275772,167
1660219562.63604,1538928.7275875,160
1660219562.63604,1538928.7275938,-89
1660219562.63604,1538928.7275963,-527
1660219562.63604,1538928.7275994,-661
1660219562.63604,1538928.7276122,-236
1660219562.63604,1538928.7276277,250
1660219562.63604,1538928.7276413,333
1660219562.63604,1538928.7276544,196
1660219562.63604,1538928.7276677,127
1660219562.63604,1538928.7276803,137
1660219562.63604,1538928.7276948,132
1660219562.63604,1538928.7277083,106
1660219562.63604,1538928.7277218,92
1660219562.63604,1538928.7277353,101
1660219562.63604,1538928.7277483,106
1660219562.63604,1538928.7277618,104
1660219562.63604,1538928.7277747,104
1660219562.63604,1538928.7277883,94
1660219562.63604,1538928.7278011,49
1660219562.63604,1538928.7278147,21
1660219562.63604,1538928.7278279,49
1660219562.63604,1538928.7278411,68
1660219562.63604,1538929.3607758,28
1660219562.63604,1538929.3607951,-14
1660219562.63604,1538929.3608062,-23
1660219562.63604,1538929.3608153,-35
1660219562.63604,1538929.3608232,-49
1660219562.63604,1538929.3608298,-59
1660219562.63604,1538929.360838,-68
1660219562.63604,1538929.3608465,-59
1660219562.63604,1538929.3608526,-47
1660219562.63604,1538929.3608565,-33
1660219562.63604,1538929.3608601,-2
1660219562.63604,1538929.3608642,33
1660219562.63604,1538929.3608675,63
1660219562.63604,1538929.3608715,89
1660219562.63604,1538929.360884,101
1660219562.63604,1538929.3608933,111
1660219562.63604,1538929.3608996,122
