Time,TimeLsl,Value
1660222677.9261,1542042.8737604,30
1660222677.9261,1542042.8737792,-4
1660222677.9261,1542042.8737871,-4
1660222677.9261,1542042.8737938,14
1660222677.9261,1542042.8737974,16
1660222677.9261,1542042.8738024,-11
1660222677.9261,1542042.8738057,-16
1660222677.9261,1542042.8738119,11
1660222677.9261,1542042.8738159,21
1660222677.9261,1542042.8738441,25
1660222677.9261,1542042.8738508,54
1660222677.9261,1542042.8738539,80
1660222677.9261,1542042.8738571,91
1660222677.9261,1542042.8738604,113
1660222677.9261,1542042.8738663,131
1660222677.9261,1542042.8738706,141
1660222677.9261,1542042.8738766,157
1660222677.9261,1542042.8738816,167
1660222677.9261,1542042.8738879,150
1660222677.9261,1542042.8738912,139
1660222677.9261,1542042.8738963,139
1660222677.9261,1542042.8738994,129
1660222677.9261,1542042.8739025,134
1660222677.9261,1542042.8739058,143
1660222677.9261,1542042.8739093,124
1660222677.9261,1542042.8739151,106
1660222677.9261,1542042.873919,108
1660222677.9261,1542042.8739245,106
1660222677.9261,1542042.8739287,101
1660222677.9261,1542042.8739343,115
1660222677.9261,1542042.8739699,127
1660222677.9261,1542042.8739768,127
1660222677.9261,1542042.8739803,115
1660222677.9261,1542042.8739851,94
1660222677.9261,1542042.8739904,98
1660222677.9261,1542042.8739941,120
1660222677.9261,1542042.8740006,113
1660222677.9261,1542042.8740044,91
1660222677.9261,1542042.8740101,63
1660222677.9261,1542042.874014,30
1660222677.9261,1542042.8740189,30
1660222677.9261,1542042.8740218,44
1660222677.9261,1542042.8740246,47
1660222677.9261,1542042.8740276,49
1660222677.9261,1542042.8740305,65
1660222677.9261,1542042.8740345,77
1660222677.9261,1542042.8740376,77
1660222677.9261,1542042.8740405,84
1660222677.9261,1542042.8740435,82
1660222677.9261,1542042.8740464,73
1660222678.04229,1542042.8740496,80
1660222678.04229,1542042.8740535,89
1660222678.04229,1542042.8740576,113
1660222678.04229,1542042.8740613,160
1660222678.04229,1542042.874065,91
1660222678.04229,1542042.8740692,-252
1660222678.04229,1542042.8740733,-659
1660222678.04229,1542042.8740771,-600
1660222678.04229,1542042.8740819,-56
1660222678.04229,1542042.8740861,369
1660222678.04229,1542042.87409,376
1660222678.04229,1542042.8740951,237
1660222678.04229,1542042.8740992,176
1660222678.04229,1542042.8741036,139
1660222678.04229,1542042.874111,103
1660222678.04229,1542042.8741149,115
1660222678.04229,1542042.8741201,129
1660222678.04229,1542042.8741243,117
1660222678.04229,1542042.8741288,106
1660222678.04229,1542042.8741316,101
1660222678.04229,1542042.8741344,91
1660222678.04229,1542042.874137,87
1660222678.04229,1542042.8741397,84
1660222678.04229,1542043.4592088,68
1660222678.04229,1542043.4592273,42
1660222678.04229,1542043.4592344,32
1660222678.04229,1542043.4592389,30
1660222678.04229,1542043.459263,18
1660222678.04229,1542043.4592725,2
1660222678.04229,1542043.4592767,-16
1660222678.04229,1542043.459282,-40
1660222678.04229,1542043.459286,-65
1660222678.04229,1542043.4592914,-84
1660222678.04229,1542043.4592988,-70
1660222678.04229,1542043.4593053,-42
1660222678.04229,1542043.4593139,-32
1660222678.04229,1542043.4593213,-16
1660222678.04229,1542043.4593266,4
1660222678.04229,1542043.4593345,4
1660222678.04229,1542043.4593379,28
1660222678.04229,1542043.459341,63
1660222678.04229,1542043.4593442,73
1660222678.04229,1542043.4593495,84
1660222678.04229,1542043.4593582,110
1660222678.04229,1542043.4593619,115
1660222678.04229,1542043.4593667,122
1660222678.04229,1542043.4593697,134
1660222678.04229,1542043.459373,141
1660222678.04229,1542043.4593781,143
1660222678.04229,1542043.4593815,134
1660222678.0772,1542043.4593847,134
1660222678.0772,1542043.4593881,131
1660222678.0772,1542043.4593931,127
1660222678.0772,1542043.4593967,134
1660222678.0772,1542043.459405,124
1660222678.0772,1542043.4594116,117
1660222678.0772,1542043.4594186,131
1660222678.0772,1542043.4594247,129
1660222678.0772,1542043.4594335,122
1660222678.0772,1542043.4594411,127
1660222678.0772,1542043.4594475,127
1660222678.0772,1542043.4594553,139
1660222678.0772,1542043.4594607,153
1660222678.0772,1542043.4594642,134
1660222678.0772,1542043.4594715,98
1660222678.0772,1542043.4594795,87
1660222678.0772,1542043.4594869,84
1660222678.0772,1542043.4594942,89
1660222678.0772,1542043.4595005,110
1660222678.0772,1542043.4595087,108
1660222678.0772,1542043.4595199,89
1660222678.0772,1542043.4595323,106
1660222678.0772,1542043.4595384,129
1660222678.0772,1542043.4595421,110
1660222678.0772,1542043.4595473,98
1660222678.0772,1542043.4595503,122
1660222678.0772,1542043.4595533,120
1660222678.0772,1542043.4595566,108
1660222678.0772,1542043.4595616,122
1660222678.0772,1542043.4595649,153
1660222678.0772,1542043.4595679,179
1660222678.0772,1542043.459571,82
1660222678.0772,1542043.4595739,-270
1660222678.0772,1542043.459577,-631
1660222678.0772,1542043.4595803,-508
1660222678.0772,1542043.4595855,21
1660222678.0772,1542043.4595888,353
1660222678.0772,1542043.4595919,303
1660222678.0772,1542043.4595954,190
1660222678.0772,1542043.4595987,153
1660222678.0772,1542043.4596017,124
1660222678.0772,1542043.4596055,117
1660222678.0772,1542043.4596108,127
1660222678.0772,1542043.4596203,117
1660222678.0772,1542043.4596279,96
1660222678.0772,1542043.4596349,91
1660222678.0772,1542044.0435198,101
1660222678.0772,1542044.043539,98
1660222678.0772,1542044.0435837,84
1660222678.0772,1542044.0435974,80
1660222678.10014,1542044.0436051,80
1660222678.10014,1542044.0436118,65
1660222678.10014,1542044.0436181,47
1660222678.10014,1542044.043624,37
1660222678.10014,1542044.0436309,35
1660222678.10014,1542044.0436374,-2
1660222678.10014,1542044.0436446,-42
1660222678.10014,1542044.0436513,-51
1660222678.10014,1542044.0436573,-82
1660222678.10014,1542044.0436642,-103
1660222678.10014,1542044.0436703,-80
1660222678.10014,1542044.0436764,-58
1660222678.10014,1542044.0436826,-47
1660222678.10014,1542044.0436892,-40
1660222678.10014,1542044.0436959,-25
1660222678.10014,1542044.0437023,18
1660222678.10014,1542044.0437085,56
1660222678.10014,1542044.0437147,63
1660222678.10014,1542044.0437221,84
1660222678.10014,1542044.0437286,110
1660222678.10014,1542044.0437349,108
1660222678.10014,1542044.0437419,113
1660222678.10014,1542044.0437515,124
1660222678.10014,1542044.0437578,127
1660222678.10014,1542044.0437651,120
1660222678.10014,1542044.0437742,117
1660222678.10014,1542044.0437829,122
1660222678.10014,1542044.0437893,122
1660222678.10014,1542044.0437983,141
1660222678.10014,1542044.043807,164
1660222678.10014,1542044.0438136,150
1660222678.10014,1542044.0438201,129
1660222678.10014,1542044.0438265,131
1660222678.10014,1542044.0438349,141
1660222678.10014,1542044.0438417,146
1660222678.10014,1542044.0438514,148
1660222678.10014,1542044.0438602,143
1660222678.10014,1542044.0438689,141
1660222678.10014,1542044.0438775,146
1660222678.10014,1542044.0438853,139
1660222678.10014,1542044.043894,139
1660222678.10014,1542044.0439019,134
1660222678.10014,1542044.0439109,120
1660222678.10014,1542044.0439194,106
1660222678.10014,1542044.043926,91
1660222678.10014,1542044.0439346,98
1660222678.10014,1542044.043943,120
1660222678.10014,1542044.0439499,134
1660222678.10014,1542044.0439588,129
1660222678.10014,1542044.0439681,120
1660222678.11211,1542044.0439764,120
1660222678.11211,1542044.0439843,113
1660222678.11211,1542044.0439912,103
1660222678.11211,1542044.0439997,103
1660222678.11211,1542044.0440071,101
1660222678.11211,1542044.0440158,106
1660222678.11211,1542044.0440225,134
1660222678.11211,1542044.0440306,148
1660222678.11211,1542044.0440395,42
1660222678.11211,1542044.044046,-263
1660222678.11211,1542044.0440544,-567
1660222678.11211,1542044.0440612,-471
1660222678.11211,1542044.0440697,-11
1660222678.11211,1542044.0440763,310
1660222678.11211,1542044.0440849,280
1660222678.11211,1542044.0440918,148
1660222678.11211,1542044.0440998,115
1660222678.11211,1542044.0441063,124
1660222678.11211,1542044.0441155,108
1660222678.11211,1542044.6304167,98
1660222678.11211,1542044.6304394,103
1660222678.11211,1542044.6304489,80
1660222678.40108,1542044.6304542,58
1660222678.40108,1542044.6304609,61
1660222678.40108,1542044.6304667,47
1660222678.40108,1542044.630474,28
1660222678.40108,1542044.6304785,37
1660222678.40108,1542044.6304849,49
1660222678.40108,1542044.6304895,35
1660222678.40108,1542044.6304951,16
1660222678.40108,1542044.6305012,16
1660222678.40108,1542044.6305046,2
1660222678.40108,1542044.6305104,-30
1660222678.40108,1542044.6305174,-61
1660222678.40108,1542044.6305241,-94
1660222678.40108,1542044.6305279,-106
1660222678.40108,1542044.6305316,-98
1660222678.40108,1542044.6305352,-103
1660222678.40108,1542044.6305385,-94
1660222678.40108,1542044.6305416,-80
1660222678.40108,1542044.6305448,-87
1660222678.40108,1542044.6305487,-63
1660222678.40108,1542044.6305522,-16
1660222678.40108,1542044.6305554,11
1660222678.40108,1542044.630559,32
1660222678.40108,1542044.630563,63
1660222678.40108,1542044.6305668,84
1660222678.40108,1542044.6305704,82
1660222678.40108,1542044.6305743,77
1660222678.40108,1542044.6305786,91
1660222678.40108,1542044.6305823,117
1660222678.40108,1542044.6305861,113
1660222678.40108,1542044.6305897,101
1660222678.40108,1542044.6305934,101
1660222678.40108,1542044.630597,103
1660222678.40108,1542044.6306008,110
1660222678.40108,1542044.6306045,113
1660222678.40108,1542044.6306093,115
1660222678.40108,1542044.6306135,120
1660222678.40108,1542044.630617,115
1660222678.40108,1542044.6306206,117
1660222678.40108,1542044.6306241,129
1660222678.40108,1542044.6306278,127
1660222678.40108,1542044.6306317,131
1660222678.40108,1542044.6306355,131
1660222678.40108,1542044.6306394,106
1660222678.40108,1542044.6306432,84
1660222678.40108,1542044.6306471,91
1660222678.40108,1542044.6306508,98
1660222678.40108,1542044.6306547,96
1660222678.40108,1542044.6306586,91
1660222678.40108,1542044.6306623,75
1660222678.45493,1542044.630666,65
1660222678.45493,1542044.6306698,77
1660222678.45493,1542044.6306737,84
1660222678.45493,1542044.6306771,91
1660222678.45493,1542044.6306809,110
1660222678.45493,1542044.6306847,117
1660222678.45493,1542044.6306886,110
1660222678.45493,1542044.6306927,103
1660222678.45493,1542044.6306972,113
1660222678.45493,1542044.6307009,113
1660222678.45493,1542044.6307048,89
1660222678.45493,1542044.6307085,82
1660222678.45493,1542044.6307122,108
1660222678.45493,1542044.630717,124
1660222678.45493,1542044.6307208,49
1660222678.45493,1542044.6307247,-209
1660222678.45493,1542044.6307295,-539
1660222678.45493,1542044.6307337,-534
1660222678.45493,1542044.6307398,-110
1660222678.45493,1542044.6307438,247
1660222678.45493,1542045.1164658,245
1660222678.45493,1542045.116497,122
1660222678.45493,1542045.1165127,89
1660222678.45493,1542045.1165172,75
1660222678.97701,1542045.1165204,49
1660222678.97701,1542045.116526,58
1660222678.97701,1542045.1165291,63
1660222678.97701,1542045.1165321,44
1660222678.97701,1542045.1165353,44
1660222678.97701,1542045.1165383,54
1660222678.97701,1542045.1165414,42
1660222678.97701,1542045.1165443,37
1660222678.97701,1542045.1165489,42
1660222678.97701,1542045.1165546,28
1660222678.97701,1542045.1165599,18
1660222678.97701,1542045.1165666,21
1660222678.97701,1542045.1165701,16
1660222678.97701,1542045.1165766,-2
1660222678.97701,1542045.1165818,-18
1660222678.97701,1542045.116588,-25
1660222678.97701,1542045.1165924,-47
1660222678.97701,1542045.1165994,-58
1660222678.97701,1542045.1166044,-51
1660222678.97701,1542045.1166076,-65
1660222678.97701,1542045.1166109,-91
1660222678.97701,1542045.1166139,-75
1660222678.97701,1542045.1166171,-28
1660222678.97701,1542045.1166205,0
1660222678.97701,1542045.1166238,14
1660222678.97701,1542045.1166272,49
1660222678.97701,1542045.1166307,68
1660222678.97701,1542045.1166361,56
1660222678.97701,1542045.1166426,77
1660222678.97701,1542045.1166469,98
1660222678.97701,1542045.1166526,96
1660222678.97701,1542045.1166581,108
1660222678.97701,1542045.1166646,117
1660222678.97701,1542045.1166712,101
1660222678.97701,1542045.1166756,113
1660222678.97701,1542045.1166795,134
1660222678.97701,1542045.1166823,117
1660222678.97701,1542045.1166852,108
1660222678.97701,1542045.1166905,129
1660222678.97701,1542045.1166961,134
1660222678.97701,1542045.1167026,122
1660222678.97701,1542045.1167132,129
1660222678.97701,1542045.1167215,131
1660222678.97701,1542045.1167278,131
1660222678.97701,1542045.1167326,153
1660222678.97701,1542045.1167365,157
1660222678.97701,1542045.1167424,139
1660222678.97701,1542045.1167458,131
1660222678.97701,1542045.1167488,146
1660222678.97701,1542045.1167521,155
1660222678.98898,1542045.1167554,141
1660222678.98898,1542045.1167598,127
1660222678.98898,1542045.1167659,134
1660222678.98898,1542045.1167737,129
1660222678.98898,1542045.1167802,106
1660222678.98898,1542045.116785,113
1660222678.98898,1542045.1167904,134
1660222678.98898,1542045.1167959,124
1660222678.98898,1542045.1168012,91
1660222678.98898,1542045.1168121,75
1660222678.98898,1542045.1168204,96
1660222678.98898,1542045.1168243,136
1660222678.98898,1542045.1168275,153
1660222678.98898,1542045.1168306,122
1660222678.98898,1542045.1168338,98
1660222678.98898,1542045.1168375,115
1660222678.98898,1542045.1168414,110
1660222678.98898,1542045.1168483,96
1660222678.98898,1542045.1168547,127
1660222678.98898,1542045.7032137,141
1660222678.98898,1542045.7032305,-44
1660222678.98898,1542045.7032362,-471
1660222678.98898,1542045.7032408,-683
1660222678.98898,1542045.7032446,-322
1660222679.51299,1542045.7032525,202
1660222679.51299,1542045.7032569,367
1660222679.51299,1542045.7032608,228
1660222679.51299,1542045.7032644,103
1660222679.51299,1542045.7032678,77
1660222679.51299,1542045.7032714,75
1660222679.51299,1542045.7032754,80
1660222679.51299,1542045.7032792,84
1660222679.51299,1542045.7032828,58
1660222679.51299,1542045.7032864,25
1660222679.51299,1542045.70329,16
1660222679.51299,1542045.7032937,11
1660222679.51299,1542045.7032976,21
1660222679.51299,1542045.7033011,30
1660222679.51299,1542045.703305,9
1660222679.51299,1542045.7033086,0
1660222679.51299,1542045.7033123,4
1660222679.51299,1542045.7033162,-11
1660222679.51299,1542045.7033197,-30
1660222679.51299,1542045.7033249,-32
1660222679.51299,1542045.7033345,-42
1660222679.51299,1542045.7033411,-44
1660222679.51299,1542045.7033471,-54
1660222679.51299,1542045.7033548,-70
1660222679.51299,1542045.7033587,-68
1660222679.51299,1542045.7033624,-51
1660222679.51299,1542045.7033659,-37
1660222679.51299,1542045.7033693,-28
1660222679.51299,1542045.7033727,-9
1660222679.51299,1542045.7033764,35
1660222679.51299,1542045.7033801,73
1660222679.51299,1542045.7033853,106
1660222679.51299,1542045.7033887,148
1660222679.51299,1542045.7033922,181
1660222679.51299,1542045.7033957,183
1660222679.51299,1542045.7033994,174
1660222679.51299,1542045.703403,186
1660222679.51299,1542045.7034065,204
1660222679.51299,1542045.70341,190
1660222679.51299,1542045.70342,183
1660222679.51299,1542045.703424,197
1660222679.51299,1542045.7034293,195
1660222679.51299,1542045.7034328,195
1660222679.51299,1542045.703438,204
1660222679.51299,1542045.7034417,209
1660222679.51299,1542045.7034469,204
1660222679.51299,1542045.7034504,204
1660222679.51299,1542045.7034542,195
1660222679.51299,1542045.7034598,176
1660222679.51299,1542045.7034635,174
1660222679.52311,1542045.7034672,169
1660222679.52311,1542045.7034732,162
1660222679.52311,1542045.703477,176
1660222679.52311,1542045.7034805,186
1660222679.52311,1542045.7034841,179
1660222679.52311,1542045.7034916,176
1660222679.52311,1542045.703497,181
1660222679.52311,1542045.7035011,171
1660222679.52311,1542045.7035088,139
1660222679.52311,1542045.7035144,113
1660222679.52311,1542045.7035182,122
1660222679.52311,1542045.7035233,131
1660222679.52311,1542045.703527,134
1660222679.52311,1542045.7035307,153
1660222679.52311,1542045.7035342,155
1660222679.52311,1542045.703538,148
1660222679.52311,1542045.7035431,162
1660222679.52311,1542045.703547,162
1660222679.52311,1542046.2379507,146
1660222679.52311,1542046.2379728,153
1660222679.52311,1542046.2379891,150
1660222679.52311,1542046.2380036,131
1660222679.52311,1542046.2380166,150
1660222679.52311,1542046.23803,207
1660222680.10861,1542046.2380403,204
1660222680.10861,1542046.2380455,23
1660222680.10861,1542046.2380504,-355
1660222680.10861,1542046.2380547,-640
1660222680.10861,1542046.2380593,-421
1660222680.10861,1542046.2380642,108
1660222680.10861,1542046.2380692,348
1660222680.10861,1542046.2380741,252
1660222680.10861,1542046.2380829,167
1660222680.10861,1542046.2380889,150
1660222680.10861,1542046.2380938,115
1660222680.10861,1542046.2381005,89
1660222680.10861,1542046.2381069,84
1660222680.10861,1542046.2381112,70
1660222680.10861,1542046.2381153,56
1660222680.10861,1542046.2381213,54
1660222680.10861,1542046.2381255,65
1660222680.10861,1542046.2381309,70
1660222680.10861,1542046.2381351,44
1660222680.10861,1542046.2381399,4
1660222680.10861,1542046.2381462,0
1660222680.10861,1542046.2381528,11
1660222680.10861,1542046.2381584,14
1660222680.10861,1542046.2381625,11
1660222680.10861,1542046.2381687,-7
1660222680.10861,1542046.2381736,-37
1660222680.10861,1542046.2381774,-47
1660222680.10861,1542046.2381813,-47
1660222680.10861,1542046.2381864,-47
1660222680.10861,1542046.2381903,-35
1660222680.10861,1542046.2381958,-28
1660222680.10861,1542046.2382,-30
1660222680.10861,1542046.2382054,-9
1660222680.10861,1542046.2382106,25
1660222680.10861,1542046.2382143,56
1660222680.10861,1542046.2382186,101
1660222680.10861,1542046.2382259,146
1660222680.10861,1542046.2382301,164
1660222680.10861,1542046.2382372,174
1660222680.10861,1542046.2382493,193
1660222680.10861,1542046.2382574,209
1660222680.10861,1542046.2382698,209
1660222680.10861,1542046.2382822,190
1660222680.10861,1542046.2382922,179
1660222680.10861,1542046.2382956,183
1660222680.10861,1542046.2382993,179
1660222680.10861,1542046.2383013,164
1660222680.10861,1542046.2383034,164
1660222680.10861,1542046.2383054,186
1660222680.10861,1542046.2383074,193
1660222680.12956,1542046.2383093,179
1660222680.12956,1542046.2383114,164
1660222680.12956,1542046.2383133,176
1660222680.12956,1542046.2383153,190
1660222680.12956,1542046.2383174,200
1660222680.12956,1542046.2383195,202
1660222680.12956,1542046.238324,169
1660222680.12956,1542046.238327,150
1660222680.12956,1542046.2383355,181
1660222680.12956,1542046.2383475,202
1660222680.12956,1542046.2383588,209
1660222680.12956,1542046.2383717,209
1660222680.12956,1542046.2383859,183
1660222680.12956,1542046.2383991,162
1660222680.12956,1542046.238412,167
1660222680.12956,1542046.2384251,164
1660222680.12956,1542046.238438,146
1660222680.12956,1542046.8231701,136
1660222680.12956,1542046.8231907,146
1660222680.12956,1542046.8232011,150
1660222680.12956,1542046.8232063,146
1660222680.12956,1542046.8232116,153
1660222680.12956,1542046.8232172,164
1660222680.12956,1542046.8232222,167
1660222680.6372,1542046.8232261,153
1660222680.6372,1542046.8232323,124
1660222680.6372,1542046.8232389,108
1660222680.6372,1542046.8232456,103
1660222680.6372,1542046.8232526,91
1660222680.6372,1542046.8232599,103
1660222680.6372,1542046.8232651,146
1660222680.6372,1542046.8232686,139
1660222680.6372,1542046.8232731,-65
1660222680.6372,1542046.8232765,-440
1660222680.6372,1542046.8232798,-624
1660222680.6372,1542046.8232836,-318
1660222680.6372,1542046.8232874,167
1660222680.6372,1542046.8232908,327
1660222680.6372,1542046.8232945,200
1660222680.6372,1542046.8233012,129
1660222680.6372,1542046.8233062,136
1660222680.6372,1542046.8233108,110
1660222680.6372,1542046.8233144,101
1660222680.6372,1542046.8233177,108
1660222680.6372,1542046.823321,84
1660222680.6372,1542046.8233256,70
1660222680.6372,1542046.8233294,96
1660222680.6372,1542046.8233333,106
1660222680.6372,1542046.823337,82
1660222680.6372,1542046.8233407,73
1660222680.6372,1542046.8233452,77
1660222680.6372,1542046.8233488,73
1660222680.6372,1542046.8233525,68
1660222680.6372,1542046.8233562,65
1660222680.6372,1542046.8233599,51
1660222680.6372,1542046.8233634,40
1660222680.6372,1542046.8233673,32
1660222680.6372,1542046.8233711,16
1660222680.6372,1542046.8233748,-16
1660222680.6372,1542046.8233784,-44
1660222680.6372,1542046.8233821,-49
1660222680.6372,1542046.8233857,-37
1660222680.6372,1542046.8233892,-9
1660222680.6372,1542046.8233932,14
1660222680.6372,1542046.8233968,35
1660222680.6372,1542046.8234,56
1660222680.6372,1542046.8234036,82
1660222680.6372,1542046.8234073,113
1660222680.6372,1542046.8234123,136
1660222680.6372,1542046.823416,162
1660222680.6372,1542046.8234197,200
1660222680.6372,1542046.8234234,214
1660222680.6372,1542046.823427,204
1660222680.6372,1542046.8234315,204
1660222680.64718,1542046.8234347,207
1660222680.64718,1542046.8234387,207
1660222680.64718,1542046.8234426,209
1660222680.64718,1542046.8234468,202
1660222680.64718,1542046.823451,200
1660222680.64718,1542046.8235021,219
1660222680.64718,1542046.8235115,216
1660222680.64718,1542046.8235195,186
1660222680.64718,1542046.8235241,197
1660222680.64718,1542046.8235286,230
1660222680.64718,1542046.8235335,214
1660222680.64718,1542046.8235395,193
1660222680.64718,1542046.8235443,204
1660222680.64718,1542046.8235492,214
1660222680.64718,1542046.8235559,202
1660222680.64718,1542046.8235599,204
1660222680.64718,1542047.3588333,214
1660222680.64718,1542047.3588507,193
1660222680.64718,1542047.35886,164
1660222680.64718,1542047.3588682,162
1660222680.64718,1542047.3588725,167
1660222680.64718,1542047.3588773,162
1660222680.64718,1542047.3588817,157
1660222680.64718,1542047.358888,148
1660222681.22278,1542047.3588948,127
1660222681.22278,1542047.3588991,122
1660222681.22278,1542047.3589043,117
1660222681.22278,1542047.35891,70
1660222681.22278,1542047.3589137,30
1660222681.22278,1542047.3589166,47
1660222681.22278,1542047.3589197,70
1660222681.22278,1542047.3589231,65
1660222681.22278,1542047.3589269,77
1660222681.22278,1542047.3589326,87
1660222681.22278,1542047.3589654,75
1660222681.22278,1542047.3589754,68
1660222681.22278,1542047.3589806,65
1660222681.22278,1542047.3589851,73
1660222681.22278,1542047.3589894,80
1660222681.22278,1542047.3589959,70
1660222681.22278,1542047.359001,84
1660222681.22278,1542047.3590074,139
1660222681.22278,1542047.3590126,124
1660222681.22278,1542047.3590191,-98
1660222681.22278,1542047.359024,-435
1660222681.22278,1542047.3590304,-511
1660222681.22278,1542047.3590352,-157
1660222681.22278,1542047.3590483,245
1660222681.22278,1542047.3590553,334
1660222681.22278,1542047.3590605,214
1660222681.22278,1542047.3590872,120
1660222681.22278,1542047.3590968,103
1660222681.22278,1542047.3591033,106
1660222681.22278,1542047.3591096,96
1660222681.22278,1542047.3591198,101
1660222681.22278,1542047.3591264,96
1660222681.22278,1542047.3591348,75
1660222681.22278,1542047.3591415,89
1660222681.22278,1542047.3591485,106
1660222681.22278,1542047.3591547,84
1660222681.22278,1542047.3591608,73
1660222681.22278,1542047.3591705,80
1660222681.22278,1542047.3591909,77
1660222681.22278,1542047.3591983,68
1660222681.22278,1542047.3592034,58
1660222681.22278,1542047.3592109,44
1660222681.22278,1542047.3592178,25
1660222681.22278,1542047.3592636,25
1660222681.22278,1542047.3592695,35
1660222681.22278,1542047.3592746,25
1660222681.22278,1542047.3592794,9
1660222681.22278,1542047.359284,2
1660222681.22278,1542047.3593211,2
1660222681.22278,1542047.3593286,11
1660222681.23575,1542047.3593318,37
1660222681.23575,1542047.3593347,70
1660222681.23575,1542047.3593379,96
1660222681.23575,1542047.3593514,115
1660222681.23575,1542047.3593572,153
1660222681.23575,1542047.3593618,186
1660222681.23575,1542047.3593644,183
1660222681.23575,1542047.359367,174
1660222681.23575,1542047.3593713,181
1660222681.23575,1542047.3593757,200
1660222681.23575,1542047.3593806,212
1660222681.23575,1542047.3593865,197
1660222681.23575,1542047.3593916,188
1660222681.23575,1542047.3593991,209
1660222681.23575,1542047.3594082,221
1660222681.23575,1542047.9455182,204
1660222681.23575,1542047.9455395,193
1660222681.23575,1542047.9455477,195
1660222681.23575,1542047.9455558,202
1660222681.23575,1542047.9455619,202
1660222681.23575,1542047.9455681,193
1660222681.23575,1542047.9455744,171
1660222681.23575,1542047.9455806,169
1660222681.23575,1542047.9455855,164
1660222681.76053,1542047.9455883,136
1660222681.76053,1542047.9455923,131
1660222681.76053,1542047.9455954,136
1660222681.76053,1542047.9455984,120
1660222681.76053,1542047.9456015,110
1660222681.76053,1542047.9456077,98
1660222681.76053,1542047.9456125,68
1660222681.76053,1542047.945619,65
1660222681.76053,1542047.9456254,84
1660222681.76053,1542047.9456304,68
1660222681.76053,1542047.9456367,54
1660222681.76053,1542047.9456423,65
1660222681.76053,1542047.9456469,63
1660222681.76053,1542047.9456503,42
1660222681.76053,1542047.9456533,37
1660222681.76053,1542047.9456561,35
1660222681.76053,1542047.9456588,9
1660222681.76053,1542047.9456617,7
1660222681.76053,1542047.9456646,28
1660222681.76053,1542047.9456675,30
1660222681.76053,1542047.9456705,25
1660222681.76053,1542047.9456768,47
1660222681.76053,1542047.9456846,73
1660222681.76053,1542047.9456893,75
1660222681.76053,1542047.9456971,73
1660222681.76053,1542047.9457027,84
1660222681.76053,1542047.9457093,94
1660222681.76053,1542047.9457131,82
1660222681.76053,1542047.9457188,89
1660222681.76053,1542047.9457227,143
1660222681.76053,1542047.9457265,162
1660222681.76053,1542047.9457304,2
1660222681.76053,1542047.9457339,-343
1660222681.76053,1542047.9457373,-553
1660222681.76053,1542047.9457408,-313
1660222681.76053,1542047.9457444,136
1660222681.76053,1542047.945749,358
1660222681.76053,1542047.9457527,289
1660222681.76053,1542047.9457587,174
1660222681.76053,1542047.9457622,155
1660222681.76053,1542047.945767,171
1660222681.76053,1542047.9457726,157
1660222681.76053,1542047.9457761,134
1660222681.76053,1542047.9457823,127
1660222681.76053,1542047.9457858,129
1660222681.76053,1542047.9457891,117
1660222681.76053,1542047.9457924,106
1660222681.76053,1542047.9457955,108
1660222681.76053,1542047.9457989,108
1660222681.76053,1542047.9458023,98
1660222681.7725,1542047.9458059,75
1660222681.7725,1542047.9458092,63
1660222681.7725,1542047.9458166,73
1660222681.7725,1542047.945822,63
1660222681.7725,1542047.9458254,54
1660222681.7725,1542047.9458286,51
1660222681.7725,1542047.9458316,21
1660222681.7725,1542047.945835,-9
1660222681.7725,1542047.9458384,-4
1660222681.7725,1542047.9458418,2
1660222681.7725,1542047.945845,0
1660222681.7725,1542047.9458482,14
1660222681.7725,1542047.9458515,25
1660222681.7725,1542047.9458547,44
1660222681.7725,1542048.4813366,75
1660222681.7725,1542048.4813541,103
1660222681.7725,1542048.4813657,139
1660222681.7725,1542048.4813729,167
1660222681.7725,1542048.481382,162
1660222681.7725,1542048.4813913,150
1660222681.7725,1542048.4813999,164
1660222681.7725,1542048.481409,181
1660222681.7725,1542048.4814181,171
1660222681.7725,1542048.4814269,167
1660222682.34477,1542048.481434,179
1660222682.34477,1542048.4814385,162
1660222682.34477,1542048.4814423,122
1660222682.34477,1542048.4814468,117
1660222682.34477,1542048.4814532,134
1660222682.34477,1542048.4814587,131
1660222682.34477,1542048.4814651,117
1660222682.34477,1542048.4814683,89
1660222682.34477,1542048.4814737,54
1660222682.34477,1542048.481477,49
1660222682.34477,1542048.4814799,58
1660222682.34477,1542048.4814831,63
1660222682.34477,1542048.4814884,70
1660222682.34477,1542048.4814921,63
1660222682.34477,1542048.4814956,47
1660222682.34477,1542048.4815016,54
1660222682.34477,1542048.4815072,73
1660222682.34477,1542048.4815113,73
1660222682.34477,1542048.4815151,75
1660222682.34477,1542048.4815188,75
1660222682.34477,1542048.4815224,61
1660222682.34477,1542048.481526,54
1660222682.34477,1542048.4815298,70
1660222682.34477,1542048.4815339,87
1660222682.34477,1542048.481538,84
1660222682.34477,1542048.4815443,63
1660222682.34477,1542048.4815483,42
1660222682.34477,1542048.4815522,42
1660222682.34477,1542048.4815563,61
1660222682.34477,1542048.4815601,87
1660222682.34477,1542048.4815639,101
1660222682.34477,1542048.4815707,96
1660222682.34477,1542048.4815742,98
1660222682.34477,1542048.481578,122
1660222682.34477,1542048.4815831,141
1660222682.34477,1542048.4815883,129
1660222682.34477,1542048.4815915,134
1660222682.34477,1542048.4815949,153
1660222682.34477,1542048.481601,129
1660222682.34477,1542048.4816043,113
1660222682.34477,1542048.4816097,164
1660222682.34477,1542048.4816134,202
1660222682.34477,1542048.4816193,63
1660222682.34477,1542048.4816231,-287
1660222682.34477,1542048.4816268,-558
1660222682.34477,1542048.4816316,-374
1660222682.34477,1542048.4816354,106
1660222682.34477,1542048.4816391,374
1660222682.34477,1542048.4816431,336
1660222682.34477,1542048.4816479,235
1660222682.3587,1542048.4816518,197
1660222682.3587,1542048.4816572,179
1660222682.3587,1542048.4816608,157
1660222682.3587,1542048.4816644,160
1660222682.3587,1542048.48167,169
1660222682.3587,1542048.481674,148
1660222682.3587,1542048.4816795,134
1660222682.3587,1542048.4816844,157
1660222682.3587,1542048.48169,155
1660222682.3587,1542048.481693,117
1660222682.3587,1542048.4816958,108
1660222682.3587,1542048.4816986,117
1660222682.3587,1542048.4817015,106
1660222682.3587,1542049.0654961,94
1660222682.3587,1542049.0655184,94
1660222682.3587,1542049.0655272,82
1660222682.3587,1542049.0655347,54
1660222682.3587,1542049.0655393,28
1660222682.3587,1542049.0655491,23
1660222682.3587,1542049.0655568,28
1660222682.3587,1542049.0655651,14
1660222682.3587,1542049.0655738,-16
1660222682.3587,1542049.0655832,-37
1660222682.3587,1542049.0655906,-18
1660222682.92828,1542049.0655977,14
1660222682.92828,1542049.0656046,21
1660222682.92828,1542049.0656119,40
1660222682.92828,1542049.0656183,70
1660222682.92828,1542049.0656223,75
1660222682.92828,1542049.0656257,89
1660222682.92828,1542049.0656293,103
1660222682.92828,1542049.0656325,108
1660222682.92828,1542049.0656382,122
1660222682.92828,1542049.0656427,122
1660222682.92828,1542049.0656547,101
1660222682.92828,1542049.0656658,87
1660222682.92828,1542049.0656754,96
1660222682.92828,1542049.065686,98
1660222682.92828,1542049.0656971,82
1660222682.92828,1542049.0657061,80
1660222682.92828,1542049.0657172,89
1660222682.92828,1542049.0657282,68
1660222682.92828,1542049.0657372,54
1660222682.92828,1542049.0657419,87
1660222682.92828,1542049.0657522,98
1660222682.92828,1542049.0657576,73
1660222682.92828,1542049.065761,75
1660222682.92828,1542049.0657706,94
1660222682.92828,1542049.0657824,89
1660222682.92828,1542049.0657887,75
1660222682.92828,1542049.0658015,82
1660222682.92828,1542049.0658123,96
1660222682.92828,1542049.0658205,87
1660222682.92828,1542049.0658335,73
1660222682.92828,1542049.0658421,89
1660222682.92828,1542049.0658566,106
1660222682.92828,1542049.0658678,91
1660222682.92828,1542049.065879,98
1660222682.92828,1542049.0658919,106
1660222682.92828,1542049.065905,80
1660222682.92828,1542049.0659134,84
1660222682.92828,1542049.0659184,113
1660222682.92828,1542049.0659245,101
1660222682.92828,1542049.0659287,68
1660222682.92828,1542049.0659349,63
1660222682.92828,1542049.0659451,87
1660222682.92828,1542049.0659517,101
1660222682.92828,1542049.0659588,110
1660222682.92828,1542049.0659628,129
1660222682.92828,1542049.0659686,131
1660222682.92828,1542049.065973,139
1660222682.92828,1542049.0659784,153
1660222682.92828,1542049.0659826,153
1660222682.92828,1542049.0659878,160
1660222682.94694,1542049.0659927,160
1660222682.94694,1542049.0659962,153
1660222682.94694,1542049.0659997,169
1660222682.94694,1542049.0660046,214
1660222682.94694,1542049.06601,228
1660222682.94694,1542049.0660144,96
1660222682.94694,1542049.0660199,-237
1660222682.94694,1542049.0660235,-511
1660222682.94694,1542049.0660273,-339
1660222682.94694,1542049.0660336,136
1660222682.94694,1542049.0660377,393
1660222682.94694,1542049.066043,310
1660222682.94694,1542049.6508949,202
1660222682.94694,1542049.6509078,195
1660222682.94694,1542049.6509105,188
1660222682.94694,1542049.6509127,157
1660222682.94694,1542049.6509147,148
1660222682.94694,1542049.6509167,143
1660222682.94694,1542049.6509187,139
1660222682.94694,1542049.6509206,139
1660222682.94694,1542049.6509226,122
1660222682.94694,1542049.6509246,110
1660222682.94694,1542049.6509266,108
1660222682.94694,1542049.6509286,91
1660222683.50996,1542049.6509305,68
1660222683.50996,1542049.6509325,61
1660222683.50996,1542049.6509344,54
1660222683.50996,1542049.6509363,32
1660222683.50996,1542049.6509381,21
1660222683.50996,1542049.6509401,2
1660222683.50996,1542049.6509431,-32
1660222683.50996,1542049.6509501,-37
1660222683.50996,1542049.650958,-40
1660222683.50996,1542049.6509651,-61
1660222683.50996,1542049.6509722,-65
1660222683.50996,1542049.6509762,-58
1660222683.50996,1542049.650987,-44
1660222683.50996,1542049.6509974,-16
1660222683.50996,1542049.6510044,23
1660222683.50996,1542049.6510147,47
1660222683.50996,1542049.6510182,61
1660222683.50996,1542049.6510218,77
1660222683.50996,1542049.6510238,87
1660222683.50996,1542049.6510264,110
1660222683.50996,1542049.6510285,127
1660222683.50996,1542049.6510306,117
1660222683.50996,1542049.6510375,120
1660222683.50996,1542049.6510486,117
1660222683.50996,1542049.6510535,108
1660222683.50996,1542049.6510555,117
1660222683.50996,1542049.6510575,124
1660222683.50996,1542049.6510595,115
1660222683.50996,1542049.6510628,122
1660222683.50996,1542049.6510756,131
1660222683.50996,1542049.6510826,129
1660222683.50996,1542049.6510858,124
1660222683.50996,1542049.6510879,122
1660222683.50996,1542049.6510899,122
1660222683.50996,1542049.6510935,127
1660222683.50996,1542049.6511063,134
1660222683.50996,1542049.6511119,136
1660222683.50996,1542049.651115,129
1660222683.50996,1542049.651117,117
1660222683.50996,1542049.6511225,124
1660222683.50996,1542049.6511342,136
1660222683.50996,1542049.6511392,139
1660222683.50996,1542049.6511413,143
1660222683.50996,1542049.6511434,139
1660222683.50996,1542049.6511459,122
1660222683.50996,1542049.6511551,129
1660222683.50996,1542049.6511653,146
1660222683.50996,1542049.6511692,141
1660222683.50996,1542049.6511712,124
1660222683.50996,1542049.6511731,117
1660222683.52392,1542049.6511752,106
1660222683.52392,1542049.6511772,84
1660222683.52392,1542049.6511794,75
1660222683.52392,1542049.6511862,82
1660222683.52392,1542049.6511948,108
1660222683.52392,1542049.651199,124
1660222683.52392,1542049.6512048,113
1660222683.52392,1542049.6512103,115
1660222683.52392,1542049.6512164,124
1660222683.52392,1542049.6512216,117
1660222683.52392,1542049.6512277,113
1660222683.52392,1542050.2356221,115
1660222683.52392,1542050.2356454,110
1660222683.52392,1542050.2356613,108
1660222683.52392,1542050.2356742,120
1660222683.52392,1542050.2356814,141
1660222683.52392,1542050.2356871,169
1660222683.52392,1542050.2356931,122
1660222683.52392,1542050.2356988,-131
1660222683.52392,1542050.2357049,-506
1660222683.52392,1542050.2357097,-563
1660222683.52392,1542050.2357159,-150
1660222683.52392,1542050.2357198,242
1660222683.52392,1542050.2357237,282
1660222683.99707,1542050.235729,162
1660222683.99707,1542050.2357333,87
1660222683.99707,1542050.2357367,68
1660222683.99707,1542050.2357401,68
1660222683.99707,1542050.2357434,70
1660222683.99707,1542050.2357465,73
1660222683.99707,1542050.2357498,54
1660222683.99707,1542050.2357533,28
1660222683.99707,1542050.2357568,32
1660222683.99707,1542050.2357602,42
1660222683.99707,1542050.2357636,30
1660222683.99707,1542050.235767,25
1660222683.99707,1542050.2357701,28
1660222683.99707,1542050.2357737,11
1660222683.99707,1542050.2357772,-2
1660222683.99707,1542050.2357808,-4
1660222683.99707,1542050.2357876,-21
1660222683.99707,1542050.2357919,-30
1660222683.99707,1542050.2357956,-40
1660222683.99707,1542050.2358054,-65
1660222683.99707,1542050.2358103,-91
1660222683.99707,1542050.2358146,-96
1660222683.99707,1542050.2358166,-91
1660222683.99707,1542050.2358186,-96
1660222683.99707,1542050.2358206,-108
1660222683.99707,1542050.2358226,-101
1660222683.99707,1542050.2358251,-58
1660222683.99707,1542050.2358275,-18
1660222683.99707,1542050.2358295,-4
1660222683.99707,1542050.2358315,14
1660222683.99707,1542050.2358336,35
1660222683.99707,1542050.2358356,54
1660222683.99707,1542050.2358376,73
1660222683.99707,1542050.2358405,75
1660222683.99707,1542050.2358425,68
1660222683.99707,1542050.2358445,73
1660222683.99707,1542050.2358465,75
1660222683.99707,1542050.2358485,73

1660222683.99707,1542050.2358505,82
1660222683.99707,1542050.2358525,87
1660222683.99707,1542050.2358545,84
1660222683.99707,1542050.2358572,73
1660222683.99707,1542050.2358673,65
1660222683.99707,1542050.2358787,75
1660222683.99707,1542050.2358928,63
1660222683.99707,1542050.2359059,56
1660222683.99707,1542050.235919,77
1660222683.99707,1542050.2359322,77
1660222683.99707,1542050.2359452,70
1660222683.99707,1542050.2359535,70
1660222684.01303,1542050.235956,54
1660222684.01303,1542050.2359581,51
1660222684.01303,1542050.2359601,61
1660222684.01303,1542050.2359628,49
1660222684.01303,1542050.235973,61
1660222684.01303,1542050.2359868,80
1660222684.01303,1542050.2359985,68
1660222684.01303,1542050.2360134,54
1660222684.01303,1542050.2360259,65
1660222684.01303,1542050.2360359,73
1660222684.01303,1542050.7224296,61
1660222684.01303,1542050.7224556,70
1660222684.01303,1542050.7224658,84
1660222684.01303,1542050.7224751,70
1660222684.01303,1542050.7224827,65
1660222684.01303,1542050.7224887,58
1660222684.01303,1542050.7224925,47
1660222684.01303,1542050.7224981,65
1660222684.01303,1542050.7225023,87
1660222684.01303,1542050.7225078,89
1660222684.01303,1542050.722517,115
1660222684.01303,1542050.722522,131
1660222684.01303,1542050.7225284,110
1660222684.01303,1542050.7225316,96
1660222684.5361,1542050.7225359,124
1660222684.5361,1542050.7225427,146
1660222684.5361,1542050.7225496,131
1660222684.5361,1542050.7225551,117
1660222684.5361,1542050.7225591,136
1660222684.5361,1542050.7225645,129
1660222684.5361,1542050.7225715,-65
1660222684.5361,1542050.7225768,-452
1660222684.5361,1542050.7225817,-621
1660222684.5361,1542050.7225907,-292
1660222684.5361,1542050.7225976,169
1660222684.5361,1542050.7226029,313
1660222684.5361,1542050.7226119,209
1660222684.5361,1542050.7226188,139
1660222684.5361,1542050.7226249,136
1660222684.5361,1542050.7226334,117
1660222684.5361,1542050.7226416,98
1660222684.5361,1542050.7226524,98
1660222684.5361,1542050.7226594,101
1660222684.5361,1542050.7226662,106
1660222684.5361,1542050.7226747,103
1660222684.5361,1542050.7226854,101
1660222684.5361,1542050.722696,103
1660222684.5361,1542050.7227034,89
1660222684.5361,1542050.7227142,80
1660222684.5361,1542050.7227244,75
1660222684.5361,1542050.7227299,73
1660222684.5361,1542050.7227431,75
1660222684.5361,1542050.7227525,63
1660222684.5361,1542050.7227587,37
1660222684.5361,1542050.7227709,-2
1660222684.5361,1542050.7227794,-25
1660222684.5361,1542050.7227879,-14
1660222684.5361,1542050.7227987,-18
1660222684.5361,1542050.722807,-42
1660222684.5361,1542050.7228169,-49
1660222684.5361,1542050.7228274,-35
1660222684.5361,1542050.7228348,-9
1660222684.5361,1542050.7228459,9
1660222684.5361,1542050.722856,25
1660222684.5361,1542050.7228624,61
1660222684.5361,1542050.7228747,91
1660222684.5361,1542050.7228835,94
1660222684.5361,1542050.7228911,103
1660222684.5361,1542050.7229019,129
1660222684.5361,1542050.7229104,148
1660222684.5361,1542050.7229195,150
1660222684.5361,1542050.7229301,155
1660222684.5361,1542050.7229379,153
1660222684.5361,1542050.7229482,150
1660222684.55006,1542050.7229587,155
1660222684.55006,1542050.7229673,155
1660222684.55006,1542050.7229771,143
1660222684.55006,1542050.7229875,136
1660222684.55006,1542050.722994,141
1660222684.55006,1542050.7230061,155
1660222684.55006,1542050.7230149,164
1660222684.55006,1542050.7230231,160
1660222684.55006,1542050.7230339,160
1660222684.55006,1542051.2607092,174
1660222684.55006,1542051.2607288,174
1660222684.55006,1542051.2607384,155
1660222684.55006,1542051.2607479,148
1660222684.55006,1542051.2607549,157
1660222684.55006,1542051.2607639,162
1660222684.55006,1542051.2607727,160
1660222684.55006,1542051.26078,157
1660222684.55006,1542051.2607884,143
1660222684.55006,1542051.2607953,124
1660222684.55006,1542051.2608057,129
1660222684.55006,1542051.2608126,143
1660222684.55006,1542051.2608162,134
1660222684.55006,1542051.2608198,110
1660222684.55006,1542051.2608249,101
1660222685.12112,1542051.2608284,96
1660222685.12112,1542051.2608317,87
1660222685.12112,1542051.2608349,84
1660222685.12112,1542051.2608385,96
1660222685.12112,1542051.2608417,115
1660222685.12112,1542051.2608449,113
1660222685.12112,1542051.2608482,108
1660222685.12112,1542051.2608513,129
1660222685.12112,1542051.2608544,153
1660222685.12112,1542051.2608575,162
1660222685.12112,1542051.2608607,171
1660222685.12112,1542051.2608639,169
1660222685.12112,1542051.2608672,164
1660222685.12112,1542051.2608703,179
1660222685.12112,1542051.2608735,200
1660222685.12112,1542051.2608768,228
1660222685.12112,1542051.2608801,200
1660222685.12112,1542051.2608851,-42
1660222685.12112,1542051.2608897,-431
1660222685.12112,1542051.2608932,-539
1660222685.12112,1542051.2608964,-136
1660222685.12112,1542051.2608993,346
1660222685.12112,1542051.2609022,426
1660222685.12112,1542051.2609052,263
1660222685.12112,1542051.260908,209
1660222685.12112,1542051.260911,223
1660222685.12112,1542051.2609161,190
1660222685.12112,1542051.2609189,183
1660222685.12112,1542051.2609219,214
1660222685.12112,1542051.2609249,204
1660222685.12112,1542051.2609278,171
1660222685.12112,1542051.2609308,176
1660222685.12112,1542051.2609353,183
1660222685.12112,1542051.2609382,153
1660222685.12112,1542051.2609905,122
1660222685.12112,1542051.2610351,122
1660222685.12112,1542051.2610494,127
1660222685.12112,1542051.2610646,117
1660222685.12112,1542051.2610752,94
1660222685.12112,1542051.261082,82
1660222685.12112,1542051.2610864,77
1660222685.12112,1542051.2610931,51
1660222685.12112,1542051.2611054,25
1660222685.12112,1542051.2611117,14
1660222685.12112,1542051.261114,2
1660222685.12112,1542051.2611161,4
1660222685.12112,1542051.2611182,23
1660222685.12112,1542051.2611269,23
1660222685.12112,1542051.2611289,28
1660222685.12112,1542051.2611309,54
1660222685.13408,1542051.2611329,68
1660222685.13408,1542051.2611349,82
1660222685.13408,1542051.2611371,122
1660222685.13408,1542051.2611392,160
1660222685.13408,1542051.2611412,169
1660222685.13408,1542051.2611432,160
1660222685.13408,1542051.2611452,153
1660222685.13408,1542051.2611472,162
1660222685.13408,1542051.8441367,176
1660222685.13408,1542051.8441557,188
1660222685.13408,1542051.8441648,188
1660222685.13408,1542051.8441699,171
1660222685.13408,1542051.8441765,160
1660222685.13408,1542051.8441813,171
1660222685.13408,1542051.8441874,181
1660222685.13408,1542051.8441922,174
1660222685.13408,1542051.8441984,169
1660222685.13408,1542051.8442045,171
1660222685.13408,1542051.8442093,169
1660222685.13408,1542051.8442138,155
1660222685.13408,1542051.8442199,139
1660222685.13408,1542051.8442241,141
1660222685.13408,1542051.8442286,148
1660222685.13408,1542051.8442344,146
1660222685.71744,1542051.8442399,155
1660222685.71744,1542051.8442445,146
1660222685.71744,1542051.8442488,113
1660222685.71744,1542051.8442529,108
1660222685.71744,1542051.8442571,129
1660222685.71744,1542051.8442614,131
1660222685.71744,1542051.8442656,117
1660222685.71744,1542051.8442697,124
1660222685.71744,1542051.8442741,136
1660222685.71744,1542051.8442777,124
1660222685.71744,1542051.8442818,101
1660222685.71744,1542051.8442859,94
1660222685.71744,1542051.8442901,98
1660222685.71744,1542051.8442946,106
1660222685.71744,1542051.8443007,120
1660222685.71744,1542051.8443051,136
1660222685.71744,1542051.8443112,162
1660222685.71744,1542051.8443166,188
1660222685.71744,1542051.8443209,181
1660222685.71744,1542051.844327,167
1660222685.71744,1542051.8443314,181
1660222685.71744,1542051.8443367,190
1660222685.71744,1542051.8443403,186
1660222685.71744,1542051.8443438,216
1660222685.71744,1542051.8443474,270
1660222685.71744,1542051.8443514,200
1660222685.71744,1542051.8443573,-113
1660222685.71744,1542051.8443618,-490
1660222685.71744,1542051.8443668,-506
1660222685.71744,1542051.8443702,-54
1660222685.71744,1542051.844374,374
1660222685.71744,1542051.8443777,393
1660222685.71744,1542051.8443811,247
1660222685.71744,1542051.8443866,209
1660222685.71744,1542051.8443901,209
1660222685.71744,1542051.8443955,195
1660222685.71744,1542051.8443992,202
1660222685.71744,1542051.8444028,200
1660222685.71744,1542051.8444065,176
1660222685.71744,1542051.8444123,174
1660222685.71744,1542051.8444167,186
1660222685.71744,1542051.8444223,183
1660222685.71744,1542051.8444259,164
1660222685.71744,1542051.8444298,148
1660222685.71744,1542051.8444338,143
1660222685.71744,1542051.8444398,129
1660222685.71744,1542051.844446,110
1660222685.71744,1542051.8444522,106
1660222685.71744,1542051.8444556,91
1660222685.71744,1542051.8444589,80
1660222685.74181,1542051.8444619,87
1660222685.74181,1542051.8444668,68
1660222685.74181,1542051.8444726,35
1660222685.74181,1542051.8444763,21
1660222685.74181,1542051.8444819,7
1660222685.74181,1542051.8444866,14
1660222685.74181,1542051.8444903,49
1660222685.74181,1542052.4291892,80
1660222685.74181,1542052.4292148,82
1660222685.74181,1542052.4292291,87
1660222685.74181,1542052.4292395,117
1660222685.74181,1542052.4292476,139
1660222685.74181,1542052.429253,143
1660222685.74181,1542052.4292578,164
1660222685.74181,1542052.4292638,162
1660222685.74181,1542052.429269,131
1660222685.74181,1542052.429274,129
1660222685.74181,1542052.4292793,146
1660222685.74181,1542052.4292854,136
1660222685.74181,1542052.4292906,129
1660222685.74181,1542052.4292957,131
1660222685.74181,1542052.4293024,108
1660222685.74181,1542052.429306,84
1660222685.74181,1542052.4293113,89
1660222686.24149,1542052.4293167,82
1660222686.24149,1542052.4293209,68
1660222686.24149,1542052.4293257,82
1660222686.24149,1542052.4293295,84
1660222686.24149,1542052.4293337,65
1660222686.24149,1542052.4293375,70
1660222686.24149,1542052.4293419,87
1660222686.24149,1542052.4293464,80
1660222686.24149,1542052.4293507,87
1660222686.24149,1542052.429355,103
1660222686.24149,1542052.4293588,91
1660222686.24149,1542052.4293636,77
1660222686.24149,1542052.4293677,96
1660222686.24149,1542052.4293732,101
1660222686.24149,1542052.4293786,80
1660222686.24149,1542052.4293859,65
1660222686.24149,1542052.4293923,56
1660222686.24149,1542052.4293986,30
1660222686.24149,1542052.4294054,23
1660222686.24149,1542052.4294122,58
1660222686.24149,1542052.4294166,75
1660222686.24149,1542052.4294261,63
1660222686.24149,1542052.4294333,73
1660222686.24149,1542052.4294388,87
1660222686.24149,1542052.4294453,103
1660222686.24149,1542052.42945,117
1660222686.24149,1542052.4294582,106
1660222686.24149,1542052.4294657,96
1660222686.24149,1542052.4294728,113
1660222686.24149,1542052.4294765,117
1660222686.24149,1542052.429484,127
1660222686.24149,1542052.4294923,167
1660222686.24149,1542052.4294957,134
1660222686.24149,1542052.4295006,-115
1660222686.24149,1542052.4295042,-466
1660222686.24149,1542052.4295078,-525
1660222686.24149,1542052.4295115,-136
1660222686.24149,1542052.4295159,292
1660222686.24149,1542052.4295223,351
1660222686.24149,1542052.4295299,181
1660222686.24149,1542052.4295352,113
1660222686.24149,1542052.4295402,136
1660222686.24149,1542052.4295476,120
1660222686.24149,1542052.4295518,98
1660222686.24149,1542052.4295608,110
1660222686.24149,1542052.429569,115
1660222686.24149,1542052.4295787,96
1660222686.24149,1542052.4295852,84
1660222686.24149,1542052.4295942,75
1660222686.24149,1542052.4296016,68
1660222686.2561,1542052.429611,80
1660222686.2561,1542052.429619,89
1660222686.2561,1542052.4296255,68
1660222686.2561,1542052.4296345,44
1660222686.2561,1542052.4296455,30
1660222686.2561,1542052.4296575,23
1660222686.2561,1542052.9664292,21
1660222686.2561,1542052.9664419,4
1660222686.2561,1542052.9664446,-18
1660222686.2561,1542052.9664468,-14
1660222686.2561,1542052.966449,4
1660222686.2561,1542052.966451,-9
1660222686.2561,1542052.9664532,-25
1660222686.2561,1542052.9664552,-11
1660222686.2561,1542052.9664572,2
1660222686.2561,1542052.9664592,9
1660222686.2561,1542052.9664612,35
1660222686.2561,1542052.9664632,51
1660222686.2561,1542052.9664652,40
1660222686.2561,1542052.9664672,56
1660222686.2561,1542052.9664693,89
1660222686.2561,1542052.9664713,89
1660222686.2561,1542052.9664747,87
1660222686.2561,1542052.9664856,84
1660222686.84029,1542052.9664925,47
1660222686.84029,1542052.9664989,25
1660222686.84029,1542052.966508,40
1660222686.84029,1542052.9665147,58
1660222686.84029,1542052.9665235,65
1660222686.84029,1542052.9665363,56
1660222686.84029,1542052.9665465,44
1660222686.84029,1542052.966558,37
1660222686.84029,1542052.9665681,32
1660222686.84029,1542052.9665731,37
1660222686.84029,1542052.9665751,40
1660222686.84029,1542052.9665772,40
1660222686.84029,1542052.9665846,51
1660222686.84029,1542052.9665973,58
1660222686.84029,1542052.9666041,51
1660222686.84029,1542052.9666074,58
1660222686.84029,1542052.9666095,77
1660222686.84029,1542052.9666115,75
1660222686.84029,1542052.9666135,70
1660222686.84029,1542052.9666155,80
1660222686.84029,1542052.9666176,80
1660222686.84029,1542052.9666195,82
1660222686.84029,1542052.9666214,82
1660222686.84029,1542052.9666234,63
1660222686.84029,1542052.9666254,44
1660222686.84029,1542052.9666273,40
1660222686.84029,1542052.9666293,49
1660222686.84029,1542052.9666313,75
1660222686.84029,1542052.9666333,106
1660222686.84029,1542052.9666352,127
1660222686.84029,1542052.9666372,134
1660222686.84029,1542052.9666392,134
1660222686.84029,1542052.9666411,136
1660222686.84029,1542052.9666431,139
1660222686.84029,1542052.966645,162
1660222686.84029,1542052.966647,183
1660222686.84029,1542052.966649,171
1660222686.84029,1542052.9666509,176
1660222686.84029,1542052.9666528,221
1660222686.84029,1542052.9666548,209
1660222686.84029,1542052.9666572,23
1660222686.84029,1542052.9666592,-308
1660222686.84029,1542052.9666613,-428
1660222686.84029,1542052.9666633,-84
1660222686.84029,1542052.9666654,341
1660222686.84029,1542052.966675,426
1660222686.84029,1542052.966687,292
1660222686.84029,1542052.9666951,228
1660222686.84029,1542052.9667445,237
1660222686.84029,1542052.9667582,212
1660222686.8551,1542052.9667713,197
1660222686.8551,1542052.9667851,212
1660222686.8551,1542052.9667937,209
1660222686.8551,1542052.966796,202
1660222686.8551,1542052.9668032,183
1660222686.8551,1542053.5506305,155
1660222686.8551,1542053.5506502,167
1660222686.8551,1542053.5506656,174
1660222686.8551,1542053.5506793,155
1660222686.8551,1542053.5506916,143
1660222686.8551,1542053.5507001,136
1660222686.8551,1542053.5507069,129
1660222686.8551,1542053.5507175,115
1660222686.8551,1542053.5507256,80
1660222686.8551,1542053.5507323,58
1660222686.8551,1542053.550737,61
1660222686.8551,1542053.550743,63
1660222686.8551,1542053.5507495,49
1660222686.8551,1542053.5507554,30
1660222686.8551,1542053.5507604,16
1660222686.8551,1542053.5507658,21
1660222686.8551,1542053.5507724,51
1660222686.8551,1542053.5507789,91
1660222686.8551,1542053.550788,108
1660222687.4203,1542053.5507935,103
1660222687.4203,1542053.5507974,110
1660222687.4203,1542053.5508015,124
1660222687.4203,1542053.5508055,141
1660222687.4203,1542053.550809,164
1660222687.4203,1542053.5508129,174
1660222687.4203,1542053.5508166,167
1660222687.4203,1542053.5508204,162
1660222687.4203,1542053.5508245,164
1660222687.4203,1542053.5508286,169
1660222687.4203,1542053.5508327,169
1660222687.4203,1542053.5508365,164
1660222687.4203,1542053.55084,155
1660222687.4203,1542053.5508436,136
1660222687.4203,1542053.550847,127
1660222687.4203,1542053.5508505,136
1660222687.4203,1542053.5508542,153
1660222687.4203,1542053.5508578,153
1660222687.4203,1542053.5508615,136
1660222687.4203,1542053.550865,143
1660222687.4203,1542053.5508686,155
1660222687.4203,1542053.5508723,143
1660222687.4203,1542053.5508763,148
1660222687.4203,1542053.5508812,153
1660222687.4203,1542053.5508849,148
1660222687.4203,1542053.5508885,162
1660222687.4203,1542053.550892,181
1660222687.4203,1542053.5508996,176
1660222687.4203,1542053.5509032,157
1660222687.4203,1542053.550907,155
1660222687.4203,1542053.5509106,167
1660222687.4203,1542053.5509142,171
1660222687.4203,1542053.5509178,157
1660222687.4203,1542053.5509215,141
1660222687.4203,1542053.5509252,131
1660222687.4203,1542053.5509287,139
1660222687.4203,1542053.5509322,150
1660222687.4203,1542053.550937,164
1660222687.4203,1542053.5509416,183
1660222687.4203,1542053.5509453,209
1660222687.4203,1542053.5509514,219
1660222687.4203,1542053.5509551,209
1660222687.4203,1542053.5509588,202
1660222687.4203,1542053.5509646,212
1660222687.4203,1542053.5509698,209
1660222687.4203,1542053.5509767,202
1660222687.4203,1542053.5509886,207
1660222687.4203,1542053.5509958,230
1660222687.4203,1542053.5509998,263
1660222687.4203,1542053.5510034,200
1660222687.44478,1542053.5510071,-87
1660222687.44478,1542053.5510109,-391
1660222687.44478,1542053.5510212,-294
1660222687.44478,1542053.5510275,150
1660222687.44478,1542054.1352589,452
1660222687.44478,1542054.1352794,409
1660222687.44478,1542054.1352885,275
1660222687.44478,1542054.1352933,252
1660222687.44478,1542054.1353001,259
1660222687.44478,1542054.1353042,223
1660222687.44478,1542054.1353096,200
1660222687.44478,1542054.1353166,219
1660222687.44478,1542054.1353237,216
1660222687.44478,1542054.1353289,200
1660222687.44478,1542054.1353322,197
1660222687.44478,1542054.1353371,167
1660222687.44478,1542054.1353435,115
1660222687.44478,1542054.1353474,110
1660222687.44478,1542054.1353524,122
1660222687.44478,1542054.1353575,103
1660222687.44478,1542054.1353644,84
1660222687.44478,1542054.1353719,68
1660222687.44478,1542054.1353761,44
1660222687.44478,1542054.1353833,32
1660222687.95144,1542054.13539,30
1660222687.95144,1542054.1353964,28
1660222687.95144,1542054.135407,21
1660222687.95144,1542054.1354148,11
1660222687.95144,1542054.1354193,4
1660222687.95144,1542054.1354236,0
1660222687.95144,1542054.1354292,16
1660222687.95144,1542054.1354331,42
1660222687.95144,1542054.1354393,70
1660222687.95144,1542054.13545,106
1660222687.95144,1542054.1354535,124
1660222687.95144,1542054.1354565,139
1660222687.95144,1542054.1354593,171
1660222687.95144,1542054.1354622,195
1660222687.95144,1542054.1354651,202
1660222687.95144,1542054.135468,212
1660222687.95144,1542054.1354709,207
1660222687.95144,1542054.1354738,193
1660222687.95144,1542054.1354766,197
1660222687.95144,1542054.1354795,212
1660222687.95144,1542054.1354825,209
1660222687.95144,1542054.1354854,204
1660222687.95144,1542054.1354883,193
1660222687.95144,1542054.1354913,179
1660222687.95144,1542054.1354941,183
1660222687.95144,1542054.135497,190
1660222687.95144,1542054.1354999,171
1660222687.95144,1542054.1355028,160
1660222687.95144,1542054.1355058,171
1660222687.95144,1542054.1355086,167
1660222687.95144,1542054.1355115,150
1660222687.95144,1542054.1355144,162
1660222687.95144,1542054.1355173,171
1660222687.95144,1542054.1355206,160
1660222687.95144,1542054.1355242,150
1660222687.95144,1542054.1355262,146
1660222687.95144,1542054.1355282,150
1660222687.95144,1542054.1355303,146
1660222687.95144,1542054.1355323,143
1660222687.95144,1542054.1355343,155
1660222687.95144,1542054.1355363,148
1660222687.95144,1542054.1355383,129
1660222687.95144,1542054.1355403,129
1660222687.95144,1542054.1355424,131
1660222687.95144,1542054.1355444,117
1660222687.95144,1542054.1355464,110
1660222687.95144,1542054.1355484,129
1660222687.95144,1542054.1355505,148
1660222687.95144,1542054.1355526,150
1660222687.95144,1542054.1355546,164
1660222687.9674,1542054.1355566,190
1660222687.9674,1542054.1355586,197
1660222687.9674,1542054.1355605,193
1660222687.9674,1542054.6720693,186
1660222687.9674,1542054.6720869,188
1660222687.9674,1542054.6720958,193
1660222687.9674,1542054.6721023,197
1660222687.9674,1542054.6721081,212
1660222687.9674,1542054.6721123,221
1660222687.9674,1542054.6721177,176
1660222687.9674,1542054.6721218,-54
1660222687.9674,1542054.6721341,-409
1660222687.9674,1542054.6721428,-428
1660222687.9674,1542054.6721486,-2
1660222687.9674,1542054.6721529,339
1660222687.9674,1542054.6721583,341
1660222687.9674,1542054.6721621,240
1660222687.9674,1542054.6721659,186
1660222687.9674,1542054.6721713,160
1660222687.9674,1542054.6721768,148
1660222687.9674,1542054.6721806,148
1660222687.9674,1542054.6721862,148
1660222687.9674,1542054.6721906,150
1660222687.9674,1542054.6721959,127
1660222688.49272,1542054.6721997,87
1660222688.49272,1542054.6722035,77
1660222688.49272,1542054.6722072,96
1660222688.49272,1542054.6722109,110
1660222688.49272,1542054.6722142,94
1660222688.49272,1542054.6722178,68
1660222688.49272,1542054.6722215,65
1660222688.49272,1542054.672225,65
1660222688.49272,1542054.6722284,44
1660222688.49272,1542054.6722316,37
1660222688.49272,1542054.6722349,56
1660222688.49272,1542054.6722396,61
1660222688.49272,1542054.6722432,40
1660222688.49272,1542054.6722485,14
1660222688.49272,1542054.6722531,18
1660222688.49272,1542054.6722585,37
1660222688.49272,1542054.6722624,54
1660222688.49272,1542054.6722664,68
1660222688.49272,1542054.6722716,89
1660222688.49272,1542054.6722755,108
1660222688.49272,1542054.6722793,124
1660222688.49272,1542054.6722847,153
1660222688.49272,1542054.6722894,195
1660222688.49272,1542054.6722947,209
1660222688.49272,1542054.6722983,204
1660222688.49272,1542054.6723021,202
1660222688.49272,1542054.672306,200
1660222688.49272,1542054.6723113,195
1660222688.49272,1542054.6723158,200
1660222688.49272,1542054.6723212,204
1660222688.49272,1542054.6723249,195
1660222688.49272,1542054.6723287,179
1660222688.49272,1542054.6723325,190
1660222688.49272,1542054.672338,195
1660222688.49272,1542054.6723424,164
1660222688.49272,1542054.6723478,153
1660222688.49272,1542054.6723515,164
1660222688.49272,1542054.6723554,157
1660222688.49272,1542054.6723593,148
1660222688.49272,1542054.6723645,150
1660222688.49272,1542054.6723684,148
1660222688.49272,1542054.6723738,146
1660222688.49272,1542054.6723776,148
1660222688.49272,1542054.6723814,148
1660222688.49272,1542054.6723853,139
1660222688.49272,1542054.6723907,131
1660222688.49272,1542054.6723948,141
1660222688.49272,1542054.6724001,155
1660222688.49272,1542054.6724041,150
1660222688.49272,1542054.6724078,127
1660222688.50968,1542054.6724117,101
1660222688.50968,1542054.6724171,84
1660222688.50968,1542055.2079746,75
1660222688.50968,1542055.2080021,73
1660222688.50968,1542055.2080176,89
1660222688.50968,1542055.2080313,101
1660222688.50968,1542055.2080444,106
1660222688.50968,1542055.2080581,110
1660222688.50968,1542055.2080726,122
1660222688.50968,1542055.2080812,139
1660222688.50968,1542055.2080929,143
1660222688.50968,1542055.2080973,141
1660222688.50968,1542055.2081012,136
1660222688.50968,1542055.2081073,113
1660222688.50968,1542055.2081108,103
1660222688.50968,1542055.2081154,122
1660222688.50968,1542055.2081192,150
1660222688.50968,1542055.2081228,160
1660222688.50968,1542055.208127,56
1660222688.50968,1542055.2081309,-270
1660222688.50968,1542055.2081366,-544
1660222688.50968,1542055.2081403,-341
1660222688.50968,1542055.208144,134
1660222688.50968,1542055.2081478,355
1660222689.07954,1542055.208152,273
1660222689.07954,1542055.2081577,162
1660222689.07954,1542055.2081624,134
1660222689.07954,1542055.2081672,134
1660222689.07954,1542055.2081742,122
1660222689.07954,1542055.208181,108
1660222689.07954,1542055.2081879,113
1660222689.07954,1542055.2081942,124
1660222689.07954,1542055.2081987,103
1660222689.07954,1542055.2082037,89
1660222689.07954,1542055.2082081,103
1660222689.07954,1542055.2082124,115
1660222689.07954,1542055.2082155,103
1660222689.07954,1542055.2082188,91
1660222689.07954,1542055.2082218,80
1660222689.07954,1542055.2082249,51
1660222689.07954,1542055.2082288,42
1660222689.07954,1542055.2082319,56
1660222689.07954,1542055.2082353,42
1660222689.07954,1542055.2082385,21
1660222689.07954,1542055.2082416,23
1660222689.07954,1542055.2082449,25
1660222689.07954,1542055.2082481,16
1660222689.07954,1542055.2082518,21
1660222689.07954,1542055.2082554,30
1660222689.07954,1542055.2082592,32
1660222689.07954,1542055.2082626,58
1660222689.07954,1542055.2082674,89
1660222689.07954,1542055.2082729,110
1660222689.07954,1542055.2082767,146
1660222689.07954,1542055.2082828,169
1660222689.07954,1542055.2082864,174
1660222689.07954,1542055.2082899,190
1660222689.07954,1542055.2082933,204
1660222689.07954,1542055.2082976,202
1660222689.07954,1542055.2083012,190
1660222689.07954,1542055.2083071,200
1660222689.07954,1542055.2083107,207
1660222689.07954,1542055.2083151,188
1660222689.07954,1542055.2083204,179
1660222689.07954,1542055.208325,179
1660222689.07954,1542055.2083392,150
1660222689.07954,1542055.2083433,122
1660222689.07954,1542055.2083496,124
1660222689.07954,1542055.2083543,136
1660222689.07954,1542055.2083582,131
1660222689.07954,1542055.2083627,122
1660222689.07954,1542055.2083671,106
1660222689.07954,1542055.208371,91
1660222689.07954,1542055.2083755,96
1660222689.0965,1542055.2083836,103
1660222689.0965,1542055.793018,106
1660222689.0965,1542055.7930397,106
1660222689.0965,1542055.7930498,89
1660222689.0965,1542055.7930569,91
1660222689.0965,1542055.7930626,117
1660222689.0965,1542055.7930656,115
1660222689.0965,1542055.7930701,91
1660222689.0965,1542055.7930734,63
1660222689.0965,1542055.7930772,23
1660222689.0965,1542055.7930805,2
1660222689.0965,1542055.7930864,30
1660222689.0965,1542055.7930939,65
1660222689.0965,1542055.7931018,77
1660222689.0965,1542055.7931084,68
1660222689.0965,1542055.7931152,47
1660222689.0965,1542055.7931193,47
1660222689.0965,1542055.7931236,73
1660222689.0965,1542055.7931276,73
1660222689.0965,1542055.7931317,65
1660222689.0965,1542055.793138,89
1660222689.0965,1542055.793142,103
1660222689.0965,1542055.7931473,94
1660222689.0965,1542055.793151,115
1660222689.61105,1542055.7931555,141
1660222689.61105,1542055.7931592,23
1660222689.61105,1542055.7931628,-320
1660222689.61105,1542055.7931664,-619
1660222689.61105,1542055.7931701,-447
1660222689.61105,1542055.7931739,82
1660222689.61105,1542055.7931777,391
1660222689.61105,1542055.793181,301
1660222689.61105,1542055.7931842,167
1660222689.61105,1542055.7931904,157
1660222689.61105,1542055.7931942,141
1660222689.61105,1542055.7931981,101
1660222689.61105,1542055.7932018,115
1660222689.61105,1542055.7932056,129
1660222689.61105,1542055.7932091,115
1660222689.61105,1542055.7932128,108
1660222689.61105,1542055.7932165,103
1660222689.61105,1542055.7932202,98
1660222689.61105,1542055.7932238,89
1660222689.61105,1542055.7932275,75
1660222689.61105,1542055.7932314,84
1660222689.61105,1542055.793235,89
1660222689.61105,1542055.7932385,56
1660222689.61105,1542055.7932421,35
1660222689.61105,1542055.7932459,44
1660222689.61105,1542055.7932495,40
1660222689.61105,1542055.7932532,14
1660222689.61105,1542055.7932567,9
1660222689.61105,1542055.7932609,23
1660222689.61105,1542055.7932646,11
1660222689.61105,1542055.7932696,-14
1660222689.61105,1542055.7932735,0
1660222689.61105,1542055.7932789,23
1660222689.61105,1542055.7932841,25
1660222689.61105,1542055.793288,44
1660222689.61105,1542055.7932919,84
1660222689.61105,1542055.7932977,117
1660222689.61105,1542055.7933017,129
1660222689.61105,1542055.7933071,134
1660222689.61105,1542055.7933111,150
1660222689.61105,1542055.7933164,162
1660222689.61105,1542055.7933203,162
1660222689.61105,1542055.7933259,164
1660222689.61105,1542055.7933298,160
1660222689.61105,1542055.7933351,155
1660222689.61105,1542055.7933411,164
1660222689.61105,1542055.7933463,171
1660222689.61105,1542055.79335,150
1660222689.61105,1542055.793355,127
1660222689.61105,1542055.7933604,120
1660222689.62808,1542056.3290208,127
1660222689.62808,1542056.3290413,127
1660222689.62808,1542056.3290575,122
1660222689.62808,1542056.3290728,117
1660222689.62808,1542056.3290863,101
1660222689.62808,1542056.3290952,98
1660222689.62808,1542056.3291092,117
1660222689.62808,1542056.3291226,124
1660222689.62808,1542056.3291356,106
1660222689.62808,1542056.3291477,94
1660222689.62808,1542056.329159,98
1660222689.62808,1542056.3291736,73
1660222689.62808,1542056.3291876,51
1660222689.62808,1542056.3292006,63
1660222689.62808,1542056.3292123,49
1660222689.62808,1542056.329225,35
1660222689.62808,1542056.3292386,49
1660222689.62808,1542056.3292526,23
1660222689.62808,1542056.329267,-9
1660222689.62808,1542056.3292812,14
1660222689.62808,1542056.3292952,49
1660222689.62808,1542056.3293101,54
1660222689.62808,1542056.329324,56
1660222689.62808,1542056.329338,68
1660222690.20503,1542056.3293523,70
1660222690.20503,1542056.3293606,63
1660222690.20503,1542056.3293676,63
1660222690.20503,1542056.3293745,82
1660222690.20503,1542056.3293794,120
1660222690.20503,1542056.3293838,164
1660222690.20503,1542056.3293957,98
1660222690.20503,1542056.3294033,-190
1660222690.20503,1542056.3294106,-553
1660222690.20503,1542056.3294177,-544
1660222690.20503,1542056.3294228,-63
1660222690.20503,1542056.3294304,348
1660222690.20503,1542056.3294371,336
1660222690.20503,1542056.3294472,193
1660222690.20503,1542056.3294518,160
1660222690.20503,1542056.3294594,153
1660222690.20503,1542056.3294667,127
1660222690.20503,1542056.3294736,131
1660222690.20503,1542056.3294811,143
1660222690.20503,1542056.3294898,129
1660222690.20503,1542056.3295024,110
1660222690.20503,1542056.3295129,115
1660222690.20503,1542056.3295229,120
1660222690.20503,1542056.3295332,98
1660222690.20503,1542056.3295438,91
1660222690.20503,1542056.3295511,84
1660222690.20503,1542056.329564,68
1660222690.20503,1542056.3295747,42
1660222690.20503,1542056.3295843,21
1660222690.20503,1542056.3295947,11
1660222690.20503,1542056.3296054,14
1660222690.20503,1542056.3296124,9
1660222690.20503,1542056.3296257,-16
1660222690.20503,1542056.3296376,-37
1660222690.20503,1542056.3296497,-30
1660222690.20503,1542056.3296616,-11
1660222690.20503,1542056.3296746,4
1660222690.20503,1542056.3296887,21
1660222690.20503,1542056.3297024,35
1660222690.20503,1542056.3297149,61
1660222690.20503,1542056.3297297,101
1660222690.20503,1542056.3297423,122
1660222690.20503,1542056.3297527,141
1660222690.20503,1542056.329767,164
1660222690.20503,1542056.3297811,176
1660222690.20503,1542056.3297949,190
1660222690.20503,1542056.3298085,202
1660222690.20503,1542056.3298176,202
1660222690.20503,1542056.3298299,202
1660222690.20503,1542056.9159694,204
1660222690.21998,1542056.9159922,193
1660222690.21998,1542056.9160035,183
1660222690.21998,1542056.9160097,190
1660222690.21998,1542056.916018,190
1660222690.21998,1542056.9160255,183
1660222690.21998,1542056.916034,179
1660222690.21998,1542056.9160401,155
1660222690.21998,1542056.9160481,113
1660222690.21998,1542056.9160539,101
1660222690.21998,1542056.9160621,106
1660222690.21998,1542056.9160693,98
1660222690.21998,1542056.9160764,80
1660222690.21998,1542056.9160798,70
1660222690.21998,1542056.9160828,54
1660222690.21998,1542056.9160856,42
1660222690.21998,1542056.9160885,51
1660222690.21998,1542056.9160912,51
1660222690.21998,1542056.916094,44
1660222690.21998,1542056.9160968,47
1660222690.21998,1542056.9160996,35
1660222690.21998,1542056.9161024,4
1660222690.21998,1542056.9161053,7
1660222690.21998,1542056.916108,44
1660222690.21998,1542056.9161108,61
1660222690.73466,1542056.9161146,49
1660222690.73466,1542056.9161213,63
1660222690.73466,1542056.916128,98
1660222690.73466,1542056.9161349,110
1660222690.73466,1542056.9161417,106
1660222690.73466,1542056.9161455,110
1660222690.73466,1542056.9161559,117
1660222690.73466,1542056.9161634,113
1660222690.73466,1542056.916177,115
1660222690.73466,1542056.9161896,146
1660222690.73466,1542056.9162027,176
1660222690.73466,1542056.9162111,101
1660222690.73466,1542056.9162137,-197
1660222690.73466,1542056.9162158,-513
1660222690.73466,1542056.9162229,-398
1660222690.73466,1542056.9162342,84
1660222690.73466,1542056.9162375,362
1660222690.73466,1542056.9162397,273
1660222690.73466,1542056.9162417,129
1660222690.73466,1542056.9162437,110
1660222690.73466,1542056.9162511,129
1660222690.73466,1542056.9162621,115
1660222690.73466,1542056.9162669,94
1660222690.73466,1542056.9162689,94
1660222690.73466,1542056.9162747,106
1660222690.73466,1542056.9162855,113
1660222690.73466,1542056.9162904,108
1660222690.73466,1542056.9162938,98
1660222690.73466,1542056.9162995,87
1660222690.73466,1542056.9163105,75
1660222690.73466,1542056.9163137,73
1660222690.73466,1542056.9163159,80
1660222690.73466,1542056.916318,70
1660222690.73466,1542056.9163262,49
1660222690.73466,1542056.9163367,51
1660222690.73466,1542056.9163463,54
1660222690.73466,1542056.9163546,30
1660222690.73466,1542056.9163619,9
1660222690.73466,1542056.9163642,2
1660222690.73466,1542056.9163664,9
1660222690.73466,1542056.9163684,18
1660222690.73466,1542056.9163759,30
1660222690.73466,1542056.916391,42
1660222690.73466,1542056.9164026,58
1660222690.73466,1542056.9164076,87
1660222690.73466,1542056.916412,124
1660222690.73466,1542056.9164187,148
1660222690.73466,1542056.9164219,162
1660222690.73466,1542057.4507253,186
1660222690.73466,1542057.4507451,190
1660222690.7576,1542057.4507541,171
1660222690.7576,1542057.4507608,181
1660222690.7576,1542057.450768,202
1660222690.7576,1542057.4507715,188
1660222690.7576,1542057.4507768,193
1660222690.7576,1542057.4507814,204
1660222690.7576,1542057.4507886,190
1660222690.7576,1542057.4507943,188
1660222690.7576,1542057.4508024,183
1660222690.7576,1542057.4508084,141
1660222690.7576,1542057.4508163,124
1660222690.7576,1542057.4508246,153
1660222690.7576,1542057.4508336,150
1660222690.7576,1542057.4508403,131
1660222690.7576,1542057.4508489,139
1660222690.7576,1542057.450856,127
1660222690.7576,1542057.4508633,103
1660222690.7576,1542057.45087,108
1660222690.7576,1542057.4508762,117
1660222690.7576,1542057.4508825,113
1660222690.7576,1542057.4508885,94
1660222690.7576,1542057.4508964,63
1660222690.7576,1542057.4509027,42
1660222690.7576,1542057.4509091,42
1660222691.32348,1542057.4509154,32
1660222691.32348,1542057.4509216,11
1660222691.32348,1542057.4509278,18
1660222691.32348,1542057.450934,44
1660222691.32348,1542057.4509405,58
1660222691.32348,1542057.4509463,75
1660222691.32348,1542057.4509521,84
1660222691.32348,1542057.4509581,80
1660222691.32348,1542057.4509641,70
1660222691.32348,1542057.4509723,73
1660222691.32348,1542057.4509793,80
1660222691.32348,1542057.4509851,75
1660222691.32348,1542057.4509946,80
1660222691.32348,1542057.4509989,98
1660222691.32348,1542057.4510054,131
1660222691.32348,1542057.451009,131
1660222691.32348,1542057.4510128,-37
1660222691.32348,1542057.4510163,-355
1660222691.32348,1542057.4510524,-485
1660222691.32348,1542057.4510805,-181
1660222691.32348,1542057.4510875,242
1660222691.32348,1542057.4510915,351
1660222691.32348,1542057.4510953,223
1660222691.32348,1542057.451099,157
1660222691.32348,1542057.4511027,160
1660222691.32348,1542057.4511076,131
1660222691.32348,1542057.4511115,110
1660222691.32348,1542057.4511153,129
1660222691.32348,1542057.4511192,136
1660222691.32348,1542057.4511231,120
1660222691.32348,1542057.4511271,110
1660222691.32348,1542057.451131,113
1660222691.32348,1542057.4511348,120
1660222691.32348,1542057.4511391,115
1660222691.32348,1542057.4511434,96
1660222691.32348,1542057.4511477,89
1660222691.32348,1542057.4511519,84
1660222691.32348,1542057.4511563,77
1660222691.32348,1542057.4511604,68
1660222691.32348,1542057.4511649,40
1660222691.32348,1542057.4511688,25
1660222691.32348,1542057.4511729,40
1660222691.32348,1542057.4511768,28
1660222691.32348,1542057.4511808,2
1660222691.32348,1542057.4511849,14
1660222691.32348,1542057.4511888,28
1660222691.32348,1542057.4511939,25
1660222691.32348,1542058.0366268,47
1660222691.32348,1542058.0366494,73
1660222691.32348,1542058.0366645,84
1660222691.34106,1542058.0366795,113
1660222691.34106,1542058.036693,150
1660222691.34106,1542058.0367069,171
1660222691.34106,1542058.0367179,179
1660222691.34106,1542058.0367716,164
1660222691.34106,1542058.036781,141
1660222691.34106,1542058.0367859,148
1660222691.34106,1542058.0367881,176
1660222691.34106,1542058.0367903,174
1660222691.34106,1542058.0367923,150
1660222691.34106,1542058.0367943,155
1660222691.34106,1542058.0367963,153
1660222691.34106,1542058.0367984,124
1660222691.34106,1542058.036835,115
1660222691.34106,1542058.0368489,127
1660222691.34106,1542058.0368578,139
1660222691.34106,1542058.0368639,139
1660222691.34106,1542058.0368705,131
1660222691.34106,1542058.0368761,131
1660222691.34106,1542058.0368827,134
1660222691.34106,1542058.0368893,117
1660222691.34106,1542058.0369488,101
1660222691.34106,1542058.0369575,103
1660222691.34106,1542058.0369706,108
1660222691.84844,1542058.0369901,101
1660222691.84844,1542058.0369985,82

1660222691.84844,1542058.037004,54
1660222691.84844,1542058.0370093,49
1660222691.84844,1542058.0370161,47
1660222691.84844,1542058.0370236,18
1660222691.84844,1542058.0370311,11
1660222691.84844,1542058.0370378,23
1660222691.84844,1542058.0370429,28
1660222691.84844,1542058.0370476,54
1660222691.84844,1542058.0370534,75
1660222691.84844,1542058.03706,80
1660222691.84844,1542058.0370681,96
1660222691.84844,1542058.0370744,91
1660222691.84844,1542058.0370787,70
1660222691.84844,1542058.0370855,87
1660222691.84844,1542058.0370893,106
1660222691.84844,1542058.037097,106
1660222691.84844,1542058.0371007,108
1660222691.84844,1542058.0371065,120
1660222691.84844,1542058.0371117,101
1660222691.84844,1542058.0371157,-91
1660222691.84844,1542058.0371291,-433
1660222691.84844,1542058.0371417,-490
1660222691.84844,1542058.0371533,-84
1660222691.84844,1542058.0371567,299
1660222691.84844,1542058.0371596,341
1660222691.84844,1542058.0371624,228
1660222691.84844,1542058.0371686,155
1660222691.84844,1542058.0371787,131
1660222691.84844,1542058.0371849,108
1660222691.84844,1542058.0371891,103
1660222691.84844,1542058.0371931,120
1660222691.84844,1542058.0371969,117
1660222691.84844,1542058.0372024,98
1660222691.84844,1542058.0372075,91
1660222691.84844,1542058.0372114,91
1660222691.84844,1542058.0372167,84
1660222691.84844,1542058.0372212,65
1660222691.84844,1542058.0372248,56
1660222691.84844,1542058.0372304,63
1660222691.84844,1542058.0372339,73
1660222691.84844,1542058.037243,63
1660222691.84844,1542058.0372479,35
1660222691.84844,1542058.03725,9
1660222691.84844,1542058.0372521,9
1660222691.84844,1542058.5716218,21
1660222691.84844,1542058.5716434,11
1660222691.84844,1542058.5716583,7
1660222691.84844,1542058.5716731,0
1660222691.87138,1542058.5716855,-23
1660222691.87138,1542058.5716953,-7
1660222691.87138,1542058.571701,37
1660222691.87138,1542058.5717068,58
1660222691.87138,1542058.5717117,73
1660222691.87138,1542058.5717204,115
1660222691.87138,1542058.5717268,131
1660222691.87138,1542058.5717357,98
1660222691.87138,1542058.571744,108
1660222691.87138,1542058.571752,150
1660222691.87138,1542058.57176,134
1660222691.87138,1542058.5717679,108
1660222691.87138,1542058.5717753,129
1660222691.87138,1542058.5717827,134
1660222691.87138,1542058.5717916,103
1660222691.87138,1542058.5717971,89
1660222691.87138,1542058.571806,96
1660222691.87138,1542058.5718133,98
1660222691.87138,1542058.5718214,75
1660222691.87138,1542058.5718275,47
1660222691.87138,1542058.5718359,47
1660222691.87138,1542058.571842,70
1660222691.87138,1542058.5718475,82
1660222691.87138,1542058.5718505,80
1660222692.44182,1542058.5718544,80
1660222692.44182,1542058.5718613,80
1660222692.44182,1542058.5718681,73
1660222692.44182,1542058.5718749,70
1660222692.44182,1542058.5718799,68
1660222692.44182,1542058.5718839,65
1660222692.44182,1542058.5718877,70
1660222692.44182,1542058.571891,51
1660222692.44182,1542058.5718941,18
1660222692.44182,1542058.5718973,18
1660222692.44182,1542058.5719005,44
1660222692.44182,1542058.5719038,49
1660222692.44182,1542058.5719074,32
1660222692.44182,1542058.5719126,37
1660222692.44182,1542058.571917,51
1660222692.44182,1542058.5719211,51
1660222692.44182,1542058.5719288,51
1660222692.44182,1542058.5719354,61
1660222692.44182,1542058.5719426,56
1660222692.44182,1542058.5719498,44
1660222692.44182,1542058.5719546,44
1660222692.44182,1542058.5719668,61
1660222692.44182,1542058.5719742,89
1660222692.44182,1542058.5719792,73
1660222692.44182,1542058.5719848,-120
1660222692.44182,1542058.5719915,-490
1660222692.44182,1542058.5719954,-671
1660222692.44182,1542058.571999,-348
1660222692.44182,1542058.5720043,162
1660222692.44182,1542058.5720111,358
1660222692.44182,1542058.5720148,228
1660222692.44182,1542058.572019,89
1660222692.44182,1542058.5720243,84
1660222692.44182,1542058.5720281,103
1660222692.44182,1542058.5720332,75
1660222692.44182,1542058.5720388,68
1660222692.44182,1542058.5720425,73
1660222692.44182,1542058.5720462,56
1660222692.44182,1542058.5720515,51
1660222692.44182,1542058.5720557,56
1660222692.44182,1542058.5720606,42
1660222692.44182,1542058.5720683,30
1660222692.44182,1542058.5720733,42
1660222692.44182,1542058.5720769,37
1660222692.44182,1542058.572082,21
1660222692.44182,1542059.1572762,16
1660222692.44182,1542059.1572982,0
1660222692.44182,1542059.1573053,-28
1660222692.44182,1542059.157312,-37
1660222692.44182,1542059.1573183,-28
1660222692.45678,1542059.1573238,-30
1660222692.45678,1542059.1573285,-65
1660222692.45678,1542059.1573338,-94
1660222692.45678,1542059.1573373,-98
1660222692.45678,1542059.1573403,-91
1660222692.45678,1542059.1573433,-70
1660222692.45678,1542059.157346,-30
1660222692.45678,1542059.1573489,-9
1660222692.45678,1542059.1573518,-2
1660222692.45678,1542059.1573548,7
1660222692.45678,1542059.1573577,14
1660222692.45678,1542059.1573606,30
1660222692.45678,1542059.1573634,61
1660222692.45678,1542059.1573664,77
1660222692.45678,1542059.1573932,84
1660222692.45678,1542059.1573999,96
1660222692.45678,1542059.1574055,89
1660222692.45678,1542059.1574094,84
1660222692.45678,1542059.1574136,98
1660222692.45678,1542059.1574173,98
1660222692.45678,1542059.1574206,89
1660222692.45678,1542059.1574242,96
1660222692.45678,1542059.1574281,101
1660222692.45678,1542059.1574341,103
1660222693.01797,1542059.1574383,101
1660222693.01797,1542059.1574426,96
1660222693.01797,1542059.1574463,106
1660222693.01797,1542059.1574503,117
1660222693.01797,1542059.1574537,115
1660222693.01797,1542059.157457,115
1660222693.01797,1542059.1574606,127
1660222693.01797,1542059.157464,127
1660222693.01797,1542059.1574675,124
1660222693.01797,1542059.1574717,127
1660222693.01797,1542059.1574754,103
1660222693.01797,1542059.1574788,68
1660222693.01797,1542059.1574823,61
1660222693.01797,1542059.1574863,80
1660222693.01797,1542059.1574904,103
1660222693.01797,1542059.1574933,110
1660222693.01797,1542059.1574964,103
1660222693.01797,1542059.1574995,117
1660222693.01797,1542059.1575029,136
1660222693.01797,1542059.1575059,115
1660222693.01797,1542059.1575089,98
1660222693.01797,1542059.157512,106
1660222693.01797,1542059.1575151,106
1660222693.01797,1542059.1575188,103
1660222693.01797,1542059.1575227,136
1660222693.01797,1542059.1575262,174
1660222693.01797,1542059.1575295,101
1660222693.01797,1542059.1575332,-190
1660222693.01797,1542059.1575366,-553
1660222693.01797,1542059.1575401,-553
1660222693.01797,1542059.1575436,-82
1660222693.01797,1542059.1575469,336
1660222693.01797,1542059.1575505,358
1660222693.01797,1542059.1575545,202
1660222693.01797,1542059.1575584,139
1660222693.01797,1542059.1575695,141
1660222693.01797,1542059.1575732,120
1660222693.01797,1542059.1575767,106
1660222693.01797,1542059.1575803,127
1660222693.01797,1542059.1575838,136
1660222693.01797,1542059.1575873,120
1660222693.01797,1542059.1575909,108
1660222693.01797,1542059.1575945,87
1660222693.01797,1542059.1575983,75
1660222693.01797,1542059.7419256,77
1660222693.01797,1542059.741948,65
1660222693.01797,1542059.7419589,68
1660222693.01797,1542059.7419684,84
1660222693.01797,1542059.7419726,70
1660222693.01797,1542059.741978,18
1660222693.03392,1542059.741983,-11
1660222693.03392,1542059.7419885,-16
1660222693.03392,1542059.7419924,-25
1660222693.03392,1542059.7419996,-25
1660222693.03392,1542059.7420036,-35
1660222693.03392,1542059.7420094,-61
1660222693.03392,1542059.7420165,-58
1660222693.03392,1542059.7420277,-21
1660222693.03392,1542059.7420334,9
1660222693.03392,1542059.7420355,30
1660222693.03392,1542059.7420375,58
1660222693.03392,1542059.74204,73
1660222693.03392,1542059.7420421,73
1660222693.03392,1542059.7420441,103
1660222693.03392,1542059.7420461,127
1660222693.03392,1542059.7420481,136
1660222693.03392,1542059.7420501,155
1660222693.03392,1542059.7420522,155
1660222693.03392,1542059.7420544,141
1660222693.03392,1542059.7420565,164
1660222693.03392,1542059.7420586,179
1660222693.03392,1542059.7420651,155
1660222693.03392,1542059.7420785,155
1660222693.03392,1542059.7420873,164
1660222693.55952,1542059.7420972,150
1660222693.55952,1542059.7421076,155
1660222693.55952,1542059.7421135,171
1660222693.55952,1542059.7421202,167
1660222693.55952,1542059.7421305,160
1660222693.55952,1542059.7421405,171
1660222693.55952,1542059.7421513,169
1660222693.55952,1542059.7421595,153
1660222693.55952,1542059.7421687,162
1660222693.55952,1542059.7421812,183
1660222693.55952,1542059.7421866,179
1660222693.55952,1542059.7421887,174
1660222693.55952,1542059.7421922,179
1660222693.55952,1542059.7422015,174
1660222693.55952,1542059.742214,167
1660222693.55952,1542059.7422191,167
1660222693.55952,1542059.7422216,155
1660222693.55952,1542059.7422291,131
1660222693.55952,1542059.7422417,136
1660222693.55952,1542059.7422536,160
1660222693.55952,1542059.7422663,155
1660222693.55952,1542059.7422739,129
1660222693.55952,1542059.7422763,155
1660222693.55952,1542059.7422783,207
1660222693.55952,1542059.7422804,200
1660222693.55952,1542059.7422826,155
1660222693.55952,1542059.7422886,141
1660222693.55952,1542059.7423049,146
1660222693.55952,1542059.7423192,139
1660222693.55952,1542059.7423304,146
1660222693.55952,1542059.7423397,188
1660222693.55952,1542059.7423465,214
1660222693.55952,1542059.7423613,98
1660222693.55952,1542059.7423726,-228
1660222693.55952,1542059.7423821,-515
1660222693.55952,1542059.742389,-365
1660222693.55952,1542059.7424004,117
1660222693.55952,1542059.7424112,391
1660222693.55952,1542059.7424194,301
1660222693.55952,1542059.7424327,167
1660222693.55952,1542059.742444,146
1660222693.55952,1542059.7424536,134
1660222693.55952,1542059.7424643,101
1660222693.55952,1542060.2786172,91
1660222693.55952,1542060.2786351,101
1660222693.55952,1542060.2786498,108
1660222693.55952,1542060.2786592,108
1660222693.55952,1542060.278668,106
1660222693.55952,1542060.2786741,98
1660222693.55952,1542060.2786856,84
1660222693.58046,1542060.2786943,63
1660222693.58046,1542060.2787035,35
1660222693.58046,1542060.2787115,28
1660222693.58046,1542060.2787169,37
1660222693.58046,1542060.2787242,30
1660222693.58046,1542060.2787331,7
1660222693.58046,1542060.2787402,-23
1660222693.58046,1542060.2787448,-56
1660222693.58046,1542060.2787481,-61
1660222693.58046,1542060.2787595,-47
1660222693.58046,1542060.2787701,-37
1660222693.58046,1542060.2787779,-35
1660222693.58046,1542060.2787882,-21
1660222693.58046,1542060.2787993,-7
1660222693.58046,1542060.2788071,-4
1660222693.58046,1542060.2788168,25
1660222693.58046,1542060.2788278,89
1660222693.58046,1542060.2788362,127
1660222693.58046,1542060.2788457,120
1660222693.58046,1542060.2788586,120
1660222693.58046,1542060.2788666,160
1660222693.58046,1542060.2788707,181
1660222693.58046,1542060.2788744,171
1660222693.58046,1542060.278878,174
1660222694.09447,1542060.2788818,174
1660222694.09447,1542060.2788861,174
1660222694.09447,1542060.2788913,195
1660222694.09447,1542060.2788957,197
1660222694.09447,1542060.2788991,181
1660222694.09447,1542060.2789022,183
1660222694.09447,1542060.2789055,193
1660222694.09447,1542060.2789085,183
1660222694.09447,1542060.2789121,188
1660222694.09447,1542060.2789156,204
1660222694.09447,1542060.2789191,193
1660222694.09447,1542060.2789224,179
1660222694.09447,1542060.278926,202
1660222694.09447,1542060.2789294,212
1660222694.09447,1542060.2789347,188
1660222694.09447,1542060.2789382,190
1660222694.09447,1542060.2789414,207
1660222694.09447,1542060.2789449,202
1660222694.09447,1542060.2789508,200
1660222694.09447,1542060.2789544,214
1660222694.09447,1542060.2789601,207
1660222694.09447,1542060.2789658,176
1660222694.09447,1542060.2789714,150
1660222694.09447,1542060.2789748,143
1660222694.09447,1542060.2789786,143
1660222694.09447,1542060.2789824,148
1660222694.09447,1542060.2789858,162
1660222694.09447,1542060.2789894,157
1660222694.09447,1542060.278995,131
1660222694.09447,1542060.2789985,124
1660222694.09447,1542060.2790033,139
1660222694.09447,1542060.2790074,153
1660222694.09447,1542060.2790107,141
1660222694.09447,1542060.2790142,115
1660222694.09447,1542060.2790175,106
1660222694.09447,1542060.2790226,103
1660222694.09447,1542060.2790272,98
1660222694.09447,1542060.2790309,103
1660222694.09447,1542060.2790357,117
1660222694.09447,1542060.2790391,136
1660222694.09447,1542060.2790423,143
1660222694.09447,1542060.2790458,42
1660222694.09447,1542060.8153436,-237
1660222694.09447,1542060.8153655,-475
1660222694.09447,1542060.8153734,-322
1660222694.09447,1542060.8153783,110
1660222694.09447,1542060.8153844,339
1660222694.09447,1542060.8153901,235
1660222694.09447,1542060.8153963,115
1660222694.09447,1542060.8154007,143
1660222694.10643,1542060.815405,164
1660222694.10643,1542060.8154092,129
1660222694.10643,1542060.8154134,110
1660222694.10643,1542060.8154177,87
1660222694.10643,1542060.8154234,49
1660222694.10643,1542060.8154281,35
1660222694.10643,1542060.8154343,37
1660222694.10643,1542060.8154385,37
1660222694.10643,1542060.8154444,40
1660222694.10643,1542060.8154497,9
1660222694.10643,1542060.8154557,-37
1660222694.10643,1542060.8154613,-25
1660222694.10643,1542060.8154671,2
1660222694.10643,1542060.8154723,-14
1660222694.10643,1542060.8154781,-35
1660222694.10643,1542060.8154828,-42
1660222694.10643,1542060.8154889,-63
1660222694.10643,1542060.8154939,-82
1660222694.10643,1542060.8154995,-82
1660222694.10643,1542060.8155043,-68
1660222694.10643,1542060.8155102,-54
1660222694.10643,1542060.815515,-40
1660222694.10643,1542060.815521,-18
1660222694.10643,1542060.8155269,-2
1660222694.62595,1542060.8155311,14
1660222694.62595,1542060.8155352,75
1660222694.62595,1542060.815539,127
1660222694.62595,1542060.8155437,129
1660222694.62595,1542060.8155477,127
1660222694.62595,1542060.8155515,139
1660222694.62595,1542060.8155555,148
1660222694.62595,1542060.8155596,150
1660222694.62595,1542060.8155637,160
1660222694.62595,1542060.8155678,186
1660222694.62595,1542060.8155719,188
1660222694.62595,1542060.8155757,174
1660222694.62595,1542060.8155796,171
1660222694.62595,1542060.8155837,160
1660222694.62595,1542060.8155893,153
1660222694.62595,1542060.8155953,167
1660222694.62595,1542060.8156004,174
1660222694.62595,1542060.8156063,174
1660222694.62595,1542060.8156105,190
1660222694.62595,1542060.8156147,207
1660222694.62595,1542060.8156209,188
1660222694.62595,1542060.815626,167
1660222694.62595,1542060.81563,155
1660222694.62595,1542060.8156359,146
1660222694.62595,1542060.815641,150
1660222694.62595,1542060.815645,129
1660222694.62595,1542060.8156511,110
1660222694.62595,1542060.8156552,141
1660222694.62595,1542060.8156595,143
1660222694.62595,1542060.8156637,101
1660222694.62595,1542060.8156698,84
1660222694.62595,1542060.8156741,94
1660222694.62595,1542060.8156798,89
1660222694.62595,1542060.8156838,73
1660222694.62595,1542060.815688,58
1660222694.62595,1542060.8156933,40
1660222694.62595,1542060.8156968,42
1660222694.62595,1542060.8157,65
1660222694.62595,1542060.8157031,68
1660222694.62595,1542060.815706,65
1660222694.62595,1542060.8157091,89
1660222694.62595,1542061.3508234,101
1660222694.62595,1542061.3508428,98
1660222694.62595,1542061.3508573,113
1660222694.62595,1542061.3508716,110
1660222694.62595,1542061.3508848,82
1660222694.62595,1542061.350898,77
1660222694.62595,1542061.3509065,101
1660222694.62595,1542061.3509089,106
1660222694.62595,1542061.3509111,65
1660222694.64789,1542061.3509132,-122
1660222694.64789,1542061.3509154,-482
1660222694.64789,1542061.3509174,-591
1660222694.64789,1542061.3509195,-162
1660222694.64789,1542061.3509215,303
1660222694.64789,1542061.3509236,358
1660222694.64789,1542061.3509257,200
1660222694.64789,1542061.3509278,106
1660222694.64789,1542061.3509298,82
1660222694.64789,1542061.3509319,70
1660222694.64789,1542061.3509339,58
1660222694.64789,1542061.3509359,61
1660222694.64789,1542061.3509379,61
1660222694.64789,1542061.35094,30
1660222694.64789,1542061.350942,11
1660222694.64789,1542061.3509441,40
1660222694.64789,1542061.3509462,30
1660222694.64789,1542061.3509483,-9
1660222694.64789,1542061.3509503,-9
1660222694.64789,1542061.3509523,-11
1660222694.64789,1542061.3509543,-30
1660222694.64789,1542061.3509563,-30
1660222694.64789,1542061.3509583,-4
1660222694.64789,1542061.3509604,11
1660222695.26642,1542061.3509624,-23
1660222695.26642,1542061.3509644,-70
1660222695.26642,1542061.3509663,-61
1660222695.26642,1542061.3509682,-44
1660222695.26642,1542061.3509701,-63
1660222695.26642,1542061.3509721,-58
1660222695.26642,1542061.3509746,-18
1660222695.26642,1542061.3509765,-18
1660222695.26642,1542061.3509784,-18
1660222695.26642,1542061.3509803,54
1660222695.26642,1542061.3509822,113
1660222695.26642,1542061.3509841,108
1660222695.26642,1542061.3509861,120
1660222695.26642,1542061.3509883,153
1660222695.26642,1542061.3509902,143
1660222695.26642,1542061.3509921,143
1660222695.26642,1542061.350994,169
1660222695.26642,1542061.3509959,148
1660222695.26642,1542061.350998,131
1660222695.26642,1542061.3510001,176
1660222695.26642,1542061.3510021,183
1660222695.26642,1542061.3510041,157
1660222695.26642,1542061.3510062,179
1660222695.26642,1542061.3510083,186
1660222695.26642,1542061.3510103,136
1660222695.26642,1542061.3510123,117
1660222695.26642,1542061.3510142,146
1660222695.26642,1542061.351017,153
1660222695.26642,1542061.3510191,141
1660222695.26642,1542061.3510211,146
1660222695.26642,1542061.3510231,164
1660222695.26642,1542061.3510251,150
1660222695.26642,1542061.3510272,120
1660222695.26642,1542061.3510293,129
1660222695.26642,1542061.3510314,157
1660222695.26642,1542061.3510336,141
1660222695.26642,1542061.3510356,77
1660222695.26642,1542061.3510377,25
1660222695.26642,1542061.3510398,44
1660222695.26642,1542061.3510418,91
1660222695.26642,1542061.9861192,94
1660222695.26642,1542061.9861382,70
1660222695.26642,1542061.986151,63
1660222695.26642,1542061.9861643,75
1660222695.26642,1542061.9861737,80
1660222695.26642,1542061.9861827,68
1660222695.26642,1542061.9861904,54
1660222695.26642,1542061.9861971,40
1660222695.26642,1542061.9862037,56
1660222695.26642,1542061.9862094,82
1660222695.27739,1542061.9862156,58
1660222695.27739,1542061.9862226,42
1660222695.27739,1542061.9862334,77
1660222695.27739,1542061.9862441,-28
1660222695.27739,1542061.9862508,-407
1660222695.27739,1542061.9862613,-690
1660222695.27739,1542061.9862685,-419
1660222695.27739,1542061.986273,129
1660222695.27739,1542061.9862787,365
1660222695.27739,1542061.9862828,273
1660222695.27739,1542061.9862877,160
1660222695.27739,1542061.9862909,122
1660222695.27739,1542061.9862955,101
1660222695.27739,1542061.9863089,80
1660222695.27739,1542061.9863227,84
1660222695.27739,1542061.9863305,84
1660222695.27739,1542061.9863432,73
1660222695.27739,1542061.9863492,68
1660222695.27739,1542061.9863521,47
1660222695.27739,1542061.9863542,23
1660222695.27739,1542061.9863563,42
1660222695.27739,1542061.9863584,54
1660222695.27739,1542061.9863662,40
1660222695.27739,1542061.9863767,23
1660222695.84688,1542061.9863801,28
1660222695.84688,1542061.9863831,47
1660222695.84688,1542061.9863864,23
1660222695.84688,1542061.9863959,-30
1660222695.84688,1542061.9864036,-44
1660222695.84688,1542061.9864153,-23
1660222695.84688,1542061.9864286,-16
1660222695.84688,1542061.9864397,-16
1660222695.84688,1542061.9864535,-11
1660222695.84688,1542061.9864668,-28
1660222695.84688,1542061.9864808,-42
1660222695.84688,1542061.9864941,-14
1660222695.84688,1542061.9865079,32
1660222695.84688,1542061.9865214,73
1660222695.84688,1542061.986535,113
1660222695.84688,1542061.9865476,160
1660222695.84688,1542061.9865557,183
1660222695.84688,1542061.986563,176
1660222695.84688,1542061.9865674,167
1660222695.84688,1542061.9865732,183
1660222695.84688,1542061.9865771,216
1660222695.84688,1542061.9865816,214
1660222695.84688,1542061.9865864,183
1660222695.84688,1542061.9865898,200
1660222695.84688,1542061.9866028,221
1660222695.84688,1542061.9866143,190
1660222695.84688,1542061.9866208,167
1660222695.84688,1542061.98663,186
1660222695.84688,1542061.9866391,200
1660222695.84688,1542061.9866443,183
1660222695.84688,1542061.9866479,153
1660222695.84688,1542061.9866601,164
1660222695.84688,1542061.9866694,190
1660222695.84688,1542061.9866819,164
1660222695.84688,1542061.9866914,162
1660222695.84688,1542061.9867005,197
1660222695.84688,1542061.986708,186
1660222695.84688,1542061.9867154,150
1660222695.84688,1542061.9867254,139
1660222695.84688,1542062.5689864,143
1660222695.84688,1542062.5690045,141
1660222695.84688,1542062.5690139,124
1660222695.84688,1542062.5690222,108
1660222695.84688,1542062.5690279,94
1660222695.84688,1542062.569036,106
1660222695.84688,1542062.5690427,131
1660222695.84688,1542062.5690511,134
1660222695.84688,1542062.5690579,139
1660222695.84688,1542062.5690668,139
1660222695.84688,1542062.5690728,134
1660222695.85684,1542062.5690811,160
1660222695.85684,1542062.5690897,183
1660222695.85684,1542062.5690977,136
1660222695.85684,1542062.569101,91
1660222695.85684,1542062.5691049,110
1660222695.85684,1542062.569107,167
1660222695.85684,1542062.5691098,183
1660222695.85684,1542062.569112,9
1660222695.85684,1542062.5691142,-374
1660222695.85684,1542062.5691162,-605
1660222695.85684,1542062.5691182,-334
1660222695.85684,1542062.5691202,157
1660222695.85684,1542062.5691222,360
1660222695.85684,1542062.5691242,294
1660222695.85684,1542062.5691262,202
1660222695.85684,1542062.569129,136
1660222695.85684,1542062.5691311,89
1660222695.85684,1542062.5691331,91
1660222695.85684,1542062.5691351,115
1660222695.85684,1542062.5691373,110
1660222695.85684,1542062.5691393,91
1660222695.85684,1542062.5691413,65
1660222695.85684,1542062.5691433,73
1660222695.85684,1542062.5691454,106
1660222696.39301,1542062.5691474,94
1660222696.39301,1542062.5691493,51
1660222696.39301,1542062.5691512,37
1660222696.39301,1542062.5691531,40
1660222696.39301,1542062.569155,35
1660222696.39301,1542062.5691569,14
1660222696.39301,1542062.5691588,2
1660222696.39301,1542062.5691614,7
1660222696.39301,1542062.5691633,2
1660222696.39301,1542062.5691653,-14
1660222696.39301,1542062.5691672,-18
1660222696.39301,1542062.5691692,-14
1660222696.39301,1542062.5691711,-2
1660222696.39301,1542062.5691767,0
1660222696.39301,1542062.5691835,2
1660222696.39301,1542062.5691882,11
1660222696.39301,1542062.5691969,42
1660222696.39301,1542062.5692481,94
1660222696.39301,1542062.5692557,131
1660222696.39301,1542062.5692613,134
1660222696.39301,1542062.5692645,146
1660222696.39301,1542062.5692679,188
1660222696.39301,1542062.569271,202
1660222696.39301,1542062.5692742,204
1660222696.39301,1542062.5692773,216
1660222696.39301,1542062.5692825,197
1660222696.39301,1542062.5692897,164
1660222696.39301,1542062.5692957,174
1660222696.39301,1542062.5693101,200
1660222696.39301,1542062.5693187,214
1660222696.39301,1542062.5693273,214
1660222696.39301,1542062.5693374,207
1660222696.39301,1542062.5693525,204
1660222696.39301,1542062.5693641,200
1660222696.39301,1542062.5693698,176
1660222696.39301,1542062.569372,171
1660222696.39301,1542062.5693741,195
1660222696.39301,1542062.5693774,195
1660222696.39301,1542063.1060883,176
1660222696.39301,1542063.1061065,193
1660222696.39301,1542063.1061115,212
1660222696.39301,1542063.1061188,190
1660222696.39301,1542063.1061228,150
1660222696.39301,1542063.1061264,136
1660222696.39301,1542063.1061317,148
1660222696.39301,1542063.1061444,157
1660222696.39301,1542063.1061487,136
1660222696.39301,1542063.1061523,101
1660222696.39301,1542063.1061561,87
1660222696.39301,1542063.1061606,73
1660222696.40497,1542063.1061664,75
1660222696.40497,1542063.10617,115
1660222696.40497,1542063.106174,129
1660222696.40497,1542063.1061803,115
1660222696.40497,1542063.1061861,127
1660222696.40497,1542063.1061899,129
1660222696.40497,1542063.1061952,106
1660222696.40497,1542063.1061992,106
1660222696.40497,1542063.1062028,120
1660222696.40497,1542063.1062062,122
1660222696.40497,1542063.1062112,108
1660222696.40497,1542063.1062148,94
1660222696.40497,1542063.1062193,124
1660222696.40497,1542063.1062231,146
1660222696.40497,1542063.1062274,-14
1660222696.40497,1542063.1062326,-384
1660222696.40497,1542063.106237,-581
1660222696.40497,1542063.106243,-292
1660222696.40497,1542063.1062485,146
1660222696.40497,1542063.1062523,320
1660222696.40497,1542063.1062574,270
1660222696.40497,1542063.1062614,176
1660222696.40497,1542063.106267,127
1660222696.40497,1542063.1062716,117
1660222696.97261,1542063.1062767,113
1660222696.97261,1542063.1062803,136
1660222696.97261,1542063.1062837,179
1660222696.97261,1542063.1062871,150
1660222696.97261,1542063.1062903,98
1660222696.97261,1542063.1062938,103
1660222696.97261,1542063.1062979,120
1660222696.97261,1542063.1063026,117
1660222696.97261,1542063.1063067,110
1660222696.97261,1542063.1063102,96
1660222696.97261,1542063.1063162,106
1660222696.97261,1542063.1063213,117
1660222696.97261,1542063.1063263,82
1660222696.97261,1542063.1063328,56
1660222696.97261,1542063.106339,65
1660222696.97261,1542063.1063551,54
1660222696.97261,1542063.1063933,47
1660222696.97261,1542063.1064016,68
1660222696.97261,1542063.106407,58
1660222696.97261,1542063.106411,32
1660222696.97261,1542063.1064146,40
1660222696.97261,1542063.106418,61
1660222696.97261,1542063.1064214,82
1660222696.97261,1542063.1064246,110
1660222696.97261,1542063.1064281,127
1660222696.97261,1542063.1064316,157
1660222696.97261,1542063.1064541,212
1660222696.97261,1542063.1064653,230
1660222696.97261,1542063.1064716,233
1660222696.97261,1542063.1064823,237
1660222696.97261,1542063.1064858,233
1660222696.97261,1542063.1064889,252
1660222696.97261,1542063.1064919,263
1660222696.97261,1542063.1064953,226
1660222696.97261,1542063.1065005,200
1660222696.97261,1542063.1065041,221
1660222696.97261,1542063.1065076,223
1660222696.97261,1542063.6906246,209
1660222696.97261,1542063.6906471,209
1660222696.97261,1542063.690661,207
1660222696.97261,1542063.6906714,204
1660222696.97261,1542063.6906809,226
1660222696.97261,1542063.6906881,228
1660222696.97261,1542063.6906949,181
1660222696.97261,1542063.6906991,131
1660222696.97261,1542063.6907058,124
1660222696.97261,1542063.6907127,141
1660222696.97261,1542063.6907191,155
1660222696.97261,1542063.6907257,148
1660222696.97261,1542063.6907322,136
1660222696.99755,1542063.6907452,110
1660222696.99755,1542063.6907596,56
1660222696.99755,1542063.6907696,35
1660222696.99755,1542063.6907751,49
1660222696.99755,1542063.6907817,37
1660222696.99755,1542063.690788,23
1660222696.99755,1542063.6907941,30
1660222696.99755,1542063.6908014,49
1660222696.99755,1542063.6908136,58
1660222696.99755,1542063.6908235,47
1660222696.99755,1542063.6908331,54
1660222696.99755,1542063.6908434,70
1660222696.99755,1542063.6908538,63
1660222696.99755,1542063.6908635,70
1660222696.99755,1542063.6908744,110
1660222696.99755,1542063.6908846,124
1660222696.99755,1542063.6908919,110
1660222696.99755,1542063.6909041,117
1660222696.99755,1542063.6909144,124
1660222696.99755,1542063.690925,115
1660222696.99755,1542063.6909361,129
1660222696.99755,1542063.6909441,44
1660222696.99755,1542063.6909546,-282
1660222696.99755,1542063.6909657,-598
1660222697.5097,1542063.6909743,-426
1660222697.5097,1542063.690984,89
1660222697.5097,1542063.6909926,365
1660222697.5097,1542063.6909989,327
1660222697.5097,1542063.691008,233
1660222697.5097,1542063.6910216,167
1660222697.5097,1542063.691035,162
1660222697.5097,1542063.691048,188
1660222697.5097,1542063.6910611,160
1660222697.5097,1542063.6910694,122
1660222697.5097,1542063.6910719,153
1660222697.5097,1542063.6910739,186
1660222697.5097,1542063.6910814,167
1660222697.5097,1542063.6910955,148
1660222697.5097,1542063.6911084,146
1660222697.5097,1542063.6911212,136
1660222697.5097,1542063.6911301,117
1660222697.5097,1542063.691138,94
1660222697.5097,1542063.6911505,75
1660222697.5097,1542063.6911599,89
1660222697.5097,1542063.6911718,98
1660222697.5097,1542063.6911825,73
1660222697.5097,1542063.6911913,61
1660222697.5097,1542063.6912016,54
1660222697.5097,1542063.6912121,18
1660222697.5097,1542063.6912216,25
1660222697.5097,1542063.6912318,49
1660222697.5097,1542063.6912423,4
1660222697.5097,1542063.691253,-18
1660222697.5097,1542063.6912637,47
1660222697.5097,1542063.6912724,103
1660222697.5097,1542063.6912813,101
1660222697.5097,1542063.691292,122
1660222697.5097,1542063.6913002,204
1660222697.5097,1542063.6913104,245
1660222697.5097,1542063.691321,226
1660222697.5097,1542064.2268297,216
1660222697.5097,1542064.2268488,209
1660222697.5097,1542064.2268573,221
1660222697.5097,1542064.2268616,247
1660222697.5097,1542064.2268672,235
1660222697.5097,1542064.2268722,216
1660222697.5097,1542064.2268764,240
1660222697.5097,1542064.2268805,252
1660222697.5097,1542064.2268854,212
1660222697.5097,1542064.2268914,188
1660222697.5097,1542064.2268954,190
1660222697.5097,1542064.2268994,176
1660222697.5097,1542064.226905,167
1660222697.5097,1542064.2269089,157
1660222697.52266,1542064.2269126,150
1660222697.52266,1542064.2269164,153
1660222697.52266,1542064.2269204,117
1660222697.52266,1542064.226926,70
1660222697.52266,1542064.2269303,63
1660222697.52266,1542064.2269353,80
1660222697.52266,1542064.226941,94
1660222697.52266,1542064.2269445,87
1660222697.52266,1542064.2269479,56
1660222697.52266,1542064.2269523,37
1660222697.52266,1542064.2269556,40
1660222697.52266,1542064.2269599,7
1660222697.52266,1542064.2269633,-25
1660222697.52266,1542064.2269687,18
1660222697.52266,1542064.2269721,54
1660222697.52266,1542064.2269753,21
1660222697.52266,1542064.2269786,11
1660222697.52266,1542064.226982,54
1660222697.52266,1542064.2269867,61
1660222697.52266,1542064.2269906,51
1660222697.52266,1542064.2269957,70
1660222697.52266,1542064.2269991,68
1660222697.52266,1542064.2270038,44
1660222697.52266,1542064.2270091,65
1660222698.04132,1542064.2270127,94
1660222698.04132,1542064.2270161,106
1660222698.04132,1542064.2270196,148
1660222698.04132,1542064.2270228,101
1660222698.04132,1542064.2270264,-233
1660222698.04132,1542064.2270321,-657
1660222698.04132,1542064.2270409,-650
1660222698.04132,1542064.2270492,-160
1660222698.04132,1542064.2270556,249
1660222698.04132,1542064.2270611,303
1660222698.04132,1542064.2270648,200
1660222698.04132,1542064.227068,131
1660222698.04132,1542064.2270712,117
1660222698.04132,1542064.2270774,98
1660222698.04132,1542064.2270808,87
1660222698.04132,1542064.2270844,113
1660222698.04132,1542064.2270879,98
1660222698.04132,1542064.2270914,63
1660222698.04132,1542064.2270952,96
1660222698.04132,1542064.2270989,101
1660222698.04132,1542064.2271025,42
1660222698.04132,1542064.227109,44
1660222698.04132,1542064.2271153,84
1660222698.04132,1542064.2271193,61
1660222698.04132,1542064.2271233,18
1660222698.04132,1542064.2271279,37
1660222698.04132,1542064.2271346,58
1660222698.04132,1542064.2271384,21
1660222698.04132,1542064.2271422,-11
1660222698.04132,1542064.2271683,-18
1660222698.04132,1542064.2271801,-47
1660222698.04132,1542064.2271882,-63
1660222698.04132,1542064.2271955,-47
1660222698.04132,1542064.227201,-14
1660222698.04132,1542064.2272052,9
1660222698.04132,1542064.7628865,14
1660222698.04132,1542064.762905,30
1660222698.04132,1542064.762911,63
1660222698.04132,1542064.7629158,120
1660222698.04132,1542064.7629207,176
1660222698.04132,1542064.7629252,167
1660222698.04132,1542064.7629309,113
1660222698.04132,1542064.7629356,108
1660222698.04132,1542064.7629417,143
1660222698.04132,1542064.7629459,153
1660222698.04132,1542064.7629523,124
1660222698.04132,1542064.7629568,110
1660222698.04132,1542064.7629636,157
1660222698.04132,1542064.7629684,179
1660222698.04132,1542064.7629744,120
1660222698.05429,1542064.7629786,108
1660222698.05429,1542064.7629843,143
1660222698.05429,1542064.7629883,120
1660222698.05429,1542064.762992,110
1660222698.05429,1542064.7629958,139
1660222698.05429,1542064.7629994,122
1660222698.05429,1542064.763003,106
1660222698.05429,1542064.7630064,127
1660222698.05429,1542064.7630097,122
1660222698.05429,1542064.7630128,96
1660222698.05429,1542064.7630159,89
1660222698.05429,1542064.7630197,80
1660222698.05429,1542064.7630235,80
1660222698.05429,1542064.763029,96
1660222698.05429,1542064.763033,91
1660222698.05429,1542064.763042,56
1660222698.05429,1542064.7630509,56
1660222698.05429,1542064.7630576,89
1660222698.05429,1542064.7630682,54
1660222698.05429,1542064.7630788,2
1660222698.05429,1542064.7630867,30
1660222698.05429,1542064.7630959,47
1660222698.05429,1542064.7631017,37
1660222698.05429,1542064.7631115,40
1660222698.58114,1542064.7631194,11
1660222698.58114,1542064.7631267,-7
1660222698.58114,1542064.7631339,44
1660222698.58114,1542064.7631397,87
1660222698.58114,1542064.7631449,84
1660222698.58114,1542064.7631519,89
1660222698.58114,1542064.763158,94
1660222698.58114,1542064.7631627,73
1660222698.58114,1542064.7631665,68
1660222698.58114,1542064.7631705,115
1660222698.58114,1542064.7631749,155
1660222698.58114,1542064.7631804,87
1660222698.58114,1542064.7631876,-171
1660222698.58114,1542064.763199,-532
1660222698.58114,1542064.7632118,-603
1660222698.58114,1542064.7632259,-197
1660222698.58114,1542064.7632386,221
1660222698.58114,1542064.7632517,301
1660222698.58114,1542064.7632649,221
1660222698.58114,1542064.7632779,120
1660222698.58114,1542064.763291,73
1660222698.58114,1542064.763303,134
1660222698.58114,1542064.7633121,150
1660222698.58114,1542064.7633197,115
1660222698.58114,1542064.7633269,155
1660222698.58114,1542064.7633327,174
1660222698.58114,1542064.7633423,108
1660222698.58114,1542064.763347,87
1660222698.58114,1542064.7633504,110
1660222698.58114,1542064.7633533,82
1660222698.58114,1542064.7633562,63
1660222698.58114,1542064.7633592,82
1660222698.58114,1542064.7633623,73
1660222698.58114,1542064.7633651,56
1660222698.58114,1542065.2994364,94
1660222698.58114,1542065.2994564,98
1660222698.58114,1542065.2994734,4
1660222698.58114,1542065.299486,-42
1660222698.58114,1542065.2994952,4
1660222698.58114,1542065.2995024,2
1660222698.58114,1542065.299511,-47
1660222698.58114,1542065.2995198,-35
1660222698.58114,1542065.2995284,16
1660222698.58114,1542065.299537,30
1660222698.58114,1542065.2995436,16
1660222698.58114,1542065.299551,32
1660222698.58114,1542065.2995595,75
1660222698.58114,1542065.2995666,91
1660222698.58114,1542065.299573,98
1660222698.58114,1542065.2995787,131
1660222698.59211,1542065.2995818,148
1660222698.59211,1542065.2995847,127
1660222698.59211,1542065.2995876,124
1660222698.59211,1542065.299591,124
1660222698.59211,1542065.2996045,110
1660222698.59211,1542065.2996182,106
1660222698.59211,1542065.2996301,113
1660222698.59211,1542065.2996426,127
1660222698.59211,1542065.2996529,136
1660222698.59211,1542065.2996629,136
1660222698.59211,1542065.2996702,150
1660222698.59211,1542065.2996793,157
1660222698.59211,1542065.2996857,136
1660222698.59211,1542065.2996941,136
1660222698.59211,1542065.299701,148
1660222698.59211,1542065.2997098,141
1660222698.59211,1542065.2997169,129
1660222698.59211,1542065.299726,131
1660222698.59211,1542065.2997348,134
1660222698.59211,1542065.299741,120
1660222698.59211,1542065.2997497,96
1660222698.59211,1542065.2997586,94
1660222698.59211,1542065.299767,113
1660222698.59211,1542065.2997734,129
1660222699.16916,1542065.2997818,101
1660222699.16916,1542065.2997882,56
1660222699.16916,1542065.2997942,42
1660222699.16916,1542065.2998001,68
1660222699.16916,1542065.2998064,96
1660222699.16916,1542065.2998139,61
1660222699.16916,1542065.2998237,11
1660222699.16916,1542065.2998326,32
1660222699.16916,1542065.2998406,73
1660222699.16916,1542065.2998497,84
1660222699.16916,1542065.2998598,94
1660222699.16916,1542065.2998698,117
1660222699.16916,1542065.2998764,139
1660222699.16916,1542065.2998889,155
1660222699.16916,1542065.299899,153
1660222699.16916,1542065.2999045,113
1660222699.16916,1542065.2999174,103
1660222699.16916,1542065.2999311,146
1660222699.16916,1542065.2999437,164
1660222699.16916,1542065.2999568,155
1660222699.16916,1542065.2999698,171
1660222699.16916,1542065.299983,212
1660222699.16916,1542065.2999961,146
1660222699.16916,1542065.300009,-160
1660222699.16916,1542065.3000221,-518
1660222699.16916,1542065.3000351,-466
1660222699.16916,1542065.3000481,11
1660222699.16916,1542065.3000611,360
1660222699.16916,1542065.3000741,355
1660222699.16916,1542065.3000874,237
1660222699.16916,1542065.3001002,174
1660222699.16916,1542065.3001084,164
1660222699.16916,1542065.3001117,157
1660222699.16916,1542065.8846862,134
1660222699.16916,1542065.8847064,129
1660222699.16916,1542065.8847158,141
1660222699.16916,1542065.88472,127
1660222699.16916,1542065.8847235,117
1660222699.16916,1542065.884727,136
1660222699.16916,1542065.8847301,134

1660222699.16916,1542065.884733,77
1660222699.16916,1542065.8847381,37
1660222699.16916,1542065.8847439,44
1660222699.16916,1542065.8847506,54
1660222699.16916,1542065.8847557,70
1660222699.16916,1542065.8847596,63
1660222699.16916,1542065.8847626,-4
1660222699.16916,1542065.8847661,-44
1660222699.16916,1542065.8847716,-42
1660222699.16916,1542065.8847802,-49
1660222699.19559,1542065.8847887,-40
1660222699.19559,1542065.8847992,-21
1660222699.19559,1542065.8848063,-28
1660222699.19559,1542065.884815,-35
1660222699.19559,1542065.8848228,-18
1660222699.19559,1542065.884831,7
1660222699.19559,1542065.8848393,42
1660222699.19559,1542065.8848441,91
1660222699.19559,1542065.8848478,127
1660222699.19559,1542065.8848511,146
1660222699.19559,1542065.8848542,164
1660222699.19559,1542065.8848573,164
1660222699.19559,1542065.8848604,164
1660222699.19559,1542065.8848632,193
1660222699.19559,1542065.8848664,204
1660222699.19559,1542065.88487,181
1660222699.19559,1542065.8848757,164
1660222699.19559,1542065.8848794,181
1660222699.19559,1542065.8848839,188
1660222699.19559,1542065.8848874,179
1660222699.19559,1542065.8848918,186
1660222699.19559,1542065.8848977,197
1660222699.19559,1542065.8849016,174
1660222699.19559,1542065.884907,150
1660222699.75367,1542065.8849109,164
1660222699.75367,1542065.8849146,169
1660222699.75367,1542065.8849179,155
1660222699.75367,1542065.8849221,148
1660222699.75367,1542065.8849254,146
1660222699.75367,1542065.8849287,141
1660222699.75367,1542065.884932,136
1660222699.75367,1542065.8849356,134
1660222699.75367,1542065.8849392,150
1660222699.75367,1542065.8849445,162
1660222699.75367,1542065.8849488,136
1660222699.75367,1542065.8849524,120
1660222699.75367,1542065.8849574,124
1660222699.75367,1542065.8849625,127
1660222699.75367,1542065.8849661,127
1660222699.75367,1542065.8849705,110
1660222699.75367,1542065.8849744,82
1660222699.75367,1542065.8849789,77
1660222699.75367,1542065.8849832,98
1660222699.75367,1542065.8849873,98
1660222699.75367,1542065.8849936,94
1660222699.75367,1542065.8849982,122
1660222699.75367,1542065.8850043,146
1660222699.75367,1542065.8850084,141
1660222699.75367,1542065.8850129,141
1660222699.75367,1542065.8850187,148
1660222699.75367,1542065.8850251,150
1660222699.75367,1542065.8850297,136
1660222699.75367,1542065.8850405,141
1660222699.75367,1542065.8850468,181
1660222699.75367,1542065.8850523,212
1660222699.75367,1542065.8850584,167
1660222699.75367,1542066.469315,-77
1660222699.75367,1542066.4693367,-464
1660222699.75367,1542066.4693474,-553
1660222699.75367,1542066.4693503,-134
1660222699.75367,1542066.4693524,327
1660222699.75367,1542066.4693545,421
1660222699.75367,1542066.4693565,289
1660222699.75367,1542066.4693586,216
1660222699.75367,1542066.4693607,209
1660222699.75367,1542066.4693627,179
1660222699.75367,1542066.4693646,148
1660222699.75367,1542066.4693666,157
1660222699.75367,1542066.4693686,167
1660222699.75367,1542066.4693706,141
1660222699.75367,1542066.4693726,115
1660222699.75367,1542066.4693746,117
1660222699.75367,1542066.4693765,98
1660222699.75367,1542066.4693786,49
1660222699.76564,1542066.4693806,40
1660222699.76564,1542066.4693831,58
1660222699.76564,1542066.4693882,56
1660222699.76564,1542066.469399,47
1660222699.76564,1542066.4694083,23
1660222699.76564,1542066.4694171,0
1660222699.76564,1542066.4694236,11
1660222699.76564,1542066.4694316,11
1660222699.76564,1542066.469434,-28
1660222699.76564,1542066.4694361,-54
1660222699.76564,1542066.4694381,-42
1660222699.76564,1542066.4694401,-25
1660222699.76564,1542066.4694421,-2
1660222699.76564,1542066.4694441,28
1660222699.76564,1542066.4694462,44
1660222699.76564,1542066.4694482,58
1660222699.76564,1542066.4694502,89
1660222699.76564,1542066.4694522,134
1660222699.76564,1542066.4694577,167
1660222699.76564,1542066.4694686,167
1660222699.76564,1542066.4694777,183
1660222699.76564,1542066.4694867,228
1660222699.76564,1542066.4694933,254
1660222699.76564,1542066.4694956,233
1660222700.29792,1542066.4694976,209
1660222700.29792,1542066.4694997,209
1660222700.29792,1542066.4695017,209
1660222700.29792,1542066.4695036,214
1660222700.29792,1542066.4695055,226
1660222700.29792,1542066.4695074,212
1660222700.29792,1542066.4695093,167
1660222700.29792,1542066.4695112,134
1660222700.29792,1542066.4695131,139
1660222700.29792,1542066.469515,150
1660222700.29792,1542066.4695218,127
1660222700.29792,1542066.4695304,124
1660222700.29792,1542066.4695374,148
1660222700.29792,1542066.4695444,141
1660222700.29792,1542066.4695517,115
1660222700.29792,1542066.469554,113
1660222700.29792,1542066.4695561,115
1660222700.29792,1542066.4695582,113
1660222700.29792,1542066.4695602,115
1660222700.29792,1542066.4695622,120
1660222700.29792,1542066.4695642,115
1660222700.29792,1542066.4695661,98
1660222700.29792,1542066.4695681,91
1660222700.29792,1542066.46957,77
1660222700.29792,1542066.469572,56
1660222700.29792,1542066.469574,89
1660222700.29792,1542066.4695791,139
1660222700.29792,1542066.4695897,141
1660222700.29792,1542066.4695987,153
1660222700.29792,1542066.4696081,181
1660222700.29792,1542066.4696141,176
1660222700.29792,1542067.0053375,143
1660222700.29792,1542067.0053613,150
1660222700.29792,1542067.0053717,193
1660222700.29792,1542067.0053754,181
1660222700.29792,1542067.0053805,150
1660222700.29792,1542067.0053838,183
1660222700.29792,1542067.0053891,230
1660222700.29792,1542067.0053923,252
1660222700.29792,1542067.0053971,242
1660222700.29792,1542067.0054002,58
1660222700.29792,1542067.0054057,-355
1660222700.29792,1542067.0054092,-605
1660222700.29792,1542067.0054158,-313
1660222700.29792,1542067.0054205,169
1660222700.29792,1542067.0054258,372
1660222700.29792,1542067.0054295,308
1660222700.29792,1542067.0054348,195
1660222700.29792,1542067.0054403,164
1660222700.29792,1542067.005446,176
1660222700.31887,1542067.0054497,129
1660222700.31887,1542067.0054529,89
1660222700.31887,1542067.0054569,110
1660222700.31887,1542067.0054622,108
1660222700.31887,1542067.0054665,87
1660222700.31887,1542067.0054723,84
1660222700.31887,1542067.0054768,82
1660222700.31887,1542067.0054827,80
1660222700.31887,1542067.0054887,84
1660222700.31887,1542067.0054947,80
1660222700.31887,1542067.0054994,68
1660222700.31887,1542067.0055056,61
1660222700.31887,1542067.00551,32
1660222700.31887,1542067.0055141,7
1660222700.31887,1542067.0055198,18
1660222700.31887,1542067.0055243,23
1660222700.31887,1542067.0055304,-2
1660222700.31887,1542067.0055348,-16
1660222700.31887,1542067.0055407,-18
1660222700.31887,1542067.0055465,-25
1660222700.31887,1542067.0055505,-11
1660222700.31887,1542067.0055568,4
1660222700.31887,1542067.0055633,28
1660222700.31887,1542067.0055693,61
1660222700.81885,1542067.0055738,68
1660222700.81885,1542067.0055783,82
1660222700.81885,1542067.0055823,120
1660222700.81885,1542067.0055866,127
1660222700.81885,1542067.0055909,122
1660222700.81885,1542067.0055952,155
1660222700.81885,1542067.0055995,167
1660222700.81885,1542067.0056038,155
1660222700.81885,1542067.0056082,160
1660222700.81885,1542067.0056144,143
1660222700.81885,1542067.005618,141
1660222700.81885,1542067.0056233,167
1660222700.81885,1542067.0056277,164
1660222700.81885,1542067.0056332,150
1660222700.81885,1542067.005638,150
1660222700.81885,1542067.0056452,162
1660222700.81885,1542067.0056534,139
1660222700.81885,1542067.0056619,75
1660222700.81885,1542067.0056659,103
1660222700.81885,1542067.0056711,157
1660222700.81885,1542067.0056759,101
1660222700.81885,1542067.0056792,89
1660222700.81885,1542067.0056824,150
1660222700.81885,1542067.0057024,103
1660222700.81885,1542067.0057144,65
1660222700.81885,1542067.0057195,150
1660222700.81885,1542067.0057225,183
1660222700.81885,1542067.0057246,143
1660222700.81885,1542067.0057273,108
1660222700.81885,1542067.0057372,89
1660222700.81885,1542067.5424734,91
1660222700.81885,1542067.5424913,63
1660222700.81885,1542067.5425194,54
1660222700.81885,1542067.5425306,94
1660222700.81885,1542067.5425399,106
1660222700.81885,1542067.5425459,96
1660222700.81885,1542067.5425512,91
1660222700.81885,1542067.5426101,115
1660222700.81885,1542067.5426195,179
1660222700.81885,1542067.5426234,183
1660222700.81885,1542067.5426271,87
1660222700.81885,1542067.5426307,54
1660222700.81885,1542067.5426344,113
1660222700.81885,1542067.5426381,134
1660222700.81885,1542067.5426418,120
1660222700.81885,1542067.5426455,113
1660222700.81885,1542067.5426491,139
1660222700.81885,1542067.5426528,143
1660222700.81885,1542067.5426566,-35
1660222700.81885,1542067.5426602,-419
1660222700.83082,1542067.5426639,-579
1660222700.83082,1542067.5426677,-254
1660222700.83082,1542067.5426714,164
1660222700.83082,1542067.542675,301
1660222700.83082,1542067.5426885,221
1660222700.83082,1542067.5426959,148
1660222700.83082,1542067.5427009,148
1660222700.83082,1542067.542705,150
1660222700.83082,1542067.542711,136
1660222700.83082,1542067.5427163,134
1660222700.83082,1542067.5427218,155
1660222700.83082,1542067.5427264,179
1660222700.83082,1542067.5427318,148
1660222700.83082,1542067.5427364,87
1660222700.83082,1542067.5427445,77
1660222700.83082,1542067.5427519,84
1660222700.83082,1542067.5427586,58
1660222700.83082,1542067.5427651,47
1660222700.83082,1542067.5427733,63
1660222700.83082,1542067.5427803,56
1660222700.83082,1542067.5427849,37
1660222700.83082,1542067.5427895,49
1660222700.83082,1542067.542794,56
1660222700.83082,1542067.5428007,18
1660222701.40893,1542067.5428092,-25
1660222701.40893,1542067.5428159,-23
1660222701.40893,1542067.5428219,-16
1660222701.40893,1542067.5428289,-18
1660222701.40893,1542067.5428352,-14
1660222701.40893,1542067.5428419,-4
1660222701.40893,1542067.5428474,63
1660222701.40893,1542067.542852,136
1660222701.40893,1542067.5428561,124
1660222701.40893,1542067.5428603,117
1660222701.40893,1542067.5428644,179
1660222701.40893,1542067.5428686,200
1660222701.40893,1542067.5428729,150
1660222701.40893,1542067.5428772,164
1660222701.40893,1542067.5428824,214
1660222701.40893,1542067.5428875,190
1660222701.40893,1542067.5428932,164
1660222701.40893,1542067.5428978,181
1660222701.40893,1542067.5429035,176
1660222701.40893,1542067.5429102,148
1660222701.40893,1542067.5429175,183
1660222701.40893,1542067.5429243,230
1660222701.40893,1542067.5429305,179
1660222701.40893,1542067.5429352,127
1660222701.40893,1542067.5429395,160
1660222701.40893,1542067.5429439,162
1660222701.40893,1542067.5429483,96
1660222701.40893,1542067.5429527,68
1660222701.40893,1542067.5429571,110
1660222701.40893,1542068.1296805,169
1660222701.40893,1542068.1296995,183
1660222701.40893,1542068.1297069,141
1660222701.40893,1542068.1297104,113
1660222701.40893,1542068.1297134,131
1660222701.40893,1542068.1297162,134
1660222701.40893,1542068.129719,96
1660222701.40893,1542068.1297217,49
1660222701.40893,1542068.1297245,25
1660222701.40893,1542068.1297272,25
