Time,TimeLsl,Value
1660238033.34129,1557398.175189,13
1660238033.34129,1557398.1752057,16
1660238033.34129,1557398.1752163,18
1660238033.34129,1557398.1752235,16
1660238033.34129,1557398.1752314,-9
1660238033.34129,1557398.1752373,25
1660238033.34129,1557398.1752434,280
1660238033.34129,1557398.1752465,707
1660238033.34129,1557398.1752499,974
1660238033.34129,1557398.1752553,732
1660238033.34129,1557398.1752605,46
1660238033.34129,1557398.1752677,-378
1660238033.34129,1557398.1752716,-187
1660238033.34129,1557398.1752767,37
1660238033.34129,1557398.1752813,-11
1660238033.34129,1557398.1752874,-46
1660238033.34129,1557398.1752946,-2
1660238033.34129,1557398.1753057,-9
1660238033.34129,1557398.1753159,-23
1660238033.34129,1557398.175351,2
1660238033.34129,1557398.1753647,20
1660238033.34129,1557398.1753715,20
1660238033.34129,1557398.1753751,23
1660238033.34129,1557398.1753782,32
1660238033.34129,1557398.1753815,51
1660238033.34129,1557398.1753848,74
1660238033.34129,1557398.1753883,90
1660238033.34129,1557398.1753934,115
1660238033.34129,1557398.1753983,146
1660238033.34129,1557398.1754018,169
1660238033.34129,1557398.1754064,180
1660238033.34129,1557398.1754094,190
1660238033.34129,1557398.1754125,204
1660238033.34129,1557398.1754164,206
1660238033.34129,1557398.1754229,201
1660238033.34129,1557398.175428,190
1660238033.34129,1557398.1754327,164
1660238033.34129,1557398.175439,129
1660238033.34129,1557398.1754445,97
1660238033.34129,1557398.1754491,74
1660238033.34129,1557398.1754546,41
1660238033.34129,1557398.1754599,9
1660238033.34129,1557398.1754686,0
1660238033.34129,1557398.1754725,6
1660238033.34129,1557398.1754755,6
1660238033.34129,1557398.1754857,9
1660238033.34129,1557398.1754886,16
1660238033.34129,1557398.1754957,18
1660238033.34129,1557398.1755096,20
1660238033.34129,1557398.1755194,27
1660238033.46085,1557398.1755259,37
1660238033.46085,1557398.1755309,44
1660238033.46085,1557398.1755366,57
1660238033.46085,1557398.1755432,69
1660238033.46085,1557398.175555,67
1660238033.46085,1557398.1755682,57
1660238033.46085,1557398.175578,60
1660238033.46085,1557398.1755851,64
1660238033.46085,1557398.1755895,81
1660238033.46085,1557398.1756018,95
1660238033.46085,1557398.1756177,92
1660238033.46085,1557398.1756234,83
1660238033.46085,1557398.1756295,83
1660238033.46085,1557398.1756333,83
1660238033.46085,1557398.1756405,74
1660238033.46085,1557398.175653,76
1660238033.46085,1557398.1756655,81
1660238033.46085,1557398.1756763,74
1660238033.46085,1557398.1756873,67
1660238033.46085,1557398.1756949,71
1660238033.46085,1557398.1756984,71
1660238033.46085,1557398.1757112,74
1660238033.46085,1557398.1757239,64
1660238033.46085,1557398.8105249,44
1660238033.46085,1557398.8105413,44
1660238033.46085,1557398.8105462,64
1660238033.46085,1557398.8105504,74
1660238033.46085,1557398.8105548,71
1660238033.46085,1557398.8105609,64
1660238033.46085,1557398.8105648,53
1660238033.46085,1557398.8105686,32
1660238033.46085,1557398.8105729,20
1660238033.46085,1557398.8105767,27
1660238033.46085,1557398.8105804,34
1660238033.46085,1557398.8105841,37
1660238033.46085,1557398.8105884,32
1660238033.46085,1557398.8105922,-9
1660238033.46085,1557398.8105961,-32
1660238033.46085,1557398.8105997,146
1660238033.46085,1557398.8106075,552
1660238033.46085,1557398.8106114,911
1660238033.46085,1557398.8106152,855
1660238033.46085,1557398.810619,252
1660238033.46085,1557398.8106227,-329
1660238033.46085,1557398.8106265,-269
1660238033.46085,1557398.8106301,32
1660238033.46085,1557398.8106337,27
1660238033.46085,1557398.8106374,-46
1660238033.46085,1557398.810641,11
1660238033.46085,1557398.8106445,30
1660238033.50739,1557398.8106481,-2
1660238033.50739,1557398.8106516,20
1660238033.50739,1557398.8106551,53
1660238033.50739,1557398.8106586,53
1660238033.50739,1557398.8106621,57
1660238033.50739,1557398.8106669,76
1660238033.50739,1557398.81067,74
1660238033.50739,1557398.8106757,71
1660238033.50739,1557398.8106791,92
1660238033.50739,1557398.810682,118
1660238033.50739,1557398.810685,139
1660238033.50739,1557398.8106883,155
1660238033.50739,1557398.8106918,166
1660238033.50739,1557398.8106949,183
1660238033.50739,1557398.8106981,197
1660238033.50739,1557398.8107021,194
1660238033.50739,1557398.8107085,183
1660238033.50739,1557398.8107145,176
1660238033.50739,1557398.8107203,162
1660238033.50739,1557398.8107263,134
1660238033.50739,1557398.8107327,106
1660238033.50739,1557398.8107388,81
1660238033.50739,1557398.8107449,53
1660238033.50739,1557398.8107504,34
1660238033.50739,1557398.8107553,34
1660238033.50739,1557398.8107623,39
1660238033.50739,1557398.8107693,34
1660238033.50739,1557398.8107753,27
1660238033.50739,1557398.8107794,27
1660238033.50739,1557398.8107831,37
1660238033.50739,1557398.8107866,51
1660238033.50739,1557398.8107906,60
1660238033.50739,1557398.8107977,55
1660238033.50739,1557398.8108059,51
1660238033.50739,1557398.8108131,60
1660238033.50739,1557398.810826,71
1660238033.50739,1557398.8108326,78
1660238033.50739,1557398.8108363,85
1660238033.50739,1557398.8108401,85
1660238033.50739,1557398.8108473,85
1660238033.50739,1557398.8108553,88
1660238033.50739,1557398.810864,95
1660238033.50739,1557398.810871,106
1660238033.50739,1557398.810875,106
1660238033.50739,1557398.8108788,92
1660238033.50739,1557398.8108846,90
1660238033.50739,1557399.2971475,95
1660238033.50739,1557399.2971677,85
1660238033.50739,1557399.2971765,81
1660238033.50739,1557399.2971813,81
1660238033.5274,1557399.2971858,69
1660238033.5274,1557399.2971899,60
1660238033.5274,1557399.297194,64
1660238033.5274,1557399.2971977,67
1660238033.5274,1557399.2972013,60
1660238033.5274,1557399.2972073,51
1660238033.5274,1557399.2972128,39
1660238033.5274,1557399.2972193,25
1660238033.5274,1557399.2972227,13
1660238033.5274,1557399.2972264,4
1660238033.5274,1557399.2972297,6
1660238033.5274,1557399.2972352,13
1660238033.5274,1557399.2972415,4
1660238033.5274,1557399.2972475,-16
1660238033.5274,1557399.2972532,-16
1660238033.5274,1557399.2972597,2
1660238033.5274,1557399.2972633,-6
1660238033.5274,1557399.2972688,-27
1660238033.5274,1557399.2972735,92
1660238033.5274,1557399.2972804,449
1660238033.5274,1557399.2972875,867
1660238033.5274,1557399.2972964,960
1660238033.5274,1557399.2973047,454
1660238033.5274,1557399.2973518,-248
1660238033.5274,1557399.2973666,-375
1660238033.5274,1557399.2973762,-85
1660238033.5274,1557399.2973887,-27
1660238033.5274,1557399.2973955,-113
1660238033.5274,1557399.2974016,-74
1660238033.5274,1557399.2974052,-37
1660238033.5274,1557399.2974194,-46
1660238033.5274,1557399.2974321,-30
1660238033.5274,1557399.2974425,-20
1660238033.5274,1557399.2974556,-20
1660238033.5274,1557399.2974684,-2
1660238033.5274,1557399.2974814,30
1660238033.5274,1557399.2974952,46
1660238033.5274,1557399.2975081,46
1660238033.5274,1557399.297522,53
1660238033.5274,1557399.2975348,78
1660238033.5274,1557399.2975484,118
1660238033.5274,1557399.2975616,146
1660238033.5274,1557399.2975751,150
1660238033.5274,1557399.297588,157
1660238033.5274,1557399.297598,178
1660238033.5274,1557399.2976067,185
1660238033.5274,1557399.2976198,180
1660238033.5274,1557399.2976349,173
1660238033.5274,1557399.2976457,164
1660238033.5274,1557399.2976545,146
1660238033.53937,1557399.2976595,113
1660238033.53937,1557399.2976709,74
1660238033.53937,1557399.2976742,39
1660238033.53937,1557399.2976772,16
1660238033.53937,1557399.2976862,13
1660238033.53937,1557399.2977004,16
1660238033.53937,1557399.2977106,20
1660238033.53937,1557399.2977149,25
1660238033.53937,1557399.2977204,20
1660238033.53937,1557399.2977249,13
1660238033.53937,1557399.2977293,11
1660238033.53937,1557399.2977355,18
1660238033.53937,1557399.2977386,27
1660238033.53937,1557399.2977416,34
1660238033.53937,1557399.2977445,41
1660238033.53937,1557399.2977475,48
1660238033.53937,1557399.2977504,62
1660238033.53937,1557399.2977532,78
1660238033.53937,1557399.2977563,81
1660238033.53937,1557399.8816404,76
1660238033.53937,1557399.8816592,74
1660238033.53937,1557399.8816652,74
1660238033.81512,1557399.8816719,81
1660238033.81512,1557399.8816784,81
1660238033.81512,1557399.8816821,64
1660238033.81512,1557399.8816855,67
1660238033.81512,1557399.8816905,71
1660238033.81512,1557399.8816973,55
1660238033.81512,1557399.8817041,44
1660238033.81512,1557399.8817112,51
1660238033.81512,1557399.8817206,55
1660238033.81512,1557399.8817295,48
1660238033.81512,1557399.8817367,34
1660238033.81512,1557399.8817479,23
1660238033.81512,1557399.8817574,20
1660238033.81512,1557399.8817656,20
1660238033.81512,1557399.8817726,16
1660238033.81512,1557399.8817769,9
1660238033.81512,1557399.8817825,0
1660238033.81512,1557399.8817869,-18
1660238033.81512,1557399.8817939,-34
1660238033.81512,1557399.8817987,-32
1660238033.81512,1557399.8818052,-13
1660238033.81512,1557399.8818115,-9
1660238033.81512,1557399.881819,-4
1660238033.81512,1557399.8818303,4
1660238033.81512,1557399.8818382,-16
1660238033.81512,1557399.8818468,-23
1660238033.81512,1557399.8818559,146
1660238033.81512,1557399.8818625,542
1660238033.81512,1557399.8818703,899
1660238033.81512,1557399.8818779,828
1660238033.81512,1557399.8818844,234
1660238033.81512,1557399.8818909,-320
1660238033.81512,1557399.8818951,-285
1660238033.81512,1557399.8819015,-11
1660238033.81512,1557399.8819075,23
1660238033.81512,1557399.8819124,-25
1660238033.81512,1557399.8819171,0
1660238033.81512,1557399.8819213,16
1660238033.81512,1557399.881927,20
1660238033.81512,1557399.8819317,39
1660238033.81512,1557399.8819376,55
1660238033.81512,1557399.8819414,64
1660238033.81512,1557399.8819453,74
1660238033.81512,1557399.8819511,83
1660238033.81512,1557399.881958,90
1660238033.81512,1557399.8819658,106
1660238033.81512,1557399.8819743,132
1660238033.81512,1557399.8819788,148
1660238033.81512,1557399.8819855,153
1660238033.81512,1557399.8819928,171
1660238033.86898,1557399.8819996,204
1660238033.86898,1557399.8820043,211
1660238033.86898,1557399.8820127,208
1660238033.86898,1557399.8820188,222
1660238033.86898,1557399.8820312,218
1660238033.86898,1557399.8820439,192
1660238033.86898,1557399.882052,176
1660238033.86898,1557399.8820563,141
1660238033.86898,1557399.882062,104
1660238033.86898,1557399.8820722,88
1660238033.86898,1557399.8820806,64
1660238033.86898,1557399.8820863,39
1660238033.86898,1557399.8820923,37
1660238033.86898,1557399.8820975,32
1660238033.86898,1557399.8821023,20
1660238033.86898,1557399.8821072,34
1660238033.86898,1557399.8821113,51
1660238033.86898,1557399.8821186,37
1660238033.86898,1557399.882125,20
1660238033.86898,1557399.8821289,37
1660238033.86898,1557400.4665729,57
1660238033.86898,1557400.4665911,60
1660238033.86898,1557400.4666006,74
1660238033.86898,1557400.4666073,74
1660238034.28761,1557400.4666138,39
1660238034.28761,1557400.4666179,30
1660238034.28761,1557400.4666237,55
1660238034.28761,1557400.4666274,62
1660238034.28761,1557400.4666308,55
1660238034.28761,1557400.4666344,62
1660238034.28761,1557400.4666379,57
1660238034.28761,1557400.4666424,41
1660238034.28761,1557400.4666492,39
1660238034.28761,1557400.4666543,53
1660238034.28761,1557400.4666574,53
1660238034.28761,1557400.4666608,44
1660238034.28761,1557400.4666645,39
1660238034.28761,1557400.4666719,16
1660238034.28761,1557400.4666769,-9
1660238034.28761,1557400.466689,-2
1660238034.28761,1557400.466699,9
1660238034.28761,1557400.4667071,0
1660238034.28761,1557400.4667161,-6
1660238034.28761,1557400.466723,-11
1660238034.28761,1557400.4667297,-4
1660238034.28761,1557400.4667366,11
1660238034.28761,1557400.4667424,16
1660238034.28761,1557400.4667474,11
1660238034.28761,1557400.4667531,4
1660238034.28761,1557400.4667572,-2
1660238034.28761,1557400.4667632,-6
1660238034.28761,1557400.4667674,2
1660238034.28761,1557400.466773,9
1660238034.28761,1557400.4667769,13
1660238034.28761,1557400.4667828,18
1660238034.28761,1557400.4667869,9
1660238034.28761,1557400.4667923,-9
1660238034.28761,1557400.4667964,78
1660238034.28761,1557400.4668004,398
1660238034.28761,1557400.4668066,814
1660238034.28761,1557400.4668133,950
1660238034.28761,1557400.4668223,535
1660238034.28761,1557400.4668262,-134
1660238034.28761,1557400.4668352,-331
1660238034.28761,1557400.4668422,-51
1660238034.28761,1557400.4668486,74
1660238034.28761,1557400.4668577,-2
1660238034.28761,1557400.4668643,9
1660238034.28761,1557400.466872,55
1660238034.28761,1557400.4668808,41
1660238034.28761,1557400.4668871,39
1660238034.28761,1557400.4669002,55
1660238034.28761,1557400.4669099,64
1660238034.28761,1557400.4669165,74
1660238034.30058,1557400.4669291,88
1660238034.30058,1557400.4669389,92
1660238034.30058,1557400.4669444,99
1660238034.30058,1557400.4669573,120
1660238034.30058,1557400.4669669,143
1660238034.30058,1557400.4669719,169
1660238034.30058,1557400.466981,183
1660238034.30058,1557400.4669879,192
1660238034.30058,1557400.4669967,206
1660238034.30058,1557400.4670014,222
1660238034.30058,1557400.4670051,220
1660238034.30058,1557400.4670088,211
1660238034.30058,1557400.4670146,211
1660238034.30058,1557400.4670204,201
1660238034.30058,1557400.4670266,169
1660238034.30058,1557400.4670302,132
1660238034.30058,1557400.4670333,109
1660238034.30058,1557400.4670362,90
1660238034.30058,1557400.4670391,67
1660238034.30058,1557401.0024269,51
1660238034.30058,1557401.0024457,39
1660238034.30058,1557401.0024546,32
1660238034.30058,1557401.0024623,30
1660238034.30058,1557401.0024691,27
1660238034.81952,1557401.0024739,32
1660238034.81952,1557401.0024786,32
1660238034.81952,1557401.0024833,25
1660238034.81952,1557401.0024879,30
1660238034.81952,1557401.0024923,37
1660238034.81952,1557401.0024967,34
1660238034.81952,1557401.0025011,34
1660238034.81952,1557401.0025056,34
1660238034.81952,1557401.0025104,30
1660238034.81952,1557401.0025152,23
1660238034.81952,1557401.0025201,25
1660238034.81952,1557401.0025254,32
1660238034.81952,1557401.0025342,39
1660238034.81952,1557401.0025418,44
1660238034.81952,1557401.0025481,34
1660238034.81952,1557401.0025538,16
1660238034.81952,1557401.0025605,11
1660238034.81952,1557401.0025649,16
1660238034.81952,1557401.002571,13
1660238034.81952,1557401.0025755,13
1660238034.81952,1557401.0025822,16
1660238034.81952,1557401.0025872,9
1660238034.81952,1557401.002594,9
1660238034.81952,1557401.0025989,11
1660238034.81952,1557401.0026055,6
1660238034.81952,1557401.0026103,4
1660238034.81952,1557401.0026166,0
1660238034.81952,1557401.0026215,-6
1660238034.81952,1557401.0026278,-2
1660238034.81952,1557401.0026324,11
1660238034.81952,1557401.0026385,16
1660238034.81952,1557401.002643,16
1660238034.81952,1557401.0026493,20
1660238034.81952,1557401.0026542,16
1660238034.81952,1557401.002661,0
1660238034.81952,1557401.0026678,0
1660238034.81952,1557401.0026742,11
1660238034.81952,1557401.0026797,13
1660238034.81952,1557401.0026866,11
1660238034.81952,1557401.0026911,4
1660238034.81952,1557401.0026977,-13
1660238034.81952,1557401.0027041,32
1660238034.81952,1557401.0027102,287
1660238034.81952,1557401.0027186,700
1660238034.81952,1557401.0027237,955
1660238034.81952,1557401.0027334,700
1660238034.81952,1557401.0027409,27
1660238034.81952,1557401.0027471,-338
1660238034.81952,1557401.0027526,-127
1660238034.81952,1557401.0027566,60
1660238034.82949,1557401.0027603,-4
1660238034.82949,1557401.0027642,-18
1660238034.82949,1557401.0027682,46
1660238034.82949,1557401.0027728,44
1660238034.82949,1557401.0027783,23
1660238034.82949,1557401.0027834,44
1660238034.82949,1557401.0027874,62
1660238034.82949,1557401.0027915,67
1660238034.82949,1557401.0027952,83
1660238034.82949,1557401.0027994,92
1660238034.82949,1557401.0028034,95
1660238034.82949,1557401.0028083,122
1660238034.82949,1557401.0028128,148
1660238034.82949,1557401.0028177,141
1660238034.82949,1557401.0028217,139
1660238034.82949,1557401.0028261,157
1660238034.82949,1557401.0028322,178
1660238034.82949,1557401.0028367,197
1660238034.82949,1557401.5388741,201
1660238034.82949,1557401.5388946,187
1660238034.82949,1557401.5389024,173
1660238034.82949,1557401.538906,162
1660238034.82949,1557401.5389093,136
1660238034.82949,1557401.5389179,109
1660238035.40871,1557401.5389248,78
1660238035.40871,1557401.538932,48
1660238035.40871,1557401.5389388,41
1660238035.40871,1557401.5389454,39
1660238035.40871,1557401.5389522,23
1660238035.40871,1557401.5389593,-6
1660238035.40871,1557401.538963,-25
1660238035.40871,1557401.5389673,-18
1660238035.40871,1557401.5389706,-2
1660238035.40871,1557401.5389738,9
1660238035.40871,1557401.538977,0
1660238035.40871,1557401.5389803,-20
1660238035.40871,1557401.5389835,-11
1660238035.40871,1557401.5389866,6
1660238035.40871,1557401.5389896,11
1660238035.40871,1557401.5389926,13
1660238035.40871,1557401.5389958,20
1660238035.40871,1557401.5389989,20
1660238035.40871,1557401.539002,25
1660238035.40871,1557401.5390051,39
1660238035.40871,1557401.5390083,51
1660238035.40871,1557401.5390113,51
1660238035.40871,1557401.5390145,51
1660238035.40871,1557401.5390179,53
1660238035.40871,1557401.5390211,51
1660238035.40871,1557401.5390243,48
1660238035.40871,1557401.5390273,39
1660238035.40871,1557401.5390305,27
1660238035.40871,1557401.5390336,37
1660238035.40871,1557401.5390368,53
1660238035.40871,1557401.5390399,44
1660238035.40871,1557401.5390436,34
1660238035.40871,1557401.5390469,34
1660238035.40871,1557401.5390501,34
1660238035.40871,1557401.5390533,27
1660238035.40871,1557401.5390563,25
1660238035.40871,1557401.5390594,25
1660238035.40871,1557401.5390626,27
1660238035.40871,1557401.5390657,27
1660238035.40871,1557401.5390689,39
1660238035.40871,1557401.5390721,48
1660238035.40871,1557401.5390754,39
1660238035.40871,1557401.5390786,23
1660238035.40871,1557401.5390819,18
1660238035.40871,1557401.539085,27
1660238035.40871,1557401.5390882,37
1660238035.40871,1557401.5390915,46
1660238035.40871,1557401.5390946,55
1660238035.40871,1557401.5390978,48
1660238035.40871,1557401.539101,23
1660238035.42267,1557401.5391044,32
1660238035.42267,1557401.5391085,213
1660238035.42267,1557401.5391135,598
1660238035.42267,1557401.53912,923
1660238035.42267,1557401.539124,816
1660238035.42267,1557401.5391334,211
1660238035.42267,1557401.5391409,-313
1660238035.42267,1557401.5391495,-245
1660238035.42267,1557401.5391539,16
1660238035.42267,1557401.5391603,18
1660238035.42267,1557401.5391684,-30
1660238035.42267,1557401.5391747,18
1660238035.42267,1557401.5391809,34
1660238035.42267,1557401.5391864,20
1660238035.42267,1557401.5391901,41
1660238035.42267,1557401.5391944,62
1660238035.42267,1557401.5392013,62
1660238035.42267,1557402.1236841,60
1660238035.42267,1557402.1237024,64
1660238035.42267,1557402.1237073,83
1660238035.42267,1557402.1237131,109
1660238035.42267,1557402.1237173,127
1660238035.42267,1557402.1237225,136
1660238035.42267,1557402.1237274,153
1660238035.94329,1557402.1237329,166
1660238035.94329,1557402.1237368,169
1660238035.94329,1557402.1237404,180
1660238035.94329,1557402.1237453,199
1660238035.94329,1557402.1237488,201
1660238035.94329,1557402.1237595,178
1660238035.94329,1557402.1237709,141
1660238035.94329,1557402.1237818,109
1660238035.94329,1557402.1237934,88
1660238035.94329,1557402.1237988,67
1660238035.94329,1557402.123801,44
1660238035.94329,1557402.1238039,23
1660238035.94329,1557402.1238059,6
1660238035.94329,1557402.123808,-6
1660238035.94329,1557402.1238101,-4
1660238035.94329,1557402.1238203,6
1660238035.94329,1557402.1238291,-2
1660238035.94329,1557402.1238419,-27
1660238035.94329,1557402.1238475,-27
1660238035.94329,1557402.1238519,-4
1660238035.94329,1557402.1238563,2
1660238035.94329,1557402.1238611,9
1660238035.94329,1557402.1238667,23
1660238035.94329,1557402.1238703,27
1660238035.94329,1557402.1238738,32
1660238035.94329,1557402.1238772,41
1660238035.94329,1557402.1238806,46
1660238035.94329,1557402.123884,53
1660238035.94329,1557402.1238889,60
1660238035.94329,1557402.1238923,67
1660238035.94329,1557402.1238964,69
1660238035.94329,1557402.1239013,74
1660238035.94329,1557402.1239047,74
1660238035.94329,1557402.1239083,78
1660238035.94329,1557402.1239136,81
1660238035.94329,1557402.1239172,78
1660238035.94329,1557402.1239206,76
1660238035.94329,1557402.1239241,78
1660238035.94329,1557402.1239289,78
1660238035.94329,1557402.1239324,78
1660238035.94329,1557402.1239358,83
1660238035.94329,1557402.1239392,78
1660238035.94329,1557402.1239425,76
1660238035.94329,1557402.1239458,76
1660238035.94329,1557402.1239507,67
1660238035.94329,1557402.1239554,48
1660238035.94329,1557402.1239588,39
1660238035.94329,1557402.1239621,46
1660238035.94329,1557402.1239655,48
1660238035.94329,1557402.1239704,37
1660238035.95526,1557402.1239738,34
1660238035.95526,1557402.1239786,32
1660238035.95526,1557402.1239819,20
1660238035.95526,1557402.1239853,20
1660238035.95526,1557402.12399,32
1660238035.95526,1557402.1239956,41
1660238035.95526,1557402.1240012,44
1660238035.95526,1557402.1240064,44
1660238035.95526,1557402.1240099,34
1660238035.95526,1557402.1240133,9
1660238035.95526,1557402.1240171,51
1660238035.95526,1557402.1240218,301
1660238035.95526,1557402.1240252,709
1660238035.95526,1557402.1240286,976
1660238035.95526,1557402.1240335,751
1660238035.95526,1557402.1240368,90
1660238035.95526,1557402.6621443,-308
1660238035.95526,1557402.6621619,-102
1660238035.95526,1557402.6621663,106
1660238035.95526,1557402.6621726,25
1660238035.95526,1557402.6621762,-6
1660238035.95526,1557402.6621815,55
1660238035.95526,1557402.6621848,46
1660238035.95526,1557402.6621885,37
1660238036.48479,1557402.6621923,74
1660238036.48479,1557402.6621962,76
1660238036.48479,1557402.6621999,53
1660238036.48479,1557402.6622036,60
1660238036.48479,1557402.6622073,74
1660238036.48479,1557402.6622109,83
1660238036.48479,1557402.6622144,97
1660238036.48479,1557402.6622177,109
1660238036.48479,1557402.6622217,106
1660238036.48479,1557402.6622258,97
1660238036.48479,1557402.6622286,106
1660238036.48479,1557402.6622313,134
1660238036.48479,1557402.662234,155
1660238036.48479,1557402.6622365,160
1660238036.48479,1557402.6622391,160
1660238036.48479,1557402.6622417,146
1660238036.48479,1557402.6622443,132
1660238036.48479,1557402.6622469,120
1660238036.48479,1557402.6622496,99
1660238036.48479,1557402.6622523,76
1660238036.48479,1557402.662255,57
1660238036.48479,1557402.6622575,34
1660238036.48479,1557402.6622601,16
1660238036.48479,1557402.6622627,9
1660238036.48479,1557402.6622654,2
1660238036.48479,1557402.662268,6
1660238036.48479,1557402.6622706,18
1660238036.48479,1557402.6622733,11
1660238036.48479,1557402.662276,11
1660238036.48479,1557402.662279,30
1660238036.48479,1557402.6622816,44
1660238036.48479,1557402.6622842,48
1660238036.48479,1557402.6622869,51
1660238036.48479,1557402.6622895,55
1660238036.48479,1557402.6622921,62
1660238036.48479,1557402.6622948,64
1660238036.48479,1557402.6622974,67
1660238036.48479,1557402.6623,69
1660238036.48479,1557402.6623027,67
1660238036.48479,1557402.6623064,53
1660238036.48479,1557402.6623101,37
1660238036.48479,1557402.662315,48
1660238036.48479,1557402.6623215,64
1660238036.48479,1557402.6623281,67
1660238036.48479,1557402.6623348,64
1660238036.48479,1557402.6623405,64
1660238036.48479,1557402.6623453,69
1660238036.48479,1557402.6623508,67
1660238036.48479,1557402.6623552,62
1660238036.48479,1557402.6623609,53
1660238036.49576,1557402.6623654,41
1660238036.49576,1557402.6623688,44
1660238036.49576,1557402.6623719,60
1660238036.49576,1557402.6623749,62
1660238036.49576,1557402.662378,46
1660238036.49576,1557402.662381,39
1660238036.49576,1557402.6623891,46
1660238036.49576,1557402.6624859,46
1660238036.49576,1557402.6625007,37
1660238036.49576,1557402.6625052,39
1660238036.49576,1557402.6625087,55
1660238036.49576,1557402.6625122,67
1660238036.49576,1557402.6625157,62
1660238036.49576,1557402.6625192,51
1660238036.49576,1557402.6625227,44
1660238036.49576,1557403.1966872,46
1660238036.49576,1557403.1967059,53
1660238036.49576,1557403.1967161,55
1660238036.49576,1557403.1967219,64
1660238036.49576,1557403.196729,64
1660238036.49576,1557403.1967352,44
1660238036.49576,1557403.1967432,13
1660238036.49576,1557403.196753,67
1660238036.49576,1557403.1967646,333
1660238037.21687,1557403.1967776,744
1660238037.21687,1557403.1967856,962
1660238037.21687,1557403.196791,665
1660238037.21687,1557403.1967962,-2
1660238037.21687,1557403.1968022,-354
1660238037.21687,1557403.196815,-150
1660238037.21687,1557403.1968282,41
1660238037.21687,1557403.1968413,-16
1660238037.21687,1557403.1968528,-34
1660238037.21687,1557403.1968669,23
1660238037.21687,1557403.1968797,11
1660238037.21687,1557403.1968928,-16
1660238037.21687,1557403.1969477,4
1660238037.21687,1557403.1969663,23
1660238037.21687,1557403.1969719,30
1660238037.21687,1557403.196977,46
1660238037.21687,1557403.1969825,55
1660238037.21687,1557403.1969905,57
1660238037.21687,1557403.1969981,83
1660238037.21687,1557403.1970136,113
1660238037.21687,1557403.1970203,129
1660238037.21687,1557403.1970264,153
1660238037.21687,1557403.1970323,171
1660238037.21687,1557403.1970386,183
1660238037.21687,1557403.1970451,187
1660238037.21687,1557403.197052,190
1660238037.21687,1557403.1970571,194
1660238037.21687,1557403.1970603,194
1660238037.21687,1557403.1970637,180
1660238037.21687,1557403.1970713,150
1660238037.21687,1557403.1970888,113
1660238037.21687,1557403.1970968,76
1660238037.21687,1557403.1971015,51
1660238037.21687,1557403.1971055,32
1660238037.21687,1557403.1971102,9
1660238037.21687,1557403.1971155,-2
1660238037.21687,1557403.1971242,4
1660238037.21687,1557403.1971307,2
1660238037.21687,1557403.1971393,-6
1660238037.21687,1557403.1971459,0
1660238037.21687,1557403.1971539,16
1660238037.21687,1557403.1971621,37
1660238037.21687,1557403.1971713,41
1660238037.21687,1557403.1971788,27
1660238037.21687,1557403.197187,32
1660238037.21687,1557403.1971908,48
1660238037.21687,1557403.1971955,57
1660238037.21687,1557403.1971999,67
1660238037.21687,1557403.1972031,71
1660238037.21687,1557403.1972063,62
1660238037.22883,1557403.1972195,69
1660238037.22883,1557403.1972318,88
1660238037.22883,1557403.197244,90
1660238037.22883,1557403.197251,90
1660238037.22883,1557403.1972572,88
1660238037.22883,1557403.1972614,78
1660238037.22883,1557403.1972662,74
1660238037.22883,1557403.1972793,78
1660238037.22883,1557403.1972894,76
1660238037.22883,1557403.1972947,78
1660238037.22883,1557403.1973288,81
1660238037.22883,1557403.1973445,74
1660238037.22883,1557403.1973561,62
1660238037.22883,1557403.1973676,57
1660238037.22883,1557403.9297368,62
1660238037.22883,1557403.929754,60
1660238037.22883,1557403.929761,46
1660238037.22883,1557403.9297703,27
1660238037.22883,1557403.929774,11
1660238037.22883,1557403.9297804,13
1660238037.22883,1557403.9297884,27
1660238037.22883,1557403.929795,30
1660238037.22883,1557403.9298015,27
1660238037.22883,1557403.9298082,16
1660238037.64573,1557403.9298151,-6
1660238037.64573,1557403.9298216,-20
1660238037.64573,1557403.9298254,-9
1660238037.64573,1557403.9298296,0
1660238037.64573,1557403.9298327,0
1660238037.64573,1557403.9298358,2
1660238037.64573,1557403.9298389,4
1660238037.64573,1557403.9298422,-6
1660238037.64573,1557403.9298454,-13
1660238037.64573,1557403.92985,111
1660238037.64573,1557403.9298533,463
1660238037.64573,1557403.9298567,839
1660238037.64573,1557403.9298599,862
1660238037.64573,1557403.9298633,359
1660238037.64573,1557403.9298666,-245
1660238037.64573,1557403.9298698,-322
1660238037.64573,1557403.929873,-39
1660238037.64573,1557403.929876,46
1660238037.64573,1557403.9298803,-11
1660238037.64573,1557403.9298838,9
1660238037.64573,1557403.929887,44
1660238037.64573,1557403.9298901,37
1660238037.64573,1557403.9298934,39
1660238037.64573,1557403.9298968,41
1660238037.64573,1557403.9299002,37
1660238037.64573,1557403.9299043,48
1660238037.64573,1557403.9299078,67
1660238037.64573,1557403.9299135,81
1660238037.64573,1557403.929917,95
1660238037.64573,1557403.9299204,111
1660238037.64573,1557403.9299264,129
1660238037.64573,1557403.9299316,150
1660238037.64573,1557403.929935,171
1660238037.64573,1557403.9299382,192
1660238037.64573,1557403.9299412,211
1660238037.64573,1557403.9299445,215
1660238037.64573,1557403.929948,211
1660238037.64573,1557403.9299515,206
1660238037.64573,1557403.9299566,194
1660238037.64573,1557403.9299599,173
1660238037.64573,1557403.9299633,148
1660238037.64573,1557403.9299669,115
1660238037.64573,1557403.9299723,90
1660238037.64573,1557403.9299786,69
1660238037.64573,1557403.929983,55
1660238037.64573,1557403.9299867,44
1660238037.64573,1557403.9299896,37
1660238037.64573,1557403.9299939,34
1660238037.64573,1557403.9299972,39
1660238037.64573,1557403.9300005,44
1660238037.6567,1557403.930004,46
1660238037.6567,1557403.9300074,46
1660238037.6567,1557403.9300109,51
1660238037.6567,1557403.9300144,55
1660238037.6567,1557403.9300178,62
1660238037.6567,1557403.9300219,71
1660238037.6567,1557403.9300269,78
1660238037.6567,1557403.9300304,83
1660238037.6567,1557403.9300344,85
1660238037.6567,1557403.930038,92
1660238037.6567,1557403.9300417,97
1660238037.6567,1557403.9300469,102
1660238037.6567,1557403.9300504,106
1660238037.6567,1557404.3673762,106
1660238037.6567,1557404.3673952,102
1660238037.6567,1557404.367406,99
1660238037.6567,1557404.3674156,102
1660238037.6567,1557404.3674239,99
1660238037.6567,1557404.367434,97
1660238037.6567,1557404.3674433,99
1660238037.6567,1557404.3674481,97
1660238037.6567,1557404.3674538,92
1660238037.6567,1557404.3674603,90
1660238037.6567,1557404.3674687,90
1660238038.18442,1557404.3674785,88
1660238038.18442,1557404.3674846,78
1660238038.18442,1557404.3674914,48
1660238038.18442,1557404.3674968,23
1660238038.18442,1557404.3675022,25
1660238038.18442,1557404.3675116,41
1660238038.18442,1557404.3675189,48
1660238038.18442,1557404.3675222,51
1660238038.18442,1557404.3675251,48
1660238038.18442,1557404.367528,34
1660238038.18442,1557404.3675308,23
1660238038.18442,1557404.3675337,25
1660238038.18442,1557404.3675366,34
1660238038.18442,1557404.3675395,37
1660238038.18442,1557404.3675424,25
1660238038.18442,1557404.3675454,9
1660238038.18442,1557404.3675481,2
1660238038.18442,1557404.367551,-11
1660238038.18442,1557404.3675538,25
1660238038.18442,1557404.3675566,259
1660238038.18442,1557404.3675594,644
1660238038.18442,1557404.3675622,869
1660238038.18442,1557404.367565,642
1660238038.18442,1557404.3675679,27
1660238038.18442,1557404.3675709,-343
1660238038.18442,1557404.3675738,-134
1660238038.18442,1557404.3675766,90
1660238038.18442,1557404.3675794,2
1660238038.18442,1557404.3675823,-55
1660238038.18442,1557404.367585,16
1660238038.18442,1557404.3675879,27
1660238038.18442,1557404.3675908,11
1660238038.18442,1557404.3675937,37
1660238038.18442,1557404.3675965,48
1660238038.18442,1557404.3675994,39
1660238038.18442,1557404.3676022,53
1660238038.18442,1557404.367605,78
1660238038.18442,1557404.3676078,88
1660238038.18442,1557404.3676107,99
1660238038.18442,1557404.3676135,115
1660238038.18442,1557404.3676164,129
1660238038.18442,1557404.3676193,141
1660238038.18442,1557404.3676233,157
1660238038.18442,1557404.3676282,176
1660238038.18442,1557404.3676341,187
1660238038.18442,1557404.3676418,192
1660238038.18442,1557404.3676552,185
1660238038.18442,1557404.3676682,176
1660238038.18442,1557404.3676804,166
1660238038.18442,1557404.3676899,150
1660238038.19545,1557404.367696,125
1660238038.19545,1557404.3677085,97
1660238038.19545,1557404.3677169,74
1660238038.19545,1557404.3677223,51
1660238038.19545,1557404.3677286,39
1660238038.19545,1557404.3677318,44
1660238038.19545,1557404.3677348,44
1660238038.19545,1557404.3677378,32
1660238038.19545,1557404.3677406,27
1660238038.19545,1557404.3677436,48
1660238038.19545,1557404.3677464,60
1660238038.19545,1557404.3677493,60
1660238038.19545,1557404.9047384,67
1660238038.19545,1557404.9047522,76
1660238038.19545,1557404.9047559,81
1660238038.19545,1557404.9047593,85
1660238038.19545,1557404.9047627,88
1660238038.19545,1557404.9047659,95
1660238038.19545,1557404.9047691,99
1660238038.19545,1557404.9047724,95
1660238038.19545,1557404.9047756,95
1660238038.19545,1557404.9047789,104
1660238038.19545,1557404.9047821,95
1660238038.19545,1557404.9047854,67
1660238038.77176,1557404.9047886,57
1660238038.77176,1557404.9047925,62
1660238038.77176,1557404.9047958,64
1660238038.77176,1557404.904799,57
1660238038.77176,1557404.9048022,41
1660238038.77176,1557404.9048055,25
1660238038.77176,1557404.9048088,13
1660238038.77176,1557404.9048121,2
1660238038.77176,1557404.9048154,-2
1660238038.77176,1557404.9048187,0
1660238038.77176,1557404.904822,-2
1660238038.77176,1557404.9048253,-4
1660238038.77176,1557404.9048285,-13
1660238038.77176,1557404.9048318,-18
1660238038.77176,1557404.904835,-16
1660238038.77176,1557404.9048382,-11
1660238038.77176,1557404.9048415,-11
1660238038.77176,1557404.9048456,-2
1660238038.77176,1557404.9048489,9
1660238038.77176,1557404.9048521,13
1660238038.77176,1557404.9048554,18
1660238038.77176,1557404.9048594,18
1660238038.77176,1557404.9048626,11
1660238038.77176,1557404.9048658,11
1660238038.77176,1557404.9048691,16
1660238038.77176,1557404.9048723,16
1660238038.77176,1557404.9048755,23
1660238038.77176,1557404.9048787,41
1660238038.77176,1557404.904882,44
1660238038.77176,1557404.9048852,16
1660238038.77176,1557404.9048884,20
1660238038.77176,1557404.9048916,213
1660238038.77176,1557404.9048949,609
1660238038.77176,1557404.9048981,911
1660238038.77176,1557404.9049013,751
1660238038.77176,1557404.9049045,129
1660238038.77176,1557404.9049078,-336
1660238038.77176,1557404.9049111,-208
1660238038.77176,1557404.9049143,46
1660238038.77176,1557404.9049176,32
1660238038.77176,1557404.9049208,-9
1660238038.77176,1557404.904924,39
1660238038.77176,1557404.9049273,53
1660238038.77176,1557404.9049305,37
1660238038.77176,1557404.9049338,60
1660238038.77176,1557404.9049395,81
1660238038.77176,1557404.9049429,78
1660238038.77176,1557404.904948,90
1660238038.77176,1557404.9049522,106
1660238038.77176,1557404.904957,104
1660238038.78174,1557404.9049604,111
1660238038.78174,1557404.9049643,143
1660238038.78174,1557404.9049691,162
1660238038.78174,1557404.9049726,171
1660238038.78174,1557404.9049759,201
1660238038.78174,1557404.9049792,213
1660238038.78174,1557404.9049839,208
1660238038.78174,1557404.9049872,218
1660238038.78174,1557404.9049922,224
1660238038.78174,1557404.9049955,218
1660238038.78174,1557404.9049988,204
1660238038.78174,1557405.4880163,185
1660238038.78174,1557405.4880359,150
1660238038.78174,1557405.488044,118
1660238038.78174,1557405.4880489,92
1660238038.78174,1557405.4880555,71
1660238038.78174,1557405.4880607,57
1660238038.78174,1557405.4880675,46
1660238038.78174,1557405.4880721,32
1660238038.78174,1557405.4880765,27
1660238038.78174,1557405.4880818,27
1660238038.78174,1557405.4880895,30
1660238038.78174,1557405.4880959,30
1660238038.78174,1557405.4881003,11
1660238039.30749,1557405.4881064,-11
1660238039.30749,1557405.4881112,-9
1660238039.30749,1557405.4881158,9
1660238039.30749,1557405.4881189,13
1660238039.30749,1557405.4881219,18
1660238039.30749,1557405.4881249,32
1660238039.30749,1557405.4881278,30
1660238039.30749,1557405.4881307,9
1660238039.30749,1557405.4881336,4
1660238039.30749,1557405.4881365,16
1660238039.30749,1557405.4881395,25
1660238039.30749,1557405.4881424,37
1660238039.30749,1557405.4881452,34
1660238039.30749,1557405.488148,27
1660238039.30749,1557405.4881508,34
1660238039.30749,1557405.4881536,34
1660238039.30749,1557405.4881562,27
1660238039.30749,1557405.488159,39
1660238039.30749,1557405.4881618,51
1660238039.30749,1557405.4881646,48
1660238039.30749,1557405.4881673,37
1660238039.30749,1557405.4881701,27
1660238039.30749,1557405.4881729,30
1660238039.30749,1557405.4881755,27
1660238039.30749,1557405.4881782,13
1660238039.30749,1557405.4881809,4
1660238039.30749,1557405.4881837,9
1660238039.30749,1557405.4881863,13
1660238039.30749,1557405.488189,18
1660238039.30749,1557405.4881917,32
1660238039.30749,1557405.4881963,41
1660238039.30749,1557405.4882038,48
1660238039.30749,1557405.4882118,39
1660238039.30749,1557405.4882143,30
1660238039.30749,1557405.4882164,37
1660238039.30749,1557405.4882185,39
1660238039.30749,1557405.4882205,32
1660238039.30749,1557405.4882264,32

1660238039.30749,1557405.4882395,41
1660238039.30749,1557405.4882488,53
1660238039.30749,1557405.4882546,57
1660238039.30749,1557405.4882583,41
1660238039.30749,1557405.4882621,41
1660238039.30749,1557405.4882678,180
1660238039.30749,1557405.4882717,538
1660238039.30749,1557405.4882768,890
1660238039.30749,1557405.4882807,862
1660238039.30749,1557405.488286,340
1660238039.30749,1557405.4882897,-222
1660238039.30749,1557405.4882934,-259
1660238039.31946,1557405.488297,9
1660238039.31946,1557405.4883005,69
1660238039.31946,1557405.4883041,11
1660238039.31946,1557405.4883077,46
1660238039.31946,1557405.4883116,78
1660238039.31946,1557405.4883154,55
1660238039.31946,1557405.4883207,53
1660238039.31946,1557405.4883243,76
1660238039.31946,1557405.4883279,88
1660238039.31946,1557405.4883398,92
1660238039.31946,1557406.0242576,104
1660238039.31946,1557406.0242761,120
1660238039.31946,1557406.024285,134
1660238039.31946,1557406.0242904,148
1660238039.31946,1557406.0242971,155
1660238039.31946,1557406.0243018,155
1660238039.31946,1557406.0243083,178
1660238039.31946,1557406.0243131,211
1660238039.31946,1557406.0243201,218
1660238039.31946,1557406.0243251,211
1660238039.31946,1557406.0243296,194
1660238039.31946,1557406.0243342,169
1660238039.31946,1557406.0243387,160
1660238039.31946,1557406.0243431,153
1660238039.84862,1557406.0243475,125
1660238039.84862,1557406.0243522,97
1660238039.84862,1557406.0243568,55
1660238039.84862,1557406.0243614,9
1660238039.84862,1557406.0243663,-6
1660238039.84862,1557406.0243711,-6
1660238039.84862,1557406.0243755,-13
1660238039.84862,1557406.0243814,-11
1660238039.84862,1557406.0243855,-4
1660238039.84862,1557406.0243894,-11
1660238039.84862,1557406.0243935,-13
1660238039.84862,1557406.0243974,0
1660238039.84862,1557406.0244024,4
1660238039.84862,1557406.0244064,9
1660238039.84862,1557406.0244111,20
1660238039.84862,1557406.0244201,27
1660238039.84862,1557406.0244268,30
1660238039.84862,1557406.0244308,39
1660238039.84862,1557406.0244358,48
1660238039.84862,1557406.0244438,60
1660238039.84862,1557406.0244501,67
1660238039.84862,1557406.0244562,62
1660238039.84862,1557406.0244607,60
1660238039.84862,1557406.0244667,71
1660238039.84862,1557406.024472,78
1660238039.84862,1557406.0244805,76
1660238039.84862,1557406.0244881,78
1660238039.84862,1557406.0244924,81
1660238039.84862,1557406.0244965,71
1660238039.84862,1557406.0245006,69
1660238039.84862,1557406.024506,74
1660238039.84862,1557406.024514,81
1660238039.84862,1557406.0245197,85
1660238039.84862,1557406.0245246,81
1660238039.84862,1557406.0245327,69
1660238039.84862,1557406.0245391,62
1660238039.84862,1557406.0245474,60
1660238039.84862,1557406.0245536,60
1660238039.84862,1557406.0245615,57
1660238039.84862,1557406.0245667,55
1660238039.84862,1557406.0245726,60
1660238039.84862,1557406.0245766,69
1660238039.84862,1557406.0245821,69
1660238039.84862,1557406.0245861,60
1660238039.84862,1557406.0245917,46
1660238039.84862,1557406.0246006,37
1660238039.84862,1557406.0246063,37
1660238039.84862,1557406.0246112,41
1660238039.84862,1557406.0246155,48
1660238039.84862,1557406.0246198,51
1660238039.85959,1557406.024624,55
1660238039.85959,1557406.0246292,48
1660238039.85959,1557406.0246333,27
1660238039.85959,1557406.0246372,83
1660238039.85959,1557406.0246413,350
1660238039.85959,1557406.0246459,751
1660238039.85959,1557406.0246514,939
1660238039.85959,1557406.0246564,614
1660238039.85959,1557406.0246647,-48
1660238039.85959,1557406.56006,-345
1660238039.85959,1557406.560082,-102
1660238039.85959,1557406.56009,83
1660238039.85959,1557406.5600953,20
1660238039.85959,1557406.5601007,6
1660238039.85959,1557406.5601044,55
1660238039.85959,1557406.5601084,46
1660238039.85959,1557406.5601138,27
1660238039.85959,1557406.5601177,46
1660238039.85959,1557406.5601214,62
1660238039.85959,1557406.5601261,64
1660238039.85959,1557406.5601314,76
1660238039.85959,1557406.5601356,90
1660238039.85959,1557406.5601417,83
1660238039.85959,1557406.5601454,78
1660238040.4747,1557406.5601507,97
1660238040.4747,1557406.5601551,115
1660238040.4747,1557406.5601596,129
1660238040.4747,1557406.5601651,148
1660238040.4747,1557406.5601693,160
1660238040.4747,1557406.5601738,160
1660238040.4747,1557406.5601776,164
1660238040.4747,1557406.5601815,164
1660238040.4747,1557406.5601881,153
1660238040.4747,1557406.5601934,143
1660238040.4747,1557406.5601972,127
1660238040.4747,1557406.5602025,95
1660238040.4747,1557406.5602075,67
1660238040.4747,1557406.5602112,48
1660238040.4747,1557406.5602148,32
1660238040.4747,1557406.5602182,27
1660238040.4747,1557406.5602214,25
1660238040.4747,1557406.5602247,20
1660238040.4747,1557406.5602282,16
1660238040.4747,1557406.5602336,20
1660238040.4747,1557406.5602371,25
1660238040.4747,1557406.5602406,34
1660238040.4747,1557406.5602476,41
1660238040.4747,1557406.5602524,48
1660238040.4747,1557406.560258,55
1660238040.4747,1557406.5602641,60
1660238040.4747,1557406.5602705,67
1660238040.4747,1557406.5602768,74
1660238040.4747,1557406.5602832,83
1660238040.4747,1557406.5602869,88
1660238040.4747,1557406.5602924,88
1660238040.4747,1557406.5602971,90
1660238040.4747,1557406.5603027,92
1660238040.4747,1557406.5603061,92
1660238040.4747,1557406.56031,88
1660238040.4747,1557406.5603161,88
1660238040.4747,1557406.5603207,88
1660238040.4747,1557406.5603243,78
1660238040.4747,1557406.5603293,74
1660238040.4747,1557406.5603345,78
1660238040.4747,1557406.5603401,85
1660238040.4747,1557406.5603447,88
1660238040.4747,1557406.5603482,83
1660238040.4747,1557406.5603516,74
1660238040.4747,1557406.5603563,71
1660238040.4747,1557406.5603601,74
1660238040.4747,1557406.5603634,69
1660238040.4747,1557406.5603681,57
1660238040.4747,1557406.5603714,41
1660238040.4747,1557406.5603748,25
1660238040.48467,1557406.5603781,25
1660238040.48467,1557406.5603834,41
1660238040.48467,1557406.5603885,48
1660238040.48467,1557406.5603931,48
1660238040.48467,1557406.5603966,41
1660238040.48467,1557406.5603999,30
1660238040.48467,1557406.5604033,23
1660238040.48467,1557406.5604079,32
1660238040.48467,1557407.195713,39
1660238040.48467,1557407.1957262,41
1660238040.48467,1557407.1957294,44
1660238040.48467,1557407.1957321,32
1660238040.48467,1557407.1957348,-4
1660238040.48467,1557407.1957372,-20
1660238040.48467,1557407.1957396,99
1660238040.48467,1557407.195742,419
1660238040.48467,1557407.1957443,767
1660238040.48467,1557407.1957487,821
1660238040.48467,1557407.1957595,361
1660238040.48467,1557407.1957644,-262
1660238040.48467,1557407.195768,-354
1660238040.48467,1557407.1957761,-39
1660238040.48467,1557407.1957865,41
1660238040.48467,1557407.1957959,-55
1660238041.01869,1557407.1958407,-25
1660238041.01869,1557407.1958467,16
1660238041.01869,1557407.1958498,0
1660238041.01869,1557407.1958533,16
1660238041.01869,1557407.1958575,44
1660238041.01869,1557407.1958606,44
1660238041.01869,1557407.1958641,53
1660238041.01869,1557407.1958677,64
1660238041.01869,1557407.1958731,76
1660238041.01869,1557407.1958766,97
1660238041.01869,1557407.195881,113
1660238041.01869,1557407.195885,125
1660238041.01869,1557407.1958885,143
1660238041.01869,1557407.1958919,164
1660238041.01869,1557407.1958955,180
1660238041.01869,1557407.1958989,197
1660238041.01869,1557407.1959025,201
1660238041.01869,1557407.1959059,201
1660238041.01869,1557407.1959094,199
1660238041.01869,1557407.1959129,183
1660238041.01869,1557407.1959163,164
1660238041.01869,1557407.1959197,153
1660238041.01869,1557407.1959234,127
1660238041.01869,1557407.1959268,90
1660238041.01869,1557407.1959302,55
1660238041.01869,1557407.1959335,46
1660238041.01869,1557407.1959371,51
1660238041.01869,1557407.1959407,41
1660238041.01869,1557407.1959442,32
1660238041.01869,1557407.1959481,39
1660238041.01869,1557407.1959517,34
1660238041.01869,1557407.1959555,27
1660238041.01869,1557407.195959,41
1660238041.01869,1557407.1959668,57
1660238041.01869,1557407.1959704,55
1660238041.01869,1557407.1959742,55
1660238041.01869,1557407.1959778,71
1660238041.01869,1557407.1959813,92
1660238041.01869,1557407.195985,90
1660238041.01869,1557407.1959887,74
1660238041.01869,1557407.1959922,64
1660238041.01869,1557407.1959956,67
1660238041.01869,1557407.1959989,71
1660238041.01869,1557407.1960025,74
1660238041.01869,1557407.1960064,76
1660238041.01869,1557407.19601,83
1660238041.01869,1557407.1960135,85
1660238041.01869,1557407.1960202,83
1660238041.01869,1557407.1960237,76
1660238041.01869,1557407.1960292,81
1660238041.02867,1557407.1960351,78
1660238041.02867,1557407.1960384,74
1660238041.02867,1557407.1960421,83
1660238041.02867,1557407.1960458,78
1660238041.02867,1557407.1960493,69
1660238041.02867,1557407.1960551,71
1660238041.02867,1557407.1960595,69
1660238041.02867,1557407.7312192,51
1660238041.02867,1557407.731241,39
1660238041.02867,1557407.7312505,39
1660238041.02867,1557407.7312531,41
1660238041.02867,1557407.7312553,57
1660238041.02867,1557407.7312574,69
1660238041.02867,1557407.7312595,51
1660238041.02867,1557407.7312615,41
1660238041.02867,1557407.7312635,53
1660238041.02867,1557407.7312655,48
1660238041.02867,1557407.7312675,39
1660238041.02867,1557407.7312695,44
1660238041.02867,1557407.7312715,39
1660238041.02867,1557407.7312736,27
1660238041.02867,1557407.7312755,23
1660238041.02867,1557407.7312775,23
1660238041.02867,1557407.7312794,25
1660238041.64797,1557407.7312818,25
1660238041.64797,1557407.7312883,111
1660238041.64797,1557407.7312981,419
1660238041.64797,1557407.7313063,800
1660238041.64797,1557407.7313132,883
1660238041.64797,1557407.7313179,447
1660238041.64797,1557407.7313227,-187
1660238041.64797,1557407.7313285,-359
1660238041.64797,1557407.7313327,-104
1660238041.64797,1557407.7313412,9
1660238041.64797,1557407.7313501,-32
1660238041.64797,1557407.7313526,-6
1660238041.64797,1557407.7313548,18
1660238041.64797,1557407.731357,11
1660238041.64797,1557407.7313591,25
1660238041.64797,1557407.7313611,27
1660238041.64797,1557407.7313631,13
1660238041.64797,1557407.7313652,30
1660238041.64797,1557407.7313671,60
1660238041.64797,1557407.7313691,71
1660238041.64797,1557407.7313711,83
1660238041.64797,1557407.7313731,111
1660238041.64797,1557407.7313751,134
1660238041.64797,1557407.7313771,153
1660238041.64797,1557407.7313791,162
1660238041.64797,1557407.7313811,164
1660238041.64797,1557407.7313831,187
1660238041.64797,1557407.7313851,213
1660238041.64797,1557407.7313871,218
1660238041.64797,1557407.7313892,218
1660238041.64797,1557407.7313912,194
1660238041.64797,1557407.7313932,153
1660238041.64797,1557407.7313951,125
1660238041.64797,1557407.7313971,92
1660238041.64797,1557407.7313991,41
1660238041.64797,1557407.7314012,18
1660238041.64797,1557407.7314033,30
1660238041.64797,1557407.7314053,30
1660238041.64797,1557407.7314083,18
1660238041.64797,1557407.7314104,9
1660238041.64797,1557407.7314124,-9
1660238041.64797,1557407.7314144,-9
1660238041.64797,1557407.7314164,11
1660238041.64797,1557407.7314185,13
1660238041.64797,1557407.7314204,18
1660238041.64797,1557407.7314225,18
1660238041.64797,1557407.7314245,25
1660238041.64797,1557407.7314264,48
1660238041.64797,1557407.7314285,48
1660238041.64797,1557407.7314304,39
1660238041.65894,1557407.7314326,57
1660238041.65894,1557407.7314345,74
1660238041.65894,1557407.7314365,62
1660238041.65894,1557407.7314386,57
1660238041.65894,1557407.7314405,74
1660238041.65894,1557407.7314426,85
1660238041.65894,1557408.3638143,71
1660238041.65894,1557408.3638263,60
1660238041.65894,1557408.3638295,69
1660238041.65894,1557408.3638323,74
1660238041.65894,1557408.3638347,74
1660238041.65894,1557408.363837,74
1660238041.65894,1557408.3638393,67
1660238041.65894,1557408.3638415,64
1660238041.65894,1557408.3638437,55
1660238041.65894,1557408.363846,46
1660238041.65894,1557408.3638482,39
1660238041.65894,1557408.3638505,4
1660238041.65894,1557408.3638527,6
1660238041.65894,1557408.363855,32
1660238041.65894,1557408.3638614,13
1660238041.65894,1557408.3638729,13
1660238041.65894,1557408.3638786,25
1660238041.65894,1557408.3638808,-13
1660238042.14128,1557408.363883,-30
1660238042.14128,1557408.363885,-4
1660238042.14128,1557408.3638869,-6
1660238042.14128,1557408.3638887,-18
1660238042.14128,1557408.3638906,-20
1660238042.14128,1557408.3638924,-27
1660238042.14128,1557408.3638947,-23
1660238042.14128,1557408.3639038,-27
1660238042.14128,1557408.3639134,-34
1660238042.14128,1557408.3639245,32
1660238042.14128,1557408.3639296,276
1660238042.14128,1557408.3639327,665
1660238042.14128,1557408.3639348,885
1660238042.14128,1557408.3639369,607
1660238042.14128,1557408.363939,-34
1660238042.14128,1557408.3639411,-394
1660238042.14128,1557408.3639487,-222
1660238042.14128,1557408.3639593,-13
1660238042.14128,1557408.3639628,-16
1660238042.14128,1557408.3639664,-11
1660238042.14128,1557408.3639688,41
1660238042.14128,1557408.3639787,44
1660238042.14128,1557408.3639868,13
1660238042.14128,1557408.3639893,-2
1660238042.14128,1557408.3639913,34
1660238042.14128,1557408.3639934,69
1660238042.14128,1557408.3639954,62
1660238042.14128,1557408.3640015,62
1660238042.14128,1557408.3640125,76
1660238042.14128,1557408.364017,102
1660238042.14128,1557408.3640224,134
1660238042.14128,1557408.364028,153
1660238042.14128,1557408.364036,173
1660238042.14128,1557408.3640397,206
1660238042.14128,1557408.3640427,231
1660238042.14128,1557408.3640457,243
1660238042.14128,1557408.3640485,236
1660238042.14128,1557408.3640514,224
1660238042.14128,1557408.3640543,220
1660238042.14128,1557408.3640572,201
1660238042.14128,1557408.36406,150
1660238042.14128,1557408.3640628,111
1660238042.14128,1557408.3640658,97
1660238042.14128,1557408.3640713,69
1660238042.14128,1557408.364074,32
1660238042.14128,1557408.3640767,20
1660238042.14128,1557408.3640794,23
1660238042.14128,1557408.3640841,20
1660238042.14128,1557408.3641107,13
1660238042.14128,1557408.3641267,-2
1660238042.15225,1557408.3641344,-13
1660238042.15225,1557408.3641369,2
1660238042.15225,1557408.3641393,39
1660238042.15225,1557408.3641466,71
1660238042.15225,1557408.3641571,62
1660238042.15225,1557408.853483,27
1660238042.15225,1557408.853505,37
1660238042.15225,1557408.8535151,83
1660238042.15225,1557408.8535195,95
1660238042.15225,1557408.8535234,76
1660238042.15225,1557408.8535273,76
1660238042.15225,1557408.8535313,95
1660238042.15225,1557408.8535352,76
1660238042.15225,1557408.853539,44
1660238042.15225,1557408.8535433,67
1660238042.15225,1557408.8535474,92
1660238042.15225,1557408.8535515,78
1660238042.15225,1557408.8535582,57
1660238042.15225,1557408.8535656,34
1660238042.15225,1557408.8535743,34
1660238042.15225,1557408.8535802,55
1660238042.15225,1557408.8535851,71
1660238042.15225,1557408.8535898,71
1660238042.15225,1557408.8535966,51
1660238042.81866,1557408.8536019,18
1660238042.81866,1557408.8536062,0
1660238042.81866,1557408.8536098,9
1660238042.81866,1557408.8536167,16
1660238042.81866,1557408.8536227,13
1660238042.81866,1557408.8536275,25
1660238042.81866,1557408.8536318,13
1660238042.81866,1557408.8536376,-11
1660238042.81866,1557408.8536446,-6
1660238042.81866,1557408.8536507,16
1660238042.81866,1557408.8536612,20
1660238042.81866,1557408.8536756,9
1660238042.81866,1557408.853688,6
1660238042.81866,1557408.8536958,11
1660238042.81866,1557408.8537002,2
1660238042.81866,1557408.8537059,-6
1660238042.81866,1557408.8537101,53
1660238042.81866,1557408.8537143,331
1660238042.81866,1557408.8537193,739
1660238042.81866,1557408.8537321,885
1660238042.81866,1557408.8537416,503
1660238042.81866,1557408.8537551,-139
1660238042.81866,1557408.8537686,-375
1660238042.81866,1557408.8537819,-134
1660238042.81866,1557408.853795,23
1660238042.81866,1557408.8538069,-9
1660238042.81866,1557408.8538205,-2
1660238042.81866,1557408.853832,27
1660238042.81866,1557408.8538467,23
1660238042.81866,1557408.8538598,32
1660238042.81866,1557408.8538731,57
1660238042.81866,1557408.8538862,62
1660238042.81866,1557408.8538995,69
1660238042.81866,1557408.8539123,85
1660238042.81866,1557408.8539253,99
1660238042.81866,1557408.8539384,106
1660238042.81866,1557408.853952,118
1660238042.81866,1557408.8539648,153
1660238042.81866,1557408.8539782,187
1660238042.81866,1557408.8539919,197
1660238042.81866,1557408.8540051,218
1660238042.81866,1557408.85404,243
1660238042.81866,1557408.854054,245
1660238042.81866,1557408.8540673,248
1660238042.81866,1557408.8540804,255
1660238042.81866,1557408.8540946,238
1660238042.81866,1557408.8541077,201
1660238042.81866,1557408.8541207,162
1660238042.81866,1557408.854135,141
1660238042.81866,1557408.8541478,111
1660238042.82963,1557408.8541608,62
1660238042.82963,1557408.8541749,46
1660238042.82963,1557408.8541876,41
1660238042.82963,1557408.8542008,20
1660238042.82963,1557409.5342481,25
1660238042.82963,1557409.5342599,39
1660238042.82963,1557409.5342647,34
1660238042.82963,1557409.5342686,20
1660238042.82963,1557409.5342707,11
1660238042.82963,1557409.5342739,18
1660238042.82963,1557409.5342759,41
1660238042.82963,1557409.5342779,53
1660238042.82963,1557409.5342799,53
1660238042.82963,1557409.534282,55
1660238042.82963,1557409.5342839,51
1660238042.82963,1557409.5342859,39
1660238042.82963,1557409.5342879,48
1660238042.82963,1557409.5342899,64
1660238042.82963,1557409.5342923,67
1660238042.82963,1557409.5342959,62
1660238042.82963,1557409.5343002,62
1660238042.82963,1557409.5343047,60
1660238042.82963,1557409.534315,57
1660238042.82963,1557409.5343235,60
1660238043.20873,1557409.5343313,57
1660238043.20873,1557409.5343394,57
1660238043.20873,1557409.5343485,41
1660238043.20873,1557409.5343511,18
1660238043.20873,1557409.5343566,23
1660238043.20873,1557409.5343662,27
1660238043.20873,1557409.5343714,18
1660238043.20873,1557409.5343736,11
1660238043.20873,1557409.5343758,-9
1660238043.20873,1557409.5343779,-25
1660238043.20873,1557409.53438,-9
1660238043.20873,1557409.5343821,13
1660238043.20873,1557409.5343842,16
1660238043.20873,1557409.5343862,6
1660238043.20873,1557409.5343882,4
1660238043.20873,1557409.5343902,2
1660238043.20873,1557409.5343925,-4
1660238043.20873,1557409.5344001,-11
1660238043.20873,1557409.5344109,0
1660238043.20873,1557409.5344144,16
1660238043.20873,1557409.5344179,18
1660238043.20873,1557409.53442,0
1660238043.20873,1557409.5344227,-20
1660238043.20873,1557409.5344255,46
1660238043.20873,1557409.5344355,333
1660238043.20873,1557409.5344444,742
1660238043.20873,1557409.5344469,934
1660238043.20873,1557409.5344489,621
1660238043.20873,1557409.5344515,-48
1660238043.20873,1557409.5344594,-361
1660238043.20873,1557409.5344698,-99
1660238043.20873,1557409.534473,99
1660238043.20873,1557409.5344768,20
1660238043.20873,1557409.5344847,0
1660238043.20873,1557409.5344956,57
1660238043.20873,1557409.5345001,60
1660238043.20873,1557409.5345079,46
1660238043.20873,1557409.5345203,62
1660238043.20873,1557409.5345312,90
1660238043.20873,1557409.5345381,97
1660238043.20873,1557409.5345477,97
1660238043.20873,1557409.5345568,120
1660238043.20873,1557409.5345596,139
1660238043.20873,1557409.5345651,148
1660238043.20873,1557409.5345778,171
1660238043.20873,1557409.5345863,190
1660238043.20873,1557409.5345887,204
1660238043.20873,1557409.5345908,224
1660238043.20873,1557409.5345929,238
1660238043.20873,1557409.5345953,241
1660238043.21771,1557409.534603,241
1660238043.21771,1557409.5346138,234
1660238043.21771,1557409.534618,224
1660238043.21771,1557409.9244021,215
1660238043.21771,1557409.9244245,180
1660238043.21771,1557409.9244379,146
1660238043.21771,1557409.9244481,115
1660238043.21771,1557409.9244552,76
1660238043.21771,1557409.9244622,46
1660238043.21771,1557409.924469,27
1660238043.21771,1557409.9244776,6
1660238043.21771,1557409.9244845,-4
1660238043.21771,1557409.9244902,4
1660238043.21771,1557409.9244994,13
1660238043.21771,1557409.924505,11
1660238043.21771,1557409.9245125,9
1660238043.21771,1557409.9245232,16
1660238043.21771,1557409.9245377,16
1660238043.21771,1557409.9245505,25
1660238043.21771,1557409.9245607,39
1660238043.21771,1557409.9245701,44
1660238043.21771,1557409.9245781,51
1660238043.21771,1557409.9245883,60
1660238043.21771,1557409.9245936,57
1660238043.84563,1557409.9246025,48
1660238043.84563,1557409.9246111,53
1660238043.84563,1557409.9246155,69
1660238043.84563,1557409.9246191,78
1660238043.84563,1557409.9246232,64
1660238043.84563,1557409.9246269,44
1660238043.84563,1557409.9246333,30
1660238043.84563,1557409.9246387,25
1660238043.84563,1557409.9246437,27
1660238043.84563,1557409.9246505,37
1660238043.84563,1557409.9246546,37
1660238043.84563,1557409.9246644,34
1660238043.84563,1557409.9246723,39
1660238043.84563,1557409.9246855,39
1660238043.84563,1557409.9246941,32
1660238043.84563,1557409.9247016,34
1660238043.84563,1557409.9247126,23
1660238043.84563,1557409.9247266,11
1660238043.84563,1557409.9247414,25
1660238043.84563,1557409.9247536,44
1660238043.84563,1557409.9247661,41
1660238043.84563,1557409.9247793,30
1660238043.84563,1557409.9247934,30
1660238043.84563,1557409.9248075,30
1660238043.84563,1557409.9248207,16
1660238043.84563,1557409.9248348,18
1660238043.84563,1557409.9248455,37
1660238043.84563,1557409.9248541,44
1660238043.84563,1557409.9248613,41
1660238043.84563,1557409.9248823,46
1660238043.84563,1557409.9248973,23
1660238043.84563,1557409.9249063,23
1660238043.84563,1557409.9249126,222
1660238043.84563,1557409.9249181,630
1660238043.84563,1557409.9249233,948
1660238043.84563,1557409.9249289,832
1660238043.84563,1557409.9249342,227
1660238043.84563,1557409.9249395,-294
1660238043.84563,1557409.924945,-199
1660238043.84563,1557409.9249512,78
1660238043.84563,1557409.9249568,57
1660238043.84563,1557409.9249624,-13
1660238043.84563,1557409.9249679,46
1660238043.84563,1557409.9249736,67
1660238043.84563,1557409.9249787,41
1660238043.84563,1557409.9249839,64
1660238043.84563,1557409.9249889,88
1660238043.84563,1557409.9249939,81
1660238043.84563,1557409.9249987,92
1660238043.84563,1557409.9250037,118
1660238043.8576,1557409.9250081,125
1660238043.8576,1557409.9250132,132
1660238043.8576,1557410.5575556,155
1660238043.8576,1557410.5575694,173
1660238043.8576,1557410.5575744,187
1660238043.8576,1557410.5575772,204
1660238043.8576,1557410.5575799,204
1660238043.8576,1557410.5575825,208
1660238043.8576,1557410.557585,222
1660238043.8576,1557410.5575875,220
1660238043.8576,1557410.5575899,213
1660238043.8576,1557410.5575924,199
1660238043.8576,1557410.5575958,153
1660238043.8576,1557410.5576087,104
1660238043.8576,1557410.5576178,69
1660238043.8576,1557410.5576228,27
1660238043.8576,1557410.5576294,-2
1660238043.8576,1557410.5576378,-4
1660238043.8576,1557410.5576477,-16
1660238043.8576,1557410.5576584,-32
1660238043.8576,1557410.5576639,-32
1660238043.8576,1557410.557666,-27
1660238043.8576,1557410.5576682,-25
1660238043.8576,1557410.5576702,-25
1660238044.37325,1557410.5576723,-20
1660238044.37325,1557410.5576742,-9
1660238044.37325,1557410.5576762,2
1660238044.37325,1557410.5576781,11
1660238044.37325,1557410.55768,18
1660238044.37325,1557410.5576819,32
1660238044.37325,1557410.5576838,41
1660238044.37325,1557410.5576857,41
1660238044.37325,1557410.5576891,53
1660238044.37325,1557410.5576973,74
1660238044.37325,1557410.5577026,81
1660238044.37325,1557410.5577095,81
1660238044.37325,1557410.5577155,81
1660238044.37325,1557410.557722,81
1660238044.37325,1557410.5577308,90
1660238044.37325,1557410.5577401,90
1660238044.37325,1557410.5577425,74
1660238044.37325,1557410.5577491,71
1660238044.37325,1557410.5577554,88
1660238044.37325,1557410.5577662,92
1660238044.37325,1557410.5577762,85
1660238044.37325,1557410.5577838,85
1660238044.37325,1557410.5577911,81
1660238044.37325,1557410.5577957,71
1660238044.37325,1557410.5577989,69
1660238044.37325,1557410.557822,62
1660238044.37325,1557410.5578302,51
1660238044.37325,1557410.557834,62
1660238044.37325,1557410.5578376,69
1660238044.37325,1557410.5578412,57
1660238044.37325,1557410.5578447,57
1660238044.37325,1557410.5578481,62
1660238044.37325,1557410.5578522,51
1660238044.37325,1557410.5578579,37
1660238044.37325,1557410.5578616,39
1660238044.37325,1557410.5578667,46
1660238044.37325,1557410.5578701,51
1660238044.37325,1557410.5578736,57
1660238044.37325,1557410.557879,62
1660238044.37325,1557410.5578823,46
1660238044.37325,1557410.5578876,32
1660238044.37325,1557410.5578928,74
1660238044.37325,1557410.5578985,315
1660238044.37325,1557410.5579029,737
1660238044.37325,1557410.5579081,985
1660238044.37325,1557410.5579115,714
1660238044.37325,1557410.5579163,55
1660238044.37325,1557410.5579199,-306
1660238044.37325,1557410.5579236,-88
1660238044.37325,1557410.5579286,115
1660238044.38522,1557410.5579343,41
1660238044.38522,1557411.094533,18
1660238044.38522,1557411.0945483,78
1660238044.38522,1557411.0945546,76
1660238044.38522,1557411.0945606,62
1660238044.38522,1557411.0945637,83
1660238044.38522,1557411.0945689,92
1660238044.38522,1557411.0945747,83
1660238044.38522,1557411.0945809,88
1660238044.38522,1557411.0945872,99
1660238044.38522,1557411.0945941,99
1660238044.38522,1557411.0946,109
1660238044.38522,1557411.094606,134
1660238044.38522,1557411.0946121,146
1660238044.38522,1557411.0946193,139
1660238044.38522,1557411.0946275,146
1660238044.38522,1557411.0946349,173
1660238044.38522,1557411.0946429,194
1660238044.38522,1557411.0946509,201
1660238044.38522,1557411.0946599,204
1660238044.38522,1557411.0946674,178
1660238044.38522,1557411.0946737,132
1660238044.38522,1557411.0946802,109
1660238044.38522,1557411.0946863,95
1660238044.91678,1557411.0946927,55
1660238044.91678,1557411.0947186,25
1660238044.91678,1557411.0947301,13
1660238044.91678,1557411.0947347,-4
1660238044.91678,1557411.0947381,-13
1660238044.91678,1557411.0947411,-6
1660238044.91678,1557411.0947444,-4
1660238044.91678,1557411.0947477,-6
1660238044.91678,1557411.094751,0
1660238044.91678,1557411.0947543,4
1660238044.91678,1557411.0947575,11
1660238044.91678,1557411.0947608,25
1660238044.91678,1557411.0947642,39
1660238044.91678,1557411.0947673,46
1660238044.91678,1557411.0947707,48
1660238044.91678,1557411.094775,55
1660238044.91678,1557411.0947784,62
1660238044.91678,1557411.0947819,62
1660238044.91678,1557411.0947888,60
1660238044.91678,1557411.0947947,71
1660238044.91678,1557411.0947983,81
1660238044.91678,1557411.0948036,71
1660238044.91678,1557411.0948069,67
1660238044.91678,1557411.0948127,81
1660238044.91678,1557411.0948176,92
1660238044.91678,1557411.0948232,90
1660238044.91678,1557411.0948284,85
1660238044.91678,1557411.0948358,74
1660238044.91678,1557411.0948414,71
1660238044.91678,1557411.0948476,81
1660238044.91678,1557411.0948551,83
1660238044.91678,1557411.0948608,88
1660238044.91678,1557411.0948673,88
1660238044.91678,1557411.0948704,74
1660238044.91678,1557411.0948753,67
1660238044.91678,1557411.0948813,67
1660238044.91678,1557411.0948863,67
1660238044.91678,1557411.0948924,67
1660238044.91678,1557411.0948971,60
1660238044.91678,1557411.09491,57
1660238044.91678,1557411.0949199,67
1660238044.91678,1557411.0949268,76
1660238044.91678,1557411.0949349,81
1660238044.91678,1557411.0949425,76
1660238044.91678,1557411.0949478,64
1660238044.91678,1557411.094953,60
1660238044.91678,1557411.0949593,62
1660238044.91678,1557411.0949681,60
1660238044.91678,1557411.0949808,46
1660238044.91678,1557411.0949892,32
1660238044.92775,1557411.630563,39
1660238044.92775,1557411.6305758,48
1660238044.92775,1557411.6305791,23
1660238044.92775,1557411.6305818,20
1660238044.92775,1557411.6305842,206
1660238044.92775,1557411.6305867,605
1660238044.92775,1557411.6305889,930
1660238044.92775,1557411.6305912,811
1660238044.92775,1557411.6305934,204
1660238044.92775,1557411.6305957,-317
1660238044.92775,1557411.6305978,-241
1660238044.92775,1557411.6306001,34
1660238044.92775,1557411.6306023,34
1660238044.92775,1557411.6306045,-25
1660238044.92775,1557411.6306067,32
1660238044.92775,1557411.6306088,53
1660238044.92775,1557411.6306111,6
1660238044.92775,1557411.6306132,6
1660238044.92775,1557411.6306154,41
1660238044.92775,1557411.6306177,46
1660238044.92775,1557411.6306198,46
1660238044.92775,1557411.630622,71
1660238044.92775,1557411.6306243,90
1660238044.92775,1557411.6306265,85
1660238045.50491,1557411.6306288,97
1660238045.50491,1557411.6306309,127
1660238045.50491,1557411.6306329,148
1660238045.50491,1557411.630635,173
1660238045.50491,1557411.630637,197
1660238045.50491,1557411.630639,211
1660238045.50491,1557411.6306409,220
1660238045.50491,1557411.6306428,220
1660238045.50491,1557411.6306447,206
1660238045.50491,1557411.6306466,192
1660238045.50491,1557411.6306485,166
1660238045.50491,1557411.6306504,129
1660238045.50491,1557411.6306524,99
1660238045.50491,1557411.6306555,71
1660238045.50491,1557411.6306577,41
1660238045.50491,1557411.6306603,27
1660238045.50491,1557411.6306624,25
1660238045.50491,1557411.6306646,20
1660238045.50491,1557411.6306667,16
1660238045.50491,1557411.6306695,16
1660238045.50491,1557411.6306717,11
1660238045.50491,1557411.6306738,30
1660238045.50491,1557411.6306759,53
1660238045.50491,1557411.6306781,41
1660238045.50491,1557411.6306803,34
1660238045.50491,1557411.6306824,57
1660238045.50491,1557411.6306846,74
1660238045.50491,1557411.6306867,76
1660238045.50491,1557411.630689,88
1660238045.50491,1557411.6306911,99
1660238045.50491,1557411.6306932,90
1660238045.50491,1557411.6306954,81
1660238045.50491,1557411.6306975,97
1660238045.50491,1557411.6306998,109
1660238045.50491,1557411.6307019,104
1660238045.50491,1557411.6307041,97
1660238045.50491,1557411.6307063,102
1660238045.50491,1557411.6307084,111
1660238045.50491,1557411.6307106,99
1660238045.50491,1557411.6307127,81
1660238045.50491,1557411.6307149,71
1660238045.50491,1557411.6307171,64
1660238045.50491,1557411.6307193,55
1660238045.50491,1557411.6307214,44
1660238045.50491,1557411.6307235,37
1660238045.50491,1557411.6307257,44
1660238045.50491,1557411.6307289,46
1660238045.50491,1557411.630731,37
1660238045.50491,1557411.6307332,44
1660238045.50491,1557412.2171996,48
1660238045.51588,1557412.2172177,32
1660238045.51588,1557412.2172235,23
1660238045.51588,1557412.2172278,37
1660238045.51588,1557412.217233,48
1660238045.51588,1557412.2172372,41
1660238045.51588,1557412.2172434,25
1660238045.51588,1557412.2172483,13
1660238045.51588,1557412.2172548,16
1660238045.51588,1557412.2172614,25
1660238045.51588,1557412.217268,25
1660238045.51588,1557412.2172749,18
1660238045.51588,1557412.2172812,11
1660238045.51588,1557412.2172878,-6
1660238045.51588,1557412.2172947,-11
1660238045.51588,1557412.217306,11
1660238045.51588,1557412.2173095,16
1660238045.51588,1557412.2173116,-11
1660238045.51588,1557412.2173143,20
1660238045.51588,1557412.2173164,259
1660238045.51588,1557412.2173184,667
1660238045.51588,1557412.2173209,923
1660238045.51588,1557412.2173286,681
1660238045.51588,1557412.2173396,20
1660238045.51588,1557412.217344,-385
1660238046.0889,1557412.2173473,-194
1660238046.0889,1557412.2173494,44
1660238046.0889,1557412.2173513,9
1660238046.0889,1557412.2173533,-18
1660238046.0889,1557412.2173552,34
1660238046.0889,1557412.2173571,41
1660238046.0889,1557412.2173591,34
1660238046.0889,1557412.217361,57
1660238046.0889,1557412.2173629,71
1660238046.0889,1557412.2173655,69
1660238046.0889,1557412.2173733,83
1660238046.0889,1557412.2173807,106
1660238046.0889,1557412.2173948,115
1660238046.0889,1557412.2174073,129
1660238046.0889,1557412.2174191,150
1660238046.0889,1557412.2174302,169
1660238046.0889,1557412.2174439,194
1660238046.0889,1557412.2174532,222
1660238046.0889,1557412.2174622,238
1660238046.0889,1557412.217474,243
1660238046.0889,1557412.2174857,252
1660238046.0889,1557412.2174993,255
1660238046.0889,1557412.21751,241
1660238046.0889,1557412.2175222,227
1660238046.0889,1557412.2175312,204
1660238046.0889,1557412.2175398,157
1660238046.0889,1557412.2175489,120
1660238046.0889,1557412.2175557,104
1660238046.0889,1557412.2175581,81
1660238046.0889,1557412.2175602,55
1660238046.0889,1557412.2175623,46
1660238046.0889,1557412.2175642,27
1660238046.0889,1557412.2175665,4
1660238046.0889,1557412.2175742,2
1660238046.0889,1557412.2175847,16
1660238046.0889,1557412.217588,13
1660238046.0889,1557412.2175915,16
1660238046.0889,1557412.2175942,30
1660238046.0889,1557412.2176041,37
1660238046.0889,1557412.2176131,44
1660238046.0889,1557412.2176154,60
1660238046.0889,1557412.2176175,69
1660238046.0889,1557412.2176196,69
1660238046.0889,1557412.2176231,76
1660238046.0889,1557412.2176359,83
1660238046.0889,1557412.2176414,88
1660238046.0889,1557412.2176443,95
1660238046.0889,1557412.2176464,106
1660238046.0889,1557412.8005896,109
1660238046.0889,1557412.8006066,104
1660238046.10087,1557412.8006119,109
1660238046.10087,1557412.8006148,111
1660238046.10087,1557412.8006174,99
1660238046.10087,1557412.8006201,92
1660238046.10087,1557412.8006228,99
1660238046.10087,1557412.8006254,104
1660238046.10087,1557412.8006279,102
1660238046.10087,1557412.8006305,88
1660238046.10087,1557412.8006331,62
1660238046.10087,1557412.8006357,51
1660238046.10087,1557412.8006383,57
1660238046.10087,1557412.8006409,60
1660238046.10087,1557412.8006722,46
1660238046.10087,1557412.8006801,34
1660238046.10087,1557412.8006868,32
1660238046.10087,1557412.8006928,27
1660238046.10087,1557412.8006964,25
1660238046.10087,1557412.8006995,34
1660238046.10087,1557412.8007024,48
1660238046.10087,1557412.8007053,55
1660238046.10087,1557412.8007081,39
1660238046.10087,1557412.8007108,13
1660238046.10087,1557412.8007136,4
1660238046.10087,1557412.8007162,16
1660238046.61559,1557412.8007189,20
1660238046.61559,1557412.8007217,20
1660238046.61559,1557412.8007244,30
1660238046.61559,1557412.8007269,37
1660238046.61559,1557412.8007295,37
1660238046.61559,1557412.8007323,37
1660238046.61559,1557412.8007351,25
1660238046.61559,1557412.8007377,69
1660238046.61559,1557412.8007407,336
1660238046.61559,1557412.8007439,749
1660238046.61559,1557412.8007471,957
1660238046.61559,1557412.8007504,661
1660238046.61559,1557412.8007535,11
1660238046.61559,1557412.8007565,-306
1660238046.61559,1557412.8007594,-81
1660238046.61559,1557412.8007623,95
1660238046.61559,1557412.8007651,27
1660238046.61559,1557412.8007679,23
1660238046.61559,1557412.8007706,83
1660238046.61559,1557412.800774,74
1660238046.61559,1557412.8007784,64
1660238046.61559,1557412.8007821,85
1660238046.61559,1557412.8007849,81
1660238046.61559,1557412.8007878,67
1660238046.61559,1557412.8007925,81
1660238046.61559,1557412.8007978,97
1660238046.61559,1557412.8008021,106
1660238046.61559,1557412.8008063,120
1660238046.61559,1557412.800813,141
1660238046.61559,1557412.8008198,162
1660238046.61559,1557412.8008265,178
1660238046.61559,1557412.8008336,197
1660238046.61559,1557412.800838,227
1660238046.61559,1557412.8008426,250
1660238046.61559,1557412.8008481,245
1660238046.61559,1557412.8008518,234
1660238046.61559,1557412.800855,234
1660238046.61559,1557412.800858,227
1660238046.61559,1557412.800861,197
1660238046.61559,1557412.800864,153
1660238046.61559,1557412.800867,111
1660238046.61559,1557412.80087,88
1660238046.61559,1557412.8008729,76
1660238046.61559,1557412.8008759,62
1660238046.61559,1557412.8008803,48
1660238046.61559,1557412.8008852,48
1660238046.61559,1557412.800891,51
1660238046.61559,1557413.3370776,46
1660238046.61559,1557413.3370913,46
1660238046.61559,1557413.3370967,57
1660238046.62755,1557413.3371018,60
1660238046.62755,1557413.3371043,55
1660238046.62755,1557413.3371076,64
1660238046.62755,1557413.3371099,85
1660238046.62755,1557413.3371123,85
1660238046.62755,1557413.3371146,78
1660238046.62755,1557413.3371168,83
1660238046.62755,1557413.3371188,99
1660238046.62755,1557413.3371212,106
1660238046.62755,1557413.3371279,97
1660238046.62755,1557413.3371391,83
1660238046.62755,1557413.3371428,78
1660238046.62755,1557413.3371449,71
1660238046.62755,1557413.3371468,69
1660238046.62755,1557413.3371487,81
1660238046.62755,1557413.3371507,81
1660238046.62755,1557413.3371526,60
1660238046.62755,1557413.3371544,44
1660238046.62755,1557413.3371563,46
1660238046.62755,1557413.3371582,48
1660238046.62755,1557413.3371601,46
1660238046.62755,1557413.3371619,55
1660238046.62755,1557413.3371638,62
1660238046.62755,1557413.3371657,46
1660238047.25526,1557413.3371678,32
1660238047.25526,1557413.3371697,30

1660238047.25526,1557413.3371715,34
1660238047.25526,1557413.3371735,39
1660238047.25526,1557413.3371754,34
1660238047.25526,1557413.3371772,18
1660238047.25526,1557413.337179,18
1660238047.25526,1557413.3371809,34
1660238047.25526,1557413.3371827,46
1660238047.25526,1557413.3371846,53
1660238047.25526,1557413.3371864,51
1660238047.25526,1557413.3371883,41
1660238047.25526,1557413.3371901,34
1660238047.25526,1557413.337192,34
1660238047.25526,1557413.337194,23
1660238047.25526,1557413.3371958,6
1660238047.25526,1557413.3371977,16
1660238047.25526,1557413.3371996,34
1660238047.25526,1557413.3372015,25
1660238047.25526,1557413.3372033,13
1660238047.25526,1557413.3372052,4
1660238047.25526,1557413.3372071,48
1660238047.25526,1557413.337209,289
1660238047.25526,1557413.3372109,686
1660238047.25526,1557413.3372129,939
1660238047.25526,1557413.3372149,735
1660238047.25526,1557413.3372168,104
1660238047.25526,1557413.3372189,-317
1660238047.25526,1557413.337221,-150
1660238047.25526,1557413.3372231,92
1660238047.25526,1557413.337225,46
1660238047.25526,1557413.337227,2
1660238047.25526,1557413.337229,64
1660238047.25526,1557413.337231,74
1660238047.25526,1557413.337233,60
1660238047.25526,1557413.3372349,78
1660238047.25526,1557413.337237,92
1660238047.25526,1557413.337239,90
1660238047.25526,1557413.337241,97
1660238047.25526,1557413.3372431,118
1660238047.25526,1557413.3372452,139
1660238047.25526,1557413.3372472,146
1660238047.25526,1557413.3372493,155
1660238047.25526,1557413.3372513,171
1660238047.25526,1557413.3372533,194
1660238047.25526,1557413.3372553,215
1660238047.25526,1557413.9702011,234
1660238047.25526,1557413.9702272,252
1660238047.25526,1557413.9702381,257
1660238047.25526,1557413.9702459,238
1660238047.26623,1557413.9702563,206
1660238047.26623,1557413.9702681,187
1660238047.26623,1557413.9702776,162
1660238047.26623,1557413.9702903,129
1660238047.26623,1557413.9703019,106
1660238047.26623,1557413.9703105,76
1660238047.26623,1557413.9703225,34
1660238047.26623,1557413.9703339,25
1660238047.26623,1557413.9703443,34
1660238047.26623,1557413.9703523,23
1660238047.26623,1557413.9703556,11
1660238047.26623,1557413.9703578,6
1660238047.26623,1557413.9703624,-6
1660238047.26623,1557413.9703645,-9
1660238047.26623,1557413.9703667,2
1660238047.26623,1557413.9703688,2
1660238047.26623,1557413.9703724,2
1660238047.26623,1557413.9704066,20
1660238047.26623,1557413.9704148,30
1660238047.26623,1557413.9704188,32
1660238047.26623,1557413.9704236,41
1660238047.26623,1557413.970429,48
1660238047.26623,1557413.9704337,60
1660238047.26623,1557413.9704397,67
1660238047.74939,1557413.9704427,64
1660238047.74939,1557413.9704457,62
1660238047.74939,1557413.970449,67
1660238047.74939,1557413.9704519,76
1660238047.74939,1557413.9704558,76
1660238047.74939,1557413.9704589,60
1660238047.74939,1557413.9704621,41
1660238047.74939,1557413.9704665,30
1660238047.74939,1557413.9704697,41
1660238047.74939,1557413.970474,60
1660238047.74939,1557413.9704801,57
1660238047.74939,1557413.9704866,46
1660238047.74939,1557413.9704916,32
1660238047.74939,1557413.9704972,32
1660238047.74939,1557413.9705011,41
1660238047.74939,1557413.9705089,34
1660238047.74939,1557413.9705163,20
1660238047.74939,1557413.9705248,25
1660238047.74939,1557413.9705336,37
1660238047.74939,1557413.9705425,25
1660238047.74939,1557413.9705492,13
1660238047.74939,1557413.970561,27
1660238047.74939,1557413.9705689,39
1660238047.74939,1557413.9705743,46
1660238047.74939,1557413.9705801,60
1660238047.74939,1557413.9705881,60
1660238047.74939,1557413.9706001,46
1660238047.74939,1557413.9706081,37
1660238047.74939,1557413.9706205,37
1660238047.74939,1557413.9706284,44
1660238047.74939,1557413.970633,48
1660238047.74939,1557413.9706433,53
1660238047.74939,1557413.9706547,57
1660238047.74939,1557413.9706675,53
1660238047.74939,1557413.9706803,25
1660238047.74939,1557413.9706944,23
1660238047.74939,1557413.9707027,176
1660238047.74939,1557413.9707052,540
1660238047.74939,1557413.9707074,899
1660238047.74939,1557413.9707095,879
1660238047.74939,1557413.9707115,343
1660238047.74939,1557413.9707135,-241
1660238047.74939,1557413.9707156,-273
1660238047.74939,1557413.9707176,16
1660238047.74939,1557413.9707195,74
1660238047.74939,1557414.459606,4
1660238047.74939,1557414.4596241,41
1660238047.74939,1557414.4596318,85
1660238047.74939,1557414.4596386,67
1660238047.74939,1557414.4596429,74
1660238047.76036,1557414.4596485,90
1660238047.76036,1557414.459654,88
1660238047.76036,1557414.4596598,92
1660238047.76036,1557414.4596636,113
1660238047.76036,1557414.4596675,132
1660238047.76036,1557414.4596711,139
1660238047.76036,1557414.4596747,153
1660238047.76036,1557414.4596785,166
1660238047.76036,1557414.4596824,164
1660238047.76036,1557414.4596862,171
1660238047.76036,1557414.4596904,206
1660238047.76036,1557414.4596962,229
1660238047.76036,1557414.4597,231
1660238047.76036,1557414.4597061,231
1660238047.76036,1557414.45971,211
1660238047.76036,1557414.4597152,173
1660238047.76036,1557414.459719,143
1660238047.76036,1557414.459723,120
1660238047.76036,1557414.4597284,88
1660238047.76036,1557414.4597327,57
1660238047.76036,1557414.4597363,32
1660238047.76036,1557414.4597401,0
1660238047.76036,1557414.459744,-23
1660238047.76036,1557414.4597479,-25
1660238048.2789,1557414.4597516,-18
1660238048.2789,1557414.4597555,-13
1660238048.2789,1557414.4597595,-16
1660238048.2789,1557414.4597632,-27
1660238048.2789,1557414.4597672,-16
1660238048.2789,1557414.4597708,16
1660238048.2789,1557414.4597748,20
1660238048.2789,1557414.4597787,25
1660238048.2789,1557414.4597825,39
1660238048.2789,1557414.4597864,39
1660238048.2789,1557414.4597901,27
1660238048.2789,1557414.4597939,46
1660238048.2789,1557414.4597975,71
1660238048.2789,1557414.4598013,74
1660238048.2789,1557414.4598053,76
1660238048.2789,1557414.4598089,81
1660238048.2789,1557414.4598126,88
1660238048.2789,1557414.4598165,95
1660238048.2789,1557414.4598203,85
1660238048.2789,1557414.4598239,83
1660238048.2789,1557414.4598281,88
1660238048.2789,1557414.4598319,74
1660238048.2789,1557414.4598358,69
1660238048.2789,1557414.4598417,85
1660238048.2789,1557414.4598455,85
1660238048.2789,1557414.4598493,76
1660238048.2789,1557414.4598546,67
1660238048.2789,1557414.4598585,57
1660238048.2789,1557414.4598623,57
1660238048.2789,1557414.459866,57
1660238048.2789,1557414.4598713,48
1660238048.2789,1557414.4598752,46
1660238048.2789,1557414.459879,51
1660238048.2789,1557414.459883,46
1660238048.2789,1557414.4598888,34
1660238048.2789,1557414.4598927,34
1660238048.2789,1557414.4598967,44
1660238048.2789,1557414.4599024,48
1660238048.2789,1557414.4599074,57
1660238048.2789,1557414.4599129,67
1660238048.2789,1557414.4599174,51
1660238048.2789,1557414.459923,27
1660238048.2789,1557414.4599271,44
1660238048.2789,1557414.4599307,60
1660238048.2789,1557414.9961395,41
1660238048.2789,1557414.9961581,39
1660238048.2789,1557414.9961651,62
1660238048.2789,1557414.9961708,67
1660238048.2789,1557414.996177,60
1660238048.2789,1557414.9961807,51
1660238048.28889,1557414.9961864,62
1660238048.28889,1557414.9961904,257
1660238048.28889,1557414.996196,674
1660238048.28889,1557414.9961997,971
1660238048.28889,1557414.9962033,756
1660238048.28889,1557414.9962071,97
1660238048.28889,1557414.9962109,-352
1660238048.28889,1557414.9962147,-206
1660238048.28889,1557414.9962184,39
1660238048.28889,1557414.996222,16
1660238048.28889,1557414.9962271,-20
1660238048.28889,1557414.9962309,34
1660238048.28889,1557414.9962429,27
1660238048.28889,1557414.9962562,-16
1660238048.28889,1557414.9962697,11
1660238048.28889,1557414.9962834,41
1660238048.28889,1557414.9962941,16
1660238048.28889,1557414.9963035,6
1660238048.28889,1557414.9963094,41
1660238048.28889,1557414.9963158,51
1660238048.28889,1557414.9963189,55
1660238048.28889,1557414.996322,81
1660238048.28889,1557414.996325,104
1660238048.28889,1557414.9963279,139
1660238048.87035,1557414.9963321,180
1660238048.87035,1557414.9963389,187
1660238048.87035,1557414.9963456,190
1660238048.87035,1557414.9963525,204
1660238048.87035,1557414.9963596,213
1660238048.87035,1557414.9963667,211
1660238048.87035,1557414.9963724,185
1660238048.87035,1557414.9963776,143
1660238048.87035,1557414.9963837,120
1660238048.87035,1557414.9963905,97
1660238048.87035,1557414.9963961,67
1660238048.87035,1557414.9964055,51
1660238048.87035,1557414.9964093,41
1660238048.87035,1557414.9964204,18
1660238048.87035,1557414.9964293,2
1660238048.87035,1557414.9964374,13
1660238048.87035,1557414.9964458,20
1660238048.87035,1557414.9964541,18
1660238048.87035,1557414.9964648,25
1660238048.87035,1557414.9964735,23
1660238048.87035,1557414.9964849,20
1660238048.87035,1557414.9964954,39
1660238048.87035,1557414.9965028,55
1660238048.87035,1557414.9965083,55
1660238048.87035,1557414.9965172,57
1660238048.87035,1557414.9965238,64
1660238048.87035,1557414.9965314,74
1660238048.87035,1557414.9965401,81
1660238048.87035,1557414.99655,81
1660238048.87035,1557414.9965575,88
1660238048.87035,1557414.9965702,95
1660238048.87035,1557414.9965831,90
1660238048.87035,1557414.996596,90
1660238048.87035,1557414.9966091,104
1660238048.87035,1557414.9966176,109
1660238048.87035,1557414.9966207,102
1660238048.87035,1557414.9966227,99
1660238048.87035,1557414.9966249,99
1660238048.87035,1557414.9966335,92
1660238048.87035,1557414.9966468,97
1660238048.87035,1557414.9966598,109
1660238048.87035,1557414.9966725,111
1660238048.87035,1557414.9966854,104
1660238048.87035,1557415.581361,85
1660238048.87035,1557415.5813741,81
1660238048.87035,1557415.5813788,85
1660238048.87035,1557415.5813828,57
1660238048.87035,1557415.5813851,39
1660238048.87035,1557415.5813872,57
1660238048.87035,1557415.5813893,60
1660238048.88295,1557415.5813912,51
1660238048.88295,1557415.5813932,57
1660238048.88295,1557415.5813952,71
1660238048.88295,1557415.5813976,78
1660238048.88295,1557415.5814009,62
1660238048.88295,1557415.58141,25
1660238048.88295,1557415.5814175,2
1660238048.88295,1557415.5814225,6
1660238048.88295,1557415.5814319,9
1660238048.88295,1557415.5814416,0
1660238048.88295,1557415.5814547,9
1660238048.88295,1557415.581464,23
1660238048.88295,1557415.581519,-9
1660238048.88295,1557415.5815267,-34
1660238048.88295,1557415.5815303,106
1660238048.88295,1557415.5815345,470
1660238048.88295,1557415.5815378,823
1660238048.88295,1557415.581541,816
1660238048.88295,1557415.5815449,313
1660238048.88295,1557415.5815483,-262
1660238048.88295,1557415.5815515,-308
1660238048.88295,1557415.5815547,-25
1660238048.88295,1557415.5815588,46
1660238048.88295,1557415.5815677,-18
1660238049.40233,1557415.5815724,11
1660238049.40233,1557415.5815764,60
1660238049.40233,1557415.581581,55
1660238049.40233,1557415.5815866,55
1660238049.40233,1557415.5815915,71
1660238049.40233,1557415.5815948,69
1660238049.40233,1557415.5815979,74
1660238049.40233,1557415.5816011,99
1660238049.40233,1557415.5817373,115
1660238049.40233,1557415.5817502,134
1660238049.40233,1557415.5817565,153
1660238049.40233,1557415.5817605,166
1660238049.40233,1557415.5817646,185
1660238049.40233,1557415.5817696,208
1660238049.40233,1557415.5817736,231
1660238049.40233,1557415.5817783,248
1660238049.40233,1557415.5817833,259
1660238049.40233,1557415.5817875,252
1660238049.40233,1557415.5817914,241
1660238049.40233,1557415.581795,229
1660238049.40233,1557415.5817988,204
1660238049.40233,1557415.581803,178
1660238049.40233,1557415.5818068,150
1660238049.40233,1557415.5818112,111
1660238049.40233,1557415.5818158,81
1660238049.40233,1557415.5818221,76
1660238049.40233,1557415.5818272,71
1660238049.40233,1557415.5818311,55
1660238049.40233,1557415.5818373,46
1660238049.40233,1557415.5818423,53
1660238049.40233,1557415.5818488,57
1660238049.40233,1557415.581855,51
1660238049.40233,1557415.5818604,53
1660238049.40233,1557415.5818651,55
1660238049.40233,1557415.5818688,51
1660238049.40233,1557415.5818726,57
1660238049.40233,1557415.5818762,67
1660238049.40233,1557415.5818806,71
1660238049.40233,1557415.5818851,74
1660238049.40233,1557415.5818888,76
1660238049.40233,1557415.5818925,83
1660238049.40233,1557415.5818969,99
1660238049.40233,1557416.1159691,106
1660238049.40233,1557416.1159976,99
1660238049.40233,1557416.1160036,97
1660238049.40233,1557416.1160083,102
1660238049.40233,1557416.1160132,92
1660238049.40233,1557416.1160173,71
1660238049.40233,1557416.1160221,62
1660238049.40233,1557416.1160254,69
1660238049.41529,1557416.1160285,78
1660238049.41529,1557416.1160343,64
1660238049.41529,1557416.1160407,30
1660238049.41529,1557416.1160479,27
1660238049.41529,1557416.1160545,44
1660238049.41529,1557416.1160605,41
1660238049.41529,1557416.1160648,32
1660238049.41529,1557416.1160711,23
1660238049.41529,1557416.1160749,18
1660238049.41529,1557416.1160796,20
1660238049.41529,1557416.1160851,13
1660238049.41529,1557416.1160911,13
1660238049.41529,1557416.1160959,25
1660238049.41529,1557416.1161019,18
1660238049.41529,1557416.1161079,-2
1660238049.41529,1557416.1161147,-11
1660238049.41529,1557416.1161201,-11
1660238049.41529,1557416.1161267,-13
1660238049.41529,1557416.116135,-11
1660238049.41529,1557416.116141,9
1660238049.41529,1557416.1161491,11
1660238049.41529,1557416.1161589,-13
1660238049.41529,1557416.1161625,-27
1660238049.41529,1557416.1161657,-9
1660238049.98184,1557416.1161687,16
1660238049.98184,1557416.1161716,23
1660238049.98184,1557416.1161744,25
1660238049.98184,1557416.1161772,30
1660238049.98184,1557416.1161798,30
1660238049.98184,1557416.1161824,18
1660238049.98184,1557416.1161851,25
1660238049.98184,1557416.1161876,180
1660238049.98184,1557416.1161904,547
1660238049.98184,1557416.1161932,895
1660238049.98184,1557416.1161958,869
1660238049.98184,1557416.1161986,343
1660238049.98184,1557416.1162014,-224
1660238049.98184,1557416.1162043,-245
1660238049.98184,1557416.1162069,23
1660238049.98184,1557416.1162095,62
1660238049.98184,1557416.1162132,0
1660238049.98184,1557416.1162161,44
1660238049.98184,1557416.1162189,71
1660238049.98184,1557416.1162218,48
1660238049.98184,1557416.1162247,55
1660238049.98184,1557416.1162275,76
1660238049.98184,1557416.1162303,76
1660238049.98184,1557416.1162341,85
1660238049.98184,1557416.1162411,109
1660238049.98184,1557416.1162442,115
1660238049.98184,1557416.1162472,111
1660238049.98184,1557416.1162502,120
1660238049.98184,1557416.1162532,143
1660238049.98184,1557416.1162562,166
1660238049.98184,1557416.1162594,192
1660238049.98184,1557416.1162654,213
1660238049.98184,1557416.1162706,227
1660238049.98184,1557416.1162736,229
1660238049.98184,1557416.1162767,229
1660238049.98184,1557416.1162797,231
1660238049.98184,1557416.1162827,224
1660238049.98184,1557416.1162856,199
1660238049.98184,1557416.1162885,160
1660238049.98184,1557416.1162914,109
1660238049.98184,1557416.1162944,64
1660238049.98184,1557416.7013064,41
1660238049.98184,1557416.7013265,30
1660238049.98184,1557416.7013332,23
1660238049.98184,1557416.7013402,20
1660238049.98184,1557416.7013467,16
1660238049.98184,1557416.7013726,11
1660238049.98184,1557416.7013807,-2
1660238049.98184,1557416.7013869,-13
1660238049.98184,1557416.7013905,-2
1660238049.9928,1557416.7014035,6
1660238049.9928,1557416.7014176,11
1660238049.9928,1557416.7014235,27
1660238049.9928,1557416.7014278,25
1660238049.9928,1557416.701432,-2
1660238049.9928,1557416.7014366,-2
1660238049.9928,1557416.7014414,27
1660238049.9928,1557416.7014466,32
1660238049.9928,1557416.7014516,20
1660238049.9928,1557416.7014565,23
1660238049.9928,1557416.701462,25
1660238049.9928,1557416.7014674,34
1660238049.9928,1557416.7014758,55
1660238049.9928,1557416.7014824,60
1660238049.9928,1557416.7014925,53
1660238049.9928,1557416.7015013,55
1660238049.9928,1557416.7015059,51
1660238049.9928,1557416.7015134,44
1660238049.9928,1557416.7015196,51
1660238049.9928,1557416.7015284,57
1660238049.9928,1557416.7015361,60
1660238049.9928,1557416.7016054,55
1660238049.9928,1557416.7016772,41
1660238049.9928,1557416.7016871,34
1660238050.56653,1557416.7016943,30
1660238050.56653,1557416.7017024,25
1660238050.56653,1557416.7017075,25
1660238050.56653,1557416.7017112,25
1660238050.56653,1557416.7017154,16
1660238050.56653,1557416.7017188,9
1660238050.56653,1557416.7017222,18
1660238050.56653,1557416.7017256,25
1660238050.56653,1557416.7017291,23
1660238050.56653,1557416.7017328,27
1660238050.56653,1557416.7017364,44
1660238050.56653,1557416.7017398,57
1660238050.56653,1557416.701744,55
1660238050.56653,1557416.7017492,44
1660238050.56653,1557416.7017542,34
1660238050.56653,1557416.7017588,30
1660238050.56653,1557416.7017635,11
1660238050.56653,1557416.7017683,9
1660238050.56653,1557416.701774,27
1660238050.56653,1557416.7017785,32
1660238050.56653,1557416.7017834,23
1660238050.56653,1557416.7017884,25
1660238050.56653,1557416.7017944,13
1660238050.56653,1557416.7017986,44
1660238050.56653,1557416.701803,266
1660238050.56653,1557416.7018072,665
1660238050.56653,1557416.7018115,937
1660238050.56653,1557416.7018163,758
1660238050.56653,1557416.7018203,146
1660238050.56653,1557416.701825,-289
1660238050.56653,1557416.7018288,-173
1660238050.56653,1557416.7018358,34
1660238050.56653,1557416.7018423,11
1660238050.56653,1557416.7018487,-20
1660238050.56653,1557416.7018532,13
1660238050.56653,1557416.7018585,27
1660238050.56653,1557416.7018627,27
1660238050.56653,1557416.7018676,37
1660238050.56653,1557416.7018744,51
1660238050.56653,1557416.7018802,69
1660238050.56653,1557417.2863054,83
1660238050.56653,1557417.2863236,97
1660238050.56653,1557417.2863286,104
1660238050.56653,1557417.2863343,109
1660238050.56653,1557417.2863431,125
1660238050.56653,1557417.2863501,153
1660238050.56653,1557417.2863577,183
1660238050.56653,1557417.2863625,211
1660238050.56653,1557417.2863687,218
1660238050.56653,1557417.2863749,206
1660238050.5765,1557417.2863821,206
1660238050.5765,1557417.2863884,213
1660238050.5765,1557417.2863921,206
1660238050.5765,1557417.2863956,185
1660238050.5765,1557417.286399,160
1660238050.5765,1557417.2864026,113
1660238050.5765,1557417.2864071,51
1660238050.5765,1557417.2864103,11
1660238050.5765,1557417.2864138,4
1660238050.5765,1557417.2864176,-4
1660238050.5765,1557417.2864213,-23
1660238050.5765,1557417.2864251,-30
1660238050.5765,1557417.2864291,-20
1660238050.5765,1557417.286433,-23
1660238050.5765,1557417.2864368,-37
1660238050.5765,1557417.2864406,-13
1660238050.5765,1557417.2864465,16
1660238050.5765,1557417.2864503,13
1660238050.5765,1557417.286454,0
1660238050.5765,1557417.2864585,16
1660238050.5765,1557417.2864639,41
1660238050.5765,1557417.2864694,48
1660238050.5765,1557417.2864748,41
1660238050.5765,1557417.2864787,44
1660238051.20451,1557417.2864842,55
1660238051.20451,1557417.286488,67
1660238051.20451,1557417.2864919,67
1660238051.20451,1557417.2864958,69
1660238051.20451,1557417.2864995,78
1660238051.20451,1557417.2865033,81
1660238051.20451,1557417.2865071,69
1660238051.20451,1557417.2865113,62
1660238051.20451,1557417.286515,60
1660238051.20451,1557417.2865187,62
1660238051.20451,1557417.2865226,69
1660238051.20451,1557417.2865264,71
1660238051.20451,1557417.2865301,67
1660238051.20451,1557417.2865337,57
1660238051.20451,1557417.2865374,51
1660238051.20451,1557417.2865412,55
1660238051.20451,1557417.2865449,60
1660238051.20451,1557417.2865487,53
1660238051.20451,1557417.2865524,44
1660238051.20451,1557417.2865561,46
1660238051.20451,1557417.2865598,39
1660238051.20451,1557417.2865636,30
1660238051.20451,1557417.2865675,34
1660238051.20451,1557417.2865713,25
1660238051.20451,1557417.2865752,20
1660238051.20451,1557417.2865791,30
1660238051.20451,1557417.286583,34
1660238051.20451,1557417.2865868,27
1660238051.20451,1557417.2865906,23
1660238051.20451,1557417.2865967,18
1660238051.20451,1557417.2866004,16
1660238051.20451,1557417.2866702,25
1660238051.20451,1557417.2866797,37
1660238051.20451,1557417.2866836,41
1660238051.20451,1557417.286687,27
1660238051.20451,1557417.2866904,11
1660238051.20451,1557417.286694,127
1660238051.20451,1557417.2866976,480
1660238051.20451,1557417.286701,865
1660238051.20451,1557417.9199128,909
1660238051.20451,1557417.9199276,442
1660238051.20451,1557417.9199399,-176
1660238051.20451,1557417.9199435,-317
1660238051.20451,1557417.9199465,-53
1660238051.20451,1557417.9199486,57
1660238051.20451,1557417.9199507,2
1660238051.20451,1557417.9199527,16
1660238051.20451,1557417.9199548,55
1660238051.20451,1557417.9199568,51
1660238051.20451,1557417.9199588,55
1660238051.21548,1557417.9199608,74
1660238051.21548,1557417.9199628,62
1660238051.21548,1557417.9199648,48
1660238051.21548,1557417.9199668,64
1660238051.21548,1557417.9199688,88
1660238051.21548,1557417.9199715,99
1660238051.21548,1557417.9199758,118
1660238051.21548,1557417.9199849,132
1660238051.21548,1557417.919995,134
1660238051.21548,1557417.9200074,150
1660238051.21548,1557417.9200183,185
1660238051.21548,1557417.9200248,208
1660238051.21548,1557417.9200386,218
1660238051.21548,1557417.9200498,224
1660238051.21548,1557417.9200592,222
1660238051.21548,1557417.9200701,199
1660238051.21548,1557417.920081,171
1660238051.21548,1557417.9200905,141
1660238051.21548,1557417.9201011,109
1660238051.21548,1557417.9201118,74
1660238051.21548,1557417.920122,34
1660238051.21548,1557417.9201326,6
1660238051.21548,1557417.9201435,2
1660238051.21548,1557417.920153,2
1660238051.69202,1557417.9201592,2
1660238051.69202,1557417.9201616,9
1660238051.69202,1557417.9201636,9
1660238051.69202,1557417.9201656,6
1660238051.69202,1557417.9201676,16
1660238051.69202,1557417.9201696,27
1660238051.69202,1557417.9201714,30
1660238051.69202,1557417.9201733,37
1660238051.69202,1557417.9201752,46
1660238051.69202,1557417.9201771,51
1660238051.69202,1557417.920183,57
1660238051.69202,1557417.9201927,69
1660238051.69202,1557417.9201997,78
1660238051.69202,1557417.9202046,81
1660238051.69202,1557417.9202111,76
1660238051.69202,1557417.9202159,64
1660238051.69202,1557417.9202267,67
1660238051.69202,1557417.9202323,78
1660238051.69202,1557417.9202346,81
1660238051.69202,1557417.9202368,83
1660238051.69202,1557417.9202388,83
1660238051.69202,1557417.9202408,74
1660238051.69202,1557417.9202428,64
1660238051.69202,1557417.9202449,69
1660238051.69202,1557417.9202476,76
1660238051.69202,1557417.9202498,71
1660238051.69202,1557417.9202519,62
1660238051.69202,1557417.920254,53
1660238051.69202,1557417.920256,44
1660238051.69202,1557417.9202581,37
1660238051.69202,1557417.9202601,34
1660238051.69202,1557417.9202621,41
1660238051.69202,1557417.9202641,39
1660238051.69202,1557417.9202662,27
1660238051.69202,1557417.9202682,23
1660238051.69202,1557417.9202704,34
1660238051.69202,1557417.9202724,48
1660238051.69202,1557417.9202745,53
1660238051.69202,1557418.4063958,53
1660238051.69202,1557418.4064159,53
1660238051.69202,1557418.4064266,48
1660238051.69202,1557418.4064328,41
1660238051.69202,1557418.4064394,41
1660238051.69202,1557418.4064458,48
1660238051.69202,1557418.4064499,55
1660238051.69202,1557418.4064531,55
1660238051.69202,1557418.4064562,60
1660238051.69202,1557418.4064621,44
1660238051.69202,1557418.4064684,32
1660238051.69202,1557418.4064775,187
1660238051.70399,1557418.406482,568
1660238051.70399,1557418.4064857,937
1660238051.70399,1557418.406492,925
1660238051.70399,1557418.4064957,357
1660238051.70399,1557418.4065018,-271
1660238051.70399,1557418.4065116,-266
1660238051.70399,1557418.406524,44
1660238051.70399,1557418.4065335,55
1660238051.70399,1557418.4065425,-34
1660238051.70399,1557418.4065487,16
1660238051.70399,1557418.4065609,48
1660238051.70399,1557418.4065714,27
1660238051.70399,1557418.4065772,48
1660238051.70399,1557418.4065903,69
1660238051.70399,1557418.4065997,67
1660238051.70399,1557418.406608,78
1660238051.70399,1557418.4066183,83
1660238051.70399,1557418.406628,76
1660238051.70399,1557418.4066346,92
1660238051.70399,1557418.4066468,113
1660238051.70399,1557418.4066559,127
1660238051.70399,1557418.4066638,155
1660238051.70399,1557418.4066749,183
1660238051.70399,1557418.4066836,197
1660238052.22454,1557418.406692,213
1660238052.22454,1557418.4067005,231
1660238052.22454,1557418.406707,236
1660238052.22454,1557418.4067171,231
1660238052.22454,1557418.4067238,218
1660238052.22454,1557418.4067293,190
1660238052.22454,1557418.4067359,141
1660238052.22454,1557418.4067404,92
1660238052.22454,1557418.4067463,64
1660238052.22454,1557418.4067546,51
1660238052.22454,1557418.4067638,34
1660238052.22454,1557418.4067751,18
1660238052.22454,1557418.4067878,9
1660238052.22454,1557418.4068003,2
1660238052.22454,1557418.4068135,6
1660238052.22454,1557418.4068264,18
1660238052.22454,1557418.4068397,27
1660238052.22454,1557418.4068526,30
1660238052.22454,1557418.4068657,34
1660238052.22454,1557418.406874,39
1660238052.22454,1557418.4068766,48
1660238052.22454,1557418.4068797,57
1660238052.22454,1557418.4068889,62
1660238052.22454,1557418.4069007,64
1660238052.22454,1557418.4069041,69
1660238052.22454,1557418.4069065,67
1660238052.22454,1557418.4069147,71
1660238052.22454,1557418.4069271,78
1660238052.22454,1557418.4069383,88
1660238052.22454,1557418.4069511,92
1660238052.22454,1557418.4069655,88
1660238052.22454,1557418.4069784,78
1660238052.22454,1557418.4069916,85
1660238052.22454,1557418.4070047,92
1660238052.22454,1557418.407041,88
1660238052.22454,1557418.4070542,90
1660238052.22454,1557418.4070673,92
1660238052.22454,1557418.9453512,76
1660238052.22454,1557418.9453733,69
1660238052.22454,1557418.9453881,78
1660238052.22454,1557418.9453943,76
1660238052.22454,1557418.9453985,69
1660238052.22454,1557418.9454063,64
1660238052.22454,1557418.9454161,41
1660238052.22454,1557418.9454261,13
1660238052.22454,1557418.94544,13
1660238052.22454,1557418.945453,20
1660238052.22454,1557418.9454621,27
1660238052.22454,1557418.9454714,44
1660238052.22454,1557418.945479,51
1660238052.23638,1557418.945494,39
1660238052.23638,1557418.9455063,37
1660238052.23638,1557418.9455198,41
1660238052.23638,1557418.945533,37
1660238052.23638,1557418.9455462,30
1660238052.23638,1557418.9455544,25
1660238052.23638,1557418.9455569,13
1660238052.23638,1557418.9455591,11
1660238052.23638,1557418.9455611,27
1660238052.23638,1557418.9455638,30
1660238052.23638,1557418.9455734,6
1660238052.23638,1557418.9455857,32
1660238052.23638,1557418.9455937,264
1660238052.23638,1557418.9455978,674
1660238052.23638,1557418.9456028,943
1660238052.23638,1557418.945606,742
1660238052.23638,1557418.9456091,109
1660238052.23638,1557418.945613,-322
1660238052.23638,1557418.9456328,-171
1660238052.23638,1557418.9456412,60
1660238052.23638,1557418.9456471,20
1660238052.23638,1557418.9456505,-18
1660238052.23638,1557418.9456569,32
1660238052.23638,1557418.9456599,25
1660238052.80914,1557418.9456633,2
1660238052.80914,1557418.9456699,30
1660238052.80914,1557418.9456766,53
1660238052.80914,1557418.9456834,51
1660238052.80914,1557418.9456904,64
1660238052.80914,1557418.9456945,81
1660238052.80914,1557418.9456987,81
1660238052.80914,1557418.9457031,90
1660238052.80914,1557418.9457072,118
1660238052.80914,1557418.9457136,139
1660238052.80914,1557418.9457174,153
1660238052.80914,1557418.9457205,173
1660238052.80914,1557418.9457234,197
1660238052.80914,1557418.9457263,215
1660238052.80914,1557418.9457294,229
1660238052.80914,1557418.9457324,238
1660238052.80914,1557418.9457361,234
1660238052.80914,1557418.94574,220
1660238052.80914,1557418.9457438,190
1660238052.80914,1557418.9457468,148
1660238052.80914,1557418.945751,106
1660238052.80914,1557418.9457556,69
1660238052.80914,1557418.9457613,48
1660238052.80914,1557418.9457644,30
1660238052.80914,1557418.9457704,20
1660238052.80914,1557418.9457758,25
1660238052.80914,1557418.9457823,27
1660238052.80914,1557418.9457877,16
1660238052.80914,1557418.9457943,18
1660238052.80914,1557418.9457994,32
1660238052.80914,1557418.945806,34
1660238052.80914,1557418.9458099,34
1660238052.80914,1557418.9458179,39
1660238052.80914,1557418.9458237,44
1660238052.80914,1557418.945828,57
1660238052.80914,1557418.9458337,74
1660238052.80914,1557419.528595,78
1660238052.80914,1557419.528615,78
1660238052.80914,1557419.5286301,88
1660238052.80914,1557419.5286452,90
1660238052.80914,1557419.5286532,67
1660238052.80914,1557419.5286608,53
1660238052.80914,1557419.5286704,76
1660238052.80914,1557419.5286754,97
1660238052.80914,1557419.5286828,88
1660238052.80914,1557419.5286866,62
1660238052.80914,1557419.5286963,39
1660238052.80914,1557419.5287029,34
1660238052.80914,1557419.5287126,46
1660238052.80914,1557419.528721,48
1660238052.82011,1557419.5287339,39
1660238052.82011,1557419.5287471,32
1660238052.82011,1557419.5287603,25
1660238052.82011,1557419.5287733,20
1660238052.82011,1557419.5287865,23
1660238052.82011,1557419.5287997,25
1660238052.82011,1557419.5288125,18
1660238052.82011,1557419.5288256,9
1660238052.82011,1557419.528839,-13
1660238052.82011,1557419.528852,-25
1660238052.82011,1557419.5288651,0
1660238052.82011,1557419.528878,23
1660238052.82011,1557419.528891,16
1660238052.82011,1557419.5289042,-9
1660238052.82011,1557419.5289173,-32
1660238052.82011,1557419.5289304,-32
1660238052.82011,1557419.5289434,-18
1660238052.82011,1557419.5289565,-6
1660238052.82011,1557419.5289695,-4
1660238052.82011,1557419.5289838,2
1660238052.82011,1557419.5289969,4
1660238052.82011,1557419.5290101,-20
1660238052.82011,1557419.5290243,-30
1660238052.82011,1557419.5290371,129
1660238053.34614,1557419.5290465,524
1660238053.34614,1557419.5290524,902
1660238053.34614,1557419.5290622,883
1660238053.34614,1557419.5290751,350
1660238053.34614,1557419.529087,-255
1660238053.34614,1557419.5290937,-331
1660238053.34614,1557419.5291034,-71
1660238053.34614,1557419.529117,4
1660238053.34614,1557419.529129,-41
1660238053.34614,1557419.5291375,-13
1660238053.34614,1557419.5291456,16
1660238053.34614,1557419.5291543,4
1660238053.34614,1557419.5291605,20
1660238053.34614,1557419.5291688,46
1660238053.34614,1557419.5291746,48
1660238053.34614,1557419.529183,53
1660238053.34614,1557419.5291892,67
1660238053.34614,1557419.5291976,76
1660238053.34614,1557419.5292036,99
1660238053.34614,1557419.5292117,129
1660238053.34614,1557419.5292169,155
1660238053.34614,1557419.5292241,162
1660238053.34614,1557419.5292291,178
1660238053.34614,1557419.5292337,220
1660238053.34614,1557419.529239,248
1660238053.34614,1557419.5292424,252
1660238053.34614,1557419.5292471,259
1660238053.34614,1557419.5292512,252
1660238053.34614,1557419.5292806,238
1660238053.34614,1557419.5292919,213
1660238053.34614,1557419.5292991,169
1660238053.34614,1557419.5293048,120
1660238053.34614,1557419.5293214,81
1660238053.34614,1557419.5293334,48
1660238053.34614,1557419.5293389,25
1660238053.34614,1557420.0645295,11
1660238053.34614,1557420.0645456,4
1660238053.34614,1557420.0645518,-2
1660238053.34614,1557420.0645571,-4
1660238053.34614,1557420.0645606,2
1660238053.34614,1557420.0645641,4
1660238053.34614,1557420.0645677,-18
1660238053.34614,1557420.0645712,-34
1660238053.34614,1557420.0645749,-13
1660238053.34614,1557420.0645783,13
1660238053.34614,1557420.0645817,23
1660238053.34614,1557420.0645851,18
1660238053.34614,1557420.0645885,6
1660238053.34614,1557420.064592,-6
1660238053.34614,1557420.0645954,-4
1660238053.35711,1557420.0645988,20
1660238053.35711,1557420.0646023,32
1660238053.35711,1557420.0646057,27
1660238053.35711,1557420.0646092,27
1660238053.35711,1557420.0646127,37
1660238053.35711,1557420.0646162,39
1660238053.35711,1557420.0646214,30
1660238053.35711,1557420.0646259,23
1660238053.35711,1557420.0646313,16
1660238053.35711,1557420.0646347,6
1660238053.35711,1557420.0646382,9
1660238053.35711,1557420.064643,18
1660238053.35711,1557420.0646463,13
1660238053.35711,1557420.0646496,-2
1660238053.35711,1557420.064653,-4
1660238053.35711,1557420.0646563,-2
1660238053.35711,1557420.0646596,-9
1660238053.35711,1557420.0646629,-18
1660238053.35711,1557420.0646678,-20
1660238053.35711,1557420.0646711,-6
1660238053.35711,1557420.0646745,9
1660238053.35711,1557420.0646797,11
1660238053.35711,1557420.0646831,18
1660238053.35711,1557420.0646864,18
1660238053.93611,1557420.0646897,2
1660238053.93611,1557420.064693,-9
1660238053.93611,1557420.0646963,9
1660238053.93611,1557420.0646994,20
1660238053.93611,1557420.0647043,9
1660238053.93611,1557420.0647082,9
1660238053.93611,1557420.0647115,37
1660238053.93611,1557420.0647157,46
1660238053.93611,1557420.064721,20
1660238053.93611,1557420.0647249,71
1660238053.93611,1557420.0647296,357
1660238053.93611,1557420.0647326,772
1660238053.93611,1557420.0647363,957
1660238053.93611,1557420.0647394,649
1660238053.93611,1557420.064743,20
1660238053.93611,1557420.0647467,-315
1660238053.93611,1557420.0647499,-150
1660238053.93611,1557420.0647531,32
1660238053.93611,1557420.0647572,20
1660238053.93611,1557420.0647608,13
1660238053.93611,1557420.0647659,44
1660238053.93611,1557420.0647703,41
1660238053.93611,1557420.0647787,39
1660238053.93611,1557420.0647829,57
1660238053.93611,1557420.0647907,67
1660238053.93611,1557420.0647958,74
1660238053.93611,1557420.0648033,81
1660238053.93611,1557420.0648068,92
1660238053.93611,1557420.0648109,118
1660238053.93611,1557420.0648161,143
1660238053.93611,1557420.06482,162
1660238053.93611,1557420.0648232,180
1660238053.93611,1557420.0648288,204
1660238053.93611,1557420.0648348,236
1660238053.93611,1557420.6490133,264
1660238053.93611,1557420.6490257,276
1660238053.93611,1557420.64903,280
1660238053.93611,1557420.6490331,280
1660238053.93611,1557420.6490354,269
1660238053.93611,1557420.6490377,243
1660238053.93611,1557420.6490411,208
1660238053.93611,1557420.6490476,169
1660238053.93611,1557420.6490508,122
1660238053.93611,1557420.6490542,64
1660238053.93611,1557420.6490562,18
1660238053.93611,1557420.6490582,9
1660238053.93611,1557420.6490602,4
1660238053.93611,1557420.649063,-18
1660238053.93611,1557420.6490652,-34
1660238053.93611,1557420.6490671,-46
1660238053.94709,1557420.6490695,-55
1660238053.94709,1557420.6490716,-46
1660238053.94709,1557420.6490737,-41
1660238053.94709,1557420.6490756,-51
1660238053.94709,1557420.6490776,-41
1660238053.94709,1557420.6490796,-25
1660238053.94709,1557420.6490816,-30
1660238053.94709,1557420.6490835,-30
1660238053.94709,1557420.6490855,-2
1660238053.94709,1557420.6490875,25
1660238053.94709,1557420.6490894,30
1660238053.94709,1557420.6490914,27
1660238053.94709,1557420.6490934,32
1660238053.94709,1557420.6490953,37
1660238053.94709,1557420.6490973,46
1660238053.94709,1557420.6490993,51
1660238053.94709,1557420.6491012,55
1660238053.94709,1557420.6491032,57
1660238053.94709,1557420.6491052,51
1660238053.94709,1557420.6491072,44
1660238053.94709,1557420.6491092,48
1660238053.94709,1557420.6491111,55
1660238053.94709,1557420.6491132,55
1660238053.94709,1557420.6491151,51
1660238054.46865,1557420.6491172,46
1660238054.46865,1557420.6491191,46
1660238054.46865,1557420.649121,51
1660238054.46865,1557420.6491229,48
1660238054.46865,1557420.6491248,39
1660238054.46865,1557420.6491266,25
1660238054.46865,1557420.6491285,20
1660238054.46865,1557420.6491303,27
1660238054.46865,1557420.6491322,48
1660238054.46865,1557420.6491341,67
1660238054.46865,1557420.649136,55
1660238054.46865,1557420.6491378,30
1660238054.46865,1557420.6491397,18
1660238054.46865,1557420.6491416,23
1660238054.46865,1557420.6491455,34
1660238054.46865,1557420.6491493,37
1660238054.46865,1557420.6491526,30
1660238054.46865,1557420.6491575,37
1660238054.46865,1557420.6491623,48
1660238054.46865,1557420.649167,32
1660238054.46865,1557420.6491739,16
1660238054.46865,1557420.6491773,136
1660238054.46865,1557420.6491802,480
1660238054.46865,1557420.649183,872
1660238054.46865,1557420.6491858,962
1660238054.46865,1557420.6491888,519
1660238054.46865,1557420.6491917,-146
1660238054.46865,1557420.6491946,-315
1660238054.46865,1557420.6491974,-18
1660238054.46865,1557420.6492003,97
1660238054.46865,1557420.6492032,16
1660238054.46865,1557420.649206,32
1660238054.46865,1557420.6492089,71
1660238054.46865,1557421.187689,53
1660238054.46865,1557421.1877058,67
1660238054.46865,1557421.1877098,99
1660238054.46865,1557421.1877134,95
1660238054.46865,1557421.1877169,97
1660238054.46865,1557421.1877203,115
1660238054.46865,1557421.1877237,113

1660238054.46865,1557421.1877271,109
1660238054.46865,1557421.1877306,127
1660238054.46865,1557421.1877378,141
1660238054.46865,1557421.1877755,155
1660238054.46865,1557421.1877888,183
1660238054.46865,1557421.1877934,194
1660238054.46865,1557421.1877971,187
1660238054.46865,1557421.1878007,201
1660238054.46865,1557421.187804,222
1660238054.46865,1557421.1878073,218
1660238054.47863,1557421.1878106,206
1660238054.47863,1557421.187814,183
1660238054.47863,1557421.1878174,132
1660238054.47863,1557421.1878208,83
1660238054.47863,1557421.1878242,53
1660238054.47863,1557421.1878276,23
1660238054.47863,1557421.1878319,2
1660238054.47863,1557421.1878355,-9
1660238054.47863,1557421.1878392,-25
1660238054.47863,1557421.1878433,-25
1660238054.47863,1557421.1878466,-9
1660238054.47863,1557421.1878507,-2
1660238054.47863,1557421.1878541,-4
1660238054.47863,1557421.1878576,2
1660238054.47863,1557421.1878612,13
1660238054.47863,1557421.1878647,30
1660238054.47863,1557421.1878682,41
1660238054.47863,1557421.1878717,34
1660238054.47863,1557421.1878754,30
1660238054.47863,1557421.1878789,39
1660238054.47863,1557421.1878824,62
1660238054.47863,1557421.1878859,83
1660238054.47863,1557421.1878893,83
1660238054.47863,1557421.1878927,76
1660238055.05167,1557421.1878962,81
1660238055.05167,1557421.1878998,78
1660238055.05167,1557421.1879032,74
1660238055.05167,1557421.1879077,78
1660238055.05167,1557421.1879114,88
1660238055.05167,1557421.1879153,85
1660238055.05167,1557421.187919,76
1660238055.05167,1557421.1879225,74
1660238055.05167,1557421.1879261,74
1660238055.05167,1557421.1879296,67
1660238055.05167,1557421.1879331,67
1660238055.05167,1557421.1879367,71
1660238055.05167,1557421.1879405,67
1660238055.05167,1557421.1879441,55
1660238055.05167,1557421.1879482,48
1660238055.05167,1557421.187952,34
1660238055.05167,1557421.1879555,23
1660238055.05167,1557421.187959,25
1660238055.05167,1557421.1879624,23
1660238055.05167,1557421.1879659,23
1660238055.05167,1557421.1879696,39
1660238055.05167,1557421.1879732,37
1660238055.05167,1557421.1879766,18
1660238055.05167,1557421.1879799,20
1660238055.05167,1557421.1879835,34
1660238055.05167,1557421.1879871,32
1660238055.05167,1557421.1879905,30
1660238055.05167,1557421.187994,32
1660238055.05167,1557421.1879982,18
1660238055.05167,1557421.1880015,4
1660238055.05167,1557421.1880046,13
1660238055.05167,1557421.1880108,13
1660238055.05167,1557421.7712354,-9
1660238055.05167,1557421.7712558,78
1660238055.05167,1557421.7712649,403
1660238055.05167,1557421.7712788,795
1660238055.05167,1557421.7712869,888
1660238055.05167,1557421.7712963,447
1660238055.05167,1557421.7713042,-192
1660238055.05167,1557421.7713088,-331
1660238055.05167,1557421.7713131,-44
1660238055.05167,1557421.7713179,34
1660238055.05167,1557421.7713302,-67
1660238055.05167,1557421.7713374,-30
1660238055.05167,1557421.7713445,32
1660238055.05167,1557421.7713479,4
1660238055.05167,1557421.771361,0
1660238055.05167,1557421.7713744,11
1660238055.05167,1557421.7713877,0
1660238055.05167,1557421.7713944,23
1660238055.05965,1557421.7713969,60
1660238055.05965,1557421.771399,53
1660238055.05965,1557421.7714011,51
1660238055.05965,1557421.7714075,74
1660238055.05965,1557421.7714187,95
1660238055.05965,1557421.7714239,118
1660238055.05965,1557421.771426,148
1660238055.05965,1557421.771428,176
1660238055.05965,1557421.7714351,199
1660238055.05965,1557421.7714452,213
1660238055.05965,1557421.7714542,220
1660238055.05965,1557421.7714636,222
1660238055.05965,1557421.7714685,204
1660238055.05965,1557421.7714752,180
1660238055.05965,1557421.7714807,160
1660238055.05965,1557421.7714868,102
1660238055.05965,1557421.7714919,41
1660238055.05965,1557421.7715023,37
1660238055.05965,1557421.771515,39
1660238055.05965,1557421.7715298,16
1660238055.05965,1557421.77154,9
1660238055.05965,1557421.7715444,18
1660238055.05965,1557421.7715517,18
1660238055.05965,1557421.7715547,11
1660238055.64522,1557421.7715587,9
1660238055.64522,1557421.7715656,16
1660238055.64522,1557421.7715723,25
1660238055.64522,1557421.7715792,37
1660238055.64522,1557421.7715864,48
1660238055.64522,1557421.7715931,62
1660238055.64522,1557421.7715967,69
1660238055.64522,1557421.7716021,64
1660238055.64522,1557421.7716077,69
1660238055.64522,1557421.7716138,69
1660238055.64522,1557421.7716192,78
1660238055.64522,1557421.7716228,95
1660238055.64522,1557421.7716265,102
1660238055.64522,1557421.77163,102
1660238055.64522,1557421.7716384,99
1660238055.64522,1557421.771645,90
1660238055.64522,1557421.7716497,88
1660238055.64522,1557421.7716556,99
1660238055.64522,1557421.7716623,106
1660238055.64522,1557421.7716665,99
1660238055.64522,1557421.7716723,102
1660238055.64522,1557421.7716788,104
1660238055.64522,1557421.7716821,88
1660238055.64522,1557421.7716918,64
1660238055.64522,1557421.7716983,55
1660238055.64522,1557421.7717013,60
1660238055.64522,1557421.7717033,60
1660238055.64522,1557421.7717057,51
1660238055.64522,1557421.7717134,62
1660238055.64522,1557421.771724,71
1660238055.64522,1557421.7717892,55
1660238055.64522,1557422.3558604,37
1660238055.64522,1557422.3558813,51
1660238055.64522,1557422.3558923,74
1660238055.64522,1557422.3559015,76
1660238055.64522,1557422.3559088,69
1660238055.64522,1557422.3559136,78
1660238055.64522,1557422.3559235,88
1660238055.64522,1557422.3559296,71
1660238055.64522,1557422.3559318,34
1660238055.64522,1557422.3559342,27
1660238055.64522,1557422.3559362,46
1660238055.64522,1557422.3559383,55
1660238055.64522,1557422.3559402,39
1660238055.64522,1557422.355948,23
1660238055.64522,1557422.3559587,32
1660238055.64522,1557422.3559621,51
1660238055.64522,1557422.355965,55
1660238055.64522,1557422.355968,30
1660238055.64522,1557422.3559709,20
1660238055.65619,1557422.3559738,208
1660238055.65619,1557422.3559767,621
1660238055.65619,1557422.3559796,923
1660238055.65619,1557422.3559825,744
1660238055.65619,1557422.3559854,111
1660238055.65619,1557422.3559883,-361
1660238055.65619,1557422.3559912,-243
1660238055.65619,1557422.3559942,23
1660238055.65619,1557422.3559971,25
1660238055.65619,1557422.3559999,-20
1660238055.65619,1557422.3560029,37
1660238055.65619,1557422.3560058,60
1660238055.65619,1557422.3560087,34
1660238055.65619,1557422.3560115,32
1660238055.65619,1557422.3560143,32
1660238055.65619,1557422.3560175,64
1660238055.65619,1557422.3560204,118
1660238055.65619,1557422.3560231,120
1660238055.65619,1557422.3560259,109
1660238055.65619,1557422.3560286,111
1660238055.65619,1557422.3560314,113
1660238055.65619,1557422.3560342,143
1660238055.65619,1557422.3560371,192
1660238055.65619,1557422.35604,215
1660238056.1784,1557422.3560429,229
1660238056.1784,1557422.3560458,252
1660238056.1784,1557422.3560486,264
1660238056.1784,1557422.3560514,250
1660238056.1784,1557422.3560542,238
1660238056.1784,1557422.3560569,252
1660238056.1784,1557422.3560597,234
1660238056.1784,1557422.3560635,178
1660238056.1784,1557422.3560718,143
1660238056.1784,1557422.3560787,129
1660238056.1784,1557422.3560837,104
1660238056.1784,1557422.3560901,76
1660238056.1784,1557422.3560953,62
1660238056.1784,1557422.3561062,34
1660238056.1784,1557422.3561113,6
1660238056.1784,1557422.3561139,20
1660238056.1784,1557422.3561159,39
1660238056.1784,1557422.3561182,37
1660238056.1784,1557422.3561202,44
1660238056.1784,1557422.3561223,51
1660238056.1784,1557422.3561243,37
1660238056.1784,1557422.3561263,34
1660238056.1784,1557422.3561284,48
1660238056.1784,1557422.3561303,53
1660238056.1784,1557422.3561324,46
1660238056.1784,1557422.3561344,46
1660238056.1784,1557422.3561365,60
1660238056.1784,1557422.3561385,76
1660238056.1784,1557422.3561405,78
1660238056.1784,1557422.3561425,69
1660238056.1784,1557422.8921487,69
1660238056.1784,1557422.8921622,76
1660238056.1784,1557422.8921652,74
1660238056.1784,1557422.8921674,62
1660238056.1784,1557422.8921695,62
1660238056.1784,1557422.8921715,74
1660238056.1784,1557422.8921735,83
1660238056.1784,1557422.8921754,85
1660238056.1784,1557422.8921774,71
1660238056.1784,1557422.8921794,41
1660238056.1784,1557422.8921814,25
1660238056.1784,1557422.8921834,32
1660238056.1784,1557422.8921854,23
1660238056.1784,1557422.8921874,4
1660238056.1784,1557422.8921895,6
1660238056.1784,1557422.8921922,25
1660238056.1784,1557422.892201,39
1660238056.1784,1557422.892209,32
1660238056.1784,1557422.8922131,27
1660238056.1784,1557422.892219,34
1660238056.18937,1557422.8922238,25
1660238056.18937,1557422.8922287,0
1660238056.18937,1557422.8922326,-20
1660238056.18937,1557422.8922384,4
1660238056.18937,1557422.8922421,60
1660238056.18937,1557422.8922459,64
1660238056.18937,1557422.892251,44
1660238056.18937,1557422.8922546,44
1660238056.18937,1557422.8922583,25
1660238056.18937,1557422.892268,9
1660238056.18937,1557422.892278,32
1660238056.18937,1557422.8922862,51
1660238056.18937,1557422.8922924,44
1660238056.18937,1557422.8922962,37
1660238056.18937,1557422.8922998,13
1660238056.18937,1557422.8923035,-11
1660238056.18937,1557422.8923088,51
1660238056.18937,1557422.8923143,308
1660238056.18937,1557422.8923228,707
1660238056.18937,1557422.8923253,981
1660238056.18937,1557422.8923273,816
1660238056.18937,1557422.8923301,171
1660238056.18937,1557422.8923401,-329
1660238056.18937,1557422.8923482,-201
1660238056.71253,1557422.8923507,48
1660238056.71253,1557422.8923528,9
1660238056.71253,1557422.8923547,-30
1660238056.71253,1557422.8923566,25
1660238056.71253,1557422.8923626,25
1660238056.71253,1557422.892372,6
1660238056.71253,1557422.8923755,9
1660238056.71253,1557422.8923778,11
1660238056.71253,1557422.8923863,23
1660238056.71253,1557422.8923929,41
1660238056.71253,1557422.8923994,53
1660238056.71253,1557422.8924053,67
1660238056.71253,1557422.8924112,83
1660238056.71253,1557422.8924221,113
1660238056.71253,1557422.8924249,136
1660238056.71253,1557422.892427,148
1660238056.71253,1557422.8924291,180
1660238056.71253,1557422.8924311,215
1660238056.71253,1557422.8924332,224
1660238056.71253,1557422.8924352,227
1660238056.71253,1557422.8924428,229
1660238056.71253,1557422.8924533,231
1660238056.71253,1557422.8924566,220
1660238056.71253,1557422.8924603,199
1660238056.71253,1557422.8924728,169
1660238056.71253,1557422.8924783,111
1660238056.71253,1557422.8924805,71
1660238056.71253,1557422.8924825,69
1660238056.71253,1557422.8924845,48
1660238056.71253,1557423.4284769,16
1660238056.71253,1557423.4284987,23
1660238056.71253,1557423.4285131,30
1660238056.71253,1557423.4285229,11
1660238056.71253,1557423.4285302,-2
1660238056.71253,1557423.4285373,16
1660238056.71253,1557423.4285425,53
1660238056.71253,1557423.4285488,57
1660238056.71253,1557423.4285521,46
1660238056.71253,1557423.428562,37
1660238056.71253,1557423.4285734,30
1660238056.71253,1557423.4285826,41
1660238056.71253,1557423.4285899,57
1660238056.71253,1557423.4285988,46
1660238056.71253,1557423.428605,37
1660238056.71253,1557423.4286133,55
1660238056.71253,1557423.4286202,69
1660238056.71253,1557423.4286273,57
1660238056.71253,1557423.4286311,27
1660238056.71253,1557423.4286365,13
1660238056.71253,1557423.4286396,34
1660238056.72251,1557423.4286449,53
1660238056.72251,1557423.428649,30
1660238056.72251,1557423.428652,9
1660238056.72251,1557423.4286551,20
1660238056.72251,1557423.4286581,32
1660238056.72251,1557423.4286613,39
1660238056.72251,1557423.4286643,39
1660238056.72251,1557423.4286674,18
1660238056.72251,1557423.4286716,9
1660238056.72251,1557423.4286746,20
1660238056.72251,1557423.4286776,27
1660238056.72251,1557423.4286808,18
1660238056.72251,1557423.4286836,9
1660238056.72251,1557423.4286867,11
1660238056.72251,1557423.4286902,23
1660238056.72251,1557423.4286939,34
1660238056.72251,1557423.428697,41
1660238056.72251,1557423.4287002,46
1660238056.72251,1557423.4287045,39
1660238056.72251,1557423.4287098,16
1660238056.72251,1557423.4287138,-6
1660238056.72251,1557423.428717,2
