Time,TimeLsl,Value
1660236925.37608,1556290.3954359,55
1660236925.37608,1556290.3954511,60
1660236925.37608,1556290.3954554,69
1660236925.37608,1556290.3954619,74
1660236925.37608,1556290.3954666,71
1660236925.37608,1556290.3954716,64
1660236925.37608,1556290.3954751,57
1660236925.37608,1556290.3954787,57
1660236925.37608,1556290.3954837,62
1660236925.37608,1556290.3954872,64
1660236925.37608,1556290.3954908,60
1660236925.37608,1556290.3954964,53
1660236925.37608,1556290.3955009,37
1660236925.37608,1556290.3955044,6
1660236925.37608,1556290.3955107,-2
1660236925.37608,1556290.3955151,4
1660236925.37608,1556290.3955202,4
1660236925.37608,1556290.3955237,0
1660236925.37608,1556290.3955271,-9
1660236925.37608,1556290.3955305,-18
1660236925.37608,1556290.395534,-6
1660236925.37608,1556290.3955376,6
1660236925.37608,1556290.3955428,0
1660236925.37608,1556290.3955463,-11
1660236925.37608,1556290.3955498,-11
1660236925.37608,1556290.3955532,-11
1660236925.37608,1556290.3955567,-6
1660236925.37608,1556290.3955601,2
1660236925.37608,1556290.3955659,4
1660236925.37608,1556290.3955694,-2
1660236925.37608,1556290.3955729,-18
1660236925.37608,1556290.3955763,-30
1660236925.37608,1556290.3955798,118
1660236925.37608,1556290.3955848,507
1660236925.37608,1556290.3955882,909
1660236925.37608,1556290.3955917,927
1660236925.37608,1556290.3955952,378
1660236925.37608,1556290.3955987,-262
1660236925.37608,1556290.3956023,-289
1660236925.37608,1556290.3956059,18
1660236925.37608,1556290.3956117,44
1660236925.37608,1556290.395616,-44
1660236925.37608,1556290.3956195,6
1660236925.37608,1556290.395623,39
1660236925.37608,1556290.3956264,11
1660236925.37608,1556290.3956299,25
1660236925.37608,1556290.3956353,53
1660236925.37608,1556290.3956389,53
1660236925.37608,1556290.3956438,57
1660236925.37608,1556290.3956472,74
1660236925.51522,1556290.3956506,78
1660236925.51522,1556290.395654,83
1660236925.51522,1556290.3956589,104
1660236925.51522,1556290.3956622,122
1660236925.51522,1556290.3956656,139
1660236925.51522,1556290.3956691,157
1660236925.51522,1556290.3956725,173
1660236925.51522,1556290.3956769,185
1660236925.51522,1556290.3956816,194
1660236925.51522,1556290.3956849,211
1660236925.51522,1556290.3956883,215
1660236925.51522,1556290.3956916,197
1660236925.51522,1556290.3956953,171
1660236925.51522,1556290.3957001,153
1660236925.51522,1556290.3957035,129
1660236925.51522,1556290.3957069,95
1660236925.51522,1556290.3957104,67
1660236925.51522,1556290.3957156,51
1660236925.51522,1556290.3957192,34
1660236925.51522,1556290.3957242,20
1660236925.51522,1556290.3957277,9
1660236925.51522,1556290.395731,4
1660236925.51522,1556290.3957345,4
1660236925.51522,1556291.0288997,6
1660236925.51522,1556291.0289173,13
1660236925.51522,1556291.0289232,13
1660236925.51522,1556291.0289279,13
1660236925.51522,1556291.0289321,30
1660236925.51522,1556291.0289364,44
1660236925.51522,1556291.0289405,46
1660236925.51522,1556291.0289446,51
1660236925.51522,1556291.0289508,44
1660236925.51522,1556291.0289555,20
1660236925.51522,1556291.02896,20
1660236925.51522,1556291.028963,32
1660236925.51522,1556291.0289658,32
1660236925.51522,1556291.0289687,39
1660236925.51522,1556291.0289719,41
1660236925.51522,1556291.0289751,23
1660236925.51522,1556291.0289782,11
1660236925.51522,1556291.0289819,20
1660236925.51522,1556291.0289853,18
1660236925.51522,1556291.0289884,2
1660236925.51522,1556291.0289915,-4
1660236925.51522,1556291.0289944,-6
1660236925.51522,1556291.0289975,-4
1660236925.51522,1556291.0290006,4
1660236925.51522,1556291.0290039,2
1660236925.51522,1556291.0290087,-11
1660236925.51522,1556291.0290129,-11
1660236925.56508,1556291.0290164,-4
1660236925.56508,1556291.02902,-6
1660236925.56508,1556291.0290233,-6
1660236925.56508,1556291.0290279,-6
1660236925.56508,1556291.0290324,-13
1660236925.56508,1556291.0290367,-11
1660236925.56508,1556291.0290412,-2
1660236925.56508,1556291.0290452,-2
1660236925.56508,1556291.0290494,-6
1660236925.56508,1556291.0290535,2
1660236925.56508,1556291.0290576,16
1660236925.56508,1556291.0290617,23
1660236925.56508,1556291.0290658,27
1660236925.56508,1556291.02907,25
1660236925.56508,1556291.0290741,23
1660236925.56508,1556291.0290783,23
1660236925.56508,1556291.0290828,18
1660236925.56508,1556291.0290869,18
1660236925.56508,1556291.0290912,27
1660236925.56508,1556291.0290953,37
1660236925.56508,1556291.0290995,44
1660236925.56508,1556291.0291037,44
1660236925.56508,1556291.029108,27
1660236925.56508,1556291.0291131,16
1660236925.56508,1556291.0291172,143
1660236925.56508,1556291.0291213,505
1660236925.56508,1556291.0291253,904
1660236925.56508,1556291.0291293,946
1660236925.56508,1556291.0291335,436
1660236925.56508,1556291.0291376,-206
1660236925.56508,1556291.0291419,-292
1660236925.56508,1556291.0291463,-4
1660236925.56508,1556291.0291503,53
1660236925.56508,1556291.0291552,-32
1660236925.56508,1556291.029159,2
1660236925.56508,1556291.029166,48
1660236925.56508,1556291.0291732,34
1660236925.56508,1556291.0291824,37
1660236925.56508,1556291.0291863,55
1660236925.56508,1556291.0291907,60
1660236925.56508,1556291.0291997,64
1660236925.56508,1556291.0292058,83
1660236925.56508,1556291.0292146,102
1660236925.56508,1556291.0292227,106
1660236925.56508,1556291.0292269,115
1660236925.56508,1556291.0292308,134
1660236925.56508,1556291.5648927,150
1660236925.56508,1556291.5649091,166
1660236925.56508,1556291.5649139,185
1660236925.56508,1556291.564918,206
1660236925.58603,1556291.5649218,236
1660236925.58603,1556291.5649256,243
1660236925.58603,1556291.5649297,224
1660236925.58603,1556291.5649333,227
1660236925.58603,1556291.5649369,229
1660236925.58603,1556291.5649406,208
1660236925.58603,1556291.5649443,176
1660236925.58603,1556291.5649479,132
1660236925.58603,1556291.5649515,81
1660236925.58603,1556291.5649551,39
1660236925.58603,1556291.5649588,16
1660236925.58603,1556291.5649628,9
1660236925.58603,1556291.5649665,6
1660236925.58603,1556291.5649701,0
1660236925.58603,1556291.5649744,-11
1660236925.58603,1556291.5649792,-11
1660236925.58603,1556291.5649827,0
1660236925.58603,1556291.5649863,9
1660236925.58603,1556291.5649898,13
1660236925.58603,1556291.5649932,23
1660236925.58603,1556291.5649967,18
1660236925.58603,1556291.5650003,-2
1660236925.58603,1556291.5650039,2
1660236925.58603,1556291.5650075,23
1660236925.58603,1556291.565011,32
1660236925.58603,1556291.5650146,32
1660236925.58603,1556291.5650188,34
1660236925.58603,1556291.5650224,39
1660236925.58603,1556291.5650259,44
1660236925.58603,1556291.5650296,55
1660236925.58603,1556291.5650332,60
1660236925.58603,1556291.565037,57
1660236925.58603,1556291.5650411,57
1660236925.58603,1556291.5650447,53
1660236925.58603,1556291.5650483,48
1660236925.58603,1556291.5650519,60
1660236925.58603,1556291.5650558,69
1660236925.58603,1556291.5650596,67
1660236925.58603,1556291.5650633,53
1660236925.58603,1556291.5650668,39
1660236925.58603,1556291.5650705,41
1660236925.58603,1556291.5650739,51
1660236925.58603,1556291.5650773,34
1660236925.58603,1556291.5650808,13
1660236925.58603,1556291.5650849,11
1660236925.58603,1556291.5650882,13
1660236925.58603,1556291.5650916,16
1660236925.58603,1556291.565095,20
1660236925.58603,1556291.5650984,23
1660236925.58603,1556291.5651018,20
1660236925.598,1556291.5651052,20
1660236925.598,1556291.5651085,30
1660236925.598,1556291.565112,44
1660236925.598,1556291.5651153,57
1660236925.598,1556291.5651186,67
1660236925.598,1556291.5651223,62
1660236925.598,1556291.5651256,48
1660236925.598,1556291.565129,48
1660236925.598,1556291.5651325,53
1660236925.598,1556291.565136,51
1660236925.598,1556291.5651394,57
1660236925.598,1556291.5651427,69
1660236925.598,1556291.5651463,71
1660236925.598,1556291.5651502,74
1660236925.598,1556291.5651537,57
1660236925.598,1556291.5651574,64
1660236925.598,1556291.5651608,264
1660236925.598,1556291.5651643,674
1660236925.598,1556291.565168,1008
1660236925.598,1556292.0529212,902
1660236925.598,1556292.0529375,280
1660236925.598,1556292.0529423,-266
1660236926.02247,1556292.0529496,-190
1660236926.02247,1556292.0529532,83
1660236926.02247,1556292.052957,64
1660236926.02247,1556292.0529606,-2
1660236926.02247,1556292.0529654,60
1660236926.02247,1556292.0529693,83
1660236926.02247,1556292.0529729,53
1660236926.02247,1556292.0529765,67
1660236926.02247,1556292.052981,85
1660236926.02247,1556292.0529847,81
1660236926.02247,1556292.0529884,95
1660236926.02247,1556292.0529914,113
1660236926.02247,1556292.0529941,102
1660236926.02247,1556292.0529969,92
1660236926.02247,1556292.0530382,109
1660236926.02247,1556292.0530444,132
1660236926.02247,1556292.053048,146
1660236926.02247,1556292.0530509,162
1660236926.02247,1556292.0530551,173
1660236926.02247,1556292.0530596,173
1660236926.02247,1556292.0530635,183
1660236926.02247,1556292.0530676,199
1660236926.02247,1556292.0530722,208
1660236926.02247,1556292.0530768,204
1660236926.02247,1556292.0530829,194
1660236926.02247,1556292.0530866,169
1660236926.02247,1556292.0530902,136
1660236926.02247,1556292.0530938,109
1660236926.02247,1556292.0530973,85
1660236926.02247,1556292.0531031,62
1660236926.02247,1556292.0531081,41
1660236926.02247,1556292.0531115,23
1660236926.02247,1556292.053116,11
1660236926.02247,1556292.0531732,16
1660236926.02247,1556292.0531907,25
1660236926.02247,1556292.0532012,27
1660236926.02247,1556292.0532081,18
1660236926.02247,1556292.0532148,9
1660236926.02247,1556292.0532382,13
1660236926.02247,1556292.0532478,25
1660236926.02247,1556292.0532521,32
1660236926.02247,1556292.0532571,39
1660236926.02247,1556292.0532643,48
1660236926.02247,1556292.0532879,51
1660236926.02247,1556292.0533015,51
1660236926.02247,1556292.0533099,57
1660236926.02247,1556292.0533178,69
1660236926.02247,1556292.0533239,76
1660236926.02247,1556292.0533297,83
1660236926.02247,1556292.0533359,83
1660236926.03511,1556292.0533393,81
1660236926.03511,1556292.0533424,83
1660236926.03511,1556292.0533457,90
1660236926.03511,1556292.0533498,85
1660236926.03511,1556292.0533532,78
1660236926.03511,1556292.0533598,81
1660236926.03511,1556292.0533651,78
1660236926.03511,1556292.053372,78
1660236926.03511,1556292.0533771,81
1660236926.03511,1556292.0533829,78
1660236926.03511,1556292.0533871,71
1660236926.03511,1556292.0533938,67
1660236926.03511,1556292.0534012,55
1660236926.03511,1556292.0534073,46
1660236926.03511,1556292.0534125,48
1660236926.03511,1556292.0534194,51
1660236926.03511,1556292.0534237,48
1660236926.03511,1556292.0534281,46
1660236926.03511,1556292.053434,46
1660236926.03511,1556292.0534376,39
1660236926.03511,1556292.7359024,34
1660236926.03511,1556292.7359244,41
1660236926.03511,1556292.7359366,60
1660236926.03511,1556292.7359466,76
1660236926.55679,1556292.7359563,74
1660236926.55679,1556292.7359637,53
1660236926.55679,1556292.7359679,30
1660236926.55679,1556292.7359724,25
1660236926.55679,1556292.7359778,32
1660236926.55679,1556292.7359848,34
1660236926.55679,1556292.7359915,34
1660236926.55679,1556292.7359967,34
1660236926.55679,1556292.7360056,20
1660236926.55679,1556292.7360137,11
1660236926.55679,1556292.7360214,4
1660236926.55679,1556292.7360291,2
1660236926.55679,1556292.7360369,120
1660236926.55679,1556292.7360474,477
1660236926.55679,1556292.7360554,876
1660236926.55679,1556292.7360637,955
1660236926.55679,1556292.7360722,487
1660236926.55679,1556292.7360806,-169
1660236926.55679,1556292.7360864,-294
1660236926.55679,1556292.7360921,0
1660236926.55679,1556292.7360986,71
1660236926.55679,1556292.7361023,-30
1660236926.55679,1556292.7361089,-2
1660236926.55679,1556292.7362607,44
1660236926.55679,1556292.7362756,20
1660236926.55679,1556292.7362862,27
1660236926.55679,1556292.736293,55
1660236926.55679,1556292.7363001,55
1660236926.55679,1556292.7363086,48
1660236926.55679,1556292.7363165,48
1660236926.55679,1556292.7363245,55
1660236926.55679,1556292.7363308,69
1660236926.55679,1556292.7363389,85
1660236926.55679,1556292.7363449,99
1660236926.55679,1556292.7363517,113
1660236926.55679,1556292.7363594,134
1660236926.55679,1556292.7363668,153
1660236926.55679,1556292.7363743,171
1660236926.55679,1556292.7363802,187
1660236926.55679,1556292.736388,197
1660236926.55679,1556292.7363972,199
1660236926.55679,1556292.736403,199
1660236926.55679,1556292.7364102,194
1660236926.55679,1556292.7364172,180
1660236926.55679,1556292.7364223,157
1660236926.55679,1556292.7364264,129
1660236926.55679,1556292.7364329,102
1660236926.55679,1556292.7364381,74
1660236926.55679,1556292.7364413,53
1660236926.55679,1556292.7364446,39
1660236926.56875,1556292.736451,34
1660236926.56875,1556292.7364555,34
1660236926.56875,1556292.7364585,32
1660236926.56875,1556292.7364614,27
1660236926.56875,1556292.7364644,25
1660236926.56875,1556292.7364673,34
1660236926.56875,1556292.7364702,46
1660236926.56875,1556292.7364731,48
1660236926.56875,1556292.736476,53
1660236926.56875,1556292.7364789,57
1660236926.56875,1556292.7364817,62
1660236926.56875,1556292.7364846,67
1660236926.56875,1556292.7364874,71
1660236926.56875,1556292.7364903,78
1660236926.56875,1556292.7364932,83
1660236926.56875,1556292.7364961,83
1660236926.56875,1556292.7364989,85
1660236926.56875,1556292.7365018,90
1660236926.56875,1556292.7365046,97
1660236926.56875,1556293.27245,99
1660236926.56875,1556293.2724653,97
1660236926.56875,1556293.2724695,92
1660236926.56875,1556293.2724732,83
1660236926.56875,1556293.2724767,83
1660236927.14491,1556293.2724801,85
1660236927.14491,1556293.2724834,88
1660236927.14491,1556293.2724866,88
1660236927.14491,1556293.27249,76
1660236927.14491,1556293.2724932,62
1660236927.14491,1556293.2724966,57
1660236927.14491,1556293.2724999,57
1660236927.14491,1556293.2725032,55
1660236927.14491,1556293.2725065,57
1660236927.14491,1556293.2725098,53
1660236927.14491,1556293.272513,48
1660236927.14491,1556293.2725162,41
1660236927.14491,1556293.2725201,37
1660236927.14491,1556293.2725233,37
1660236927.14491,1556293.2725267,34
1660236927.14491,1556293.2725299,27
1660236927.14491,1556293.2725331,20
1660236927.14491,1556293.2725366,23
1660236927.14491,1556293.2725398,37
1660236927.14491,1556293.2725431,39
1660236927.14491,1556293.2725464,23
1660236927.14491,1556293.2725497,16
1660236927.14491,1556293.272553,4
1660236927.14491,1556293.2725565,-23
1660236927.14491,1556293.2725599,-32
1660236927.14491,1556293.2725633,-11
1660236927.14491,1556293.2725668,0
1660236927.14491,1556293.2725703,2
1660236927.14491,1556293.2725738,0
1660236927.14491,1556293.2725774,-13
1660236927.14491,1556293.2725808,-34
1660236927.14491,1556293.2725842,60
1660236927.14491,1556293.2725879,401
1660236927.14491,1556293.2725913,832
1660236927.14491,1556293.2725949,976
1660236927.14491,1556293.2725985,554
1660236927.14491,1556293.2726017,-143
1660236927.14491,1556293.2726051,-345
1660236927.14491,1556293.2726088,-48
1660236927.14491,1556293.2726122,64
1660236927.14491,1556293.2726156,-30
1660236927.14491,1556293.272619,-11
1660236927.14491,1556293.2726225,27
1660236927.14491,1556293.2726259,0
1660236927.14491,1556293.2726292,4
1660236927.14491,1556293.2726326,34
1660236927.14491,1556293.272636,37
1660236927.14491,1556293.2726395,37
1660236927.14491,1556293.2726428,55
1660236927.14491,1556293.2726461,62
1660236927.15572,1556293.2726494,71
1660236927.15572,1556293.2726526,88
1660236927.15572,1556293.2726559,104
1660236927.15572,1556293.2726591,115
1660236927.15572,1556293.2726624,139
1660236927.15572,1556293.2726656,164
1660236927.15572,1556293.2726695,180
1660236927.15572,1556293.2726727,190
1660236927.15572,1556293.272676,199
1660236927.15572,1556293.2726792,201
1660236927.15572,1556293.2726826,206
1660236927.15572,1556293.2726858,206
1660236927.15572,1556293.272689,192
1660236927.15572,1556293.2726923,169
1660236927.15572,1556293.2726955,141
1660236927.15572,1556293.2726989,111
1660236927.15572,1556293.2727022,85
1660236927.15572,1556293.2727055,64
1660236927.15572,1556293.8562806,41
1660236927.15572,1556293.8563034,27
1660236927.15572,1556293.8563111,25
1660236927.15572,1556293.8563149,32
1660236927.15572,1556293.8563197,39
1660236927.15572,1556293.8563236,34
1660236927.6322,1556293.8563269,32
1660236927.6322,1556293.8563302,37
1660236927.6322,1556293.8563333,34
1660236927.6322,1556293.8563365,37
1660236927.6322,1556293.8563399,51
1660236927.6322,1556293.856343,41
1660236927.6322,1556293.8563462,23
1660236927.6322,1556293.8563493,34
1660236927.6322,1556293.8563521,53
1660236927.6322,1556293.8563554,48
1660236927.6322,1556293.8563585,46
1660236927.6322,1556293.8563618,39
1660236927.6322,1556293.8563651,20
1660236927.6322,1556293.8563684,20
1660236927.6322,1556293.8563739,39
1660236927.6322,1556293.8563783,44
1660236927.6322,1556293.8563906,34
1660236927.6322,1556293.8563961,30
1660236927.6322,1556293.8563996,16
1660236927.6322,1556293.8564035,-6
1660236927.6322,1556293.8564071,0
1660236927.6322,1556293.8564103,16
1660236927.6322,1556293.8564139,2
1660236927.6322,1556293.8564174,2
1660236927.6322,1556293.8564208,13
1660236927.6322,1556293.8564243,-6
1660236927.6322,1556293.8564279,-25
1660236927.6322,1556293.8564314,-16
1660236927.6322,1556293.8564349,-6
1660236927.6322,1556293.8564385,-4
1660236927.6322,1556293.856442,-4
1660236927.6322,1556293.8564454,-2
1660236927.6322,1556293.8564488,-11
1660236927.6322,1556293.8564524,-30
1660236927.6322,1556293.8564558,-23
1660236927.6322,1556293.8564593,6
1660236927.6322,1556293.8564629,20
1660236927.6322,1556293.8564663,20
1660236927.6322,1556293.8564703,20
1660236927.6322,1556293.856474,13
1660236927.6322,1556293.8564775,0
1660236927.6322,1556293.856481,6
1660236927.6322,1556293.8564844,23
1660236927.6322,1556293.8564879,25
1660236927.6322,1556293.8564913,27
1660236927.6322,1556293.8564953,41
1660236927.6322,1556293.8564991,30
1660236927.6322,1556293.856503,13
1660236927.6322,1556293.8565067,160
1660236927.6322,1556293.8565102,535
1660236927.64217,1556293.8565137,897
1660236927.64217,1556293.8565171,913
1660236927.64217,1556293.8565394,436
1660236927.64217,1556293.8565506,-173
1660236927.64217,1556293.8565568,-280
1660236927.64217,1556293.856582,-20
1660236927.64217,1556293.8565895,57
1660236927.64217,1556293.8566,4
1660236927.64217,1556293.8566044,41
1660236927.64217,1556293.8566085,57
1660236927.64217,1556293.8566129,39
1660236927.64217,1556293.8566221,69
1660236927.64217,1556293.8566294,88
1660236927.64217,1556293.8566362,67
1660236927.64217,1556293.8566433,78
1660236927.64217,1556293.8566488,102
1660236927.64217,1556293.856654,97
1660236927.64217,1556294.3442658,97
1660236927.64217,1556294.3442869,115
1660236927.64217,1556294.3442973,132
1660236927.64217,1556294.3443039,143
1660236927.64217,1556294.3443121,164
1660236927.64217,1556294.3443186,190
1660236927.64217,1556294.3443272,208
1660236928.16614,1556294.3443336,220
1660236928.16614,1556294.3443422,224
1660236928.16614,1556294.344349,218
1660236928.16614,1556294.3443537,199
1660236928.16614,1556294.344363,190
1660236928.16614,1556294.3443684,180
1660236928.16614,1556294.3443726,150
1660236928.16614,1556294.3443768,106
1660236928.16614,1556294.3443829,55
1660236928.16614,1556294.3443868,16
1660236928.16614,1556294.3443906,4
1660236928.16614,1556294.3443946,-2
1660236928.16614,1556294.3444004,-20
1660236928.16614,1556294.3444053,-25
1660236928.16614,1556294.3444119,-16
1660236928.16614,1556294.3444225,-9
1660236928.16614,1556294.3444343,-4
1660236928.16614,1556294.3444465,2
1660236928.16614,1556294.3444585,11
1660236928.16614,1556294.3444709,16
1660236928.16614,1556294.3444768,16
1660236928.16614,1556294.3444791,2
1660236928.16614,1556294.3444815,-2
1660236928.16614,1556294.3444893,9
1660236928.16614,1556294.3445019,9
1660236928.16614,1556294.3445106,11
1660236928.16614,1556294.34452,20
1660236928.16614,1556294.3445294,20
1660236928.16614,1556294.3445361,23
1660236928.16614,1556294.3445443,30
1660236928.16614,1556294.3445519,30
1660236928.16614,1556294.3445609,34
1660236928.16614,1556294.3445684,41
1660236928.16614,1556294.3445756,39
1660236928.16614,1556294.3445804,37
1660236928.16614,1556294.344584,41
1660236928.16614,1556294.3445897,44
1660236928.16614,1556294.3445934,48
1660236928.16614,1556294.3445987,46
1660236928.16614,1556294.3446024,41
1660236928.16614,1556294.3446107,41
1660236928.16614,1556294.3446178,44
1660236928.16614,1556294.3446213,34
1660236928.16614,1556294.3446247,30
1660236928.16614,1556294.3446296,37
1660236928.16614,1556294.344637,37
1660236928.16614,1556294.3446425,25
1660236928.16614,1556294.344646,18
1660236928.16614,1556294.3446495,32
1660236928.16614,1556294.3446537,53
1660236928.17711,1556294.3446603,57
1660236928.17711,1556294.3446637,53
1660236928.17711,1556294.3446667,48
1660236928.17711,1556294.3446711,44
1660236928.17711,1556294.3446778,37
1660236928.17711,1556294.3446815,34
1660236928.17711,1556294.344685,37
1660236928.17711,1556294.3446883,44
1660236928.17711,1556294.3446927,48
1660236928.17711,1556294.3446986,48
1660236928.17711,1556294.3447047,30
1660236928.17711,1556294.3447145,51
1660236928.17711,1556294.3447227,264
1660236928.17711,1556294.3447285,670
1660236928.17711,1556294.3447327,969
1660236928.17711,1556294.3447369,802
1660236928.17711,1556294.8801604,166
1660236928.17711,1556294.8801751,-306
1660236928.17711,1556294.8801789,-185
1660236928.17711,1556294.880181,57
1660236928.17711,1556294.8801831,41
1660236928.17711,1556294.8801851,-9
1660236928.17711,1556294.8801871,32
1660236928.17711,1556294.8801892,51
1660236928.74567,1556294.8801912,39
1660236928.74567,1556294.8801932,55
1660236928.74567,1556294.8801951,74
1660236928.74567,1556294.880197,62
1660236928.74567,1556294.8801989,48
1660236928.74567,1556294.8802008,57
1660236928.74567,1556294.8802026,78
1660236928.74567,1556294.8802045,92
1660236928.74567,1556294.8802065,106
1660236928.74567,1556294.8802083,118
1660236928.74567,1556294.880212,111
1660236928.74567,1556294.8802208,113
1660236928.74567,1556294.8802265,141
1660236928.74567,1556294.8802307,160
1660236928.74567,1556294.8802358,162
1660236928.74567,1556294.8802415,169
1660236928.74567,1556294.8802466,166
1660236928.74567,1556294.8802539,153
1660236928.74567,1556294.8802593,143
1660236928.74567,1556294.8802685,132
1660236928.74567,1556294.8802783,109
1660236928.74567,1556294.8802861,81
1660236928.74567,1556294.8802921,51
1660236928.74567,1556294.8803001,27
1660236928.74567,1556294.8803066,11
1660236928.74567,1556294.8803147,9
1660236928.74567,1556294.880321,13
1660236928.74567,1556294.8803293,11
1660236928.74567,1556294.8803366,6
1660236928.74567,1556294.8803449,9
1660236928.74567,1556294.8803509,13
1660236928.74567,1556294.880359,23
1660236928.74567,1556294.8803648,34
1660236928.74567,1556294.8803729,46
1660236928.74567,1556294.8803789,51
1660236928.74567,1556294.880387,53
1660236928.74567,1556294.8803944,60
1660236928.74567,1556294.8804027,67
1660236928.74567,1556294.8804095,74
1660236928.74567,1556294.8804175,78
1660236928.74567,1556294.8804236,78
1660236928.74567,1556294.8804313,81
1660236928.74567,1556294.8804376,81
1660236928.74567,1556294.8804486,85
1660236928.74567,1556294.8804559,92
1660236928.74567,1556294.8804625,88
1660236928.74567,1556294.8804712,71
1660236928.74567,1556294.8804762,62
1660236928.74567,1556294.8804833,67
1660236928.74567,1556294.8804893,67
1660236928.76314,1556294.8804976,74
1660236928.76314,1556294.880501,83
1660236928.76314,1556294.8805059,78
1660236928.76314,1556294.8805094,67
1660236928.76314,1556294.8805125,60
1660236928.76314,1556294.8805158,60
1660236928.76314,1556294.8805193,55
1660236928.76314,1556294.8805243,51
1660236928.76314,1556294.880528,44
1660236928.76314,1556294.8805346,30
1660236928.76314,1556294.8805409,13
1660236928.76314,1556294.8805497,18
1660236928.76314,1556294.8805542,34
1660236928.76314,1556294.8805591,41
1660236928.76314,1556294.8805632,37
1660236928.76314,1556295.4654715,34
1660236928.76314,1556295.4654928,32
1660236928.76314,1556295.4655078,30
1660236928.76314,1556295.4655165,32
1660236928.76314,1556295.4655192,37
1660236928.76314,1556295.4655215,39
1660236928.76314,1556295.4655236,44
1660236928.76314,1556295.4655257,51
1660236928.76314,1556295.4655278,23
1660236929.33991,1556295.4655301,-6
1660236929.33991,1556295.4655321,127
1660236929.33991,1556295.465534,507
1660236929.33991,1556295.4655359,892
1660236929.33991,1556295.4655378,902
1660236929.33991,1556295.4655396,366
1660236929.33991,1556295.4655415,-271
1660236929.33991,1556295.4655434,-333
1660236929.33991,1556295.4655453,-30
1660236929.33991,1556295.4655473,23
1660236929.33991,1556295.4655493,-62
1660236929.33991,1556295.4655524,-20
1660236929.33991,1556295.4655601,9
1660236929.33991,1556295.4655651,-16
1660236929.33991,1556295.4655691,0
1660236929.33991,1556295.4655726,27
1660236929.33991,1556295.4655773,27
1660236929.33991,1556295.4655825,41
1660236929.33991,1556295.4655867,64
1660236929.33991,1556295.4655973,69
1660236929.33991,1556295.4656029,81
1660236929.33991,1556295.4656073,99
1660236929.33991,1556295.4656092,109
1660236929.33991,1556295.4656113,122
1660236929.33991,1556295.4656133,143
1660236929.33991,1556295.4656154,153
1660236929.33991,1556295.4656175,164
1660236929.33991,1556295.4656195,190
1660236929.33991,1556295.4656215,201
1660236929.33991,1556295.4656236,197
1660236929.33991,1556295.4656256,199
1660236929.33991,1556295.4656277,201
1660236929.33991,1556295.4656297,183
1660236929.33991,1556295.4656317,153
1660236929.33991,1556295.4656338,125
1660236929.33991,1556295.4656358,97
1660236929.33991,1556295.4656378,71
1660236929.33991,1556295.4656398,51
1660236929.33991,1556295.465642,27
1660236929.33991,1556295.465644,16
1660236929.33991,1556295.465646,27
1660236929.33991,1556295.465648,34
1660236929.33991,1556295.4656501,32
1660236929.33991,1556295.4656522,27
1660236929.33991,1556295.4656542,25
1660236929.33991,1556295.4656563,27
1660236929.33991,1556295.4656582,39
1660236929.33991,1556295.4656602,53
1660236929.33991,1556295.4656622,69
1660236929.33991,1556295.4656657,76
1660236929.35188,1556295.4656761,67
1660236929.35188,1556295.465684,60
1660236929.35188,1556295.4656864,64
1660236929.35188,1556295.4656885,69
1660236929.35188,1556295.4656905,67
1660236929.35188,1556295.4656925,67
1660236929.35188,1556295.4656979,71
1660236929.35188,1556295.4657097,74
1660236929.35188,1556295.4657163,81
1660236929.35188,1556295.4657266,81
1660236929.35188,1556295.4657346,76
1660236929.35188,1556295.4657379,74
1660236929.35188,1556295.4657507,71
1660236929.35188,1556295.465763,67
1660236929.35188,1556296.0525426,71
1660236929.35188,1556296.0525628,78
1660236929.35188,1556296.0525687,71
1660236929.35188,1556296.0525735,55
1660236929.35188,1556296.052578,41
1660236929.35188,1556296.0525824,18
1660236929.35188,1556296.0525863,-4
1660236929.35188,1556296.0525907,-9
1660236929.35188,1556296.0525952,-2
1660236929.35188,1556296.0525995,2
1660236929.92364,1556296.0526032,4
1660236929.92364,1556296.0526075,9
1660236929.92364,1556296.0526122,11
1660236929.92364,1556296.0526157,18
1660236929.92364,1556296.052619,18
1660236929.92364,1556296.0526224,16
1660236929.92364,1556296.0526263,11
1660236929.92364,1556296.0526299,-2
1660236929.92364,1556296.0526338,-20
1660236929.92364,1556296.0526373,-16
1660236929.92364,1556296.0526416,6
1660236929.92364,1556296.052648,16
1660236929.92364,1556296.052654,2
1660236929.92364,1556296.0526582,-20
1660236929.92364,1556296.0526625,6
1660236929.92364,1556296.0526692,227
1660236929.92364,1556296.0526744,637
1660236929.92364,1556296.0526785,953
1660236929.92364,1556296.0526831,800
1660236929.92364,1556296.0526867,160
1660236929.92364,1556296.0526898,-336
1660236929.92364,1556296.052693,-224
1660236929.92364,1556296.0526963,32
1660236929.92364,1556296.0527005,23
1660236929.92364,1556296.0527052,-25
1660236929.92364,1556296.0527094,13
1660236929.92364,1556296.0527165,18
1660236929.92364,1556296.0527228,4
1660236929.92364,1556296.0527259,27
1660236929.92364,1556296.0527288,41
1660236929.92364,1556296.0527316,34
1660236929.92364,1556296.0527345,51
1660236929.92364,1556296.0527374,74
1660236929.92364,1556296.0527402,74
1660236929.92364,1556296.052743,83
1660236929.92364,1556296.052746,109
1660236929.92364,1556296.0527488,120
1660236929.92364,1556296.0527517,134
1660236929.92364,1556296.0527545,162
1660236929.92364,1556296.0527572,185
1660236929.92364,1556296.05276,197
1660236929.92364,1556296.0527629,201
1660236929.92364,1556296.0527661,201
1660236929.92364,1556296.0527709,187
1660236929.92364,1556296.0527765,166
1660236929.92364,1556296.0527793,155
1660236929.92364,1556296.0527823,153
1660236929.92364,1556296.0527853,132
1660236929.92364,1556296.0527881,90
1660236929.92364,1556296.0527909,60
1660236929.93361,1556296.0527938,51
1660236929.93361,1556296.0527967,34
1660236929.93361,1556296.0527995,13
1660236929.93361,1556296.0528023,9
1660236929.93361,1556296.0528052,4
1660236929.93361,1556296.052808,2
1660236929.93361,1556296.0528109,9
1660236929.93361,1556296.0528137,20
1660236929.93361,1556296.0528168,23
1660236929.93361,1556296.0528197,18
1660236929.93361,1556296.0528226,20
1660236929.93361,1556296.0528254,25
1660236929.93361,1556296.0528284,32
1660236929.93361,1556296.6359261,44
1660236929.93361,1556296.635944,53
1660236929.93361,1556296.6359496,53
1660236929.93361,1556296.6359594,53
1660236929.93361,1556296.6359639,60
1660236929.93361,1556296.635968,64
1660236929.93361,1556296.6359721,64
1660236929.93361,1556296.6359807,71
1660236929.93361,1556296.6359848,76
1660236929.93361,1556296.635989,67
1660236929.93361,1556296.6359931,67
1660236930.44992,1556296.6359971,67
1660236930.44992,1556296.6360012,62
1660236930.44992,1556296.6360051,67
1660236930.44992,1556296.6360094,64
1660236930.44992,1556296.6360138,46
1660236930.44992,1556296.6360196,30
1660236930.44992,1556296.6360243,27
1660236930.44992,1556296.6360284,30
1660236930.44992,1556296.6360329,27
1660236930.44992,1556296.6360394,16
1660236930.44992,1556296.636046,-2
1660236930.44992,1556296.6360524,-13
1660236930.44992,1556296.6360591,-11
1660236930.44992,1556296.6360658,6
1660236930.44992,1556296.6360707,20
1660236930.44992,1556296.636074,18
1660236930.44992,1556296.6360773,-9
1660236930.44992,1556296.6360805,-32
1660236930.44992,1556296.6360838,-32
1660236930.44992,1556296.6360876,-32
1660236930.44992,1556296.6360908,-27
1660236930.44992,1556296.6360944,-18
1660236930.44992,1556296.636098,-11
1660236930.44992,1556296.6361017,-11
1660236930.44992,1556296.6361055,-6
1660236930.44992,1556296.6361091,-9
1660236930.44992,1556296.6361128,11
1660236930.44992,1556296.6361164,211
1660236930.44992,1556296.6361212,619
1660236930.44992,1556296.6361297,932
1660236930.44992,1556296.6361355,790
1660236930.44992,1556296.6361433,173
1660236930.44992,1556296.6361488,-324
1660236930.44992,1556296.6361526,-238
1660236930.44992,1556296.6361563,2
1660236930.44992,1556296.6361599,-9
1660236930.44992,1556296.6361657,-53
1660236930.44992,1556296.6361695,0
1660236930.44992,1556296.6361732,18
1660236930.44992,1556296.6361787,4
1660236930.44992,1556296.6361825,23
1660236930.44992,1556296.6361861,39
1660236930.44992,1556296.6361913,41
1660236930.44992,1556296.6361956,51
1660236930.44992,1556296.6362009,69
1660236930.44992,1556296.6362051,78
1660236930.44992,1556296.636215,90
1660236930.44992,1556296.6362202,104
1660236930.44992,1556296.6362239,118
1660236930.44992,1556296.6362291,127
1660236930.46189,1556296.6362336,146
1660236930.46189,1556296.636239,169
1660236930.46189,1556296.6362426,185
1660236930.46189,1556296.6362478,192
1660236930.46189,1556296.6362539,194
1660236930.46189,1556296.636259,194
1660236930.46189,1556296.6362633,197
1660236930.46189,1556296.6362685,192
1660236930.46189,1556296.6362731,169
1660236930.46189,1556296.6362793,136
1660236930.46189,1556296.636283,99
1660236930.46189,1556296.636288,69
1660236930.46189,1556297.1719131,48
1660236930.46189,1556297.1719254,41
1660236930.46189,1556297.1719288,34
1660236930.46189,1556297.1719318,27
1660236930.46189,1556297.1719347,30
1660236930.46189,1556297.171937,32
1660236930.46189,1556297.1719397,27
1660236930.46189,1556297.1719419,27
1660236930.46189,1556297.1719441,39
1660236930.46189,1556297.1719461,48
1660236930.46189,1556297.1719483,51
1660236930.46189,1556297.1719504,51
1660236931.04324,1556297.1719525,39
1660236931.04324,1556297.171955,30
1660236931.04324,1556297.1719576,39
1660236931.04324,1556297.1719609,51
1660236931.04324,1556297.1719696,60
1660236931.04324,1556297.1719785,64
1660236931.04324,1556297.1719815,64
1660236931.04324,1556297.171991,62
1660236931.04324,1556297.1720019,60
1660236931.04324,1556297.1720081,62
1660236931.04324,1556297.1720121,69
1660236931.04324,1556297.1720224,69
1660236931.04324,1556297.1720305,51
1660236931.04324,1556297.1720332,27
1660236931.04324,1556297.1720353,27
1660236931.04324,1556297.1720374,39
1660236931.04324,1556297.1720395,39
1660236931.04324,1556297.1720414,32
1660236931.04324,1556297.1720435,25
1660236931.04324,1556297.1720455,20
1660236931.04324,1556297.1720475,18
1660236931.04324,1556297.1720545,11
1660236931.04324,1556297.1720651,11
1660236931.04324,1556297.1720691,11
1660236931.04324,1556297.172075,6
1660236931.04324,1556297.172086,11
1660236931.04324,1556297.1720909,11
1660236931.04324,1556297.172093,2
1660236931.04324,1556297.1720956,6
1660236931.04324,1556297.1720976,9
1660236931.04324,1556297.1720998,-2
1660236931.04324,1556297.1721025,-13
1660236931.04324,1556297.172113,-4
1660236931.04324,1556297.1721202,4
1660236931.04324,1556297.1721226,11
1660236931.04324,1556297.1721247,20
1660236931.04324,1556297.1721267,32
1660236931.04324,1556297.1721345,16
1660236931.04324,1556297.1721449,-13
1660236931.04324,1556297.1721484,83
1660236931.04324,1556297.1721521,431
1660236931.04324,1556297.1721544,860
1660236931.04324,1556297.1721642,1001
1660236931.04324,1556297.1721725,565
1660236931.04324,1556297.1721749,-141
1660236931.04324,1556297.172177,-336
1660236931.04324,1556297.1721791,-32
1660236931.04324,1556297.1721869,76
1660236931.04324,1556297.1721972,-25
1660236931.04324,1556297.1722005,-6
1660236931.05421,1556297.1722042,48
1660236931.05421,1556297.172211,37
1660236931.05421,1556297.172219,44
1660236931.05421,1556297.1722233,67
1660236931.05421,1556297.1722272,64
1660236931.05421,1556297.172232,71
1660236931.05421,1556297.1722378,90
1660236931.05421,1556297.1722423,90
1660236931.05421,1556297.172249,95
1660236931.05421,1556297.1722558,115
1660236931.05421,1556297.1722625,134
1660236931.05421,1556297.756919,148
1660236931.05421,1556297.7569388,164
1660236931.05421,1556297.7569477,180
1660236931.05421,1556297.756953,194
1660236931.05421,1556297.7569587,204
1660236931.05421,1556297.7569648,215
1660236931.05421,1556297.7569738,222
1660236931.05421,1556297.7569775,218
1660236931.05421,1556297.7569838,199
1660236931.05421,1556297.7569894,180
1660236931.05421,1556297.7569977,162
1660236931.05421,1556297.7570055,134
1660236931.05421,1556297.7570101,92
1660236931.52298,1556297.7570156,69
1660236931.52298,1556297.7570192,53
1660236931.52298,1556297.7570254,20
1660236931.52298,1556297.7570316,-11
1660236931.52298,1556297.7570369,-6
1660236931.52298,1556297.7570408,-2
1660236931.52298,1556297.7570457,-4
1660236931.52298,1556297.7570536,-4
1660236931.52298,1556297.7570621,-6
1660236931.52298,1556297.7570693,-13
1660236931.52298,1556297.7570778,-13
1660236931.52298,1556297.7570819,-4
1660236931.52298,1556297.7570859,0
1660236931.52298,1556297.7570879,4
1660236931.52298,1556297.7570899,13
1660236931.52298,1556297.7570919,25
1660236931.52298,1556297.7570948,32
1660236931.52298,1556297.7571058,32
1660236931.52298,1556297.7571131,25
1660236931.52298,1556297.7571155,18
1660236931.52298,1556297.7571175,11
1660236931.52298,1556297.7571196,16
1660236931.52298,1556297.7571218,37
1660236931.52298,1556297.7571247,44
1660236931.52298,1556297.7571349,23
1660236931.52298,1556297.7571463,16
1660236931.52298,1556297.7571574,30
1660236931.52298,1556297.7571619,44
1660236931.52298,1556297.757164,46
1660236931.52298,1556297.7571746,32
1660236931.52298,1556297.7571854,23
1660236931.52298,1556297.7571887,27
1660236931.52298,1556297.7571916,27
1660236931.52298,1556297.7571945,18
1660236931.52298,1556297.7571973,11
1660236931.52298,1556297.7572002,13
1660236931.52298,1556297.7572031,9
1660236931.52298,1556297.7572109,11

1660236931.52298,1556297.7572214,32
1660236931.52298,1556297.7572247,44
1660236931.52298,1556297.7572277,37
1660236931.52298,1556297.7572371,32
1660236931.52298,1556297.7572459,30
1660236931.52298,1556297.7572484,27
1660236931.52298,1556297.7572504,25
1660236931.52298,1556297.7572525,37
1660236931.52298,1556297.7572549,41
1660236931.52298,1556297.7572644,32
1660236931.52298,1556297.7572729,34
1660236931.52298,1556297.7572753,37
1660236931.53295,1556297.7572774,23
1660236931.53295,1556297.7572961,106
1660236931.53295,1556297.7573082,431
1660236931.53295,1556297.7573224,858
1660236931.53295,1556297.7573352,1001
1660236931.53295,1556297.7573483,577
1660236931.53295,1556297.7573612,-115
1660236931.53295,1556297.7573752,-329
1660236931.53295,1556297.7573869,-53
1660236931.53295,1556297.7574024,74
1660236931.53295,1556298.2443277,-9
1660236931.53295,1556298.2443449,-2
1660236931.53295,1556298.2443515,53
1660236931.53295,1556298.2443603,41
1660236931.53295,1556298.2443638,37
1660236931.53295,1556298.2443741,62
1660236931.53295,1556298.2443805,67
1660236931.53295,1556298.2443874,62
1660236931.53295,1556298.2443977,78
1660236931.53295,1556298.2444083,99
1660236931.53295,1556298.2444205,113
1660236931.53295,1556298.2444315,113
1660236931.53295,1556298.2444424,97
1660236931.53295,1556298.2444548,111
1660236932.06087,1556298.2444663,148
1660236932.06087,1556298.2444729,164
1660236932.06087,1556298.2444811,176
1660236932.06087,1556298.2444894,187
1660236932.06087,1556298.2444967,173
1660236932.06087,1556298.244503,162
1660236932.06087,1556298.2445095,178
1660236932.06087,1556298.2445152,176
1660236932.06087,1556298.2445193,150
1660236932.06087,1556298.2445232,122
1660236932.06087,1556298.2445271,90
1660236932.06087,1556298.2445315,51
1660236932.06087,1556298.2445374,18
1660236932.06087,1556298.2445439,6
1660236932.06087,1556298.2445489,0
1660236932.06087,1556298.2445529,-9
1660236932.06087,1556298.244558,-20
1660236932.06087,1556298.244563,-25
1660236932.06087,1556298.2445692,-23
1660236932.06087,1556298.2445765,-23
1660236932.06087,1556298.2445834,-16
1660236932.06087,1556298.2445905,0
1660236932.06087,1556298.2445976,4
1660236932.06087,1556298.2446047,4
1660236932.06087,1556298.2446118,13
1660236932.06087,1556298.2446188,25
1660236932.06087,1556298.2446251,34
1660236932.06087,1556298.2446298,41
1660236932.06087,1556298.2446356,48
1660236932.06087,1556298.2446416,51
1660236932.06087,1556298.2446451,55
1660236932.06087,1556298.2446487,64
1660236932.06087,1556298.2446522,69
1660236932.06087,1556298.2446556,71
1660236932.06087,1556298.2446588,76
1660236932.06087,1556298.2446639,78
1660236932.06087,1556298.2446693,71
1660236932.06087,1556298.2446745,67
1660236932.06087,1556298.2446789,71
1660236932.06087,1556298.244683,74
1660236932.06087,1556298.2446892,74
1660236932.06087,1556298.2446978,74
1660236932.06087,1556298.2447042,69
1660236932.06087,1556298.2447079,64
1660236932.06087,1556298.2447141,62
1660236932.06087,1556298.2447189,53
1660236932.06087,1556298.2447277,44
1660236932.06087,1556298.2447342,41
1660236932.06087,1556298.2447365,41
1660236932.06087,1556298.2447391,48
1660236932.07184,1556298.2447486,55
1660236932.07184,1556298.2447575,48
1660236932.07184,1556298.2447599,44
1660236932.07184,1556298.2447621,39
1660236932.07184,1556298.2447641,32
1660236932.07184,1556298.2447661,32
1660236932.07184,1556298.2447683,37
1660236932.07184,1556298.2447778,41
1660236932.07184,1556298.2447886,44
1660236932.07184,1556298.7812261,53
1660236932.07184,1556298.7812435,51
1660236932.07184,1556298.7812488,23
1660236932.07184,1556298.7812559,64
1660236932.07184,1556298.781261,322
1660236932.07184,1556298.7812664,721
1660236932.07184,1556298.7812711,953
1660236932.07184,1556298.7812751,705
1660236932.07184,1556298.7812788,32
1660236932.07184,1556298.7812828,-357
1660236932.07184,1556298.7812866,-132
1660236932.07184,1556298.7812928,85
1660236932.07184,1556298.7813238,0
1660236932.07184,1556298.7813319,-27
1660236932.07184,1556298.7813364,32
1660236932.65486,1556298.7813418,6
1660236932.65486,1556298.7813455,-20
1660236932.65486,1556298.7813492,-2
1660236932.65486,1556298.7813529,0
1660236932.65486,1556298.7813565,0
1660236932.65486,1556298.78136,20
1660236932.65486,1556298.7813637,30
1660236932.65486,1556298.7813673,32
1660236932.65486,1556298.781371,41
1660236932.65486,1556298.7813762,51
1660236932.65486,1556298.7813812,69
1660236932.65486,1556298.7813854,92
1660236932.65486,1556298.7813906,109
1660236932.65486,1556298.7813942,122
1660236932.65486,1556298.7813992,139
1660236932.65486,1556298.7814037,150
1660236932.65486,1556298.7814073,157
1660236932.65486,1556298.7814108,162
1660236932.65486,1556298.7814143,157
1660236932.65486,1556298.7814178,141
1660236932.65486,1556298.7814228,118
1660236932.65486,1556298.7814263,92
1660236932.65486,1556298.7814311,69
1660236932.65486,1556298.7814346,46
1660236932.65486,1556298.781438,27
1660236932.65486,1556298.7814415,9
1660236932.65486,1556298.7814452,0
1660236932.65486,1556298.781449,6
1660236932.65486,1556298.7814526,13
1660236932.65486,1556298.7814562,16
1660236932.65486,1556298.7814597,20
1660236932.65486,1556298.7814633,25
1660236932.65486,1556298.7814668,25
1660236932.65486,1556298.7814703,32
1660236932.65486,1556298.7814737,44
1660236932.65486,1556298.7814805,51
1660236932.65486,1556298.7814849,60
1660236932.65486,1556298.7814899,62
1660236932.65486,1556298.7814933,60
1660236932.65486,1556298.781497,64
1660236932.65486,1556298.7815022,67
1660236932.65486,1556298.7815056,67
1660236932.65486,1556298.7815092,69
1660236932.65486,1556298.7815145,71
1660236932.65486,1556298.7815189,67
1660236932.65486,1556298.781524,71
1660236932.65486,1556298.7815275,83
1660236932.65486,1556298.7815312,83
1660236932.65486,1556298.7815363,74
1660236932.65486,1556298.7815399,74
1660236932.66483,1556298.7815435,74
1660236932.66483,1556298.7815485,69
1660236932.66483,1556298.7815529,74
1660236932.66483,1556298.781558,76
1660236932.66483,1556298.7815619,71
1660236932.66483,1556298.7815671,67
1660236932.66483,1556298.7815732,53
1660236932.66483,1556298.7815771,46
1660236932.66483,1556299.3652734,46
1660236932.66483,1556299.3652923,46
1660236932.66483,1556299.3653007,53
1660236932.66483,1556299.3653047,62
1660236932.66483,1556299.365311,60
1660236932.66483,1556299.3653184,41
1660236932.66483,1556299.3653232,25
1660236932.66483,1556299.3653252,18
1660236932.66483,1556299.3653299,18
1660236932.66483,1556299.3653356,16
1660236932.66483,1556299.365341,2
1660236932.66483,1556299.3653449,-18
1660236932.66483,1556299.3653557,-23
1660236932.66483,1556299.3653651,-13
1660236932.66483,1556299.3653724,-34
1660236932.66483,1556299.3653767,-44
1660236933.23104,1556299.3653787,125
1660236933.23104,1556299.3653808,503
1660236933.23104,1556299.3653828,841
1660236933.23104,1556299.3653847,802
1660236933.23104,1556299.3653866,252
1660236933.23104,1556299.3653885,-317
1660236933.23104,1556299.3653904,-287
1660236933.23104,1556299.3653922,16
1660236933.23104,1556299.3653942,20
1660236933.23104,1556299.3653961,-64
1660236933.23104,1556299.3653979,-6
1660236933.23104,1556299.3653998,27
1660236933.23104,1556299.3654017,0
1660236933.23104,1556299.365404,16
1660236933.23104,1556299.3654122,41
1660236933.23104,1556299.3654182,44
1660236933.23104,1556299.365431,51
1660236933.23104,1556299.3654437,67
1660236933.23104,1556299.3654519,76
1660236933.23104,1556299.3654564,90
1660236933.23104,1556299.3654611,106
1660236933.23104,1556299.3654731,118
1660236933.23104,1556299.3654846,134
1660236933.23104,1556299.3654883,155
1660236933.23104,1556299.3654904,169
1660236933.23104,1556299.3654924,180
1660236933.23104,1556299.3654944,194
1660236933.23104,1556299.3654966,199
1660236933.23104,1556299.3655065,197
1660236933.23104,1556299.3655147,197
1660236933.23104,1556299.3655173,183
1660236933.23104,1556299.3655194,155
1660236933.23104,1556299.3655222,132
1660236933.23104,1556299.3655328,106
1660236933.23104,1556299.36554,76
1660236933.23104,1556299.3655424,55
1660236933.23104,1556299.3655444,41
1660236933.23104,1556299.3655464,32
1660236933.23104,1556299.3655483,30
1660236933.23104,1556299.3655503,30
1660236933.23104,1556299.3655523,32
1660236933.23104,1556299.3655544,32
1660236933.23104,1556299.365558,32
1660236933.23104,1556299.365567,39
1660236933.23104,1556299.3655774,48
1660236933.23104,1556299.3655847,53
1660236933.23104,1556299.3655948,57
1660236933.23104,1556299.3655992,62
1660236933.23104,1556299.3656014,67
1660236933.23104,1556299.3656034,76
1660236933.24201,1556299.3656055,83
1660236933.24201,1556299.3656075,88
1660236933.24201,1556299.3656095,95
1660236933.24201,1556299.3656145,95
1660236933.24201,1556299.3656257,92
1660236933.24201,1556299.3656309,95
1660236933.24201,1556299.365633,99
1660236933.24201,1556299.9510893,106
1660236933.24201,1556299.9511045,109
1660236933.24201,1556299.9511101,95
1660236933.24201,1556299.9511144,71
1660236933.24201,1556299.9511173,64
1660236933.24201,1556299.9511266,69
1660236933.24201,1556299.9511389,67
1660236933.24201,1556299.9511467,62
1660236933.24201,1556299.9511545,46
1660236933.24201,1556299.951165,23
1660236933.24201,1556299.9511783,18
1660236933.24201,1556299.9511874,20
1660236933.24201,1556299.9511964,18
1660236933.24201,1556299.9512055,16
1660236933.24201,1556299.9512123,2
1660236933.24201,1556299.9512183,-18
1660236933.24201,1556299.9512269,-13
1660236933.77589,1556299.9512337,9
1660236933.77589,1556299.9512427,13
1660236933.77589,1556299.9512502,11
1660236933.77589,1556299.9512566,9
1660236933.77589,1556299.9512613,-2
1660236933.77589,1556299.951265,-6
1660236933.77589,1556299.9512688,4
1660236933.77589,1556299.9512727,16
1660236933.77589,1556299.9512765,23
1660236933.77589,1556299.9512803,27
1660236933.77589,1556299.9512847,25
1660236933.77589,1556299.9512935,6
1660236933.77589,1556299.951304,37
1660236933.77589,1556299.9513124,255
1660236933.77589,1556299.9513224,658
1660236933.77589,1556299.9513286,967
1660236933.77589,1556299.9513325,797
1660236933.77589,1556299.9513355,136
1660236933.77589,1556299.9513624,-329
1660236933.77589,1556299.9513719,-162
1660236933.77589,1556299.9513787,83
1660236933.77589,1556299.951386,27
1660236933.77589,1556299.9513941,-23
1660236933.77589,1556299.9513993,37
1660236933.77589,1556299.9514065,46
1660236933.77589,1556299.9514196,34
1660236933.77589,1556299.9514274,62
1660236933.77589,1556299.9514315,76
1660236933.77589,1556299.9514373,74
1660236933.77589,1556299.9514412,83
1660236933.77589,1556299.9514452,95
1660236933.77589,1556299.9514506,109
1660236933.77589,1556299.9514557,122
1660236933.77589,1556299.9514611,134
1660236933.77589,1556299.951465,146
1660236933.77589,1556299.9514702,160
1660236933.77589,1556299.9514743,173
1660236933.77589,1556299.9514793,192
1660236933.77589,1556299.9514831,204
1660236933.77589,1556299.9514881,211
1660236933.77589,1556299.951492,218
1660236933.77589,1556299.9514969,218
1660236933.77589,1556299.9515009,213
1660236933.77589,1556299.9515063,206
1660236933.77589,1556299.9515103,192
1660236933.77589,1556299.9515158,166
1660236933.77589,1556299.9515198,134
1660236933.77589,1556299.9515237,111
1660236933.77589,1556299.9515275,90
1660236933.77589,1556299.9515332,71
1660236933.78587,1556299.951538,62
1660236933.78587,1556299.9515434,55
1660236933.78587,1556299.9515474,32
1660236933.78587,1556299.9515514,23
1660236933.78587,1556299.9515552,30
1660236933.78587,1556299.9515602,34
1660236933.78587,1556300.4863205,39
1660236933.78587,1556300.4863382,48
1660236933.78587,1556300.4863474,55
1660236933.78587,1556300.4863533,62
1660236933.78587,1556300.4863607,69
1660236933.78587,1556300.4863662,71
1660236933.78587,1556300.4863735,76
1660236933.78587,1556300.4863798,88
1660236933.78587,1556300.4863867,90
1660236933.78587,1556300.4863962,92
1660236933.78587,1556300.4864031,92
1660236933.78587,1556300.4864088,78
1660236933.78587,1556300.4864157,64
1660236933.78587,1556300.486421,71
1660236933.78587,1556300.4864273,81
1660236933.78587,1556300.4864336,74
1660236933.78587,1556300.4864401,67
1660236933.78587,1556300.4864447,62
1660236934.35341,1556300.4864516,48
1660236934.35341,1556300.4864561,41
1660236934.35341,1556300.4864605,46
1660236934.35341,1556300.4864652,48
1660236934.35341,1556300.4864685,44
1660236934.35341,1556300.4864757,39
1660236934.35341,1556300.4864809,25
1660236934.35341,1556300.4864832,16
1660236934.35341,1556300.486487,16
1660236934.35341,1556300.4864913,18
1660236934.35341,1556300.4864977,11
1660236934.35341,1556300.4865074,2
1660236934.35341,1556300.4865125,0
1660236934.35341,1556300.4865148,13
1660236934.35341,1556300.4865169,27
1660236934.35341,1556300.486519,34
1660236934.35341,1556300.4865211,34
1660236934.35341,1556300.486528,32
1660236934.35341,1556300.4865393,25
1660236934.35341,1556300.4865451,18
1660236934.35341,1556300.4865473,20
1660236934.35341,1556300.4865504,25
1660236934.35341,1556300.4865544,32
1660236934.35341,1556300.4865682,46
1660236934.35341,1556300.486576,48
1660236934.35341,1556300.4865795,30
1660236934.35341,1556300.4865851,62
1660236934.35341,1556300.4865961,292
1660236934.35341,1556300.486609,702
1660236934.35341,1556300.4866224,985
1660236934.35341,1556300.48663,774
1660236934.35341,1556300.4866343,109
1660236934.35341,1556300.4866399,-324
1660236934.35341,1556300.4866438,-148
1660236934.35341,1556300.486649,92
1660236934.35341,1556300.4866566,55
1660236934.35341,1556300.4866639,18
1660236934.35341,1556300.4866728,62
1660236934.35341,1556300.4866811,62
1660236934.35341,1556300.4866941,51
1660236934.35341,1556300.4867025,74
1660236934.35341,1556300.4867146,85
1660236934.35341,1556300.4867216,83
1660236934.35341,1556300.4867312,74
1660236934.35341,1556300.4867419,60
1660236934.35341,1556300.4867469,74
1660236934.35341,1556300.4867574,99
1660236934.35341,1556300.4867665,106
1660236934.35341,1556300.4867689,115
1660236934.35341,1556300.4867712,141
1660236934.36438,1556300.4867732,160
1660236934.36438,1556300.4867752,164
1660236934.36438,1556300.4867819,173
1660236934.36438,1556300.4867927,187
1660236934.36438,1556300.4867975,197
1660236934.36438,1556301.0714748,197
1660236934.36438,1556301.0714955,185
1660236934.36438,1556301.071504,166
1660236934.36438,1556301.0715109,153
1660236934.36438,1556301.0715154,134
1660236934.36438,1556301.0715197,113
1660236934.36438,1556301.0715244,92
1660236934.36438,1556301.0715298,60
1660236934.36438,1556301.0715347,25
1660236934.36438,1556301.0715385,4
1660236934.36438,1556301.0715423,6
1660236934.36438,1556301.0715475,16
1660236934.36438,1556301.0715537,16
1660236934.36438,1556301.0715584,11
1660236934.36438,1556301.0715631,4
1660236934.36438,1556301.0715683,-9
1660236934.36438,1556301.0715727,-6
1660236934.36438,1556301.0715785,13
1660236934.36438,1556301.0715827,25
1660236934.8952,1556301.0715872,20
1660236934.8952,1556301.0715916,18
1660236934.8952,1556301.0715972,23
1660236934.8952,1556301.071604,30
1660236934.8952,1556301.0716129,39
1660236934.8952,1556301.0716198,46
1660236934.8952,1556301.0716232,48
1660236934.8952,1556301.0716266,46
1660236934.8952,1556301.0716294,46
1660236934.8952,1556301.0716321,53
1660236934.8952,1556301.0716348,62
1660236934.8952,1556301.0716375,60
1660236934.8952,1556301.0716403,53
1660236934.8952,1556301.0716436,57
1660236934.8952,1556301.0716462,60
1660236934.8952,1556301.071649,62
1660236934.8952,1556301.0716551,67
1660236934.8952,1556301.0716669,64
1660236934.8952,1556301.0716779,60
1660236934.8952,1556301.0716885,60
1660236934.8952,1556301.0716941,55
1660236934.8952,1556301.0717013,37
1660236934.8952,1556301.0717274,34
1660236934.8952,1556301.0717381,44
1660236934.8952,1556301.0717431,41
1660236934.8952,1556301.0717484,51
1660236934.8952,1556301.0717516,69
1660236934.8952,1556301.0717546,69
1660236934.8952,1556301.0717577,60
1660236934.8952,1556301.0717622,57
1660236934.8952,1556301.0717664,51
1660236934.8952,1556301.0717715,41
1660236934.8952,1556301.0717747,39
1660236934.8952,1556301.0717777,37
1660236934.8952,1556301.0717814,30
1660236934.8952,1556301.0717844,25
1660236934.8952,1556301.0717891,20
1660236934.8952,1556301.0717944,13
1660236934.8952,1556301.0717997,62
1660236934.8952,1556301.0718028,303
1660236934.8952,1556301.0718081,716
1660236934.8952,1556301.0718127,981
1660236934.8952,1556301.0718165,723
1660236934.8952,1556301.0718218,41
1660236934.8952,1556301.0718253,-350
1660236934.8952,1556301.0718285,-153
1660236934.8952,1556301.071832,71
1660236934.8952,1556301.0718351,32
1660236934.8952,1556301.0718387,0
1660236934.8952,1556301.0718419,46
1660236934.90717,1556301.0718462,53
1660236934.90717,1556301.0718494,44
1660236934.90717,1556301.071855,67
1660236934.90717,1556301.0718585,76
1660236934.90717,1556301.6082305,71
1660236934.90717,1556301.6082503,88
1660236934.90717,1556301.608255,113
1660236934.90717,1556301.6082581,118
1660236934.90717,1556301.6082609,120
1660236934.90717,1556301.6082647,136
1660236934.90717,1556301.6082722,150
1660236934.90717,1556301.6082804,162
1660236934.90717,1556301.6082849,180
1660236934.90717,1556301.6082906,201
1660236934.90717,1556301.6083008,211
1660236934.90717,1556301.6083068,194
1660236934.90717,1556301.6083096,166
1660236934.90717,1556301.6083117,162
1660236934.90717,1556301.6083138,169
1660236934.90717,1556301.6083158,157
1660236934.90717,1556301.608323,134
1660236934.90717,1556301.6083354,99
1660236934.90717,1556301.6083427,44
1660236934.90717,1556301.6083452,9
1660236935.43134,1556301.6083473,13
1660236935.43134,1556301.6083493,13
1660236935.43134,1556301.608352,-4
1660236935.43134,1556301.6083607,-16
1660236935.43134,1556301.6083708,-18
1660236935.43134,1556301.6083796,-18
1660236935.43134,1556301.6083839,-6
1660236935.43134,1556301.6083877,6
1660236935.43134,1556301.6083897,11
1660236935.43134,1556301.6083925,18
1660236935.43134,1556301.6084026,23
1660236935.43134,1556301.6084167,27
1660236935.43134,1556301.6084281,39
1660236935.43134,1556301.6084312,57
1660236935.43134,1556301.6084334,67
1660236935.43134,1556301.6084355,69
1660236935.43134,1556301.6084375,69
1660236935.43134,1556301.6084395,69
1660236935.43134,1556301.6084416,74
1660236935.43134,1556301.6084487,78
1660236935.43134,1556301.6084594,81
1660236935.43134,1556301.6084622,83
1660236935.43134,1556301.6084643,81
1660236935.43134,1556301.6084664,71
1660236935.43134,1556301.6084684,64
1660236935.43134,1556301.6084705,69
1660236935.43134,1556301.6084726,67
1660236935.43134,1556301.6084747,53
1660236935.43134,1556301.6084767,46
1660236935.43134,1556301.6084788,44
1660236935.43134,1556301.6084808,39
1660236935.43134,1556301.6084827,41
1660236935.43134,1556301.6084848,46
1660236935.43134,1556301.6084869,39
1660236935.43134,1556301.6084889,27
1660236935.43134,1556301.6084909,25
1660236935.43134,1556301.6084929,37
1660236935.43134,1556301.6084949,46
1660236935.43134,1556301.608497,53
1660236935.43134,1556301.608499,53
1660236935.43134,1556301.6085011,41
1660236935.43134,1556301.6085099,32
1660236935.43134,1556301.6085199,32
1660236935.43134,1556301.608525,32
1660236935.43134,1556301.6085329,37
1660236935.43134,1556301.6085635,46
1660236935.43134,1556301.6085728,55
1660236935.43134,1556301.6085775,53
1660236935.43134,1556301.6085815,32
1660236935.43134,1556301.6085872,78
1660236935.44231,1556301.6085907,333
1660236935.44231,1556301.6085944,746
1660236935.44231,1556301.6085995,985
1660236935.44231,1556302.1438713,714
1660236935.44231,1556302.1438848,39
1660236935.44231,1556302.1438895,-338
1660236935.44231,1556302.1438954,-136
1660236935.44231,1556302.1438996,78
1660236935.44231,1556302.1439028,32
1660236935.44231,1556302.1439134,9
1660236935.44231,1556302.1439216,53
1660236935.44231,1556302.1439265,34
1660236935.44231,1556302.1439325,9
1660236935.44231,1556302.1439387,34
1660236935.44231,1556302.1439471,48
1660236935.44231,1556302.1439534,48
1660236935.44231,1556302.1439603,62
1660236935.44231,1556302.1439709,64
1660236935.44231,1556302.1439826,53
1660236935.44231,1556302.1439876,60
1660236935.44231,1556302.1439945,81
1660236935.44231,1556302.1439992,95
1660236935.44231,1556302.1440071,115
1660236935.44231,1556302.1440159,134
1660236936.06389,1556302.14402,146
1660236936.06389,1556302.1440235,157
1660236936.06389,1556302.1440279,166
1660236936.06389,1556302.1440324,169
1660236936.06389,1556302.1440367,171
1660236936.06389,1556302.1440469,171
1660236936.06389,1556302.1440538,160
1660236936.06389,1556302.1440609,136
1660236936.06389,1556302.1440692,106
1660236936.06389,1556302.1440791,76
1660236936.06389,1556302.1440862,53
1660236936.06389,1556302.1440951,39
1660236936.06389,1556302.1441022,32
1660236936.06389,1556302.1441128,13
1660236936.06389,1556302.1441163,0
1660236936.06389,1556302.1441202,6
1660236936.06389,1556302.1441221,20
1660236936.06389,1556302.1441249,4
1660236936.06389,1556302.144128,-13
1660236936.06389,1556302.1441378,4
1660236936.06389,1556302.1441466,20
1660236936.06389,1556302.1441491,23
1660236936.06389,1556302.1441512,46
1660236936.06389,1556302.1441573,55
1660236936.06389,1556302.1441686,51
1660236936.06389,1556302.1441718,62
1660236936.06389,1556302.1441739,67
1660236936.06389,1556302.1441759,64
1660236936.06389,1556302.1441778,71
1660236936.06389,1556302.1441807,83
1660236936.06389,1556302.1441917,85
1660236936.06389,1556302.1441984,85
1660236936.06389,1556302.1442007,83
1660236936.06389,1556302.1442028,78
1660236936.06389,1556302.1442088,88
1660236936.06389,1556302.1442219,95
1660236936.06389,1556302.1442256,85
1660236936.06389,1556302.144231,78
1660236936.06389,1556302.1442396,78
1660236936.06389,1556302.1442472,83
1660236936.06389,1556302.144252,78
1660236936.06389,1556302.1442571,69
1660236936.06389,1556302.1442622,71
1660236936.06389,1556302.1442666,69
1660236936.06389,1556302.1442707,57
1660236936.06389,1556302.1442747,46
1660236936.06389,1556302.144279,44
1660236936.06389,1556302.1442834,60
1660236936.06389,1556302.1443128,71
1660236936.06389,1556302.1443251,64
1660236936.07586,1556302.144332,53
1660236936.07586,1556302.1443366,48
1660236936.07586,1556302.7786821,41
1660236936.07586,1556302.7786993,30
1660236936.07586,1556302.7787047,37
1660236936.07586,1556302.7787096,55
1660236936.07586,1556302.7787142,55
1660236936.07586,1556302.7787189,30
1660236936.07586,1556302.7787238,9
1660236936.07586,1556302.7787286,4
1660236936.07586,1556302.7787332,102
1660236936.07586,1556302.7787377,426
1660236936.07586,1556302.7787418,841
1660236936.07586,1556302.7787462,934
1660236936.07586,1556302.7787508,461
1660236936.07586,1556302.7787557,-199
1660236936.07586,1556302.7787605,-357
1660236936.07586,1556302.7787651,-81
1660236936.07586,1556302.7787696,27
1660236936.07586,1556302.7787739,-34
1660236936.07586,1556302.7787783,-20
1660236936.07586,1556302.7787829,18
1660236936.07586,1556302.7787903,18
1660236936.07586,1556302.7787973,27
1660236936.65179,1556302.7788043,46
1660236936.65179,1556302.7788092,44
1660236936.65179,1556302.7788139,51
1660236936.65179,1556302.7788184,69
1660236936.65179,1556302.7788227,76
1660236936.65179,1556302.7788267,83
1660236936.65179,1556302.7788309,99
1660236936.65179,1556302.778835,113
1660236936.65179,1556302.7788396,127
1660236936.65179,1556302.7788443,141
1660236936.65179,1556302.7788489,146
1660236936.65179,1556302.7788536,153
1660236936.65179,1556302.7788582,171
1660236936.65179,1556302.7788627,180
1660236936.65179,1556302.7788673,185
1660236936.65179,1556302.7788725,187
1660236936.65179,1556302.778879,171
1660236936.65179,1556302.7788836,148
1660236936.65179,1556302.7788898,129
1660236936.65179,1556302.7788945,109
1660236936.65179,1556302.7789005,74
1660236936.65179,1556302.778905,44
1660236936.65179,1556302.7789109,39
1660236936.65179,1556302.7789175,32
1660236936.65179,1556302.7789219,13
1660236936.65179,1556302.7789263,11
1660236936.65179,1556302.7789308,25
1660236936.65179,1556302.7789371,18
1660236936.65179,1556302.7789437,11
1660236936.65179,1556302.7789482,32
1660236936.65179,1556302.778954,48
1660236936.65179,1556302.7789599,51
1660236936.65179,1556302.7789658,53
1660236936.65179,1556302.77897,60
1660236936.65179,1556302.7789741,64
1660236936.65179,1556302.7789803,62
1660236936.65179,1556302.7789861,53
1660236936.65179,1556302.7789918,55
1660236936.65179,1556302.7789962,69
1660236936.65179,1556302.7790068,83
1660236936.65179,1556302.7790147,78
1660236936.65179,1556302.7790224,78
1660236936.65179,1556302.7790304,88
1660236936.65179,1556302.7790373,88
1660236936.65179,1556302.7790415,83
1660236936.65179,1556302.7790456,88
1660236936.65179,1556302.7790497,90
1660236936.65179,1556302.7790545,81
1660236936.65179,1556302.779061,74
1660236936.65179,1556302.7790656,81
1660236936.66276,1556302.7790721,90
1660236936.66276,1556303.3637549,81
1660236936.66276,1556303.3637811,74
1660236936.66276,1556303.3637882,74
1660236936.66276,1556303.3637921,55
1660236936.66276,1556303.3637955,41
1660236936.66276,1556303.3638045,64
1660236936.66276,1556303.3638112,78
1660236936.66276,1556303.3638698,74
1660236936.66276,1556303.3638834,76
1660236936.66276,1556303.3638941,67
1660236936.66276,1556303.363905,41
1660236936.66276,1556303.3639139,37
1660236936.66276,1556303.36392,57
1660236936.66276,1556303.3639283,60
1660236936.66276,1556303.3639342,37
1660236936.66276,1556303.3639422,18
1660236936.66276,1556303.3639483,13
1660236936.66276,1556303.3639563,6
1660236936.66276,1556303.3639627,6
1660236936.66276,1556303.363971,160
1660236936.66276,1556303.3640259,542
1660236936.66276,1556303.3640369,885
1660236936.66276,1556303.3640445,818
1660236937.13582,1556303.364053,252
1660236937.13582,1556303.3640571,-331
1660236937.13582,1556303.364061,-350
1660236937.13582,1556303.3641081,-60
1660236937.13582,1556303.3641162,-6
1660236937.13582,1556303.3641221,-71
1660236937.13582,1556303.3641334,-23
1660236937.13582,1556303.3641467,11
1660236937.13582,1556303.3641561,-20
1660236937.13582,1556303.3641635,-9
1660236937.13582,1556303.3641761,27
1660236937.13582,1556303.3641843,23
1660236937.13582,1556303.3641875,27
1660236937.13582,1556303.3641896,55
1660236937.13582,1556303.3641915,67
1660236937.13582,1556303.3641935,69
1660236937.13582,1556303.3641955,85
1660236937.13582,1556303.3641975,109
1660236937.13582,1556303.3641994,127
1660236937.13582,1556303.3642014,148
1660236937.13582,1556303.3642041,162
1660236937.13582,1556303.364206,166
1660236937.13582,1556303.3642081,183
1660236937.13582,1556303.3642101,206
1660236937.13582,1556303.3642121,201
1660236937.13582,1556303.3642142,176
1660236937.13582,1556303.3642162,164
1660236937.13582,1556303.3642182,162
1660236937.13582,1556303.3642202,125
1660236937.13582,1556303.3642223,69
1660236937.13582,1556303.3642243,41
1660236937.13582,1556303.3642263,39
1660236937.13582,1556303.3642283,30
1660236937.13582,1556303.3642304,11
1660236937.13582,1556303.3642331,6
1660236937.13582,1556303.3642351,13
1660236937.13582,1556303.3642376,20
1660236937.13582,1556303.3642398,9
1660236937.13582,1556303.3642418,2
1660236937.13582,1556303.3642439,23
1660236937.13582,1556303.3642459,32
1660236937.13582,1556303.3642478,25
1660236937.13582,1556303.3642498,34
1660236937.13582,1556303.3642519,53
1660236937.13582,1556303.3642539,62
1660236937.13582,1556303.3642559,71
1660236937.13582,1556303.3642585,76
1660236937.13582,1556303.3642605,74
1660236937.13582,1556303.3642624,76
1660236937.13582,1556303.3642644,81
1660236937.14779,1556303.8515611,74
1660236937.14779,1556303.8515731,76
1660236937.14779,1556303.8515757,90
1660236937.14779,1556303.8515781,97
1660236937.14779,1556303.8515802,95
1660236937.14779,1556303.8515822,81
1660236937.14779,1556303.8515842,69
1660236937.14779,1556303.8515861,64
1660236937.14779,1556303.8515881,53
1660236937.14779,1556303.85159,48
1660236937.14779,1556303.851592,51
1660236937.14779,1556303.851594,46
1660236937.14779,1556303.8515961,48
1660236937.14779,1556303.851598,51
1660236937.14779,1556303.8516001,44
1660236937.14779,1556303.851602,39
1660236937.14779,1556303.851604,39
1660236937.14779,1556303.8516068,20
1660236937.14779,1556303.8516152,-11
1660236937.14779,1556303.8516262,-20
1660236937.14779,1556303.8516297,-25
1660236937.14779,1556303.8516326,-30
1660236937.14779,1556303.8516355,-9
1660236937.14779,1556303.8516383,-9
1660236937.71817,1556303.8516413,-55
1660236937.71817,1556303.8516441,-62
1660236937.71817,1556303.851647,-27
1660236937.71817,1556303.8516498,-30
1660236937.71817,1556303.8516525,16
1660236937.71817,1556303.8516554,296
1660236937.71817,1556303.8516582,707
1660236937.71817,1556303.851661,885
1660236937.71817,1556303.8516638,549
1660236937.71817,1556303.8516666,-99
1660236937.71817,1556303.8516694,-391
1660236937.71817,1556303.8516725,-171
1660236937.71817,1556303.8516802,13
1660236937.71817,1556303.8516904,-27
1660236937.71817,1556303.8516959,-39
1660236937.71817,1556303.8516989,4
1660236937.71817,1556303.8517018,-2
1660236937.71817,1556303.8517046,-4
1660236937.71817,1556303.8517075,23
1660236937.71817,1556303.8517103,23
1660236937.71817,1556303.8517132,20
1660236937.71817,1556303.8517161,53
1660236937.71817,1556303.851719,76
1660236937.71817,1556303.8517219,78
1660236937.71817,1556303.8517248,90
1660236937.71817,1556303.8517276,118
1660236937.71817,1556303.8517305,134
1660236937.71817,1556303.8517333,143
1660236937.71817,1556303.8517362,166
1660236937.71817,1556303.8517391,187
1660236937.71817,1556303.8517419,199
1660236937.71817,1556303.8517447,211
1660236937.71817,1556303.8517476,215
1660236937.71817,1556303.8517505,215
1660236937.71817,1556303.8517533,211
1660236937.71817,1556303.8517562,190
1660236937.71817,1556303.8517594,162
1660236937.71817,1556303.8517623,125
1660236937.71817,1556303.8517651,88
1660236937.71817,1556303.851768,64
1660236937.71817,1556303.8517709,41
1660236937.71817,1556303.8517738,25
1660236937.71817,1556303.8517766,23
1660236937.71817,1556303.8517795,23
1660236937.71817,1556303.8517824,20
1660236937.71817,1556303.8517853,20
1660236937.71817,1556303.8517882,27
1660236937.71817,1556303.851791,30
1660236937.71817,1556303.8517939,20
1660236937.71817,1556304.4354731,30
1660236937.73014,1556304.4354915,46
1660236937.73014,1556304.4354958,46
1660236937.73014,1556304.4354995,51
1660236937.73014,1556304.4355028,60
1660236937.73014,1556304.4355063,69
1660236937.73014,1556304.4355094,78
1660236937.73014,1556304.4355126,71
1660236937.73014,1556304.4355157,48
1660236937.73014,1556304.4355187,44
1660236937.73014,1556304.4355218,44
1660236937.73014,1556304.4355262,41
1660236937.73014,1556304.4355307,46
1660236937.73014,1556304.4355347,46
1660236937.73014,1556304.4355382,32
1660236937.73014,1556304.4355417,11
1660236937.73014,1556304.4355477,11
1660236937.73014,1556304.4355511,27
1660236937.73014,1556304.4355544,25
1660236937.73014,1556304.4355582,20
1660236937.73014,1556304.4355616,20
1660236937.73014,1556304.4355647,9
1660236937.73014,1556304.4355681,6
1660236937.73014,1556304.4355715,16
1660236937.73014,1556304.4355764,13
1660236938.25096,1556304.4355796,13
1660236938.25096,1556304.4355834,27
1660236938.25096,1556304.4355872,34
1660236938.25096,1556304.4355924,25
1660236938.25096,1556304.4355993,9
1660236938.25096,1556304.435606,4
1660236938.25096,1556304.4356129,13
1660236938.25096,1556304.435618,16
1660236938.25096,1556304.435621,9
1660236938.25096,1556304.4356241,13
1660236938.25096,1556304.4356275,30
1660236938.25096,1556304.4356312,25
1660236938.25096,1556304.4356366,0
1660236938.25096,1556304.4356402,85
1660236938.25096,1556304.4356466,410
1660236938.25096,1556304.4356517,818
1660236938.25096,1556304.4356562,950
1660236938.25096,1556304.4356625,558
1660236938.25096,1556304.4356699,-104
1660236938.25096,1556304.4356733,-329
1660236938.25096,1556304.435679,-53
1660236938.25096,1556304.4356878,88
1660236938.25096,1556304.4356926,9
1660236938.25096,1556304.4356946,13
1660236938.25096,1556304.4356972,64
1660236938.25096,1556304.4357044,55
1660236938.25096,1556304.4357159,48
1660236938.25096,1556304.4357242,69
1660236938.25096,1556304.4357332,85
1660236938.25096,1556304.4357413,97
1660236938.25096,1556304.4357497,97
1660236938.25096,1556304.4357557,102
1660236938.25096,1556304.435763,122
1660236938.25096,1556304.4357701,143
1660236938.25096,1556304.4357754,157
1660236938.25096,1556304.4357843,169
1660236938.25096,1556304.4357891,178
1660236938.25096,1556304.4357971,190
1660236938.25096,1556304.4358038,211
1660236938.25096,1556304.4358171,224
1660236938.25096,1556304.4358296,224
1660236938.25096,1556304.4358426,227
1660236938.25096,1556304.4358524,227
1660236938.25096,1556304.4358613,218
1660236938.25096,1556304.4358678,201
1660236938.25096,1556304.4358783,169
1660236938.25096,1556304.4358881,134
1660236938.25096,1556304.4358975,113
1660236938.25096,1556304.9719663,85
1660236938.25096,1556304.9719872,53
1660236938.26292,1556304.9720011,30
1660236938.26292,1556304.9720143,18
1660236938.26292,1556304.9720275,18
1660236938.26292,1556304.9720408,18
1660236938.26292,1556304.9720539,16
1660236938.26292,1556304.9720635,23
1660236938.26292,1556304.9720661,34
1660236938.26292,1556304.9720682,39
1660236938.26292,1556304.9720701,37
1660236938.26292,1556304.9720721,20
1660236938.26292,1556304.9720741,9
1660236938.26292,1556304.9720761,25
1660236938.26292,1556304.972078,48
1660236938.26292,1556304.97208,46
1660236938.26292,1556304.972082,51
1660236938.26292,1556304.972084,48
1660236938.26292,1556304.972086,32
1660236938.26292,1556304.972089,34
1660236938.26292,1556304.9720911,48
1660236938.26292,1556304.9720931,44
1660236938.26292,1556304.9720951,39
1660236938.26292,1556304.9720972,41
1660236938.26292,1556304.9720993,39
1660236938.26292,1556304.9721013,37
1660236938.8408,1556304.9721033,39
1660236938.8408,1556304.9721052,46
1660236938.8408,1556304.9721071,51
1660236938.8408,1556304.972109,57
1660236938.8408,1556304.9721109,51
1660236938.8408,1556304.9721128,39
1660236938.8408,1556304.9721146,39
1660236938.8408,1556304.9721166,34
1660236938.8408,1556304.9721185,30
1660236938.8408,1556304.9721204,37
1660236938.8408,1556304.9721222,41
1660236938.8408,1556304.9721241,46
1660236938.8408,1556304.9721259,55
1660236938.8408,1556304.9721286,60
1660236938.8408,1556304.972139,53
1660236938.8408,1556304.9721503,41
1660236938.8408,1556304.9721561,37
1660236938.8408,1556304.972168,39
1660236938.8408,1556304.9721758,46
1660236938.8408,1556304.9721783,55
1660236938.8408,1556304.9721803,60
1660236938.8408,1556304.9721823,64
1660236938.8408,1556304.9721843,48
1660236938.8408,1556304.9721863,44
1660236938.8408,1556304.9721882,215
1660236938.8408,1556304.9721902,621
1660236938.8408,1556304.9721922,992
1660236938.8408,1556304.9721942,925
1660236938.8408,1556304.9721962,303
1660236938.8408,1556304.9721984,-276
1660236938.8408,1556304.9722004,-208
1660236938.8408,1556304.9722024,83
1660236938.8408,1556304.9722044,67
1660236938.8408,1556304.9722064,-9
1660236938.8408,1556304.9722085,51
1660236938.8408,1556304.9722106,69
1660236938.8408,1556304.9722125,46
1660236938.8408,1556304.9722145,62
1660236938.8408,1556304.9722165,81
1660236938.8408,1556304.9722185,78
1660236938.8408,1556304.9722204,88
1660236938.8408,1556304.9722224,106
1660236938.8408,1556304.9722245,111
1660236938.8408,1556304.9722266,106
1660236938.8408,1556304.9722286,115
1660236938.8408,1556304.9722306,134
1660236938.8408,1556304.9722326,150
1660236938.8408,1556305.556982,169
1660236938.8408,1556305.556998,185
1660236938.8408,1556305.5570028,194
1660236938.85078,1556305.5570071,201
1660236938.85078,1556305.5570109,213
1660236938.85078,1556305.5570146,222
1660236938.85078,1556305.5570183,220
1660236938.85078,1556305.5570221,197
1660236938.85078,1556305.5570278,157
1660236938.85078,1556305.5570334,118
1660236938.85078,1556305.5570372,95
1660236938.85078,1556305.5570409,67
1660236938.85078,1556305.5570446,34
1660236938.85078,1556305.5570482,11
1660236938.85078,1556305.5570521,-11
1660236938.85078,1556305.5570557,-39
1660236938.85078,1556305.5570593,-44
1660236938.85078,1556305.5570628,-25
1660236938.85078,1556305.5570667,-16
1660236938.85078,1556305.5570723,-16
1660236938.85078,1556305.5570761,-9
1660236938.85078,1556305.5570811,0
1660236938.85078,1556305.5570848,6
1660236938.85078,1556305.5570903,16
1660236938.85078,1556305.5570949,25
1660236938.85078,1556305.5571026,37
1660236938.85078,1556305.5571417,44
1660236939.37114,1556305.5571608,48
1660236939.37114,1556305.5571661,55

1660236939.37114,1556305.5571698,60
1660236939.37114,1556305.5571736,60
1660236939.37114,1556305.5571772,71
1660236939.37114,1556305.5571806,83
1660236939.37114,1556305.5571842,81
1660236939.37114,1556305.5571876,78
1660236939.37114,1556305.5571913,81
1660236939.37114,1556305.5571945,81
1660236939.37114,1556305.5571982,81
1660236939.37114,1556305.5572018,85
1660236939.37114,1556305.5572052,88
1660236939.37114,1556305.5572085,85
1660236939.37114,1556305.557212,83
1660236939.37114,1556305.5572153,81
1660236939.37114,1556305.5572186,71
1660236939.37114,1556305.5572219,67
1660236939.37114,1556305.5572252,62
1660236939.37114,1556305.5572284,55
1660236939.37114,1556305.5572318,48
1660236939.37114,1556305.5572354,44
1660236939.37114,1556305.5572389,48
1660236939.37114,1556305.5572424,62
1660236939.37114,1556305.5572461,71
1660236939.37114,1556305.5572496,71
1660236939.37114,1556305.5572533,69
1660236939.37114,1556305.5572567,60
1660236939.37114,1556305.5572655,48
1660236939.37114,1556305.5572691,46
1660236939.37114,1556305.5572724,57
1660236939.37114,1556305.5572761,69
1660236939.37114,1556305.5572797,67
1660236939.37114,1556305.5572836,57
1660236939.37114,1556305.5572872,30
1660236939.37114,1556305.5572908,2
1660236939.37114,1556305.5572943,109
1660236939.37114,1556305.5572977,440
1660236939.37114,1556305.5573012,841
1660236939.37114,1556305.5573114,985
1660236939.37114,1556305.5573151,589
1660236939.37114,1556305.5573188,-99
1660236939.37114,1556305.5573222,-310
1660236939.37114,1556305.5573256,-6
1660236939.37114,1556305.5573307,111
1660236939.37114,1556305.5573355,2
1660236939.37114,1556306.0927016,16
1660236939.37114,1556306.0927237,74
1660236939.37114,1556306.0927385,57
1660236939.37114,1556306.0927493,51
1660236939.38311,1556306.0927576,55
1660236939.38311,1556306.0927657,34
1660236939.38311,1556306.0927715,32
1660236939.38311,1556306.0927812,60
1660236939.38311,1556306.0927896,69
1660236939.38311,1556306.0928012,71
1660236939.38311,1556306.0928126,85
1660236939.38311,1556306.0928212,102
1660236939.38311,1556306.0928308,120
1660236939.38311,1556306.0928383,134
1660236939.38311,1556306.0928408,153
1660236939.38311,1556306.0928428,173
1660236939.38311,1556306.0928449,187
1660236939.38311,1556306.0928469,180
1660236939.38311,1556306.0928489,160
1660236939.38311,1556306.0928517,155
1660236939.38311,1556306.0928625,164
1660236939.38311,1556306.0928705,153
1660236939.38311,1556306.0928729,120
1660236939.38311,1556306.0928749,90
1660236939.38311,1556306.092877,67
1660236939.38311,1556306.092879,41
1660236939.38311,1556306.0928867,18
1660236939.38311,1556306.0928972,11
1660236940.00609,1556306.092907,11
1660236940.00609,1556306.0929159,9
1660236940.00609,1556306.0929236,2
1660236940.00609,1556306.0929302,6
1660236940.00609,1556306.0929391,25
1660236940.00609,1556306.0929482,34
1660236940.00609,1556306.0929614,37
1660236940.00609,1556306.0929747,41
1660236940.00609,1556306.0929829,34
1660236940.00609,1556306.0929852,30
1660236940.00609,1556306.0929874,48
1660236940.00609,1556306.0929895,64
1660236940.00609,1556306.0929916,60
1660236940.00609,1556306.0929936,64
1660236940.00609,1556306.0929957,71
1660236940.00609,1556306.0929977,71
1660236940.00609,1556306.0929998,81
1660236940.00609,1556306.0930018,90
1660236940.00609,1556306.0930039,81
1660236940.00609,1556306.0930059,85
1660236940.00609,1556306.093008,95
1660236940.00609,1556306.09301,92
1660236940.00609,1556306.093012,81
1660236940.00609,1556306.093014,78
1660236940.00609,1556306.093016,78
1660236940.00609,1556306.093018,74
1660236940.00609,1556306.0930201,67
1660236940.00609,1556306.0930222,60
1660236940.00609,1556306.0930242,55
1660236940.00609,1556306.0930263,53
1660236940.00609,1556306.0930284,48
1660236940.00609,1556306.0930304,46
1660236940.00609,1556306.0930325,51
1660236940.00609,1556306.0930346,44
1660236940.00609,1556306.0930367,34
1660236940.00609,1556306.0930387,37
1660236940.00609,1556306.0930409,39
1660236940.00609,1556306.0930429,46
1660236940.00609,1556306.0930449,60
1660236940.00609,1556306.093047,60
1660236940.00609,1556306.093049,51
1660236940.00609,1556306.093051,48
1660236940.00609,1556306.0930532,44
1660236940.00609,1556306.0930553,37
1660236940.00609,1556306.0930573,44
1660236940.00609,1556306.726737,57
1660236940.00609,1556306.7267498,60
1660236940.00609,1556306.7267538,60
1660236940.00609,1556306.7267579,53
1660236940.00609,1556306.72676,27
1660236940.01679,1556306.726762,67
1660236940.01679,1556306.7267641,327
1660236940.01679,1556306.7267661,751
1660236940.01679,1556306.7267681,997
1660236940.01679,1556306.7267701,728
1660236940.01679,1556306.7267721,57
1660236940.01679,1556306.7267753,-333
1660236940.01679,1556306.7267796,-148
1660236940.01679,1556306.7267862,62
1660236940.01679,1556306.7267975,4
1660236940.01679,1556306.7268052,-46
1660236940.01679,1556306.7268133,9
1660236940.01679,1556306.7268222,30
1660236940.01679,1556306.7268332,20
1660236940.01679,1556306.7268417,34
1660236940.01679,1556306.7268515,44
1660236940.01679,1556306.7268623,41
1660236940.01679,1556306.72687,51
1660236940.01679,1556306.726881,71
1660236940.01679,1556306.7268913,85
1660236940.01679,1556306.7268979,95
1660236940.01679,1556306.7269102,111
1660236940.01679,1556306.7269183,129
1660236940.01679,1556306.7269275,143
1660236940.49567,1556306.7269326,164
1660236940.49567,1556306.7269348,185
1660236940.49567,1556306.7269368,197
1660236940.49567,1556306.7269387,206
1660236940.49567,1556306.7269406,201
1660236940.49567,1556306.7269425,192
1660236940.49567,1556306.7269444,194
1660236940.49567,1556306.7269463,192
1660236940.49567,1556306.7269519,169
1660236940.49567,1556306.7269621,136
1660236940.49567,1556306.7269748,104
1660236940.49567,1556306.7269835,81
1660236940.49567,1556306.7269872,64
1660236940.49567,1556306.7269892,48
1660236940.49567,1556306.7269912,39
1660236940.49567,1556306.7269939,37
1660236940.49567,1556306.7270037,32
1660236940.49567,1556306.7270148,27
1660236940.49567,1556306.7270253,25
1660236940.49567,1556306.7270317,30
1660236940.49567,1556306.7270364,39
1660236940.49567,1556306.7270417,41
1660236940.49567,1556306.7270471,37
1660236940.49567,1556306.7270558,46
1660236940.49567,1556306.7270605,60
1660236940.49567,1556306.7270625,67
1660236940.49567,1556306.7270644,74
1660236940.49567,1556306.7270671,81
1660236940.49567,1556306.7270766,88
1660236940.49567,1556306.727088,92
1660236940.49567,1556306.7270984,90
1660236940.49567,1556306.7271078,83
1660236940.49567,1556306.7271162,85
1660236940.49567,1556306.7271234,88
1660236940.49567,1556306.7271257,95
1660236940.49567,1556306.7271281,99
1660236940.49567,1556306.7271305,90
1660236940.49567,1556306.7271385,83
1660236940.49567,1556306.727149,90
1660236940.49567,1556306.7271539,95
1660236940.49567,1556306.7271593,95
1660236940.49567,1556306.7271693,92
1660236940.49567,1556306.7271788,83
1660236940.49567,1556306.7271813,67
1660236940.49567,1556307.2143274,60
1660236940.49567,1556307.2143471,71
1660236940.49567,1556307.2143545,78
1660236940.49567,1556307.2143623,69
1660236940.49567,1556307.2143675,60
1660236940.49567,1556307.2143736,55
1660236940.50564,1556307.2143799,57
1660236940.50564,1556307.2143894,64
1660236940.50564,1556307.2143968,74
1660236940.50564,1556307.2144047,81
1660236940.50564,1556307.214413,71
1660236940.50564,1556307.2144167,44
1660236940.50564,1556307.2144202,25
1660236940.50564,1556307.2144237,27
1660236940.50564,1556307.2144273,37
1660236940.50564,1556307.2144308,51
1660236940.50564,1556307.2144345,46
1660236940.50564,1556307.2144378,37
1660236940.50564,1556307.2144415,34
1660236940.50564,1556307.2144449,23
1660236940.50564,1556307.2144489,69
1660236940.50564,1556307.2144524,329
1660236940.50564,1556307.2144575,749
1660236940.50564,1556307.2144602,994
1660236940.50564,1556307.214463,709
1660236940.50564,1556307.2144657,11
1660236940.50564,1556307.2144684,-359
1660236940.50564,1556307.2144712,-141
1660236940.50564,1556307.214474,62
1660236940.50564,1556307.2144768,6
1660236941.12701,1556307.2144795,-16
1660236941.12701,1556307.2144822,27
1660236941.12701,1556307.2144848,30
1660236941.12701,1556307.214489,25
1660236941.12701,1556307.214493,48
1660236941.12701,1556307.2144989,62
1660236941.12701,1556307.2145052,64
1660236941.12701,1556307.2145109,69
1660236941.12701,1556307.2145149,74
1660236941.12701,1556307.2145192,71
1660236941.12701,1556307.2145271,83
1660236941.12701,1556307.214535,111
1660236941.12701,1556307.2145403,132
1660236941.12701,1556307.2145449,143
1660236941.12701,1556307.2145505,155
1660236941.12701,1556307.2145624,169
1660236941.12701,1556307.2145732,187
1660236941.12701,1556307.21458,201
1660236941.12701,1556307.2145861,211
1660236941.12701,1556307.2145939,208
1660236941.12701,1556307.2146021,190
1660236941.12701,1556307.2146086,171
1660236941.12701,1556307.214615,162
1660236941.12701,1556307.2146211,134
1660236941.12701,1556307.2146275,99
1660236941.12701,1556307.214634,81
1660236941.12701,1556307.2146422,53
1660236941.12701,1556307.2146506,30
1660236941.12701,1556307.2146571,34
1660236941.12701,1556307.2146651,46
1660236941.12701,1556307.2146709,44
1660236941.12701,1556307.2146791,32
1660236941.12701,1556307.2146884,23
1660236941.12701,1556307.2146966,37
1660236941.12701,1556307.2147038,57
1660236941.12701,1556307.21471,60
1660236941.12701,1556307.2147144,57
1660236941.12701,1556307.2147206,67
1660236941.12701,1556307.2147258,78
1660236941.12701,1556307.2147317,88
1660236941.12701,1556307.2147362,88
1660236941.12701,1556307.2147407,88
1660236941.12701,1556307.2147508,97
1660236941.12701,1556307.8480188,109
1660236941.12701,1556307.8480324,102
1660236941.12701,1556307.8480357,95
1660236941.12701,1556307.8480384,106
1660236941.12701,1556307.8480408,113
1660236941.12701,1556307.848043,118
1660236941.12701,1556307.848045,120
1660236941.13798,1556307.8480472,95
1660236941.13798,1556307.8480493,64
1660236941.13798,1556307.8480513,57
1660236941.13798,1556307.8480534,60
1660236941.13798,1556307.8480555,60
1660236941.13798,1556307.8480613,62
1660236941.13798,1556307.8480722,55
1660236941.13798,1556307.8480804,30
1660236941.13798,1556307.8480895,2
1660236941.13798,1556307.8480972,9
1660236941.13798,1556307.8481074,23
1660236941.13798,1556307.8481156,13
1660236941.13798,1556307.8481227,4
1660236941.13798,1556307.8481335,4
1660236941.13798,1556307.8481442,4
1660236941.13798,1556307.8481477,18
1660236941.13798,1556307.8481515,39
1660236941.13798,1556307.8481536,46
1660236941.13798,1556307.8481556,37
1660236941.13798,1556307.8481576,25
1660236941.13798,1556307.8481596,23
1660236941.13798,1556307.8481616,27
1660236941.13798,1556307.8481637,34
1660236941.13798,1556307.8481657,30
1660236941.67079,1556307.8481677,25
1660236941.67079,1556307.8481697,23
1660236941.67079,1556307.8481716,16
1660236941.67079,1556307.8481735,11
1660236941.67079,1556307.8481754,83
1660236941.67079,1556307.8481773,368
1660236941.67079,1556307.8481792,793
1660236941.67079,1556307.8481854,992
1660236941.67079,1556307.8481939,630
1660236941.67079,1556307.8481992,-57
1660236941.67079,1556307.848203,-336
1660236941.67079,1556307.8482067,-92
1660236941.67079,1556307.8482115,69
1660236941.67079,1556307.8482172,6
1660236941.67079,1556307.8482276,-2
1660236941.67079,1556307.848238,44
1660236941.67079,1556307.8482466,51
1660236941.67079,1556307.8482555,48
1660236941.67079,1556307.8482636,57
1660236941.67079,1556307.848275,69
1660236941.67079,1556307.8482838,88
1660236941.67079,1556307.848293,92
1660236941.67079,1556307.8483048,99
1660236941.67079,1556307.8483099,113
1660236941.67079,1556307.8483152,127
1660236941.67079,1556307.8483199,143
1660236941.67079,1556307.8483231,162
1660236941.67079,1556307.8483292,180
1660236941.67079,1556307.8483325,197
1660236941.67079,1556307.8483388,208
1660236941.67079,1556307.8483518,222
1660236941.67079,1556307.8483637,234
1660236941.67079,1556307.8483716,236
1660236941.67079,1556307.8483781,236
1660236941.67079,1556307.8483814,234
1660236941.67079,1556307.8483863,213
1660236941.67079,1556307.8483982,180
1660236941.67079,1556307.8484034,150
1660236941.67079,1556307.8484084,134
1660236941.67079,1556307.8484144,106
1660236941.67079,1556307.8484179,71
1660236941.67079,1556307.8484231,57
1660236941.67079,1556308.3853315,53
1660236941.67079,1556308.3853499,41
1660236941.67079,1556308.3853562,39
1660236941.67079,1556308.3853616,44
1660236941.67079,1556308.385367,48
1660236941.67079,1556308.3853722,55
1660236941.67079,1556308.3853773,62
1660236941.67079,1556308.3853823,62
1660236941.68276,1556308.3853873,71
1660236941.68276,1556308.3853924,88
1660236941.68276,1556308.3853974,83
1660236941.68276,1556308.385402,57
1660236941.68276,1556308.3854064,51
1660236941.68276,1556308.3854105,74
1660236941.68276,1556308.3854168,81
1660236941.68276,1556308.3854212,71
1660236941.68276,1556308.3854259,78
1660236941.68276,1556308.3854331,78
1660236941.68276,1556308.3854382,57
1660236941.68276,1556308.3854465,48
1660236941.68276,1556308.3854515,64
1660236941.68276,1556308.3854578,69
1660236941.68276,1556308.3854633,60
1660236941.68276,1556308.3854713,51
1660236941.68276,1556308.3854772,41
1660236941.68276,1556308.3854832,41
1660236941.68276,1556308.3854888,48
1660236941.68276,1556308.3854947,48
1660236941.68276,1556308.385501,46
1660236941.68276,1556308.3855088,46
1660236941.68276,1556308.385515,37
1660236941.68276,1556308.3855204,18
1660236942.15568,1556308.3855244,11
1660236942.15568,1556308.3855285,18
1660236942.15568,1556308.3855327,23
1660236942.15568,1556308.3855392,20
1660236942.15568,1556308.3855456,25
1660236942.15568,1556308.3855498,39
1660236942.15568,1556308.3855562,48
1660236942.15568,1556308.3855625,46
1660236942.15568,1556308.3855687,37
1660236942.15568,1556308.385575,32
1660236942.15568,1556308.3855834,30
1660236942.15568,1556308.3855897,32
1660236942.15568,1556308.3855974,44
1660236942.15568,1556308.3856024,55
1660236942.15568,1556308.3856062,62
1660236942.15568,1556308.3856098,48
1660236942.15568,1556308.3856136,34
1660236942.15568,1556308.3856175,141
1660236942.15568,1556308.3856234,480
1660236942.15568,1556308.3856279,888
1660236942.15568,1556308.3856346,981
1660236942.15568,1556308.3856389,533
1660236942.15568,1556308.3856452,-118
1660236942.15568,1556308.3856496,-287
1660236942.15568,1556308.3856562,-20
1660236942.15568,1556308.3856603,92
1660236942.15568,1556308.3856662,25
1660236942.15568,1556308.3856724,37
1660236942.15568,1556308.3856791,76
1660236942.15568,1556308.3856867,64
1660236942.15568,1556308.3856928,62
1660236942.15568,1556308.3856983,90
1660236942.15568,1556308.3857052,92
1660236942.15568,1556308.3857106,81
1660236942.15568,1556308.3857177,95
1660236942.15568,1556308.3857263,109
1660236942.15568,1556308.3857343,109
1660236942.15568,1556308.3857424,125
1660236942.15568,1556308.3857502,153
1660236942.15568,1556308.3857566,166
1660236942.15568,1556308.3857643,176
1660236942.15568,1556308.8721396,204
1660236942.15568,1556308.8721542,227
1660236942.15568,1556308.8721595,227
1660236942.15568,1556308.8721651,229
1660236942.15568,1556308.872169,234
1660236942.15568,1556308.8721719,229
1660236942.15568,1556308.8721748,222
1660236942.15568,1556308.8721777,197
1660236942.15568,1556308.87218,153
1660236942.16764,1556308.8721823,118
1660236942.16764,1556308.8721844,92
1660236942.16764,1556308.8721909,60
1660236942.16764,1556308.8722022,39
1660236942.16764,1556308.8722102,39
1660236942.16764,1556308.8722188,25
1660236942.16764,1556308.8722251,6
1660236942.16764,1556308.8722282,11
1660236942.16764,1556308.872239,6
1660236942.16764,1556308.8722474,-6
1660236942.16764,1556308.8722498,4
1660236942.16764,1556308.8722519,6
1660236942.16764,1556308.872254,-13
1660236942.16764,1556308.872256,-11
1660236942.16764,1556308.872258,-2
1660236942.16764,1556308.87226,-6
1660236942.16764,1556308.872262,6
1660236942.16764,1556308.872265,18
1660236942.16764,1556308.8722777,6
1660236942.16764,1556308.8722842,9
1660236942.16764,1556308.8722865,32
1660236942.16764,1556308.8722886,41
1660236942.16764,1556308.8722906,37
1660236942.16764,1556308.8722938,39
1660236942.74588,1556308.8723066,51
1660236942.74588,1556308.8723106,55
1660236942.74588,1556308.8723126,53
1660236942.74588,1556308.8723145,48
1660236942.74588,1556308.8723165,48
1660236942.74588,1556308.8723218,48
1660236942.74588,1556308.8723296,53
1660236942.74588,1556308.8723343,62
1660236942.74588,1556308.8723385,62
1660236942.74588,1556308.8723469,55
1660236942.74588,1556308.8723536,55
1660236942.74588,1556308.8723645,53
1660236942.74588,1556308.8723706,44
1660236942.74588,1556308.8723729,37
1660236942.74588,1556308.8723749,32
1660236942.74588,1556308.8723769,34
1660236942.74588,1556308.8723788,46
1660236942.74588,1556308.8723808,57
1660236942.74588,1556308.8723829,60
1660236942.74588,1556308.8723848,62
1660236942.74588,1556308.8723869,62
1660236942.74588,1556308.8723903,51
1660236942.74588,1556308.8724013,34
1660236942.74588,1556308.8724072,34
1660236942.74588,1556308.872411,41
1660236942.74588,1556308.8724148,44
1660236942.74588,1556308.8724186,46
1660236942.74588,1556308.8724235,51
1660236942.74588,1556308.8724277,39
1660236942.74588,1556308.8724324,32
1660236942.74588,1556308.8724356,136
1660236942.74588,1556308.8724391,475
1660236942.74588,1556308.8724424,885
1660236942.74588,1556308.8724458,978
1660236942.74588,1556308.8724506,521
1660236942.74588,1556308.8724537,-125
1660236942.74588,1556308.8724568,-271
1660236942.74588,1556308.8724602,0
1660236942.74588,1556308.8724653,92
1660236942.74588,1556308.8724712,13
1660236942.74588,1556309.4591917,32
1660236942.74588,1556309.4592141,76
1660236942.74588,1556309.4592197,69
1660236942.74588,1556309.4592254,71
1660236942.74588,1556309.4592696,69
1660236942.74588,1556309.4592743,51
1660236942.74588,1556309.4592785,51
1660236942.74588,1556309.4592824,78
1660236942.74588,1556309.4592867,99
1660236942.74588,1556309.4592908,99
1660236942.75521,1556309.4592949,81
1660236942.75521,1556309.459299,57
1660236942.75521,1556309.4593032,67
1660236942.75521,1556309.4593072,104
1660236942.75521,1556309.4593118,129
1660236942.75521,1556309.4593159,134
1660236942.75521,1556309.4593222,139
1660236942.75521,1556309.4593264,146
1660236942.75521,1556309.4593304,143
1660236942.75521,1556309.4593343,146
1660236942.75521,1556309.4593382,150
1660236942.75521,1556309.4593419,143
1660236942.75521,1556309.4593458,125
1660236942.75521,1556309.4593495,90
1660236942.75521,1556309.4593531,53
1660236942.75521,1556309.4593564,30
1660236942.75521,1556309.4593603,18
1660236942.75521,1556309.4593645,2
1660236942.75521,1556309.4593709,-6
1660236942.75521,1556309.4593747,2
1660236942.75521,1556309.4593788,6
1660236942.75521,1556309.4593841,2
1660236942.75521,1556309.459388,11
1660236942.75521,1556309.4593932,25
1660236943.32693,1556309.4593977,30
1660236943.32693,1556309.4594015,39
1660236943.32693,1556309.4594052,41
1660236943.32693,1556309.459409,44
1660236943.32693,1556309.4594127,48
1660236943.32693,1556309.4594162,57
1660236943.32693,1556309.4594198,71
1660236943.32693,1556309.4594241,76
1660236943.32693,1556309.4594275,69
1660236943.32693,1556309.4594308,74
1660236943.32693,1556309.4594383,95
1660236943.32693,1556309.4594433,99
1660236943.32693,1556309.4594477,85
1660236943.32693,1556309.4594543,78
1660236943.32693,1556309.4594648,83
1660236943.32693,1556309.459474,81
1660236943.32693,1556309.4594822,74
1660236943.32693,1556309.4594905,74
1660236943.32693,1556309.4594966,76
1660236943.32693,1556309.4594989,81
1660236943.32693,1556309.459501,83
1660236943.32693,1556309.4595031,83
1660236943.32693,1556309.4595053,78
1660236943.32693,1556309.4595073,71
1660236943.32693,1556309.4595094,62
1660236943.32693,1556309.4595113,57
1660236943.32693,1556309.4595144,69
1660236943.32693,1556309.4595261,67
1660236943.32693,1556309.4595357,62
1660236943.32693,1556309.4595444,64
1660236943.32693,1556309.4595517,67
1660236943.32693,1556309.4595542,71
1660236943.32693,1556309.4595563,76
1660236943.32693,1556309.4595648,74
1660236943.32693,1556309.4595668,62
1660236943.32693,1556309.4595689,53
1660236943.32693,1556309.4595715,55
1660236943.32693,1556309.45958,55
1660236943.32693,1556309.45959,60
1660236943.32693,1556310.0439816,78
1660236943.32693,1556310.0440023,76
1660236943.32693,1556310.0440099,46
1660236943.32693,1556310.0440168,41
1660236943.32693,1556310.0440236,224
1660236943.32693,1556310.0440289,630
1660236943.32693,1556310.0440324,964
1660236943.32693,1556310.0440378,830
1660236943.32693,1556310.0440445,192
1660236943.32693,1556310.0440513,-327
1660236943.32693,1556310.0440583,-243
1660236943.3369,1556310.0440641,11
1660236943.3369,1556310.0440682,13
1660236943.3369,1556310.0440714,-34
1660236943.3369,1556310.0440746,0
1660236943.3369,1556310.04408,13
1660236943.3369,1556310.0440849,9
1660236943.3369,1556310.0440901,27
1660236943.3369,1556310.0440967,44
1660236943.3369,1556310.0441007,53
1660236943.3369,1556310.0441044,48
1660236943.3369,1556310.0441088,32
1660236943.3369,1556310.0441135,39
1660236943.3369,1556310.0441197,69
1660236943.3369,1556310.0441258,90
1660236943.3369,1556310.0441332,106
1660236943.3369,1556310.0441423,122
1660236943.3369,1556310.0441485,136
1660236943.3369,1556310.0441578,153
1660236943.3369,1556310.0441733,178
1660236943.3369,1556310.0441877,192
1660236943.3369,1556310.044203,197
1660236943.3369,1556310.0442162,199
1660236943.3369,1556310.0442308,190
1660236943.3369,1556310.0442402,171
1660236943.91464,1556310.0442632,157
1660236943.91464,1556310.0442725,139
1660236943.91464,1556310.044279,97
1660236943.91464,1556310.0442848,57
1660236943.91464,1556310.0442915,41
1660236943.91464,1556310.0442976,27
1660236943.91464,1556310.0443035,9
1660236943.91464,1556310.0443102,6
1660236943.91464,1556310.0443154,18
1660236943.91464,1556310.0443216,18
1660236943.91464,1556310.0443279,13
1660236943.91464,1556310.0443345,16
1660236943.91464,1556310.0443403,23
1660236943.91464,1556310.0443468,30
1660236943.91464,1556310.0443528,34
1660236943.91464,1556310.0443581,41
1660236943.91464,1556310.044362,53
1660236943.91464,1556310.0443658,57
1660236943.91464,1556310.0443701,62
1660236943.91464,1556310.0443751,71
1660236943.91464,1556310.0443817,69
1660236943.91464,1556310.0443863,71
1660236943.91464,1556310.044391,83
1660236943.91464,1556310.0443954,88
1660236943.91464,1556310.0443999,95
1660236943.91464,1556310.0444046,102
1660236943.91464,1556310.044409,95
1660236943.91464,1556310.0444134,92
1660236943.91464,1556310.0444178,97
1660236943.91464,1556310.0444224,92
1660236943.91464,1556310.0444278,88
1660236943.91464,1556310.0444319,99
1660236943.91464,1556310.0444372,109
1660236943.91464,1556310.0444409,83
1660236943.91464,1556310.0444453,46
1660236943.91464,1556310.0444516,41
1660236943.91464,1556310.0444576,34
1660236943.91464,1556310.0444631,20
1660236943.91464,1556310.6284219,18
1660236943.91464,1556310.6284395,25
1660236943.91464,1556310.6284479,27
1660236943.91464,1556310.6284523,34
1660236943.91464,1556310.6284579,51
1660236943.91464,1556310.6284626,51
1660236943.91464,1556310.6284677,32
1660236943.91464,1556310.6284715,32
1660236943.91464,1556310.628476,34
1660236943.91464,1556310.6284812,27
1660236943.91464,1556310.628488,30
1660236943.91464,1556310.6284936,25
1660236943.9262,1556310.6284971,23
1660236943.9262,1556310.6285005,37
1660236943.9262,1556310.628504,32
1660236943.9262,1556310.6285075,11
1660236943.9262,1556310.628511,120
1660236943.9262,1556310.6285146,449
1660236943.9262,1556310.6285203,839
1660236943.9262,1556310.6285239,930
1660236943.9262,1556310.6285286,473
1660236943.9262,1556310.6285328,-180
1660236943.9262,1556310.6285386,-327
1660236943.9262,1556310.6285422,-76
1660236943.9262,1556310.6285455,6
1660236943.9262,1556310.6285487,-37
1660236943.9262,1556310.628553,-6
1660236943.9262,1556310.6285585,13
1660236943.9262,1556310.6285624,2
1660236943.9262,1556310.6285678,9
1660236943.9262,1556310.6285716,23
1660236943.9262,1556310.628577,27
1660236943.9262,1556310.6285809,37
1660236943.9262,1556310.6285865,48
1660236943.9262,1556310.6285907,60
1660236943.9262,1556310.6285966,76
1660236944.54427,1556310.6286002,95
1660236944.54427,1556310.6286034,113
1660236944.54427,1556310.6286065,122
1660236944.54427,1556310.6286098,141
1660236944.54427,1556310.6286132,176
1660236944.54427,1556310.6286164,197
1660236944.54427,1556310.6286196,204
1660236944.54427,1556310.6286227,213
1660236944.54427,1556310.628626,211
1660236944.54427,1556310.6286295,211
1660236944.54427,1556310.628633,213
1660236944.54427,1556310.6286362,185
1660236944.54427,1556310.6286399,139
1660236944.54427,1556310.6286454,109
1660236944.54427,1556310.6286489,81
1660236944.54427,1556310.6286538,62
1660236944.54427,1556310.6286593,48
1660236944.54427,1556310.6286635,30
1660236944.54427,1556310.6286667,20
1660236944.54427,1556310.6286713,13
1660236944.54427,1556310.6286807,11
1660236944.54427,1556310.6286871,16
1660236944.54427,1556310.6286894,18
1660236944.54427,1556310.6286914,27
1660236944.54427,1556310.6286935,23
1660236944.54427,1556310.6286956,11
1660236944.54427,1556310.6286977,13
1660236944.54427,1556310.6286997,25
1660236944.54427,1556310.6287018,41
1660236944.54427,1556310.6287038,44
1660236944.54427,1556310.6287058,41
1660236944.54427,1556310.6287079,51
1660236944.54427,1556310.6287099,62
1660236944.54427,1556310.6287119,67
1660236944.54427,1556310.6287139,64
1660236944.54427,1556310.628716,74
1660236944.54427,1556310.6287181,85
1660236944.54427,1556311.2603667,74
1660236944.54427,1556311.2603851,62
1660236944.54427,1556311.2603956,71
1660236944.54427,1556311.2604012,76
1660236944.54427,1556311.2604088,69
1660236944.54427,1556311.2604168,74
1660236944.54427,1556311.2604261,78
1660236944.54427,1556311.2604324,53
1660236944.54427,1556311.2604399,18
1660236944.54427,1556311.2604481,16
1660236944.54427,1556311.2604541,32
1660236944.54427,1556311.2604619,23
1660236944.54427,1556311.2604725,9
1660236944.55645,1556311.260475,18
1660236944.55645,1556311.2604773,27
1660236944.55645,1556311.2604793,20
1660236944.55645,1556311.2604814,13
1660236944.55645,1556311.2604835,13
1660236944.55645,1556311.2604855,20
1660236944.55645,1556311.2604875,16
1660236944.55645,1556311.2604896,2
1660236944.55645,1556311.2604973,-2
1660236944.55645,1556311.2605081,13
1660236944.55645,1556311.2605115,25
1660236944.55645,1556311.2605154,11
1660236944.55645,1556311.2605175,23
1660236944.55645,1556311.2605196,199
1660236944.55645,1556311.2605254,575
1660236944.55645,1556311.2605363,890
1660236944.55645,1556311.2605415,776
1660236944.55645,1556311.2605437,169
1660236944.55645,1556311.2605459,-357
1660236944.55645,1556311.2605479,-292
1660236944.55645,1556311.2605532,-16
1660236944.55645,1556311.2605635,16
1660236944.55645,1556311.2605692,-25
1660236944.55645,1556311.2605749,9
1660236944.98754,1556311.260582,27
1660236944.98754,1556311.2605888,23
1660236944.98754,1556311.2605952,34
1660236944.98754,1556311.2606022,48
1660236944.98754,1556311.260609,51
1660236944.98754,1556311.2606159,64
1660236944.98754,1556311.2606211,85
1660236944.98754,1556311.2606296,99
1660236944.98754,1556311.2606373,113
1660236944.98754,1556311.2606439,125
1660236944.98754,1556311.2606473,134
1660236944.98754,1556311.2606605,160
1660236944.98754,1556311.2606702,194
1660236944.98754,1556311.2606779,215
1660236944.98754,1556311.2606858,222
1660236944.98754,1556311.2606931,229
1660236944.98754,1556311.2607012,229
1660236944.98754,1556311.2607125,213
1660236944.98754,1556311.2607259,194
1660236944.98754,1556311.2607404,180
1660236944.98754,1556311.2607534,157
1660236944.98754,1556311.2607616,118
1660236944.98754,1556311.2607642,76
1660236944.98754,1556311.2607663,53
1660236944.98754,1556311.2607683,37
1660236944.98754,1556311.2607704,18
1660236944.98754,1556311.2607726,13
1660236944.98754,1556311.2607746,18
1660236944.98754,1556311.2607766,11
1660236944.98754,1556311.2607787,6
1660236944.98754,1556311.2607807,16
1660236944.98754,1556311.2607829,30
1660236944.98754,1556311.2607849,30
1660236944.98754,1556311.2607869,30
1660236944.98754,1556311.2607889,41
1660236944.98754,1556311.260791,48
1660236944.98754,1556311.6997402,51
1660236944.98754,1556311.6997608,55
1660236944.98754,1556311.6997716,60
1660236944.98754,1556311.6997796,76
1660236944.98754,1556311.6997875,88
1660236944.98754,1556311.6997966,78
1660236944.98754,1556311.6998043,76
1660236944.98754,1556311.6998083,85
1660236944.98754,1556311.6998112,92
1660236944.98754,1556311.6998141,95
1660236944.98754,1556311.699817,92
1660236944.98754,1556311.6998198,83
1660236944.98754,1556311.699823,67
1660236944.98754,1556311.6998327,64
1660236944.99851,1556311.6998416,78
1660236944.99851,1556311.6998459,83
1660236944.99851,1556311.6998481,69
1660236944.99851,1556311.6998538,60
1660236944.99851,1556311.6998641,55
1660236944.99851,1556311.6998753,53
1660236944.99851,1556311.6998864,46
1660236944.99851,1556311.6998964,39
1660236944.99851,1556311.699904,32
1660236944.99851,1556311.699912,20
1660236944.99851,1556311.6999189,11
1660236944.99851,1556311.6999271,13
1660236944.99851,1556311.6999316,13
1660236944.99851,1556311.6999351,11
1660236944.99851,1556311.6999385,11
1660236944.99851,1556311.6999421,0
1660236944.99851,1556311.6999457,-23
1660236944.99851,1556311.6999491,-30
1660236944.99851,1556311.6999524,-16
1660236944.99851,1556311.6999558,-6
1660236944.99851,1556311.6999592,-6
1660236944.99851,1556311.6999628,-25
1660236944.99851,1556311.6999665,-16
1660236944.99851,1556311.6999701,185
1660236945.5248,1556311.699974,598
1660236945.5248,1556311.6999778,923
1660236945.5248,1556311.6999837,793
1660236945.5248,1556311.6999874,169
1660236945.5248,1556311.6999911,-343
1660236945.5248,1556311.6999961,-245
1660236945.5248,1556311.7000002,18
1660236945.5248,1556311.7000033,4
1660236945.5248,1556311.7000065,-57
1660236945.5248,1556311.7000098,-18
1660236945.5248,1556311.7000141,-6
1660236945.5248,1556311.7000188,-18
1660236945.5248,1556311.7000224,0
1660236945.5248,1556311.7000313,20
1660236945.5248,1556311.70004,25
1660236945.5248,1556311.7000425,37
1660236945.5248,1556311.7000493,51
1660236945.5248,1556311.7000602,62
1660236945.5248,1556311.7000708,76
1660236945.5248,1556311.7000767,95
1660236945.5248,1556311.700079,113
1660236945.5248,1556311.7000811,129
1660236945.5248,1556311.7000832,150
1660236945.5248,1556311.7000852,164
1660236945.5248,1556311.7000907,176
1660236945.5248,1556311.7001019,190
1660236945.5248,1556311.7001123,199
1660236945.5248,1556311.7001235,199
1660236945.5248,1556311.7001376,192
1660236945.5248,1556311.7001522,178
1660236945.5248,1556311.700165,155
1660236945.5248,1556311.7001766,125
1660236945.5248,1556311.7001855,95
1660236945.5248,1556311.7001929,62
1660236945.5248,1556311.7002021,39
1660236945.5248,1556312.2360823,30
1660236945.5248,1556312.2361025,23
1660236945.5248,1556312.2361596,13
1660236945.5248,1556312.2361675,11
1660236945.5248,1556312.2361731,13
1660236945.5248,1556312.2361764,13
1660236945.5248,1556312.2361796,16
1660236945.5248,1556312.2361827,11
1660236945.5248,1556312.2361858,2
1660236945.5248,1556312.236189,13
1660236945.5248,1556312.2361921,32
1660236945.5248,1556312.2361951,37
1660236945.5248,1556312.2361983,39
1660236945.5248,1556312.2362015,34
1660236945.5248,1556312.2362047,13
1660236945.53776,1556312.2362085,6
1660236945.53776,1556312.2362139,18
1660236945.53776,1556312.2362202,25
1660236945.53776,1556312.2362266,32
1660236945.53776,1556312.2362329,44
1660236945.53776,1556312.2362391,51
1660236945.53776,1556312.2362475,48
1660236945.53776,1556312.2362568,51
1660236945.53776,1556312.2362619,55
1660236945.53776,1556312.2362653,53
1660236945.53776,1556312.2362692,57
1660236945.53776,1556312.2362729,60
1660236945.53776,1556312.2362763,57
1660236945.53776,1556312.2362796,60
1660236945.53776,1556312.2362826,60
1660236945.53776,1556312.2362857,48
1660236945.53776,1556312.2362889,44
1660236945.53776,1556312.2362923,46
1660236945.53776,1556312.2362967,46
1660236945.53776,1556312.2363011,51
1660236945.53776,1556312.2363046,53
1660236945.53776,1556312.2363095,53
1660236945.53776,1556312.2363142,46
1660236945.53776,1556312.2363171,34
1660236946.10399,1556312.23632,30
1660236946.10399,1556312.2363231,20
1660236946.10399,1556312.2363262,2
1660236946.10399,1556312.2363294,6
1660236946.10399,1556312.2363324,25
1660236946.10399,1556312.2363354,44
1660236946.10399,1556312.2363388,48
1660236946.10399,1556312.236342,16
1660236946.10399,1556312.2363449,48
1660236946.10399,1556312.2363479,310
1660236946.10399,1556312.2363511,737
1660236946.10399,1556312.2363542,1001
1660236946.10399,1556312.2363575,742
1660236946.10399,1556312.2363633,37
1660236946.10399,1556312.236368,-343
1660236946.10399,1556312.2363716,-115
1660236946.10399,1556312.2363751,76
1660236946.10399,1556312.2363786,11
1660236946.10399,1556312.2363829,2
1660236946.10399,1556312.2363869,48
1660236946.10399,1556312.2363906,37
1660236946.10399,1556312.2363941,37
1660236946.10399,1556312.2363985,67
1660236946.10399,1556312.2364023,64
1660236946.10399,1556312.2364057,55
1660236946.10399,1556312.236409,78
1660236946.10399,1556312.2364124,90
1660236946.10399,1556312.2364161,76
1660236946.10399,1556312.2364196,78
1660236946.10399,1556312.236423,109
1660236946.10399,1556312.2364269,139
1660236946.10399,1556312.2364312,148
1660236946.10399,1556312.2364355,153
1660236946.10399,1556312.2364396,171
1660236946.10399,1556312.8207537,199
1660236946.10399,1556312.8207722,211
1660236946.10399,1556312.8207774,204
1660236946.10399,1556312.8207815,199
1660236946.10399,1556312.8207884,178
1660236946.10399,1556312.8207928,141
1660236946.10399,1556312.8207964,111
1660236946.10399,1556312.8207999,85
1660236946.10399,1556312.8208035,51
1660236946.10399,1556312.8208065,25
1660236946.10399,1556312.8208097,6
1660236946.10399,1556312.8208129,-32
1660236946.10399,1556312.8208164,-55
1660236946.10399,1556312.8208196,-44
1660236946.10399,1556312.820824,-41
1660236946.10399,1556312.8208281,-44
1660236946.11496,1556312.8208314,-32
1660236946.11496,1556312.8208348,-30
1660236946.11496,1556312.8208385,-32
1660236946.11496,1556312.8208446,-13
1660236946.11496,1556312.8208482,4
1660236946.11496,1556312.8208522,9
1660236946.11496,1556312.8208555,9
1660236946.11496,1556312.8208588,16
1660236946.11496,1556312.8208619,23
1660236946.11496,1556312.8208649,18
1660236946.11496,1556312.8208677,16
1660236946.11496,1556312.8208708,27
1660236946.11496,1556312.8208739,39
1660236946.11496,1556312.8208773,44
1660236946.11496,1556312.8208807,41
1660236946.11496,1556312.8208838,46
1660236946.11496,1556312.8208868,51
1660236946.11496,1556312.8208898,39
1660236946.11496,1556312.8208932,18
1660236946.11496,1556312.8208971,16
1660236946.11496,1556312.8209004,30
1660236946.11496,1556312.8209035,30
1660236946.11496,1556312.820907,32
1660236946.11496,1556312.8209102,44
1660236946.69237,1556312.8209139,39
1660236946.69237,1556312.820917,23
1660236946.69237,1556312.8209202,18
1660236946.69237,1556312.8209233,13
1660236946.69237,1556312.8209266,23
1660236946.69237,1556312.8209299,44
1660236946.69237,1556312.820933,39
1660236946.69237,1556312.8209366,34
1660236946.69237,1556312.8209406,39
1660236946.69237,1556312.820944,30
1660236946.69237,1556312.8209479,25
1660236946.69237,1556312.8209526,37
1660236946.69237,1556312.8209567,39
1660236946.69237,1556312.8209599,34
1660236946.69237,1556312.8209629,41
1660236946.69237,1556312.8209664,39
1660236946.69237,1556312.8209693,27
1660236946.69237,1556312.8209747,30
1660236946.69237,1556312.8209792,180
1660236946.69237,1556312.8209843,572
1660236946.69237,1556312.8209906,960
1660236946.69237,1556312.8209944,911
1660236946.69237,1556312.8209979,333
1660236946.69237,1556312.8210012,-234
1660236946.69237,1556312.8210048,-257
1660236946.69237,1556312.8210082,-23
1660236946.69237,1556312.8210112,30
1660236946.69237,1556312.8210144,2
1660236946.69237,1556312.8210192,27
1660236946.69237,1556312.8210244,41
1660236946.69237,1556312.8210282,41
1660236946.69237,1556312.8210313,57
1660236946.69237,1556312.8210345,71
1660236946.69237,1556313.4062207,71
1660236946.69237,1556313.4062469,74
1660236946.69237,1556313.4062566,90
1660236946.69237,1556313.4062641,109
1660236946.69237,1556313.4062711,115
1660236946.69237,1556313.4062781,122
1660236946.69237,1556313.4062843,141

1660236946.69237,1556313.4062902,155
1660236946.69237,1556313.4062962,160
1660236946.69237,1556313.4063021,171
1660236946.69237,1556313.4063075,197
1660236946.69237,1556313.406313,215
1660236946.69237,1556313.4063217,218
1660236946.69237,1556313.4063288,211
1660236946.69237,1556313.4063384,185
1660236946.69237,1556313.4063467,164
1660236946.69237,1556313.4063552,141
1660236946.70534,1556313.4063612,92
1660236946.70534,1556313.4063671,48
1660236946.70534,1556313.4063754,25
1660236946.70534,1556313.4063819,-2
1660236946.70534,1556313.4063904,-27
1660236946.70534,1556313.4063963,-32
1660236946.70534,1556313.4064041,-27
1660236946.70534,1556313.4064102,-25
1660236946.70534,1556313.406418,-25
1660236946.70534,1556313.4064239,-34
1660236946.70534,1556313.4064298,-41
1660236946.70534,1556313.4064376,-34
1660236946.70534,1556313.4064454,-30
1660236946.70534,1556313.4064517,-23
1660236946.70534,1556313.4064578,-6
1660236946.70534,1556313.4064654,6
1660236946.70534,1556313.4064733,4
1660236946.70534,1556313.4064793,13
1660236946.70534,1556313.4064851,30
1660236946.70534,1556313.4064905,39
1660236946.70534,1556313.4064944,48
1660236946.70534,1556313.4064974,62
1660236946.70534,1556313.4065006,57
1660236946.70534,1556313.4065075,53
1660236947.22411,1556313.4065131,67
1660236947.22411,1556313.4065187,76
1660236947.22411,1556313.4065242,71
1660236947.22411,1556313.4065294,71
1660236947.22411,1556313.4065348,69
1660236947.22411,1556313.4065402,60
1660236947.22411,1556313.4065453,53
1660236947.22411,1556313.4065506,53
1660236947.22411,1556313.4065556,53
1660236947.22411,1556313.4065612,51
1660236947.22411,1556313.4065663,39
1660236947.22411,1556313.4065714,20
1660236947.22411,1556313.4065769,20
1660236947.22411,1556313.4065834,30
1660236947.22411,1556313.4065891,37
1660236947.22411,1556313.4065944,46
1660236947.22411,1556313.4066005,48
1660236947.22411,1556313.406606,46
1660236947.22411,1556313.4066119,37
1660236947.22411,1556313.4066177,27
1660236947.22411,1556313.4066236,27
1660236947.22411,1556313.4066295,32
1660236947.22411,1556313.4066352,32
1660236947.22411,1556313.4066411,37
1660236947.22411,1556313.4066468,44
1660236947.22411,1556313.406653,44
1660236947.22411,1556313.4066587,32
1660236947.22411,1556313.4066753,27
1660236947.22411,1556313.4066819,141
1660236947.22411,1556313.4067144,489
1660236947.22411,1556313.4067236,892
1660236947.22411,1556313.4067291,964
1660236947.22411,1556313.9422263,491
1660236947.22411,1556313.9422391,-160
1660236947.22411,1556313.9422437,-299
1660236947.22411,1556313.9422537,-16
1660236947.22411,1556313.942261,83
1660236947.22411,1556313.9422653,6
1660236947.22411,1556313.9422759,27
1660236947.22411,1556313.9422816,64
1660236947.22411,1556313.9422875,37
1660236947.22411,1556313.9422977,37
1660236947.22411,1556313.942309,51
1660236947.22411,1556313.9423209,34
1660236947.22411,1556313.9423323,32
1660236947.22411,1556313.942341,57
1660236947.22411,1556313.9423544,74
1660236947.22411,1556313.9423673,85
1660236947.22411,1556313.9423817,97
1660236947.22411,1556313.9423899,97
1660236947.23508,1556313.9423924,92
1660236947.23508,1556313.9423948,99
1660236947.23508,1556313.9424134,115
1660236947.23508,1556313.9424245,143
1660236947.23508,1556313.9424285,171
1660236947.23508,1556313.942432,180
1660236947.23508,1556313.9424371,183
1660236947.23508,1556313.9424432,183
1660236947.23508,1556313.942447,173
1660236947.23508,1556313.9424506,153
1660236947.23508,1556313.9424544,122
1660236947.23508,1556313.9424583,81
1660236947.23508,1556313.9424622,48
1660236947.23508,1556313.942466,32
1660236947.23508,1556313.9424698,13
1660236947.23508,1556313.9424738,0
1660236947.23508,1556313.9424778,0
1660236947.23508,1556313.9424817,6
1660236947.23508,1556313.9424857,2
1660236947.23508,1556313.9424896,-2
1660236947.23508,1556313.9424933,9
1660236947.23508,1556313.9424972,18
1660236947.23508,1556313.9425015,13
1660236947.23508,1556313.9425056,13
1660236947.80936,1556313.9425113,32
1660236947.80936,1556313.9425152,46
1660236947.80936,1556313.942519,41
1660236947.80936,1556313.9425229,34
1660236947.80936,1556313.9425271,39
1660236947.80936,1556313.9425311,51
1660236947.80936,1556313.9425356,57
1660236947.80936,1556313.9425395,62
1660236947.80936,1556313.9425441,64
1660236947.80936,1556313.9425475,69
1660236947.80936,1556313.9425506,76
1660236947.80936,1556313.9425537,78
1660236947.80936,1556313.942557,76
1660236947.80936,1556313.9425603,71
1660236947.80936,1556313.9425636,67
1660236947.80936,1556313.9425671,67
1660236947.80936,1556313.9425728,83
1660236947.80936,1556313.9425788,99
1660236947.80936,1556313.9425827,99
1660236947.80936,1556313.9425866,83
1660236947.80936,1556313.9425906,71
1660236947.80936,1556313.9425944,74
1660236947.80936,1556313.9425982,74
1660236947.80936,1556313.9426026,64
1660236947.80936,1556313.9426064,57
1660236947.80936,1556313.9426104,60
1660236947.80936,1556313.9426143,60
1660236947.80936,1556313.9426196,62
1660236947.80936,1556313.9426252,69
1660236947.80936,1556313.9426295,67
1660236947.80936,1556313.9426334,51
1660236947.80936,1556314.5269395,34
1660236947.80936,1556314.5269582,30
1660236947.80936,1556314.5269627,32
1660236947.80936,1556314.5269665,41
1660236947.80936,1556314.5269701,51
1660236947.80936,1556314.5269737,60
1660236947.80936,1556314.5269774,55
1660236947.80936,1556314.5269812,2
1660236947.80936,1556314.526985,-30
1660236947.80936,1556314.5269884,153
1660236947.80936,1556314.5269918,575
1660236947.80936,1556314.5269953,957
1660236947.80936,1556314.5269987,918
1660236947.80936,1556314.5270021,301
1660236947.80936,1556314.5270056,-333
1660236947.80936,1556314.5270094,-320
1660236947.80936,1556314.5270131,-25
1660236947.80936,1556314.5270169,-20
1660236947.80936,1556314.5270206,-85
1660236947.82085,1556314.5270243,-32
1660236947.82085,1556314.5270277,-16
1660236947.82085,1556314.5270322,-37
1660236947.82085,1556314.5270362,-9
1660236947.82085,1556314.5270422,13
1660236947.82085,1556314.527046,11
1660236947.82085,1556314.52705,25
1660236947.82085,1556314.527054,39
1660236947.82085,1556314.5270597,34
1660236947.82085,1556314.5270637,53
1660236947.82085,1556314.5270675,88
1660236947.82085,1556314.5270733,97
1660236947.82085,1556314.5270772,102
1660236947.82085,1556314.527081,125
1660236947.82085,1556314.5270868,148
1660236947.82085,1556314.5270922,171
1660236947.82085,1556314.5270968,192
1660236947.82085,1556314.5271008,204
1660236947.82085,1556314.5271049,204
1660236947.82085,1556314.5271106,194
1660236947.82085,1556314.5271144,178
1660236947.82085,1556314.5271183,162
1660236947.82085,1556314.5271221,136
1660236947.82085,1556314.527126,95
1660236948.34646,1556314.5271313,60
1660236948.34646,1556314.5271349,44
1660236948.34646,1556314.5271388,30
1660236948.34646,1556314.5271427,2
1660236948.34646,1556314.5271466,-2
1660236948.34646,1556314.5271503,11
1660236948.34646,1556314.5271541,6
1660236948.34646,1556314.527158,-2
1660236948.34646,1556314.5271618,13
1660236948.34646,1556314.5271655,25
1660236948.34646,1556314.5271692,23
1660236948.34646,1556314.5271727,30
1660236948.34646,1556314.5271761,39
1660236948.34646,1556314.5271795,46
1660236948.34646,1556314.5271829,51
1660236948.34646,1556314.5271863,41
1660236948.34646,1556314.52719,44
1660236948.34646,1556314.5271956,78
1660236948.34646,1556314.527199,88
1660236948.34646,1556314.5272022,69
1660236948.34646,1556314.5272052,64
1660236948.34646,1556314.5272086,62
1660236948.34646,1556314.5272118,69
1660236948.34646,1556314.5272154,85
1660236948.34646,1556314.5272192,76
1660236948.34646,1556314.5272227,57
1660236948.34646,1556314.5272265,62
1660236948.34646,1556314.52723,74
1660236948.34646,1556314.5272331,67
1660236948.34646,1556314.5272365,62
1660236948.34646,1556315.0636111,71
1660236948.34646,1556315.0636282,67
1660236948.34646,1556315.0636328,57
1660236948.34646,1556315.0636369,55
1660236948.34646,1556315.0636408,44
1660236948.34646,1556315.0636445,25
1660236948.34646,1556315.0636482,13
1660236948.34646,1556315.0636519,16
1660236948.34646,1556315.0636556,32
1660236948.34646,1556315.0636593,44
1660236948.34646,1556315.063663,32
1660236948.34646,1556315.0636667,16
1660236948.34646,1556315.0636704,13
1660236948.34646,1556315.063674,11
1660236948.34646,1556315.0636806,9
1660236948.34646,1556315.0636883,18
1660236948.34646,1556315.0636965,18
1660236948.34646,1556315.0637007,0
1660236948.34646,1556315.0637047,-2
1660236948.34646,1556315.0637084,16
1660236948.35743,1556315.0637121,11
1660236948.35743,1556315.0637157,6
1660236948.35743,1556315.0637193,173
1660236948.35743,1556315.0637229,572
1660236948.35743,1556315.0637279,925
1660236948.35743,1556315.0637315,858
1660236948.35743,1556315.0637351,285
1660236948.35743,1556315.0637392,-276
1660236948.35743,1556315.0637437,-266
1660236948.35743,1556315.0637583,-2
1660236948.35743,1556315.0637637,32
1660236948.35743,1556315.0637671,-16
1660236948.35743,1556315.0637713,25
1660236948.35743,1556315.0637744,55
1660236948.35743,1556315.0637789,48
1660236948.35743,1556315.0637823,67
1660236948.35743,1556315.0637857,95
1660236948.35743,1556315.063789,97
1660236948.35743,1556315.0637922,97
1660236948.35743,1556315.0637955,115
1660236948.35743,1556315.0637988,139
1660236948.35743,1556315.0638021,148
1660236948.35743,1556315.0638054,153
1660236948.35743,1556315.0638086,169
1660236948.93572,1556315.0638119,197
1660236948.93572,1556315.0638152,218
1660236948.93572,1556315.0638185,238
1660236948.93572,1556315.0638219,262
1660236948.93572,1556315.0638253,273
1660236948.93572,1556315.0638287,269
1660236948.93572,1556315.063832,276
1660236948.93572,1556315.0638353,280
1660236948.93572,1556315.0638386,262
1660236948.93572,1556315.0638418,234
1660236948.93572,1556315.0638451,187
1660236948.93572,1556315.0638484,139
1660236948.93572,1556315.0638517,111
1660236948.93572,1556315.063855,95
1660236948.93572,1556315.0638583,71
1660236948.93572,1556315.0638616,55
1660236948.93572,1556315.063865,57
1660236948.93572,1556315.0638683,55
1660236948.93572,1556315.0638716,46
1660236948.93572,1556315.0638749,55
1660236948.93572,1556315.0638782,69
1660236948.93572,1556315.0638824,67
1660236948.93572,1556315.0638857,64
1660236948.93572,1556315.0638891,74
1660236948.93572,1556315.0638924,81
1660236948.93572,1556315.0638961,81
1660236948.93572,1556315.0639,78
1660236948.93572,1556315.0639033,81
1660236948.93572,1556315.0639066,81
1660236948.93572,1556315.6491187,78
1660236948.93572,1556315.6491693,83
1660236948.93572,1556315.6491788,90
1660236948.93572,1556315.6491888,99
1660236948.93572,1556315.649195,111
1660236948.93572,1556315.6492014,115
1660236948.93572,1556315.6492084,109
1660236948.93572,1556315.6492251,88
1660236948.93572,1556315.6492382,62
1660236948.93572,1556315.6492449,62
1660236948.93572,1556315.6492482,67
1660236948.93572,1556315.6492514,62
1660236948.93572,1556315.6492545,57
1660236948.93572,1556315.6492577,46
1660236948.93572,1556315.6492623,27
1660236948.93572,1556315.6492671,27
1660236948.93572,1556315.6492702,27
1660236948.93572,1556315.6492734,16
1660236948.93572,1556315.6492769,16
1660236948.93572,1556315.6492802,18
1660236948.93572,1556315.6492833,9
1660236948.94569,1556315.6492873,6
1660236948.94569,1556315.6492906,11
1660236948.94569,1556315.6492938,11
1660236948.94569,1556315.6492971,23
1660236948.94569,1556315.6493004,44
1660236948.94569,1556315.6493037,48
1660236948.94569,1556315.649307,34
1660236948.94569,1556315.6493105,27
1660236948.94569,1556315.6493147,30
1660236948.94569,1556315.6493201,37
1660236948.94569,1556315.6493247,44
1660236948.94569,1556315.6493295,41
1660236948.94569,1556315.6493358,46
1660236948.94569,1556315.6493424,48
1660236948.94569,1556315.6493488,25
1660236948.94569,1556315.6493576,51
1660236948.94569,1556315.6493645,296
1660236948.94569,1556315.6493718,735
1660236948.94569,1556315.6493833,1043
1660236948.94569,1556315.6493946,862
1660236948.94569,1556315.6494032,194
