Time,TimeLsl,Value
1660284511.76841,608.0789105,90
1660284511.76841,608.0789311,64
1660284511.76841,608.0789393,50
1660284511.76841,608.0789455,50
1660284511.76841,608.0789528,33
1660284511.76841,608.0789577,4
1660284511.76841,608.0789631,2
1660284511.76841,608.0789666,26
1660284511.76841,608.0789727,35
1660284511.76841,608.0789762,26
1660284511.76841,608.0789814,76
1660284511.76841,608.0789849,298
1660284511.76841,608.0789883,666
1660284511.76841,608.0789936,769
1660284511.76841,608.0789969,303
1660284511.76841,608.0790023,-164
1660284511.76841,608.0790058,-117
1660284511.76841,608.0790127,11
1660284511.76841,608.0790187,-57
1660284511.76841,608.0790229,-47
1660284511.76841,608.0790286,14
1660284511.76841,608.0790337,-14
1660284511.76841,608.0790396,-19
1660284511.76841,608.0790438,26
1660284511.76841,608.079051,26
1660284511.76841,608.0790573,21
1660284511.76841,608.0790629,45
1660284511.76841,608.0790674,54
1660284511.76841,608.0790772,59
1660284511.76841,608.0790808,76
1660284511.76841,608.0790901,85
1660284511.76841,608.0790956,85
1660284511.76841,608.0791081,93
1660284511.76841,608.0791176,97
1660284511.76841,608.0791214,95
1660284511.76841,608.0791267,114
1660284511.76841,608.0791306,136
1660284511.76841,608.0791359,133
1660284511.76841,608.0791445,133
1660284511.76841,608.0791586,148
1660284511.76841,608.0791648,152
1660284511.76841,608.0791734,148
1660284511.76841,608.0791812,131
1660284511.76841,608.079185,100
1660284511.76841,608.0791915,85
1660284511.76841,608.0791984,78
1660284511.76841,608.0792048,59
1660284511.76841,608.0792127,50
1660284511.76841,608.0792194,57
1660284511.76841,608.0792255,59
1660284511.97478,608.0792345,50
1660284511.97478,608.0792411,47
1660284511.97478,608.0792458,54
1660284511.97478,608.0792537,59
1660284511.97478,608.0792597,66
1660284511.97478,608.0792636,71
1660284511.97478,608.0792695,64
1660284511.97478,608.0792782,59
1660284511.97478,608.0792855,76
1660284511.97478,608.0792928,90
1660284511.97478,608.0793002,97
1660284511.97478,608.0793042,97
1660284511.97478,608.0793109,88
1660284511.97478,608.0793148,93
1660284511.97478,608.0793202,114
1660284511.97478,608.0793238,117
1660284511.97478,608.0793298,83
1660284511.97478,608.0793334,54
1660284511.97478,608.0793407,59
1660284511.97478,608.0793444,69
1660284511.97478,608.0793478,71
1660284511.97478,608.0793546,78
1660284511.97478,608.0794624,90
1660284511.97478,608.6024685,102
1660284511.97478,608.6024853,112
1660284511.97478,608.6024928,114
1660284511.97478,608.6024974,119
1660284511.97478,608.6025016,126
1660284511.97478,608.6025057,126
1660284511.97478,608.6025097,121
1660284511.97478,608.6025137,114
1660284511.97478,608.6025182,90
1660284511.97478,608.6025221,66
1660284511.97478,608.6025262,78
1660284511.97478,608.6025303,95
1660284511.97478,608.6025348,102
1660284511.97478,608.6025392,145
1660284511.97478,608.6025437,334
1660284511.97478,608.6025481,704
1660284511.97478,608.6025523,874
1660284511.97478,608.6025565,460
1660284511.97478,608.6025651,-47
1660284511.97478,608.602572,-42
1660284511.97478,608.6025835,97
1660284511.97478,608.6025963,31
1660284511.97478,608.6026066,11
1660284511.97478,608.6026184,78
1660284511.97478,608.6026272,59
1660284511.97478,608.6026337,28
1660284511.97478,608.6026421,45
1660284512.0291,608.6026473,33
1660284512.0291,608.6026526,11
1660284512.0291,608.6026634,35
1660284512.0291,608.6026776,62
1660284512.0291,608.6026904,62
1660284512.0291,608.6027029,66
1660284512.0291,608.6027129,76
1660284512.0291,608.6027202,78
1660284512.0291,608.6027265,88
1660284512.0291,608.602739,114
1660284512.0291,608.6027518,131
1660284512.0291,608.6027644,128
1660284512.0291,608.6027812,128
1660284512.0291,608.6027938,138
1660284512.0291,608.6028068,150
1660284512.0291,608.6028199,162
1660284512.0291,608.6028339,160
1660284512.0291,608.6028441,155
1660284512.0291,608.602851,143
1660284512.0291,608.6028574,119
1660284512.0291,608.6028621,105
1660284512.0291,608.6028707,102
1660284512.0291,608.6028775,83
1660284512.0291,608.6028891,57
1660284512.0291,608.6029029,54
1660284512.0291,608.6029148,66
1660284512.0291,608.6029276,62
1660284512.0291,608.6029405,52
1660284512.0291,608.6029506,54
1660284512.0291,608.6029573,45
1660284512.0291,608.6029634,33
1660284512.0291,608.60297,31
1660284512.0291,608.6029748,28
1660284512.0291,608.6029811,26
1660284512.0291,608.602986,33
1660284512.0291,608.602997,40
1660284512.0291,608.6030098,52
1660284512.0291,608.6030237,64
1660284512.0291,608.6030365,69
1660284512.0291,608.6030498,71
1660284512.0291,608.6030631,81
1660284512.0291,608.6030751,78
1660284512.0291,608.6030863,76
1660284512.0291,608.6030977,88
1660284512.0291,608.6031136,95
1660284512.0291,608.6031265,81
1660284512.0291,609.1377136,74
1660284512.0291,609.1377316,93
1660284512.0291,609.1377411,107
1660284512.0291,609.1377477,112
1660284512.05799,609.137752,121
1660284512.05799,609.1377588,133
1660284512.05799,609.1377648,140
1660284512.05799,609.1377684,136
1660284512.05799,609.1377719,114
1660284512.05799,609.1377749,105
1660284512.05799,609.1377782,124
1660284512.05799,609.1377815,117
1660284512.05799,609.1377861,81
1660284512.05799,609.1377907,74
1660284512.05799,609.1377948,90
1660284512.05799,609.1378014,100
1660284512.05799,609.1378056,164
1660284512.05799,609.1378096,394
1660284512.05799,609.137815,733
1660284512.05799,609.1378196,769
1660284512.05799,609.1378267,267
1660284512.05799,609.137834,-162
1660284512.05799,609.137838,-71
1660284512.05799,609.1378475,64
1660284512.05799,609.1378556,-19
1660284512.05799,609.1378607,-35
1660284512.05799,609.1378673,23
1660284512.05799,609.1378755,19
1660284512.05799,609.1378888,9
1660284512.05799,609.1379007,47
1660284512.05799,609.1379101,62
1660284512.05799,609.1379177,47
1660284512.05799,609.1379265,62
1660284512.05799,609.1379328,83
1660284512.05799,609.1379407,85
1660284512.05799,609.1379488,88
1660284512.05799,609.1379596,105
1660284512.05799,609.1379704,117
1660284512.05799,609.1379791,121
1660284512.05799,609.1379912,131
1660284512.05799,609.1380015,143
1660284512.05799,609.13801,162
1660284512.05799,609.1380224,176
1660284512.05799,609.1380311,176
1660284512.05799,609.1380398,169
1660284512.05799,609.1380506,164
1660284512.05799,609.1380592,157
1660284512.05799,609.1380693,143
1660284512.05799,609.1380796,133
1660284512.05799,609.1380885,121
1660284512.05799,609.1381008,95
1660284512.05799,609.1381098,54
1660284512.05799,609.138119,19
1660284512.05799,609.1381298,7
1660284512.06995,609.1381373,14
1660284512.06995,609.1381488,16
1660284512.06995,609.1381591,14
1660284512.06995,609.1381694,2
1660284512.06995,609.1381801,-14
1660284512.06995,609.1381889,-9
1660284512.06995,609.1381972,7
1660284512.06995,609.1382079,14
1660284512.06995,609.1382476,11
1660284512.06995,609.1382609,11
1660284512.06995,609.1382739,21
1660284512.06995,609.1382868,42
1660284512.06995,609.1382951,62
1660284512.06995,609.1383032,66
1660284512.06995,609.1383138,57
1660284512.06995,609.1383243,54
1660284512.06995,609.13833,69
1660284512.06995,609.1383693,74
1660284512.06995,609.1383827,74
1660284512.06995,609.7233027,81
1660284512.06995,609.7233203,85
1660284512.06995,609.7233312,76
1660284512.28315,609.7233467,76
1660284512.28315,609.7233553,83
1660284512.28315,609.7233627,81
1660284512.28315,609.7233704,83
1660284512.28315,609.7233783,85
1660284512.28315,609.7233879,66
1660284512.28315,609.7234027,38
1660284512.28315,609.7234168,31
1660284512.28315,609.7234301,40
1660284512.28315,609.7234441,47
1660284512.28315,609.7234574,45
1660284512.28315,609.7234707,23
1660284512.28315,609.7234838,4
1660284512.28315,609.7234974,14
1660284512.28315,609.7235107,28
1660284512.28315,609.7235252,105
1660284512.28315,609.7235391,396
1660284512.28315,609.7235524,766
1660284512.28315,609.7235667,690
1660284512.28315,609.7235808,95
1660284512.28315,609.7235938,-236
1660284512.28315,609.7236079,-57
1660284512.28315,609.7236207,47
1660284512.28315,609.723635,-23
1660284512.28315,609.7237668,-7
1660284512.28315,609.7237815,28
1660284512.28315,609.7237896,19
1660284512.28315,609.7238065,26
1660284512.28315,609.7238162,35
1660284512.28315,609.723821,26
1660284512.28315,609.7238257,42
1660284512.28315,609.7238311,71
1660284512.28315,609.7238353,81
1660284512.28315,609.7238393,78
1660284512.28315,609.7238431,78
1660284512.28315,609.7238471,78
1660284512.28315,609.7238508,76
1660284512.28315,609.7238546,81
1660284512.28315,609.7238583,97
1660284512.28315,609.7238623,109
1660284512.28315,609.7238662,109
1660284512.28315,609.7238729,109
1660284512.28315,609.7238769,121
1660284512.28315,609.7238809,124
1660284512.28315,609.7238863,105
1660284512.28315,609.7238938,95
1660284512.28315,609.7238994,95
1660284512.28315,609.7239038,81
1660284512.28315,609.723908,71
1660284512.28315,609.7239126,78
1660284512.34583,609.7239166,62
1660284512.34583,609.7239208,19
1660284512.34583,609.723925,-4
1660284512.34583,609.7239294,2
1660284512.34583,609.7239336,9
1660284512.34583,609.7239378,2
1660284512.34583,609.7239419,-7
1660284512.34583,609.7239464,-14
1660284512.34583,609.7239509,-11
1660284512.34583,609.7239556,0
1660284512.34583,609.7239602,16
1660284512.34583,609.7239647,33
1660284512.34583,609.7239691,33
1660284512.34583,609.7239733,11
1660284512.34583,609.7239772,4
1660284512.34583,609.7239813,23
1660284512.34583,609.7239853,42
1660284512.34583,609.723989,40
1660284512.34583,609.7239929,19
1660284512.34583,609.7239971,14
1660284512.34583,610.3095229,33
1660284512.34583,610.3095426,35
1660284512.34583,610.3095498,26
1660284512.34583,610.3095548,33
1660284512.79319,610.3095588,40
1660284512.79319,610.3095627,33
1660284512.79319,610.3095665,38
1660284512.79319,610.3095702,66
1660284512.79319,610.3095746,90
1660284512.79319,610.3095794,97
1660284512.79319,610.3095843,83
1660284512.79319,610.309589,45
1660284512.79319,610.3095937,2
1660284512.79319,610.3095984,4
1660284512.79319,610.3096031,35
1660284512.79319,610.3096078,40
1660284512.79319,610.3096126,26
1660284512.79319,610.3096172,11
1660284512.79319,610.309622,4
1660284512.79319,610.3096267,23
1660284512.79319,610.3096315,128
1660284512.79319,610.3096363,432
1660284512.79319,610.309641,802
1660284512.79319,610.309648,695
1660284512.79319,610.309653,78
1660284512.79319,610.3096849,-217
1660284512.79319,610.3096951,-19
1660284512.79319,610.3097004,35
1660284512.79319,610.309705,-64
1660284512.79319,610.3097079,-31
1660284512.79319,610.3097109,11
1660284512.79319,610.309714,-9
1660284512.79319,610.3097171,-4
1660284512.79319,610.3097204,19
1660284512.79319,610.3097235,26
1660284512.79319,610.3097263,45
1660284512.79319,610.3097291,40
1660284512.79319,610.3097319,9
1660284512.79319,610.3097353,7
1660284512.79319,610.3097383,45
1660284512.79319,610.3097413,59
1660284512.79319,610.3097445,45
1660284512.79319,610.309748,54
1660284512.79319,610.3097512,76
1660284512.79319,610.309755,83
1660284512.79319,610.3097591,100
1660284512.79319,610.3097627,126
1660284512.79319,610.3097662,140
1660284512.79319,610.3097695,148
1660284512.79319,610.3097732,148
1660284512.79319,610.3097769,131
1660284512.79319,610.3097805,117
1660284512.79319,610.309784,117
1660284512.79319,610.3097872,105
1660284512.81412,610.3097915,85
1660284512.81412,610.3097947,66
1660284512.81412,610.3097978,47
1660284512.81412,610.3098012,42
1660284512.81412,610.3098045,42
1660284512.81412,610.3098079,31
1660284512.81412,610.3098112,21
1660284512.81412,610.3098155,31
1660284512.81412,610.3098212,26
1660284512.81412,610.3098256,14
1660284512.81412,610.3098292,19
1660284512.81412,610.3098335,16
1660284512.81412,610.3098373,16
1660284512.81412,610.3098415,35
1660284512.81412,610.3098458,40
1660284512.81412,610.3098494,26
1660284512.81412,610.3098537,28
1660284512.81412,610.3098573,45
1660284512.81412,610.3098616,59
1660284512.81412,610.8478069,76
1660284512.81412,610.8478278,76
1660284512.81412,610.8478367,62
1660284512.81412,610.8478437,62
1660284512.81412,610.8478504,74
1660284513.41827,610.847857,74
1660284513.41827,610.8478636,69
1660284513.41827,610.8478696,66
1660284513.41827,610.8478759,50
1660284513.41827,610.8478828,31
1660284513.41827,610.8478941,42
1660284513.41827,610.847903,62
1660284513.41827,610.8479089,66
1660284513.41827,610.8479141,64
1660284513.41827,610.8479197,40
1660284513.41827,610.8479288,11
1660284513.41827,610.8479357,19
1660284513.41827,610.8479427,38
1660284513.41827,610.847953,31
1660284513.41827,610.8479593,26
1660284513.41827,610.8479653,33
1660284513.41827,610.8479742,33
1660284513.41827,610.847985,155
1660284513.41827,610.8479916,511
1660284513.41827,610.8479974,847
1660284513.41827,610.8480039,654
1660284513.41827,610.8480135,59
1660284513.41827,610.8480201,-174
1660284513.41827,610.848025,-7
1660284513.41827,610.8480302,7
1660284513.41827,610.8480362,-74
1660284513.41827,610.8480421,-19
1660284513.41827,610.8480482,19
1660284513.41827,610.8480547,-11
1660284513.41827,610.8481073,-4
1660284513.41827,610.848124,19
1660284513.41827,610.848133,14
1660284513.41827,610.8481401,23
1660284513.41827,610.8481467,42
1660284513.41827,610.8481529,42
1660284513.41827,610.84816,45
1660284513.41827,610.848167,66
1660284513.41827,610.848174,85
1660284513.41827,610.848181,88
1660284513.41827,610.8481855,90
1660284513.41827,610.8481914,107
1660284513.41827,610.8481984,126
1660284513.41827,610.8482043,138
1660284513.41827,610.8482114,150
1660284513.41827,610.8482176,164
1660284513.41827,610.848222,176
1660284513.41827,610.8482272,179
1660284513.41827,610.8482331,164
1660284513.41827,610.8482376,128
1660284513.41827,610.8482422,109
1660284513.44119,610.8482467,124
1660284513.44119,610.8482507,117
1660284513.44119,610.8482546,88
1660284513.44119,610.8482608,76
1660284513.44119,610.848265,69
1660284513.44119,610.8482696,59
1660284513.44119,610.8482744,59
1660284513.44119,610.8482826,45
1660284513.44119,610.8482871,28
1660284513.44119,610.8482915,35
1660284513.44119,610.8482959,38
1660284513.44119,610.8483006,31
1660284513.44119,610.8483045,40
1660284513.44119,610.8483083,52
1660284513.44119,610.8483123,54
1660284513.44119,610.848317,52
1660284513.44119,610.8483214,54
1660284513.44119,610.8483263,62
1660284513.44119,611.4945327,69
1660284513.44119,611.4945508,66
1660284513.44119,611.4945601,66
1660284513.44119,611.4945651,74
1660284513.44119,611.4945721,64
1660284513.44119,611.4945781,42
1660284513.89295,611.4945848,35
1660284513.89295,611.4945909,52
1660284513.89295,611.4945949,54
1660284513.89295,611.4945992,35
1660284513.89295,611.4946024,40
1660284513.89295,611.4946056,57
1660284513.89295,611.4946115,57
1660284513.89295,611.4946162,57
1660284513.89295,611.4946215,66
1660284513.89295,611.4946255,76
1660284513.89295,611.4946325,78
1660284513.89295,611.4946416,52
1660284513.89295,611.4946489,11
1660284513.89295,611.4946754,0
1660284513.89295,611.4946845,21
1660284513.89295,611.4946881,31
1660284513.89295,611.4946932,14
1660284513.89295,611.4946967,4
1660284513.89295,611.4946996,26
1660284513.89295,611.4947028,171
1660284513.89295,611.4947062,530
1660284513.89295,611.494709,819
1660284513.89295,611.4947133,566
1660284513.89295,611.4947179,-4
1660284513.89295,611.494722,-167
1660284513.89295,611.4947283,7
1660284513.89295,611.4947326,9
1660284513.89295,611.4947356,-54
1660284513.89295,611.4947387,-7
1660284513.89295,611.4947417,23
1660284513.89295,611.4947448,9
1660284513.89295,611.4947478,16
1660284513.89295,611.4947507,33
1660284513.89295,611.4947535,28
1660284513.89295,611.4947565,26
1660284513.89295,611.4947595,50
1660284513.89295,611.4947624,83
1660284513.89295,611.4947666,93
1660284513.89295,611.4947696,74
1660284513.89295,611.4947724,64
1660284513.89295,611.4947763,90
1660284513.89295,611.4947801,114
1660284513.89295,611.4947936,117
1660284513.89295,611.4948479,126
1660284513.89295,611.4948557,133
1660284513.89295,611.4948627,136
1660284513.89295,611.4948697,155
1660284513.89295,611.4948764,179
1660284513.89295,611.4948809,186
1660284513.89295,611.4948867,171
1660284513.90801,611.4948923,143
1660284513.90801,611.4948976,124
1660284513.90801,611.4949044,124
1660284513.90801,611.4949149,119
1660284513.90801,611.4949293,109
1660284513.90801,611.4949407,95
1660284513.90801,611.4949525,81
1660284513.90801,611.4949654,66
1660284513.90801,611.494972,54
1660284513.90801,611.4949783,54
1660284513.90801,611.4949846,57
1660284513.90801,611.494991,50
1660284513.90801,611.4949973,38
1660284513.90801,611.4950033,28
1660284513.90801,611.4950096,26
1660284513.90801,611.4950158,40
1660284513.90801,611.4950214,57
1660284513.90801,611.9712996,57
1660284513.90801,611.9713162,57
1660284513.90801,611.9713212,59
1660284513.90801,611.9713253,42
1660284513.90801,611.9713293,35
1660284513.90801,611.9713332,57
1660284513.90801,611.9713371,71
1660284514.52921,611.9713427,57
1660284514.52921,611.9713464,35
1660284514.52921,611.97135,40
1660284514.52921,611.9713536,64
1660284514.52921,611.9713571,69
1660284514.52921,611.9713607,54
1660284514.52921,611.9713641,52
1660284514.52921,611.9713675,59
1660284514.52921,611.9713712,57
1660284514.52921,611.9713746,45
1660284514.52921,611.9713793,47
1660284514.52921,611.9713835,71
1660284514.52921,611.9713866,74
1660284514.52921,611.9713897,45
1660284514.52921,611.9713934,28
1660284514.52921,611.9713965,45
1660284514.52921,611.9714014,66
1660284514.52921,611.9714065,66
1660284514.52921,611.9714112,64
1660284514.52921,611.9714182,57
1660284514.52921,611.9714219,28
1660284514.52921,611.9714253,45
1660284514.52921,611.9714281,250
1660284514.52921,611.971431,647
1660284514.52921,611.971434,845
1660284514.52921,611.971437,422
1660284514.52921,611.9714402,-176
1660284514.52921,611.9714438,-234
1660284514.52921,611.9714482,-33
1660284514.52921,611.9714519,-52
1660284514.52921,611.9714555,-97
1660284514.52921,611.9714603,-50
1660284514.52921,611.9714655,-42
1660284514.52921,611.9714712,-52
1660284514.52921,611.971476,-28
1660284514.52921,611.9714817,-9
1660284514.52921,611.9714938,-4
1660284514.52921,611.9715035,7
1660284514.52921,611.971511,19
1660284514.52921,611.9715173,26
1660284514.52921,611.9715235,33
1660284514.52921,611.9715286,42
1660284514.52921,611.9715361,57
1660284514.52921,611.9715405,64
1660284514.52921,611.9715464,78
1660284514.52921,611.9715509,95
1660284514.52921,611.9715585,112
1660284514.52921,611.971564,138
1660284514.52921,611.9715727,145
1660284514.52921,611.9715813,145
1660284514.54217,611.9715884,162
1660284514.54217,611.9715969,157
1660284514.54217,611.9716023,124
1660284514.54217,611.9716106,112
1660284514.54217,611.9716175,117
1660284514.54217,611.9716301,107
1660284514.54217,611.9716396,95
1660284514.54217,611.9716483,81
1660284514.54217,611.9716612,62
1660284514.54217,611.9716691,47
1660284514.54217,611.9716748,26
1660284514.54217,611.9716875,-9
1660284514.54217,611.9716983,-16
1660284514.54217,611.9717068,4
1660284514.54217,611.971713,7
1660284514.54217,611.9717268,0
1660284514.54217,612.6019956,9
1660284514.54217,612.6020133,9
1660284514.54217,612.6020211,-2
1660284514.54217,612.6020292,7
1660284514.54217,612.6020349,26
1660284514.54217,612.6020433,31
1660284514.54217,612.6020521,31
1660284514.54217,612.6020572,28
1660284515.0139,612.6020626,9
1660284515.0139,612.6020678,0
1660284515.0139,612.6020744,0
1660284515.0139,612.6020813,-28
1660284515.0139,612.6020863,-54
1660284515.0139,612.60209,-38
1660284515.0139,612.6020941,-14
1660284515.0139,612.6020981,-16
1660284515.0139,612.6021042,-23
1660284515.0139,612.602109,-38
1660284515.0139,612.6021155,-54
1660284515.0139,612.6021212,-42
1660284515.0139,612.6021256,-16
1660284515.0139,612.6021326,-7
1660284515.0139,612.6021423,-9
1660284515.0139,612.6021492,-14
1660284515.0139,612.6021565,-31
1660284515.0139,612.6021618,-42
1660284515.0139,612.602169,-33
1660284515.0139,612.6021781,-21
1660284515.0139,612.6021842,-16
1660284515.0139,612.6021924,0
1660284515.0139,612.6021981,16
1660284515.0139,612.6022072,126
1660284515.0139,612.6022631,465
1660284515.0139,612.6022726,797
1660284515.0139,612.6022835,568
1660284515.0139,612.6022927,-47
1660284515.0139,612.6023023,-226
1660284515.0139,612.602307,-14
1660284515.0139,612.6023134,4
1660284515.0139,612.6023191,-59
1660284515.0139,612.6023253,0
1660284515.0139,612.6023296,19
1660284515.0139,612.6023345,-23
1660284515.0139,612.6023737,-14
1660284515.0139,612.6023836,23
1660284515.0139,612.6023912,28
1660284515.0139,612.6023958,23
1660284515.0139,612.6024009,40
1660284515.0139,612.6024053,54
1660284515.0139,612.6024096,47
1660284515.0139,612.6024137,52
1660284515.0139,612.6024188,76
1660284515.0139,612.602425,95
1660284515.0139,612.6024301,100
1660284515.0139,612.6024362,105
1660284515.0139,612.6024406,117
1660284515.0139,612.602446,136
1660284515.0139,612.6024511,143
1660284515.02785,612.6024546,140
1660284515.02785,612.6024581,138
1660284515.02785,612.6024619,136
1660284515.02785,612.6024671,117
1660284515.02785,612.6024707,93
1660284515.02785,612.6024743,88
1660284515.02785,612.6024811,88
1660284515.02785,612.602485,83
1660284515.02785,612.6024887,74
1660284515.02785,612.6024947,47
1660284515.02785,612.6024982,23
1660284515.02785,612.6025017,28
1660284515.02785,612.6025066,35
1660284515.02785,612.6025101,19
1660284515.02785,612.6025133,2
1660284515.02785,613.091433,-4
1660284515.02785,613.0914596,-19
1660284515.02785,613.0914748,-31
1660284515.02785,613.0914897,-31
1660284515.02785,613.0914998,-26
1660284515.02785,613.0915064,-19
1660284515.02785,613.0915109,-21
1660284515.02785,613.0915171,-19
1660284515.02785,613.0915216,-7
1660284515.60206,613.0915327,0
1660284515.60206,613.0915369,4
1660284515.60206,613.0915403,9
1660284515.60206,613.091545,9
1660284515.60206,613.0915519,4
1660284515.60206,613.0915596,-9
1660284515.60206,613.0915695,-28
1660284515.60206,613.0915759,-26
1660284515.60206,613.0915829,-28
1660284515.60206,613.0915901,-50
1660284515.60206,613.0915967,-42
1660284515.60206,613.091601,-23
1660284515.60206,613.0916071,-26
1660284515.60206,613.091611,-23
1660284515.60206,613.0916175,0
1660284515.60206,613.0916267,19
1660284515.60206,613.0916351,16
1660284515.60206,613.0916447,2
1660284515.60206,613.0916516,4
1660284515.60206,613.0916598,11
1660284515.60206,613.0916683,2
1660284515.60206,613.0916762,-7
1660284515.60206,613.0916855,0
1660284515.60206,613.0917121,11
1660284515.60206,613.0917255,0
1660284515.60206,613.0917331,-2
1660284515.60206,613.0917415,162
1660284515.60206,613.0917474,558
1660284515.60206,613.0917507,852
1660284515.60206,613.0917541,566
1660284515.60206,613.0917574,-33
1660284515.60206,613.0917607,-186
1660284515.60206,613.0917639,4
1660284515.60206,613.0917676,-4
1660284515.60206,613.0917728,-78
1660284515.60206,613.0917773,-19
1660284515.60206,613.0917807,7
1660284515.60206,613.091784,-11
1660284515.60206,613.0917876,9
1660284515.60206,613.0917913,23
1660284515.60206,613.0917946,11
1660284515.60206,613.0917981,14
1660284515.60206,613.0918024,26
1660284515.60206,613.0918058,28
1660284515.60206,613.0918094,31
1660284515.60206,613.0918152,35
1660284515.60206,613.0918193,45
1660284515.60206,613.0918246,64
1660284515.60206,613.0918289,78
1660284515.60206,613.0918342,83
1660284515.61302,613.0918377,95
1660284515.61302,613.0918432,109
1660284515.61302,613.0918468,128
1660284515.61302,613.091852,148
1660284515.61302,613.0918558,150
1660284515.61302,613.0918613,136
1660284515.61302,613.0918649,117
1660284515.61302,613.0918703,90
1660284515.61302,613.091874,71
1660284515.61302,613.0918795,59
1660284515.61302,613.0918832,40
1660284515.61302,613.0918885,21
1660284515.61302,613.0918922,14
1660284515.61302,613.0918975,-4
1660284515.61302,613.6739481,-31
1660284515.61302,613.6739666,-33
1660284515.61302,613.673976,-16
1660284515.61302,613.6739848,-9
1660284515.61302,613.6739938,-14
1660284515.61302,613.6740002,-16
1660284515.61302,613.6740088,-11
1660284515.61302,613.6740157,-7
1660284515.61302,613.6740245,-11
1660284515.61302,613.6740304,-16
1660284516.13316,613.6740378,-23
1660284516.13316,613.6740443,-45
1660284516.13316,613.67405,-59
1660284516.13316,613.6740555,-47
1660284516.13316,613.6740601,-28
1660284516.13316,613.6740645,-21
1660284516.13316,613.674073,-19
1660284516.13316,613.6740831,-21
1660284516.13316,613.6740979,-31
1660284516.13316,613.6741102,-28
1660284516.13316,613.6741198,-9
1660284516.13316,613.6741277,4
1660284516.13316,613.6741376,0
1660284516.13316,613.6741432,-16
1660284516.13316,613.6741534,-28
1660284516.13316,613.6741595,-28
1660284516.13316,613.6741618,-21
1660284516.13316,613.6741638,-19
1660284516.13316,613.674171,-9
1660284516.13316,613.6741836,7
1660284516.13316,613.674194,7
1660284516.13316,613.6742018,4
1660284516.13316,613.6742093,14
1660284516.13316,613.6742162,23
1660284516.13316,613.6742218,31
1660284516.13316,613.6742291,38
1660284516.13316,613.6742345,42
1660284516.13316,613.6742417,47
1660284516.13316,613.6742485,52
1660284516.13316,613.6742536,66
1660284516.13316,613.6742604,186
1660284516.13316,613.6742663,520
1660284516.13316,613.6742727,845
1660284516.13316,613.6742771,654
1660284516.13316,613.6742816,54
1660284516.13316,613.6742881,-176
1660284516.13316,613.6742927,0
1660284516.13316,613.6742992,21
1660284516.13316,613.674304,-52
1660284516.13316,613.6743104,0
1660284516.13316,613.6743153,33
1660284516.13316,613.6743227,2
1660284516.13316,613.6743275,14
1660284516.13316,613.6743339,47
1660284516.13316,613.6743387,52
1660284516.13316,613.6743456,45
1660284516.13316,613.6743506,45
1660284516.13316,613.6743572,47
1660284516.13316,613.6743613,47
1660284516.13316,613.6743651,40
1660284516.14612,613.6743693,47
1660284516.14612,613.6743736,54
1660284516.14612,613.6743783,52
1660284516.14612,613.6743865,69
1660284516.14612,613.6743908,90
1660284516.14612,613.6744002,102
1660284516.14612,613.6744045,112
1660284516.14612,613.6744084,117
1660284516.14612,613.6744125,114
1660284516.14612,613.6744168,117
1660284516.14612,613.6744212,114
1660284516.14612,613.6744259,102
1660284516.14612,613.6744306,83
1660284516.14612,614.2091555,62
1660284516.14612,614.2091802,38
1660284516.14612,614.2091883,14
1660284516.14612,614.2091984,0
1660284516.14612,614.2092066,-7
1660284516.14612,614.2092183,-9
1660284516.14612,614.2092263,-4
1660284516.14612,614.2092352,-7
1660284516.14612,614.2092404,-14
1660284516.14612,614.2092452,-7
1660284516.14612,614.2092501,0
1660284516.76316,614.2092558,2
1660284516.76316,614.2092608,11
1660284516.76316,614.2092657,9
1660284516.76316,614.2092706,-11
1660284516.76316,614.2092753,-28
1660284516.76316,614.2092813,-19
1660284516.76316,614.2092906,-2
1660284516.76316,614.2092974,0
1660284516.76316,614.2093036,2
1660284516.76316,614.20931,9
1660284516.76316,614.2093164,23
1660284516.76316,614.2093257,31
1660284516.76316,614.2093323,28
1660284516.76316,614.2093373,31
1660284516.76316,614.2093422,52
1660284516.76316,614.2093469,52
1660284516.76316,614.2093514,16
1660284516.76316,614.209356,-7
1660284516.76316,614.2093647,11
1660284516.76316,614.2093744,23
1660284516.76316,614.209382,14
1660284516.76316,614.2093886,19
1660284516.76316,614.2093972,33
1660284516.76316,614.2094036,28
1660284516.76316,614.2094135,26
1660284516.76316,614.2094231,52
1660284516.76316,614.2094325,64
1660284516.76316,614.2094412,45
1660284516.76316,614.2094502,38
1660284516.76316,614.2094562,45
1660284516.76316,614.2094648,47
1660284516.76316,614.2094741,59
1660284516.76316,614.209483,76
1660284516.76316,614.2094895,85
1660284516.76316,614.2094988,140
1660284516.76316,614.2095057,396
1660284516.76316,614.2095145,809
1660284516.76316,614.2095205,883
1660284516.76316,614.2095295,339
1660284516.76316,614.2095356,-145
1660284516.76316,614.2095444,-76
1660284516.76316,614.2095505,57
1660284516.76316,614.2095599,-16
1660284516.76316,614.2095689,-26
1660284516.76316,614.2095781,35
1660284516.76316,614.2095839,40
1660284516.76316,614.209593,35
1660284516.76316,614.2095989,42
1660284516.76316,614.2096079,38
1660284516.76316,614.2096169,45
1660284516.77512,614.2096262,59
1660284516.77512,614.2096347,52
1660284516.77512,614.2096422,50
1660284516.77512,614.209652,62
1660284516.77512,614.2096608,74
1660284516.77512,614.2096669,78
1660284516.77512,614.209676,81
1660284516.77512,614.209682,81
1660284516.77512,614.2096905,88
1660284516.77512,614.2096996,105
1660284516.77512,614.2097054,121
1660284516.77512,614.2097144,128
1660284516.77512,614.8429056,133
1660284516.77512,614.8429291,133
1660284516.77512,614.8429436,124
1660284516.77512,614.8429559,97
1660284516.77512,614.8429633,66
1660284516.77512,614.8429699,38
1660284516.77512,614.8429766,16
1660284516.77512,614.8429837,2
1660284516.77512,614.8429914,-9
1660284516.77512,614.8429963,-26
1660284516.77512,614.8430004,-42
1660284516.77512,614.8430057,-50
1660284517.24698,614.8430122,-52
1660284517.24698,614.8430177,-40
1660284517.24698,614.8430268,-31
1660284517.24698,614.8430328,-38
1660284517.24698,614.8430382,-40
1660284517.24698,614.8430432,-31
1660284517.24698,614.8430481,-19
1660284517.24698,614.8430527,-19
1660284517.24698,614.8430575,-19
1660284517.24698,614.8430623,-4
1660284517.24698,614.843067,7
1660284517.24698,614.8430721,-9
1660284517.24698,614.8430772,-23
1660284517.24698,614.8430823,-16
1660284517.24698,614.843089,-2
1660284517.24698,614.8430965,2
1660284517.24698,614.8431013,9
1660284517.24698,614.8431062,16
1660284517.24698,614.8431115,23
1660284517.24698,614.8431192,26
1660284517.24698,614.8431278,26
1660284517.24698,614.8431328,19
1660284517.24698,614.843136,23
1660284517.24698,614.8431487,42
1660284517.24698,614.8431594,54
1660284517.24698,614.843167,59
1660284517.24698,614.8431722,81
1660284517.24698,614.843177,90
1660284517.24698,614.8431818,78
1660284517.24698,614.8431869,76
1660284517.24698,614.843192,93
1660284517.24698,614.8431985,95
1660284517.24698,614.8432059,81
1660284517.24698,614.8432109,69
1660284517.24698,614.8432157,69
1660284517.24698,614.843221,78
1660284517.24698,614.8432263,124
1660284517.24698,614.8432312,317
1660284517.24698,614.8432355,692
1660284517.24698,614.84324,867
1660284517.24698,614.8432446,432
1660284517.24698,614.843252,-124
1660284517.24698,614.8432572,-114
1660284517.24698,614.8432617,81
1660284517.24698,614.8432667,28
1660284517.24698,614.8432732,-4
1660284517.24698,614.8432825,57
1660284517.24698,614.8432904,62
1660284517.24698,614.8432975,42
1660284517.24698,614.8433045,52
1660284517.25993,614.8433111,64
1660284517.25993,614.8433158,69
1660284517.25993,614.8433202,76
1660284517.25993,614.8433247,81
1660284517.25993,614.8433292,85
1660284517.25993,614.8433334,97
1660284517.25993,614.8433383,117
1660284517.25993,614.8433429,114
1660284517.25993,614.84335,105
1660284517.25993,614.8433602,112
1660284517.25993,614.8433708,128
1660284517.25993,615.3299006,138
1660284517.25993,615.3299189,143
1660284517.25993,615.3299277,145
1660284517.25993,615.3299327,152
1660284517.25993,615.3299404,167
1660284517.25993,615.329947,162
1660284517.25993,615.3299554,133
1660284517.25993,615.3299592,105
1660284517.25993,615.3299651,88
1660284517.25993,615.3299682,76
1660284517.25993,615.3299738,57
1660284517.25993,615.3299857,45
1660284517.25993,615.3299971,42
1660284517.83531,615.3300061,31
1660284517.83531,615.3300133,7
1660284517.83531,615.3300207,-2
1660284517.83531,615.3300252,9
1660284517.83531,615.3300299,26
1660284517.83531,615.3300336,38
1660284517.83531,615.3300367,38
1660284517.83531,615.33004,9
1660284517.83531,615.3300436,-16
1660284517.83531,615.3300474,-2
1660284517.83531,615.3300534,16
1660284517.83531,615.3300573,7
1660284517.83531,615.3300632,4
1660284517.83531,615.3300766,-2
1660284517.83531,615.3300878,-23
1660284517.83531,615.3301004,-21
1660284517.83531,615.3301105,0
1660284517.83531,615.3301178,7
1660284517.83531,615.3301239,9
1660284517.83531,615.3301377,16
1660284517.83531,615.330148,9
1660284517.83531,615.3301554,9
1660284517.83531,615.3301612,16
1660284517.83531,615.3301716,0
1660284517.83531,615.3301779,-14
1660284517.83531,615.3301884,2
1660284517.83531,615.3302011,11
1660284517.83531,615.3302131,-2
1660284517.83531,615.330222,-2
1660284517.83531,615.3302301,21
1660284517.83531,615.3302362,40
1660284517.83531,615.3302451,45
1660284517.83531,615.3302515,40
1660284517.83531,615.3302643,19
1660284517.83531,615.3302747,0
1660284517.83531,615.3302821,19
1660284517.83531,615.330288,38
1660284517.83531,615.3302974,35

1660284517.83531,615.3303066,45
1660284517.83531,615.33032,59
1660284517.83531,615.3303302,42
1660284517.83531,615.3303387,52
1660284517.83531,615.3303475,231
1660284517.83531,615.3303558,618
1660284517.83531,615.3303643,893
1660284517.83531,615.3303705,592
1660284517.83531,615.3303794,-11
1660284517.83531,615.3303839,-150
1660284517.83531,615.3303916,52
1660284517.83531,615.3303987,50
1660284517.85126,615.3304057,-16
1660284517.85126,615.3304176,28
1660284517.85126,615.3304245,40
1660284517.85126,615.3304375,19
1660284517.85126,615.3304456,33
1660284517.85126,615.3304532,50
1660284517.85126,615.3304594,62
1660284517.85126,615.330469,83
1660284517.85126,615.3304737,74
1660284517.85126,615.3304851,59
1660284517.85126,615.9147202,76
1660284517.85126,615.9147381,78
1660284517.85126,615.9147428,66
1660284517.85126,615.9147496,83
1660284517.85126,615.914756,102
1660284517.85126,615.9147599,85
1660284517.85126,615.9147637,76
1660284517.85126,615.9147675,97
1660284517.85126,615.9147715,105
1660284517.85126,615.9147753,97
1660284517.85126,615.9147792,90
1660284517.85126,615.9147844,64
1660284517.85126,615.9147908,28
1660284517.85126,615.9147982,19
1660284518.419,615.9148047,28
1660284518.419,615.9148101,28
1660284518.419,615.9148141,7
1660284518.419,615.9148194,-35
1660284518.419,615.914826,-66
1660284518.419,615.9148325,-64
1660284518.419,615.9148372,-57
1660284518.419,615.9148443,-57
1660284518.419,615.91485,-47
1660284518.419,615.9148542,-54
1660284518.419,615.9148597,-66
1660284518.419,615.914866,-47
1660284518.419,615.9148723,-14
1660284518.419,615.9148789,-14
1660284518.419,615.9148852,-42
1660284518.419,615.9150521,-59
1660284518.419,615.9150567,-52
1660284518.419,615.9150607,-38
1660284518.419,615.9150645,-16
1660284518.419,615.9150683,2
1660284518.419,615.915072,0
1660284518.419,615.9150755,0
1660284518.419,615.9150794,14
1660284518.419,615.9150835,-2
1660284518.419,615.9150875,-11
1660284518.419,615.9150923,28
1660284518.419,615.9150982,57
1660284518.419,615.9151025,42
1660284518.419,615.9151065,35
1660284518.419,615.9151104,38
1660284518.419,615.9151142,31
1660284518.419,615.9151181,42
1660284518.419,615.9151221,57
1660284518.419,615.9151262,64
1660284518.419,615.9151302,76
1660284518.419,615.9151353,85
1660284518.419,615.9151393,93
1660284518.419,615.9151449,107
1660284518.419,615.9151512,109
1660284518.419,615.9151576,97
1660284518.419,615.9151641,93
1660284518.419,615.9151704,102
1660284518.419,615.9151769,105
1660284518.419,615.9151833,105
1660284518.419,615.9151926,119
1660284518.419,615.9151986,140
1660284518.419,615.915203,186
1660284518.419,615.9152115,391
1660284518.419,615.9152184,785
1660284518.419,615.9152253,929
1660284518.42997,615.9152341,470
1660284518.42997,615.9152405,-21
1660284518.42997,615.9152473,-4
1660284518.42997,615.9152546,133
1660284518.42997,615.915262,78
1660284518.42997,615.9152685,52
1660284518.42997,615.9152767,93
1660284518.42997,615.9152835,102
1660284518.42997,615.9152942,107
1660284518.42997,616.4999254,109
1660284518.42997,616.4999449,95
1660284518.42997,616.4999514,100
1660284518.42997,616.4999573,119
1660284518.42997,616.499963,117
1660284518.42997,616.4999682,109
1660284518.42997,616.4999775,100
1660284518.42997,616.4999834,81
1660284518.42997,616.4999893,64
1660284518.42997,616.4999971,74
1660284518.42997,616.500002,90
1660284518.42997,616.5000096,95
1660284518.42997,616.5000179,93
1660284518.42997,616.5000243,81
1660284518.42997,616.5000294,54
1660284518.91774,616.5000336,52
1660284518.91774,616.5000379,69
1660284518.91774,616.5000419,66
1660284518.91774,616.5000462,54
1660284518.91774,616.5000504,57
1660284518.91774,616.5000554,54
1660284518.91774,616.5000594,21
1660284518.91774,616.5000637,-9
1660284518.91774,616.5000683,-9
1660284518.91774,616.5000727,-21
1660284518.91774,616.5000774,-35
1660284518.91774,616.500082,-16
1660284518.91774,616.5000867,-7
1660284518.91774,616.5000911,-19
1660284518.91774,616.5000968,-19
1660284518.91774,616.5001018,-19
1660284518.91774,616.500109,-40
1660284518.91774,616.5001152,-62
1660284518.91774,616.5001199,-47
1660284518.91774,616.5001244,-19
1660284518.91774,616.5001288,-7
1660284518.91774,616.5001332,-16
1660284518.91774,616.5001372,-26
1660284518.91774,616.5001415,-21
1660284518.91774,616.5001462,-14
1660284518.91774,616.5001504,-4
1660284518.91774,616.5001545,26
1660284518.91774,616.5001589,52
1660284518.91774,616.5001633,64
1660284518.91774,616.5001678,71
1660284518.91774,616.5001722,83
1660284518.91774,616.5001766,88
1660284518.91774,616.500181,88
1660284518.91774,616.5001857,93
1660284518.91774,616.5001902,109
1660284518.91774,616.5001946,124
1660284518.91774,616.5002001,114
1660284518.91774,616.5002074,95
1660284518.91774,616.5002138,93
1660284518.91774,616.5002202,88
1660284518.91774,616.5002263,81
1660284518.91774,616.5002326,95
1660284518.91774,616.5002393,107
1660284518.91774,616.5002456,97
1660284518.91774,616.5002502,93
1660284518.91774,616.5002546,85
1660284518.91774,616.500259,74
1660284518.91774,616.5002635,81
1660284518.91774,616.5002684,83
1660284518.91774,616.5002727,74
1660284518.93169,616.500277,128
1660284518.93169,616.5002814,360
1660284518.93169,616.5002856,752
1660284518.93169,616.5002918,893
1660284518.93169,616.5002984,417
1660284518.93169,616.5003081,-126
1660284518.93169,616.5003128,-102
1660284518.93169,616.500324,93
1660284518.93169,616.9902284,50
1660284518.93169,616.9902505,26
1660284518.93169,616.9902591,95
1660284518.93169,616.9902655,95
1660284518.93169,616.990273,81
1660284518.93169,616.9902786,97
1660284518.93169,616.990286,95
1660284518.93169,616.9902915,93
1660284518.93169,616.9902988,97
1660284518.93169,616.9903042,90
1660284518.93169,616.9903116,83
1660284518.93169,616.9903186,71
1660284518.93169,616.9903262,59
1660284518.93169,616.9903315,42
1660284518.93169,616.9903388,19
1660284518.93169,616.9903437,23
1660284519.48883,616.990349,45
1660284519.48883,616.990354,28
1660284519.48883,616.9903593,4
1660284519.48883,616.990364,11
1660284519.48883,616.9903688,19
1660284519.48883,616.9903738,19
1660284519.48883,616.9903786,33
1660284519.48883,616.990383,9
1660284519.48883,616.9903881,-50
1660284519.48883,616.9903924,-57
1660284519.48883,616.9903966,-31
1660284519.48883,616.9904012,-38
1660284519.48883,616.9904061,-57
1660284519.48883,616.9904112,-64
1660284519.48883,616.990416,-78
1660284519.48883,616.9904203,-83
1660284519.48883,616.9904248,-59
1660284519.48883,616.9904298,-45
1660284519.48883,616.9904348,-52
1660284519.48883,616.9904399,-40
1660284519.48883,616.9904451,-14
1660284519.48883,616.9904525,-7
1660284519.48883,616.9904607,-2
1660284519.48883,616.9904678,9
1660284519.48883,616.990473,16
1660284519.48883,616.9904798,28
1660284519.48883,616.9904854,42
1660284519.48883,616.9904922,45
1660284519.48883,616.9904988,40
1660284519.48883,616.990504,52
1660284519.48883,616.9905111,66
1660284519.48883,616.9905168,59
1660284519.48883,616.9905224,52
1660284519.48883,616.9905296,69
1660284519.48883,616.9905349,66
1660284519.48883,616.9905421,31
1660284519.48883,616.9905474,2
1660284519.48883,616.9905543,-2
1660284519.48883,616.9905596,-7
1660284519.48883,616.9905668,-26
1660284519.48883,616.9905743,-31
1660284519.48883,616.9905796,-11
1660284519.48883,616.9905859,-7
1660284519.48883,616.9905931,-26
1660284519.48883,616.9905983,-26
1660284519.48883,616.9906052,-14
1660284519.48883,616.9906103,-9
1660284519.48883,616.9906188,2
1660284519.48883,616.9906237,26
1660284519.48883,616.9906309,47
1660284519.49979,616.9906382,64
1660284519.49979,616.9906433,85
1660284519.49979,616.9906502,231
1660284519.49979,616.9906554,594
1660284519.49979,616.9906628,869
1660284519.49979,616.9906677,554
1660284519.49979,616.9906747,-57
1660284519.49979,617.5727043,-167
1660284519.49979,617.5727583,50
1660284519.49979,617.5727758,45
1660284519.49979,617.5727894,-4
1660284519.49979,617.5727995,69
1660284519.49979,617.5729136,85
1660284519.49979,617.5729265,33
1660284519.49979,617.5729484,4
1660284519.49979,617.572958,-16
1660284519.49979,617.572967,-26
1660284519.49979,617.5729736,-23
1660284519.49979,617.5729798,-28
1660284519.49979,617.5729864,-11
1660284519.49979,617.5729922,16
1660284519.49979,617.5729981,0
1660284519.49979,617.5730052,-21
1660284519.49979,617.5730113,4
1660284520.08152,617.5730173,40
1660284520.08152,617.5730242,50
1660284520.08152,617.5730298,52
1660284520.08152,617.5730343,54
1660284520.08152,617.5730384,42
1660284520.08152,617.5730437,33
1660284520.08152,617.5730489,40
1660284520.08152,617.5730565,54
1660284520.08152,617.573063,59
1660284520.08152,617.5730693,52
1660284520.08152,617.5730759,38
1660284520.08152,617.5730824,14
1660284520.08152,617.5730886,-9
1660284520.08152,617.5730954,-19
1660284520.08152,617.5731004,-7
1660284520.08152,617.5731055,-2
1660284520.08152,617.5731097,-4
1660284520.08152,617.5731139,4
1660284520.08152,617.5731183,9
1660284520.08152,617.5731226,9
1660284520.08152,617.573129,19
1660284520.08152,617.5731391,31
1660284520.08152,617.5731507,28
1660284520.08152,617.5731581,14
1660284520.08152,617.5731624,11
1660284520.08152,617.5731672,26
1660284520.08152,617.5731726,38
1660284520.08152,617.5731789,52
1660284520.08152,617.5731854,64
1660284520.08152,617.57319,50
1660284520.08152,617.5731945,45
1660284520.08152,617.5731989,71
1660284520.08152,617.5732031,81
1660284520.08152,617.5732083,76
1660284520.08152,617.5732137,95
1660284520.08152,617.5732206,109
1660284520.08152,617.5732275,107
1660284520.08152,617.5732545,119
1660284520.08152,617.5732724,131
1660284520.08152,617.5732844,128
1660284520.08152,617.5732897,131
1660284520.08152,617.573301,136
1660284520.08152,617.5733069,133
1660284520.08152,617.5733133,131
1660284520.08152,617.5733189,114
1660284520.08152,617.5733263,97
1660284520.08152,617.5733338,114
1660284520.08152,617.5733396,117
1660284520.08152,617.5733472,85
1660284520.08152,617.5733536,95
1660284520.09448,617.5733599,114
1660284520.09448,617.5733701,105
1660284520.09448,617.5733766,105
1660284520.09448,617.573382,188
1660284520.09448,617.573389,460
1660284520.09448,617.5733957,781
1660284520.09448,618.1577694,666
1660284520.09448,618.1577916,88
1660284520.09448,618.1578016,-224
1660284520.09448,618.1578093,-59
1660284520.09448,618.1578188,23
1660284520.09448,618.1578266,-47
1660284520.09448,618.1578377,-9
1660284520.09448,618.1578822,54
1660284520.09448,618.1578905,38
1660284520.09448,618.1578992,23
1660284520.09448,618.1579058,28
1660284520.09448,618.1579101,23
1660284520.09448,618.1579188,45
1660284520.09448,618.1579276,100
1660284520.09448,618.1579356,124
1660284520.09448,618.1579408,109
1660284520.09448,618.1579492,97
1660284520.09448,618.1579535,74
1660284520.61023,618.1579608,26
1660284520.61023,618.1579694,21
1660284520.61023,618.1579771,50
1660284520.61023,618.1579816,64
1660284520.61023,618.1579856,76
1660284520.61023,618.1579902,85
1660284520.61023,618.1579943,57
1660284520.61023,618.157998,14
1660284520.61023,618.1580018,7
1660284520.61023,618.1580055,38
1660284520.61023,618.1580092,66
1660284520.61023,618.1580129,50
1660284520.61023,618.1580166,11
1660284520.61023,618.1580203,2
1660284520.61023,618.1580239,19
1660284520.61023,618.1580274,14
1660284520.61023,618.1580311,-31
1660284520.61023,618.1580344,-54
1660284520.61023,618.158038,-45
1660284520.61023,618.1580415,-52
1660284520.61023,618.158045,-64
1660284520.61023,618.1580488,-42
1660284520.61023,618.1580525,-19
1660284520.61023,618.1580561,-11
1660284520.61023,618.15806,0
1660284520.61023,618.1580638,9
1660284520.61023,618.1580676,11
1660284520.61023,618.1580716,23
1660284520.61023,618.1580751,47
1660284520.61023,618.1580783,69
1660284520.61023,618.1580819,69
1660284520.61023,618.1580856,59
1660284520.61023,618.1580894,69
1660284520.61023,618.158093,81
1660284520.61023,618.1580968,81
1660284520.61023,618.1581004,81
1660284520.61023,618.158104,81
1660284520.61023,618.1581075,74
1660284520.61023,618.158111,76
1660284520.61023,618.1581146,83
1660284520.61023,618.1581182,90
1660284520.61023,618.1581218,102
1660284520.61023,618.1581256,112
1660284520.61023,618.1581292,117
1660284520.61023,618.1581328,121
1660284520.61023,618.1581365,114
1660284520.61023,618.15814,83
1660284520.61023,618.1581432,57
1660284520.61023,618.1581491,52
1660284520.61023,618.1581533,57
1660284520.62219,618.1581565,54
1660284520.62219,618.1581632,59
1660284520.62219,618.1581722,81
1660284520.62219,618.1581798,88
1660284520.62219,618.1581838,124
1660284520.62219,618.6938326,360
1660284520.62219,618.693859,754
1660284520.62219,618.6938733,816
1660284520.62219,618.6938865,298
1660284520.62219,618.6939008,-143
1660284520.62219,618.6939137,-64
1660284520.62219,618.6939261,74
1660284520.62219,618.693933,16
1660284520.62219,618.6939455,-4
1660284520.62219,618.6939553,35
1660284520.62219,618.6939621,45
1660284520.62219,618.6939717,57
1660284520.62219,618.6939852,74
1660284520.62219,618.6939966,59
1660284520.62219,618.6940036,38
1660284520.62219,618.6940082,38
1660284520.62219,618.6940123,45
1660284520.62219,618.6940167,50
1660284520.62219,618.694021,59
1660284521.14433,618.694025,62
1660284521.14433,618.6940294,38
1660284521.14433,618.6940337,19
1660284521.14433,618.6940379,38
1660284521.14433,618.6940423,59
1660284521.14433,618.6940469,62
1660284521.14433,618.6940514,57
1660284521.14433,618.6940558,52
1660284521.14433,618.6940611,47
1660284521.14433,618.6940684,40
1660284521.14433,618.6940743,33
1660284521.14433,618.6940792,16
1660284521.14433,618.6940837,-4
1660284521.14433,618.6941168,-19
1660284521.14433,618.6941261,-40
1660284521.14433,618.6941309,-62
1660284521.14433,618.6941348,-64
1660284521.14433,618.694139,-59
1660284521.14433,618.6941425,-52
1660284521.14433,618.6941458,-38
1660284521.14433,618.6941494,-31
1660284521.14433,618.6941532,-26
1660284521.14433,618.6941568,-11
1660284521.14433,618.6941608,9
1660284521.14433,618.6941646,33
1660284521.14433,618.6941683,50
1660284521.14433,618.6941722,64
1660284521.14433,618.6941756,78
1660284521.14433,618.694179,93
1660284521.14433,618.6941825,114
1660284521.14433,618.694186,136
1660284521.14433,618.6941896,160
1660284521.14433,618.6941933,169
1660284521.14433,618.6941969,155
1660284521.14433,618.6942017,162
1660284521.14433,618.6942072,188
1660284521.14433,618.6942109,200
1660284521.14433,618.6942143,195
1660284521.14433,618.6942178,174
1660284521.14433,618.6942215,150
1660284521.14433,618.6942251,145
1660284521.14433,618.6942286,150
1660284521.14433,618.6942321,164
1660284521.14433,618.6942357,183
1660284521.14433,618.6942393,193
1660284521.14433,618.6942429,183
1660284521.14433,618.6942463,160
1660284521.14433,618.6942506,152
1660284521.14433,618.6942544,167
1660284521.14433,618.694258,171
1660284521.15529,618.6942622,162
1660284521.15529,618.6942677,167
1660284521.15529,618.6942713,176
1660284521.15529,618.6942751,164
1660284521.15529,619.2305028,207
1660284521.15529,619.2305223,468
1660284521.15529,619.230531,886
1660284521.15529,619.2305372,976
1660284521.15529,619.2305441,446
1660284521.15529,619.2305544,-64
1660284521.15529,619.2305862,-4
1660284521.15529,619.2305961,167
1660284521.15529,619.2306004,112
1660284521.15529,619.230604,90
1660284521.15529,619.2306088,126
1660284521.15529,619.230616,85
1660284521.15529,619.2306195,66
1660284521.15529,619.230625,112
1660284521.15529,619.2306327,128
1660284521.15529,619.2306382,114
1660284521.15529,619.2306426,95
1660284521.15529,619.2306471,69
1660284521.15529,619.2306504,62
1660284521.15529,619.2306537,71
1660284521.73253,619.230657,71
1660284521.73253,619.230661,90
1660284521.73253,619.2306678,112
1660284521.73253,619.2306726,112
1660284521.73253,619.2306764,124
1660284521.73253,619.2306814,152
1660284521.73253,619.2306867,167
1660284521.73253,619.2306918,174
1660284521.73253,619.2306965,186
1660284521.73253,619.2307002,193
1660284521.73253,619.2307032,191
1660284521.73253,619.2307068,186
1660284521.73253,619.2307099,179
1660284521.73253,619.2307148,167
1660284521.73253,619.2307195,145
1660284521.73253,619.2307237,114
1660284521.73253,619.2307299,78
1660284521.73253,619.2307343,52
1660284521.73253,619.2307373,54
1660284521.73253,619.2307404,74
1660284521.73253,619.2307435,71
1660284521.73253,619.2307465,57
1660284521.73253,619.2307495,54
1660284521.73253,619.2307526,64
1660284521.73253,619.2307558,69
1660284521.73253,619.230759,71
1660284521.73253,619.2307621,69
1660284521.73253,619.2307652,69
1660284521.73253,619.2307683,69
1660284521.73253,619.2307712,59
1660284521.73253,619.2307745,42
1660284521.73253,619.2307778,35
1660284521.73253,619.2307812,52
1660284521.73253,619.2307844,62
1660284521.73253,619.2307878,42
1660284521.73253,619.2307927,33
1660284521.73253,619.2308009,47
1660284521.73253,619.2308058,52
1660284521.73253,619.2308356,50
1660284521.73253,619.2308498,59
1660284521.73253,619.2308551,66
1660284521.73253,619.2308591,69
1660284521.73253,619.2308627,71
1660284521.73253,619.2308662,85
1660284521.73253,619.2308697,112
1660284521.73253,619.2308812,117
1660284521.73253,619.2308848,90
1660284521.73253,619.2308882,76
1660284521.73253,619.2308919,81
1660284521.73253,619.2308956,97
1660284521.74349,619.2308989,117
1660284521.74349,619.2309022,121
1660284521.74349,619.2309061,109
1660284521.74349,619.8149828,117
1660284521.74349,619.8150005,231
1660284521.74349,619.8150055,558
1660284521.74349,619.8150085,919
1660284521.74349,619.815014,776
1660284521.74349,619.8150204,150
1660284521.74349,619.8150292,-150
1660284521.74349,619.8150361,-7
1660284521.74349,619.8150435,14
1660284521.74349,619.8150474,-54
1660284521.74349,619.8150529,0
1660284521.74349,619.8150573,31
1660284521.74349,619.8150639,-16
1660284521.74349,619.8150694,-31
1660284521.74349,619.8150756,-16
1660284521.74349,619.815081,-9
1660284521.74349,619.8150875,7
1660284521.74349,619.8150936,19
1660284521.74349,619.8151029,23
1660284521.74349,619.81511,28
1660284521.74349,619.8151165,26
1660284522.32235,619.8151225,40
1660284522.32235,619.8151289,71
1660284522.32235,619.8151339,90
1660284522.32235,619.8151392,88
1660284522.32235,619.8151464,93
1660284522.32235,619.8151512,105
1660284522.32235,619.8151549,126
1660284522.32235,619.8151579,150
1660284522.32235,619.8151611,169
1660284522.32235,619.8151644,171
1660284522.32235,619.8151694,164
1660284522.32235,619.8151742,167
1660284522.32235,619.8151785,157
1660284522.32235,619.8151837,133
1660284522.32235,619.8151871,114
1660284522.32235,619.8151907,102
1660284522.32235,619.8151955,93
1660284522.32235,619.8152015,71
1660284522.32235,619.8152073,47
1660284522.32235,619.8152143,38
1660284522.32235,619.8152228,40
1660284522.32235,619.8152309,31
1660284522.32235,619.8152374,9
1660284522.32235,619.8152461,-4
1660284522.32235,619.8152521,-11
1660284522.32235,619.8152577,-14
1660284522.32235,619.8152638,-4
1660284522.32235,619.8152676,11
1660284522.32235,619.815271,23
1660284522.32235,619.8152744,26
1660284522.32235,619.8152776,16
1660284522.32235,619.8152812,11
1660284522.32235,619.8152846,19
1660284522.32235,619.815288,23
1660284522.32235,619.815307,28
1660284522.32235,619.8153369,31
1660284522.32235,619.8153493,31
1660284522.32235,619.8153579,52
1660284522.32235,619.8153655,81
1660284522.32235,619.8153713,74
1660284522.32235,619.8153778,59
1660284522.32235,619.8153833,69
1660284522.32235,619.8153876,78
1660284522.32235,619.8153934,76
1660284522.32235,619.8153987,83
1660284522.32235,619.8154043,83
1660284522.32235,619.8154077,71
1660284522.32235,619.8154132,66
1660284522.32235,619.815417,71
1660284522.32235,619.8154233,81
1660284522.33829,619.8154318,88
1660284522.33829,619.8154376,83
1660284522.33829,620.4003368,71
1660284522.33829,620.4003558,97
1660284522.33829,620.4003658,298
1660284522.33829,620.400373,709
1660284522.33829,620.400379,941
1660284522.33829,620.4003853,544
1660284522.33829,620.40039,-52
1660284522.33829,620.4003969,-117
1660284522.33829,620.4004018,83
1660284522.33829,620.4004086,52
1660284522.33829,620.4004137,-23
1660284522.33829,620.4004204,-7
1660284522.33829,620.4004254,-11
1660284522.33829,620.4004323,-9
1660284522.33829,620.4004367,35
1660284522.33829,620.4004481,54
1660284522.33829,620.4004569,23
1660284522.33829,620.400469,-11
1660284522.33829,620.4004828,-11
1660284522.33829,620.4004951,9
1660284522.33829,620.4005012,28
1660284522.33829,620.4005059,33
1660284522.80421,620.4005167,35
1660284522.80421,620.4005246,31
1660284522.80421,620.4005315,40
1660284522.80421,620.4005385,69
1660284522.80421,620.4005449,97
1660284522.80421,620.4005502,105
1660284522.80421,620.4005566,119
1660284522.80421,620.4005626,145
1660284522.80421,620.4005694,152
1660284522.80421,620.4005763,143
1660284522.80421,620.4005795,128
1660284522.80421,620.4005825,117
1660284522.80421,620.4005856,119
1660284522.80421,620.4005886,109
1660284522.80421,620.4005916,64
1660284522.80421,620.4005946,33
1660284522.80421,620.4005975,35
1660284522.80421,620.4006006,45
1660284522.80421,620.4006035,45
1660284522.80421,620.4006065,31
1660284522.80421,620.4006095,16
1660284522.80421,620.4006123,19
1660284522.80421,620.4006153,28
1660284522.80421,620.4006181,28
1660284522.80421,620.4006211,23
1660284522.80421,620.4006239,26
1660284522.80421,620.4006268,28
1660284522.80421,620.4006295,21
1660284522.80421,620.4006325,11
1660284522.80421,620.4006354,19
1660284522.80421,620.4006383,26
1660284522.80421,620.4006434,26
1660284522.80421,620.4006466,28
1660284522.80421,620.4006531,26
1660284522.80421,620.4006847,28
1660284522.80421,620.400701,52
1660284522.80421,620.4007086,57
1660284522.80421,620.4007141,47
1660284522.80421,620.400722,47
1660284522.80421,620.4007273,52
1660284522.80421,620.4007348,57
1660284522.80421,620.4007459,66
1660284522.80421,620.4007539,71
1660284522.80421,620.4007584,54
1660284522.80421,620.4007643,40
1660284522.80421,620.4007691,62
1660284522.80421,620.40078,88
1660284522.80421,620.4007934,85
1660284522.80421,620.400805,74
1660284522.80421,620.4008169,69
1660284522.81616,620.4008257,76
1660284522.81616,620.8869072,81
1660284522.81616,620.8869859,66
1660284522.81616,620.8870749,90
1660284522.81616,620.8870857,279
1660284522.81616,620.8870901,652
1660284522.81616,620.8870956,919
1660284522.81616,620.8870992,635
1660284522.81616,620.8871047,23
1660284522.81616,620.8871086,-176
1660284522.81616,620.8871146,0
1660284522.81616,620.8871183,31
1660284522.81616,620.8871235,-38
1660284522.81616,620.8871271,-7
1660284522.81616,620.8871305,14
1660284522.81616,620.887134,-31
1660284522.81616,620.8871374,-54
1660284522.81616,620.887142,-33
1660284522.81616,620.8871454,-14
1660284522.81616,620.887149,-9
1660284522.81616,620.8871524,2
1660284522.81616,620.8871559,23
1660284522.81616,620.8871593,19
1660284522.81616,620.8871627,2
1660284523.49014,620.8871664,9
1660284523.49014,620.8871701,31
1660284523.49014,620.8871736,50
1660284523.49014,620.8871771,59
1660284523.49014,620.8871805,54
1660284523.49014,620.887184,54
1660284523.49014,620.8871879,59
1660284523.49014,620.8871913,71
1660284523.49014,620.8871948,93
1660284523.49014,620.8871983,100
1660284523.49014,620.8872018,90
1660284523.49014,620.8872053,76
1660284523.49014,620.8872089,69
1660284523.49014,620.8872124,74
1660284523.49014,620.8872159,76
1660284523.49014,620.8872194,62
1660284523.49014,620.8872227,33
1660284523.49014,620.8872263,16
1660284523.49014,620.8872298,16
1660284523.49014,620.8872335,16
1660284523.49014,620.8872369,16
1660284523.49014,620.8872404,31
1660284523.49014,620.8872438,40
1660284523.49014,620.8872473,28
1660284523.49014,620.8872508,21
1660284523.49014,620.8872543,28
1660284523.49014,620.8872577,23
1660284523.49014,620.8872611,7
1660284523.49014,620.8872646,-7
1660284523.49014,620.8872682,-16
1660284523.49014,620.8872717,-19
1660284523.49014,620.8872752,-4
1660284523.49014,620.8872788,2
1660284523.49014,620.8872822,-4
1660284523.49014,620.8872858,0
1660284523.49014,620.8872895,11
1660284523.49014,620.887293,11
1660284523.49014,620.8872967,2
1660284523.49014,620.8873003,4
1660284523.49014,620.8873037,16
1660284523.49014,620.8873073,28
1660284523.49014,620.8873107,28
1660284523.49014,620.8873142,21
1660284523.49014,620.8873176,19
1660284523.49014,620.8873215,31
1660284523.49014,620.8873251,64
1660284523.49014,620.8873286,83
1660284523.49014,620.8873324,66
1660284523.49014,620.8873361,45
1660284523.49014,620.8873397,47
1660284523.5021,621.5699339,57
1660284523.5021,621.5699541,66
1660284523.5021,621.5699694,66
1660284523.5021,621.5699837,52
1660284523.5021,621.5699937,26
1660284523.5021,621.5700007,21
1660284523.5021,621.5700055,128
1660284523.5021,621.5700122,432
1660284523.5021,621.570017,807
1660284523.5021,621.5700237,785
1660284523.5021,621.5700287,205
1660284523.5021,621.5700352,-234
1660284523.5021,621.5700399,-136
1660284523.5021,621.5700463,-21
1660284523.5021,621.5700513,-90
1660284523.5021,621.5700593,-83
1660284523.5021,621.5700642,-42
1660284523.5021,621.5700707,-66
1660284523.5021,621.5700752,-59
1660284523.5021,621.5700818,-9
1660284523.5021,621.5700887,0
1660284523.5021,621.5700936,-28
1660284523.5021,621.5700985,-45
1660284523.5021,621.570105,-38
1660284523.97592,621.5701107,-23
1660284523.97592,621.5701149,-14
1660284523.97592,621.5701189,-7
1660284523.97592,621.5701233,9
1660284523.97592,621.5701279,28
1660284523.97592,621.5701321,40
1660284523.97592,621.5701362,62
1660284523.97592,621.5701401,93
1660284523.97592,621.5701441,107
1660284523.97592,621.5701482,112
1660284523.97592,621.5701525,128
1660284523.97592,621.5701591,143
1660284523.97592,621.5701659,140
1660284523.97592,621.5701708,140
1660284523.97592,621.5701776,143
1660284523.97592,621.5701826,126
1660284523.97592,621.5701894,112
1660284523.97592,621.5701953,109
1660284523.97592,621.570202,90
1660284523.97592,621.570207,66
1660284523.97592,621.5702135,57
1660284523.97592,621.570218,38
1660284523.97592,621.5702225,26
1660284523.97592,621.5702291,50
1660284523.97592,621.5702328,59
1660284523.97592,621.5702412,38
1660284523.97592,621.57025,26
1660284523.97592,621.5702626,38
1660284523.97592,621.5702758,35
1660284523.97592,621.570289,26
1660284523.97592,621.5703022,40
1660284523.97592,621.5703151,59
1660284523.97592,621.5703283,57
1660284523.97592,621.5703413,42
1660284523.97592,621.5703544,40
1660284523.97592,621.5703673,45
1660284523.97592,621.5703804,54
1660284523.97592,621.5703939,69
1660284523.97592,621.5704071,69
1660284523.97592,621.5704201,62
1660284523.97592,621.5704333,71
1660284523.97592,621.5704463,85
1660284523.97592,621.5704594,90
1660284523.97592,621.5704724,88
1660284523.97592,621.5704856,90
1660284523.97592,621.5704929,114
1660284523.97592,621.5704982,128
1660284523.97592,621.5705026,128
1660284523.97592,621.5705113,121
1660284523.97592,622.0570447,97
1660284523.98788,622.0570738,85
1660284523.98788,622.0570842,109
1660284523.98788,622.0570909,124
1660284523.98788,622.0570969,97
1660284523.98788,622.0571035,88
1660284523.98788,622.0571084,112
1660284523.98788,622.0571116,114
1660284523.98788,622.0571181,114
1660284523.98788,622.0571212,255
1660284523.98788,622.0571269,635
1660284523.98788,622.0571311,979
1660284523.98788,622.0571371,754
1660284523.98788,622.0571403,107
1660284523.98788,622.0571452,-157
1660284523.98788,622.0571495,21
1660284523.98788,622.0571528,66
1660284523.98788,622.0571558,-11
1660284523.98788,622.057159,21
1660284523.98788,622.057162,47
1660284523.98788,622.057165,-2
1660284523.98788,622.057168,-11
1660284523.98788,622.0571711,14
1660284523.98788,622.0571741,21
1660284523.98788,622.0571774,45
1660284524.50754,622.0571803,64
1660284524.50754,622.0571832,23
1660284524.50754,622.057186,-9
1660284524.50754,622.0571889,14
1660284524.50754,622.0571921,35
1660284524.50754,622.057195,42
1660284524.50754,622.0571979,52
1660284524.50754,622.0572007,62
1660284524.50754,622.0572035,88
1660284524.50754,622.0572064,119
1660284524.50754,622.0572091,114
1660284524.50754,622.0572121,97
1660284524.50754,622.0572149,109
1660284524.50754,622.0572178,126
1660284524.50754,622.0572209,128
1660284524.50754,622.0572241,121
1660284524.50754,622.057227,114
1660284524.50754,622.0572301,114
1660284524.50754,622.0572331,107
1660284524.50754,622.057236,83
1660284524.50754,622.0572389,59
1660284524.50754,622.0572418,47
1660284524.50754,622.0572448,45
1660284524.50754,622.0572478,54
1660284524.50754,622.057251,59
1660284524.50754,622.0572562,50
1660284524.50754,622.0572595,35
1660284524.50754,622.0572628,23
1660284524.50754,622.0572661,26
1660284524.50754,622.0572711,42
1660284524.50754,622.0572745,52
1660284524.50754,622.0572779,47
1660284524.50754,622.0572813,28
1660284524.50754,622.0572848,21
1660284524.50754,622.0572883,31
1660284524.50754,622.0572918,42
1660284524.50754,622.0572956,42
1660284524.50754,622.057301,28
1660284524.50754,622.0573067,26
1660284524.50754,622.0573112,40
1660284524.50754,622.057319,38
1660284524.50754,622.057328,31
1660284524.50754,622.0573343,42
1660284524.50754,622.0573381,52
1660284524.50754,622.057343,33
1660284524.50754,622.0573464,23
1660284524.50754,622.0573496,42
1660284524.50754,622.0573527,57
1660284524.50754,622.5956544,54
1660284524.50754,622.5956779,52
1660284524.52049,622.5956855,54
1660284524.52049,622.5956913,54
1660284524.52049,622.5956966,47
1660284524.52049,622.5957021,45
1660284524.52049,622.5957054,54
1660284524.52049,622.5957089,59
1660284524.52049,622.5957138,50
1660284524.52049,622.5957172,45
1660284524.52049,622.5957222,33
1660284524.52049,622.5957256,107
1660284524.52049,622.5957332,434
1660284524.52049,622.5957408,792
1660284524.52049,622.5957487,628
1660284524.52049,622.5957574,33
1660284524.52049,622.5957985,-212
1660284524.52049,622.5958054,-59
1660284524.52049,622.5958101,-47
1660284524.52049,622.5958157,-119
1660284524.52049,622.5958192,-74
1660284524.52049,622.595824,-42
1660284524.52049,622.595827,-59
1660284524.52049,622.595831,-35
1660284524.52049,622.5958347,-23
1660284524.52049,622.5958396,-52
1660284525.09058,622.5958447,-66
1660284525.09058,622.5958482,-42
1660284525.09058,622.5958531,-16
1660284525.09058,622.5958594,-23
1660284525.09058,622.5958626,-33
1660284525.09058,622.5958675,-7
1660284525.09058,622.5958707,31
1660284525.09058,622.5958743,40
1660284525.09058,622.5958775,35
1660284525.09058,622.5958808,69
1660284525.09058,622.5958843,88
1660284525.09058,622.5958878,47
1660284525.09058,622.5958913,45
1660284525.09058,622.5958948,105
1660284525.09058,622.5958984,133
1660284525.09058,622.5959018,126
1660284525.09058,622.5959048,117
1660284525.09058,622.5959078,107
1660284525.09058,622.5959109,97
1660284525.09058,622.5959143,78
1660284525.09058,622.5959179,69
1660284525.09058,622.5959215,71
1660284525.09058,622.595925,42
1660284525.09058,622.5959285,11
1660284525.09058,622.5959378,23
1660284525.09058,622.5959443,52
1660284525.09058,622.5959529,52
1660284525.09058,622.5959593,38
1660284525.09058,622.5959644,33
1660284525.09058,622.5959704,19
1660284525.09058,622.5959758,11
1660284525.09058,622.5959819,31
1660284525.09058,622.5959882,35
1660284525.09058,622.596236,28
1660284525.09058,622.5962517,28
1660284525.09058,622.596258,21
1660284525.09058,622.5962629,26
1660284525.09058,622.596268,45
1660284525.09058,622.5962764,47
1660284525.09058,622.596282,47
1660284525.09058,622.5962868,59
1660284525.09058,622.5962915,71
1660284525.09058,622.5962961,66
1660284525.09058,622.5963007,59
1660284525.09058,622.5963054,66
1660284525.09058,622.5963101,81
1660284525.09058,622.5963154,76
1660284525.09058,623.1790512,47
1660284525.09058,623.1790694,28
1660284525.09058,623.1790762,33
1660284525.10353,623.17908,52
1660284525.10353,623.1790832,62
1660284525.10353,623.1790879,64
1660284525.10353,623.1790908,62
1660284525.10353,623.1790938,31
1660284525.10353,623.1790968,-2
1660284525.10353,623.1790998,14
1660284525.10353,623.1791029,45
1660284525.10353,623.1791058,42
1660284525.10353,623.1791087,47
1660284525.10353,623.1791116,45
1660284525.10353,623.1791146,7
1660284525.10353,623.1791176,57
1660284525.10353,623.1791205,355
1660284525.10353,623.1791234,747
1660284525.10353,623.1791265,759
1660284525.10353,623.1791295,243
1660284525.10353,623.1791324,-186
1660284525.10353,623.1791354,-128
1660284525.10353,623.1791383,0
1660284525.10353,623.1791412,-52
1660284525.10353,623.1791443,-66
1660284525.10353,623.1791472,-14
1660284525.10353,623.1791501,-4
1660284525.62805,623.179153,-11
1660284525.62805,623.1791572,7

1660284525.62805,623.1791609,28
1660284525.62805,623.1791642,40
1660284525.62805,623.1791674,59
1660284525.62805,623.1791707,74
1660284525.62805,623.1791738,64
1660284525.62805,623.179177,64
1660284525.62805,623.1791802,81
1660284525.62805,623.1791834,88
1660284525.62805,623.1791878,95
1660284525.62805,623.179191,119
1660284525.62805,623.1791943,140
1660284525.62805,623.1791976,150
1660284525.62805,623.1792008,162
1660284525.62805,623.1792041,167
1660284525.62805,623.1792079,181
1660284525.62805,623.1792122,212
1660284525.62805,623.1792159,217
1660284525.62805,623.1792188,179
1660284525.62805,623.179222,145
1660284525.62805,623.1792279,133
1660284525.62805,623.1792327,112
1660284525.62805,623.1792361,90
1660284525.62805,623.1792401,90
1660284525.62805,623.179245,83
1660284525.62805,623.1792482,54
1660284525.62805,623.1792515,45
1660284525.62805,623.1792556,52
1660284525.62805,623.1792587,38
1660284525.62805,623.1792619,19
1660284525.62805,623.1792652,21
1660284525.62805,623.1792684,19
1660284525.62805,623.1792717,11
1660284525.62805,623.179275,19
1660284525.62805,623.179278,35
1660284525.62805,623.1792811,42
1660284525.62805,623.1792843,35
1660284525.62805,623.1792876,21
1660284525.62805,623.1792956,11
1660284525.62805,623.1792987,16
1660284525.62805,623.1793018,33
1660284525.62805,623.179305,35
1660284525.62805,623.1793081,33
1660284525.62805,623.1793111,47
1660284525.62805,623.1793163,64
1660284525.62805,623.7157459,62
1660284525.62805,623.7157679,50
1660284525.62805,623.7157799,50
1660284525.62805,623.7157873,54
1660284525.65097,623.7157932,52
1660284525.65097,623.7157986,52
1660284525.65097,623.7158052,69
1660284525.65097,623.7158115,83
1660284525.65097,623.7158182,90
1660284525.65097,623.7158248,93
1660284525.65097,623.7158315,66
1660284525.65097,623.7158368,14
1660284525.65097,623.7158412,-11
1660284525.65097,623.7158451,4
1660284525.65097,623.7158506,23
1660284525.65097,623.7158566,26
1660284525.65097,623.715862,16
1660284525.65097,623.715871,-2
1660284525.65097,623.7158771,-4
1660284525.65097,623.7158823,93
1660284525.65097,623.7158923,382
1660284525.65097,623.7159001,759
1660284525.65097,623.7159072,749
1660284525.65097,623.7159134,188
1660284525.65097,623.7159191,-200
1660284525.65097,623.716018,-64
1660284525.65097,623.7160537,45
1660284525.65097,623.716062,-26
1660284526.21373,623.7160679,-16
1660284526.21373,623.716074,19
1660284526.21373,623.7160802,-4
1660284526.21373,623.7160863,7
1660284526.21373,623.7160927,40
1660284526.21373,623.7160989,40
1660284526.21373,623.716105,28
1660284526.21373,623.7161093,28
1660284526.21373,623.7161144,33
1660284526.21373,623.7161183,42
1660284526.21373,623.7161228,62
1660284526.21373,623.7161282,85
1660284526.21373,623.716134,88
1660284526.21373,623.7161398,74
1660284526.21373,623.7161448,81
1660284526.21373,623.716149,95
1660284526.21373,623.7161529,95
1660284526.21373,623.7161576,121
1660284526.21373,623.716163,145
1660284526.21373,623.7161685,121
1660284526.21373,623.7161727,109
1660284526.21373,623.7161769,138
1660284526.21373,623.716181,145
1660284526.21373,623.7161852,124
1660284526.21373,623.7161915,117
1660284526.21373,623.7161962,107
1660284526.21373,623.7162002,78
1660284526.21373,623.7162045,62
1660284526.21373,623.7162095,50
1660284526.21373,623.7162574,35
1660284526.21373,623.7162652,19
1660284526.21373,623.7163633,-9
1660284526.21373,623.7163918,-23
1660284526.21373,623.7163993,-11
1660284526.21373,623.7164032,-2
1660284526.21373,623.7164069,-4
1660284526.21373,623.7164104,-4
1660284526.21373,623.7164177,-4
1660284526.21373,623.7164215,-2
1660284526.21373,623.7164251,2
1660284526.21373,623.7164285,9
1660284526.21373,623.716432,16
1660284526.21373,623.7164355,28
1660284526.21373,623.716439,35
1660284526.21373,623.7164425,23
1660284526.21373,624.3003941,9
1660284526.21373,624.3004177,2
1660284526.21373,624.3004268,7
1660284526.21373,624.3004322,28
1660284526.21373,624.3004403,52
1660284526.23267,624.3004496,62
1660284526.23267,624.3004561,54
1660284526.23267,624.3004642,26
1660284526.23267,624.3004763,11
1660284526.23267,624.3005095,33
1660284526.23267,624.3005285,45
1660284526.23267,624.3005332,52
1660284526.23267,624.3005366,71
1660284526.23267,624.3005396,50
1660284526.23267,624.3005427,0
1660284526.23267,624.3005463,-2
1660284526.23267,624.3005511,21
1660284526.23267,624.3005544,26
1660284526.23267,624.3005577,26
1660284526.23267,624.3005614,40
1660284526.23267,624.3005651,47
1660284526.23267,624.3005683,54
1660284526.23267,624.3005716,150
1660284526.23267,624.3005746,453
1660284526.23267,624.3005777,812
1660284526.23267,624.3005809,714
1660284526.23267,624.3005852,112
1660284526.23267,624.3005888,-207
1660284526.23267,624.3005943,-26
1660284526.84465,624.3005977,62
1660284526.84465,624.3006009,-4
1660284526.84465,624.3006043,28
1660284526.84465,624.3006076,47
1660284526.84465,624.3006108,-9
1660284526.84465,624.300614,-11
1660284526.84465,624.3006172,31
1660284526.84465,624.3006205,50
1660284526.84465,624.3006246,59
1660284526.84465,624.3006278,59
1660284526.84465,624.300631,62
1660284526.84465,624.3006341,81
1660284526.84465,624.3006384,95
1660284526.84465,624.3006416,100
1660284526.84465,624.3006445,117
1660284526.84465,624.3006486,128
1660284526.84465,624.3006515,126
1660284526.84465,624.3006565,126
1660284526.84465,624.3006612,126
1660284526.84465,624.3006671,117
1660284526.84465,624.3006729,126
1660284526.84465,624.3006777,155
1660284526.84465,624.3006825,145
1660284526.84465,624.3006861,100
1660284526.84465,624.300689,93
1660284526.84465,624.300692,109
1660284526.84465,624.3006948,90
1660284526.84465,624.3007009,62
1660284526.84465,624.3007107,47
1660284526.84465,624.3007161,19
1660284526.84465,624.3007211,2
1660284526.84465,624.3007262,16
1660284526.84465,624.3007316,21
1660284526.84465,624.3007368,19
1660284526.84465,624.3007428,31
1660284526.84465,624.3007477,28
1660284526.84465,624.3007527,9
1660284526.84465,624.3007576,14
1660284526.84465,624.3007628,33
1660284526.84465,624.3007678,31
1660284526.84465,624.3007728,9
1660284526.84465,624.3007778,2
1660284526.84465,624.3007828,16
1660284526.84465,624.3007877,26
1660284526.84465,624.9350978,45
1660284526.84465,624.9351172,66
1660284526.84465,624.9351258,64
1660284526.84465,624.9351306,50
1660284526.84465,624.9351351,26
1660284526.84465,624.9351395,-9
1660284526.85661,624.9351439,-14
1660284526.85661,624.9351501,16
1660284526.85661,624.9351595,35
1660284526.85661,624.9351653,38
1660284526.85661,624.9351732,21
1660284526.85661,624.93518,4
1660284526.85661,624.9351924,9
1660284526.85661,624.9352005,23
1660284526.85661,624.9352072,31
1660284526.85661,624.9352495,35
1660284526.85661,624.9352564,33
1660284526.85661,624.9352617,26
1660284526.85661,624.9352681,19
1660284526.85661,624.9352741,9
1660284526.85661,624.93528,23
1660284526.85661,624.9352845,59
1660284526.85661,624.9352908,83
1660284526.85661,624.9352968,66
1660284526.85661,624.935302,40
1660284526.85661,624.9353083,152
1660284526.85661,624.935313,513
1660284526.85661,624.9353195,833
1660284526.85661,624.9353241,606
1660284526.85661,624.9353305,7
1660284527.34269,624.9353352,-186
1660284527.34269,624.9353397,14
1660284527.34269,624.9353442,50
1660284527.34269,624.9353486,-11
1660284527.34269,624.9353527,45
1660284527.34269,624.9353565,74
1660284527.34269,624.935362,31
1660284527.34269,624.9353683,38
1660284527.34269,624.9353804,83
1660284527.34269,624.9353909,93
1660284527.34269,624.9354007,76
1660284527.34269,624.9354079,64
1660284527.34269,624.9354144,62
1660284527.34269,624.9354237,64
1660284527.34269,624.9354284,64
1660284527.34269,624.9354351,66
1660284527.34269,624.9354384,85
1660284527.34269,624.9354416,112
1660284527.34269,624.9354538,117
1660284527.34269,624.9354665,117
1660284527.34269,624.9354761,143
1660284527.34269,624.9354786,160
1660284527.34269,624.9354858,136
1660284527.34269,624.9354987,124
1660284527.34269,624.9355108,136
1660284527.34269,624.9355204,124
1660284527.34269,624.9355293,100
1660284527.34269,624.9355365,97
1660284527.34269,624.9355424,93
1660284527.34269,624.9355517,62
1660284527.34269,624.9355571,28
1660284527.34269,624.935565,16
1660284527.34269,624.9355702,16
1660284527.34269,624.9355734,9
1660284527.34269,624.935587,-7
1660284527.34269,624.9356008,-11
1660284527.34269,624.9356147,-4
1660284527.34269,624.9356279,4
1660284527.34269,624.9356413,14
1660284527.34269,624.9356534,16
1660284527.34269,624.9356645,21
1660284527.34269,624.9356714,31
1660284527.34269,624.9356853,38
1660284527.34269,625.4213307,35
1660284527.34269,625.4213499,42
1660284527.34269,625.4213599,54
1660284527.34269,625.4213651,50
1660284527.34269,625.42137,38
1660284527.34269,625.421377,54
1660284527.34269,625.4213835,78
1660284527.35763,625.4213881,74
1660284527.35763,625.4213949,52
1660284527.35763,625.4213994,47
1660284527.35763,625.4214035,64
1660284527.35763,625.4214075,71
1660284527.35763,625.4214144,71
1660284527.35763,625.4214182,74
1660284527.35763,625.4214238,81
1660284527.35763,625.4214278,78
1660284527.35763,625.4214336,78
1660284527.35763,625.4214377,95
1660284527.35763,625.4214435,100
1660284527.35763,625.4214473,71
1660284527.35763,625.4214582,31
1660284527.35763,625.4215118,26
1660284527.35763,625.4215216,52
1660284527.35763,625.421526,59
1660284527.35763,625.4215293,66
1660284527.35763,625.4215325,78
1660284527.35763,625.4215359,52
1660284527.35763,625.4215392,33
1660284527.35763,625.4215427,181
1660284527.35763,625.4215478,551
1660284527.35763,625.4215511,833
1660284527.87662,625.4215544,575
1660284527.87662,625.4215577,-14
1660284527.87662,625.421561,-205
1660284527.87662,625.4215642,-19
1660284527.87662,625.4215673,11
1660284527.87662,625.4215706,-76
1660284527.87662,625.4215737,-59
1660284527.87662,625.421577,-23
1660284527.87662,625.4215802,-40
1660284527.87662,625.4215834,-40
1660284527.87662,625.4215866,-7
1660284527.87662,625.4215898,19
1660284527.87662,625.421593,21
1660284527.87662,625.4215962,9
1660284527.87662,625.4215995,0
1660284527.87662,625.4216028,16
1660284527.87662,625.4216059,33
1660284527.87662,625.4216092,31
1660284527.87662,625.4216124,42
1660284527.87662,625.4216156,71
1660284527.87662,625.421619,71
1660284527.87662,625.4216223,69
1660284527.87662,625.4216255,88
1660284527.87662,625.4216287,100
1660284527.87662,625.4216319,107
1660284527.87662,625.4216351,114
1660284527.87662,625.4216383,105
1660284527.87662,625.4216415,105
1660284527.87662,625.4216446,119
1660284527.87662,625.4216483,114
1660284527.87662,625.4216526,78
1660284527.87662,625.4216594,42
1660284527.87662,625.4216654,26
1660284527.87662,625.4216705,23
1660284527.87662,625.4216771,14
1660284527.87662,625.4216831,7
1660284527.87662,625.4216893,9
1660284527.87662,625.4216963,11
1660284527.87662,625.4217012,2
1660284527.87662,625.4217073,-4
1660284527.87662,625.4217128,11
1660284527.87662,625.421718,33
1660284527.87662,625.957543,31
1660284527.87662,625.9575625,19
1660284527.87662,625.9575713,28
1660284527.87662,625.9575786,47
1660284527.87662,625.9575867,47
1660284527.87662,625.957595,33
1660284527.87662,625.9576029,21
1660284527.87662,625.9576111,28
1660284527.88958,625.9576191,45
1660284527.88958,625.957628,54
1660284527.88958,625.9576355,28
1660284527.88958,625.9576416,-2
1660284527.88958,625.9576455,11
1660284527.88958,625.957651,38
1660284527.88958,625.9576567,33
1660284527.88958,625.9576622,28
1660284527.88958,625.9576658,21
1660284527.88958,625.9576712,-4
1660284527.88958,625.9576773,-9
1660284527.88958,625.9576838,9
1660284527.88958,625.9576876,28
1660284527.88958,625.957695,33
1660284527.88958,625.9577018,21
1660284527.88958,625.9577138,19
1660284527.88958,625.9577219,16
1660284527.88958,625.9577276,7
1660284527.88958,625.9577396,14
1660284527.88958,625.9577486,33
1660284527.88958,625.9577557,40
1660284527.88958,625.9577625,28
1660284527.88958,625.9577692,45
1660284527.88958,625.9577742,210
1660284528.44909,625.9577807,570
1660284528.44909,625.9577889,819
1660284528.44909,625.9577956,527
1660284528.44909,625.9578019,-31
1660284528.44909,625.9578082,-150
1660284528.44909,625.9578129,21
1660284528.44909,625.9578172,-4
1660284528.44909,625.9578215,-71
1660284528.44909,625.957826,-11
1660284528.44909,625.9578326,9
1660284528.44909,625.9578371,-19
1660284528.44909,625.9578417,0
1660284528.44909,625.957846,35
1660284528.44909,625.9578506,35
1660284528.44909,625.9578566,38
1660284528.44909,625.9578603,57
1660284528.44909,625.9578655,64
1660284528.44909,625.9578699,57
1660284528.44909,625.9578753,62
1660284528.44909,625.9578817,69
1660284528.44909,625.957888,81
1660284528.44909,625.957898,102
1660284528.44909,625.9579134,112
1660284528.44909,625.9579233,105
1660284528.44909,625.9579296,119
1660284528.44909,625.9579349,140
1660284528.44909,625.9579406,145
1660284528.44909,625.9579443,152
1660284528.44909,625.9579502,162
1660284528.44909,625.9579551,148
1660284528.44909,625.9579627,131
1660284528.44909,625.9579723,124
1660284528.44909,625.9579821,90
1660284528.44909,625.9579872,57
1660284528.44909,625.9579978,52
1660284528.44909,625.9580074,38
1660284528.44909,625.9580131,9
1660284528.44909,625.9580166,4
1660284528.44909,625.9580203,9
1660284528.44909,625.9580257,0
1660284528.44909,625.9580315,2
1660284528.44909,626.5426141,23
1660284528.44909,626.5426306,21
1660284528.44909,626.5426395,2
1660284528.44909,626.5426481,14
1660284528.44909,626.542655,35
1660284528.44909,626.5426619,31
1660284528.44909,626.5426689,16
1660284528.44909,626.5426798,-7
1660284528.44909,626.5426878,-19
1660284528.46504,626.5426957,7
1660284528.46504,626.542703,33
1660284528.46504,626.5427117,33
1660284528.46504,626.5427169,31
1660284528.46504,626.5427251,16
1660284528.46504,626.5427298,-19
1660284528.46504,626.5427387,-28
1660284528.46504,626.5427481,-4
1660284528.46504,626.5427546,11
1660284528.46504,626.5427593,7
1660284528.46504,626.5427649,9
1660284528.46504,626.5427694,21
1660284528.46504,626.5427751,21
1660284528.46504,626.5427787,19
1660284528.46504,626.5427824,31
1660284528.46504,626.5427878,33
1660284528.46504,626.5427925,9
1660284528.46504,626.5427984,0
1660284528.46504,626.5428018,16
1660284528.46504,626.5428092,28
1660284528.46504,626.5428404,14
1660284528.46504,626.5428471,4
1660284528.46504,626.5428508,23
1660284528.46504,626.5428563,47
1660284528.99019,626.54286,93
1660284528.99019,626.5428637,298
1660284528.99019,626.5428669,687
1660284528.99019,626.54287,847
1660284528.99019,626.5428749,406
1660284528.99019,626.5428805,-128
1660284528.99019,626.5428858,-124
1660284528.99019,626.5428909,62
1660284528.99019,626.5428954,19
1660284528.99019,626.542902,-28
1660284528.99019,626.5429072,35
1660284528.99019,626.5429104,59
1660284528.99019,626.5429136,45
1660284528.99019,626.5429169,54
1660284528.99019,626.5429201,62
1660284528.99019,626.5429231,54
1660284528.99019,626.5429267,71
1660284528.99019,626.5429301,93
1660284528.99019,626.5429334,85
1660284528.99019,626.5429369,81
1660284528.99019,626.5429405,97
1660284528.99019,626.5429455,112
1660284528.99019,626.5429524,117
1660284528.99019,626.5429572,136
1660284528.99019,626.5429611,155
1660284528.99019,626.5429644,157
1660284528.99019,626.5429678,152
1660284528.99019,626.5429714,157
1660284528.99019,626.5429748,157
1660284528.99019,626.5429782,155
1660284528.99019,626.542982,164
1660284528.99019,626.5429861,164
1660284528.99019,626.5429917,148
1660284528.99019,626.5429991,131
1660284528.99019,626.5430048,109
1660284528.99019,626.5430125,88
1660284528.99019,626.5430176,69
1660284528.99019,626.5430268,50
1660284528.99019,626.5430343,26
1660284528.99019,626.5430423,14
1660284528.99019,627.0801598,23
1660284528.99019,627.0802294,28
1660284528.99019,627.0802422,19
1660284528.99019,627.0802536,11
1660284528.99019,627.0802629,23
1660284528.99019,627.0802686,35
1660284528.99019,627.0802753,40
1660284528.99019,627.0802802,33
1660284528.99019,627.0802875,26
1660284528.99019,627.0802957,31
1660284529.00214,627.0803077,19
1660284529.00214,627.0803167,-7
1660284529.00214,627.0803239,-4
1660284529.00214,627.0803818,11
1660284529.00214,627.0804272,4
1660284529.00214,627.0804341,-7
1660284529.00214,627.0804377,-23
1660284529.00214,627.0804413,-50
1660284529.00214,627.080445,-52
1660284529.00214,627.0804485,-40
1660284529.00214,627.0804521,-47
1660284529.00214,627.0804557,-45
1660284529.00214,627.0804593,-26
1660284529.00214,627.0804628,-23
1660284529.00214,627.0804663,-28
1660284529.00214,627.0804698,-16
1660284529.00214,627.0804734,7
1660284529.00214,627.0804769,14
1660284529.00214,627.0804803,0
1660284529.00214,627.0804837,2
1660284529.00214,627.0804872,19
1660284529.00214,627.0804906,23
1660284529.00214,627.080494,16
1660284529.00214,627.0804975,28
1660284529.52984,627.080501,50
1660284529.52984,627.0805045,50
1660284529.52984,627.0805083,74
1660284529.52984,627.0805117,272
1660284529.52984,627.0805151,659
1660284529.52984,627.0805186,855
1660284529.52984,627.080522,472
1660284529.52984,627.0805255,-71
1660284529.52984,627.0805291,-128
1660284529.52984,627.0805325,50
1660284529.52984,627.0805358,23
1660284529.52984,627.0805391,-21
1660284529.52984,627.0805424,33
1660284529.52984,627.0805458,50
1660284529.52984,627.0805492,33
1660284529.52984,627.0805526,47
1660284529.52984,627.080556,57
1660284529.52984,627.0805594,42
1660284529.52984,627.0805627,40
1660284529.52984,627.0805661,50
1660284529.52984,627.0805694,52
1660284529.52984,627.0805727,52
1660284529.52984,627.0805761,59
1660284529.52984,627.0805796,76
1660284529.52984,627.0805831,105
1660284529.52984,627.0805864,119
1660284529.52984,627.0805899,109
1660284529.52984,627.0805934,109
1660284529.52984,627.0805967,126
1660284529.52984,627.0806001,140
1660284529.52984,627.0806035,162
1660284529.52984,627.080607,169
1660284529.52984,627.0806103,155
1660284529.52984,627.0806201,140
1660284529.52984,627.0806235,145
1660284529.52984,627.0806268,148
1660284529.52984,627.0806301,126
1660284529.52984,627.0806333,88
1660284529.52984,627.0806366,62
1660284529.52984,627.6193088,52
1660284529.52984,627.6193351,45
1660284529.52984,627.6194066,31
1660284529.52984,627.6194184,16
1660284529.52984,627.6194239,16
1660284529.52984,627.6194327,23
1660284529.52984,627.6194436,0
1660284529.52984,627.6194509,-52
1660284529.52984,627.6194582,-66
1660284529.52984,627.6194667,-50
1660284529.52984,627.619477,-59
1660284529.54379,627.6194829,-76
1660284529.54379,627.6194891,-64
1660284529.54379,627.6194939,-64
1660284529.54379,627.6195016,-95
1660284529.54379,627.6195071,-97
1660284529.54379,627.6195134,-66
1660284529.54379,627.6195176,-42
1660284529.54379,627.6195222,-42
1660284529.54379,627.6195323,-42
1660284529.54379,627.6196129,-33
1660284529.54379,627.6196239,-26
1660284529.54379,627.6196294,-33
1660284529.54379,627.619636,-35
1660284529.54379,627.6196437,-19
1660284529.54379,627.6196508,7
1660284529.54379,627.619657,16
1660284529.54379,627.619663,9
1660284529.54379,627.6196698,7
1660284529.54379,627.6196768,28
1660284529.54379,627.619682,47
1660284529.54379,627.6196881,52
1660284529.54379,627.6196944,47
1660284529.54379,627.6196979,45
1660284529.54379,627.619701,45
1660284530.15773,627.6197041,52
1660284530.15773,627.6197072,66
1660284530.15773,627.61971,71
1660284530.15773,627.6197128,69
1660284530.15773,627.619716,74
1660284530.15773,627.6197194,76
1660284530.15773,627.6197223,126
1660284530.15773,627.6197256,360
1660284530.15773,627.6197293,742
1660284530.15773,627.6197336,843
1660284530.15773,627.6197396,365
1660284530.15773,627.6197431,-107
1660284530.15773,627.6197467,-52
1660284530.15773,627.6197505,88
1660284530.15773,627.6197544,9
1660284530.15773,627.6197584,-14
1660284530.15773,627.6197624,38
1660284530.15773,627.6197681,31
1660284530.15773,627.6197713,19
1660284530.15773,627.6197762,47
1660284530.15773,627.6197797,57
1660284530.15773,627.6197828,52
1660284530.15773,627.6197858,62
1660284530.15773,627.6197891,71
1660284530.15773,627.6197943,71
1660284530.15773,627.6198005,81
1660284530.15773,627.6198078,102
1660284530.15773,627.6198139,107
1660284530.15773,627.61982,97
1660284530.15773,627.6198266,100
1660284530.15773,627.6198333,117
1660284530.15773,627.6198389,133
1660284530.15773,627.6198419,140
1660284530.15773,627.6198449,148
1660284530.15773,627.6198478,155
1660284530.15773,627.6198511,162
1660284530.15773,627.6198542,150
1660284530.15773,627.6198572,119
1660284530.15773,628.2512374,85
1660284530.15773,628.2512639,71
1660284530.15773,628.2512755,57
1660284530.15773,628.251285,11
1660284530.15773,628.2512938,-38
1660284530.15773,628.251306,-50
1660284530.15773,628.2513196,-52
1660284530.15773,628.2513296,-62
1660284530.15773,628.2513375,-54
1660284530.15773,628.2513498,-50
1660284530.15773,628.2513611,-78
1660284530.15773,628.2513714,-97
1660284530.16869,628.2513768,-81
1660284530.16869,628.2513876,-64
1660284530.16869,628.2513995,-64
1660284530.16869,628.2514088,-57
1660284530.16869,628.2514139,-50
1660284530.16869,628.2514206,-52
1660284530.16869,628.2514265,-47
1660284530.16869,628.251433,-26
1660284530.16869,628.2514376,-11
1660284530.16869,628.2514438,-14
1660284530.16869,628.2514489,-2
1660284530.16869,628.2514551,9
1660284530.16869,628.2514595,9
1660284530.16869,628.2514649,19
1660284530.16869,628.2514686,31
1660284530.16869,628.2514768,26
1660284530.16869,628.251487,23
1660284530.16869,628.2514984,38
1660284530.16869,628.251507,54
1660284530.16869,628.2515165,52
1660284530.16869,628.2515277,47
1660284530.16869,628.2515319,59
1660284530.16869,628.2515443,59
1660284530.16869,628.2515606,54
1660284530.74227,628.2515718,69
1660284530.74227,628.2515803,69
1660284530.74227,628.2515904,50
1660284530.74227,628.2515984,42
1660284530.74227,628.2516059,59
1660284530.74227,628.2516107,76
1660284530.74227,628.2516163,74
1660284530.74227,628.251622,71
1660284530.74227,628.2516295,85
1660284530.74227,628.2516408,114
1660284530.74227,628.2516516,243
1660284530.74227,628.2516606,585
1660284530.74227,628.2516658,878
1660284530.74227,628.2516731,632
1660284530.74227,628.2516801,62
1660284530.74227,628.2516934,-109
1660284530.74227,628.2517067,66
1660284530.74227,628.2517161,88
1660284530.74227,628.2517238,23
1660284530.74227,628.2517316,50
1660284530.74227,628.2517368,69
1660284530.74227,628.2517456,50
1660284530.74227,628.2517529,52
1660284530.74227,628.2517653,71
1660284530.74227,628.2517768,71
1660284530.74227,628.2517873,69
1660284530.74227,628.2517954,83
1660284530.74227,628.2518035,105
1660284530.74227,628.2518131,102
1660284530.74227,628.2518186,88
1660284530.74227,628.2518256,85
1660284530.74227,628.2518303,90
1660284530.74227,628.2518368,88
1660284530.74227,628.2518417,88
1660284530.74227,628.2518503,100
1660284530.74227,628.2518589,107
1660284530.74227,628.2518685,119
1660284530.74227,628.8339106,138
1660284530.74227,628.8339332,145
1660284530.74227,628.8339406,133
1660284530.74227,628.8339474,121
1660284530.74227,628.8339542,119
1660284530.74227,628.8339592,114
1660284530.74227,628.8339657,95
1660284530.74227,628.8339703,62
1660284530.74227,628.8339763,38
1660284530.74227,628.8339808,31
1660284530.74227,628.833987,23
1660284530.74227,628.8339916,26
1660284530.74227,628.8339978,35
1660284530.75422,628.8340072,7
1660284530.75422,628.8340156,-35
1660284530.75422,628.8340205,-28
1660284530.75422,628.8340301,-9
1660284530.75422,628.8340572,-14
1660284530.75422,628.8340682,-14
1660284530.75422,628.8340731,-9
1660284530.75422,628.8340795,-19
1660284530.75422,628.8340847,-19
1660284530.75422,628.834088,4
1660284530.75422,628.8340937,28
1660284530.75422,628.8341002,35
1660284530.75422,628.8341064,11
1660284530.75422,628.8341101,-26
1660284530.75422,628.8341137,-42
1660284530.75422,628.8341175,-21
1660284530.75422,628.8341214,-2
1660284530.75422,628.8341255,-9
1660284530.75422,628.8341296,-7
1660284530.75422,628.8341336,9
1660284530.75422,628.8341376,21
1660284530.75422,628.8341416,23
1660284530.75422,628.8341455,21
1660284530.75422,628.8341495,35
1660284531.28458,628.8341537,54
1660284531.28458,628.8341577,57
1660284531.28458,628.8341615,62
1660284531.28458,628.8341654,83
1660284531.28458,628.8341692,74
1660284531.28458,628.8341732,40
1660284531.28458,628.8341786,54
1660284531.28458,628.8341816,90
1660284531.28458,628.8341853,85
1660284531.28458,628.8341881,76
1660284531.28458,628.8341912,85
1660284531.28458,628.8341945,95
1660284531.28458,628.8341976,100
1660284531.28458,628.8342005,171
1660284531.28458,628.8342053,434
1660284531.28458,628.8342101,812
1660284531.28458,628.8342143,824
1660284531.28458,628.8342207,289
1660284531.28458,628.8342263,-119
1660284531.28458,628.8342309,-21
1660284531.28458,628.8342356,83
1660284531.28458,628.834241,0
1660284531.28458,628.8342479,-7
1660284531.28458,628.8342555,45
1660284531.28458,628.8342607,31
1660284531.28458,628.8342647,16
1660284531.28458,628.8342707,35
1660284531.28458,628.83428,42
1660284531.28458,628.8342877,42
1660284531.28458,628.8342958,57
1660284531.28458,628.8343071,66
1660284531.28458,628.8343209,76
1660284531.28458,628.8343335,83
1660284531.28458,628.8343431,81
1660284531.28458,628.8343561,90
1660284531.28458,628.8343661,119
1660284531.28458,629.3702664,114
1660284531.28458,629.3703346,97
1660284531.28458,629.3703745,126
1660284531.28458,629.3703825,167
1660284531.28458,629.3703874,157
1660284531.28458,629.3703953,136
1660284531.28458,629.3704016,140
1660284531.28458,629.3704144,148
1660284531.28458,629.3704239,136
1660284531.28458,629.3704316,112
1660284531.28458,629.3704352,69
1660284531.28458,629.3704396,23
1660284531.28458,629.3704428,7
1660284531.28458,629.370446,7
1660284531.29753,629.3704496,-9
1660284531.29753,629.370454,-23
1660284531.29753,629.3704572,-21
1660284531.29753,629.3704604,-16
1660284531.29753,629.3704638,-23
1660284531.29753,629.3704671,-31
1660284531.29753,629.3704719,-21
1660284531.29753,629.3704751,-7
1660284531.29753,629.3704784,-14
1660284531.29753,629.3704832,-35
1660284531.29753,629.3704883,-45
1660284531.29753,629.3704921,-35
1660284531.29753,629.3704954,-23
1660284531.29753,629.3704989,-16
1660284531.29753,629.3705021,-7
1660284531.29753,629.3705074,-2
1660284531.29753,629.3705108,7
1660284531.29753,629.3705159,7
1660284531.29753,629.3705189,2
1660284531.29753,629.370522,16
1660284531.29753,629.3705252,31
1660284531.29753,629.3705282,28
1660284531.29753,629.3705317,28
1660284531.29753,629.3705368,35
1660284531.81044,629.37054,35
1660284531.81044,629.3705429,35
1660284531.81044,629.370546,57
1660284531.81044,629.3705491,81
1660284531.81044,629.3705522,83
1660284531.81044,629.3705573,74
1660284531.81044,629.3705603,59
1660284531.81044,629.3705633,52
1660284531.81044,629.3705662,66
1660284531.81044,629.3705709,69
1660284531.81044,629.3705749,54
1660284531.81044,629.3705779,59
1660284531.81044,629.370581,64
1660284531.81044,629.3705846,40
1660284531.81044,629.3705881,45
1660284531.81044,629.3705937,174
1660284531.81044,629.3705978,487
1660284531.81044,629.3706031,807
1660284531.81044,629.3706084,652
1660284531.81044,629.3706115,47
1660284531.81044,629.3706149,-217
1660284531.81044,629.3706188,-9
1660284531.81044,629.370622,50
1660284531.81044,629.370625,-45
1660284531.81044,629.3706282,-7
1660284531.81044,629.3706313,50
1660284531.81044,629.3706344,35
1660284531.81044,629.3706373,26
1660284531.81044,629.3706403,28
1660284531.81044,629.3706435,31
1660284531.81044,629.3706466,42
1660284531.81044,629.3706497,64
1660284531.81044,629.3706528,74
1660284531.81044,629.3706558,74
1660284531.81044,629.3706589,71
1660284531.81044,629.9059895,76
1660284531.81044,629.9060081,93
1660284531.81044,629.906017,114
1660284531.81044,629.9060245,109
1660284531.81044,629.9060313,100
1660284531.81044,629.9060363,119
1660284531.81044,629.9060414,126
1660284531.81044,629.9060469,105
1660284531.81044,629.9060511,105
1660284531.81044,629.9060551,126
1660284531.81044,629.9060615,119
1660284531.81044,629.906066,95
1660284531.81044,629.9060724,78
1660284531.81044,629.9060764,33
1660284531.81044,629.9060824,-23
1660284531.82339,629.9060865,-31
1660284531.82339,629.9060907,-23
1660284531.82339,629.9060968,-42
1660284531.82339,629.9061015,-64
1660284531.82339,629.9061079,-69
1660284531.82339,629.9061127,-81
1660284531.82339,629.9061176,-83
1660284531.82339,629.9061242,-71
1660284531.82339,629.9061293,-74
1660284531.82339,629.9061364,-85
1660284531.82339,629.9061433,-69
1660284531.82339,629.9061632,-45
1660284531.82339,629.9061831,-47
1660284531.82339,629.9061988,-54
1660284531.82339,629.9062081,-35
1660284531.82339,629.9062143,-19
1660284531.82339,629.9062192,-11
1660284531.82339,629.9062237,-7
1660284531.82339,629.9062282,-11
1660284531.82339,629.9062333,-11
1660284531.82339,629.9062381,7
1660284531.82339,629.9062428,26
1660284531.82339,629.9062474,26
1660284531.82339,629.9062524,23
1660284532.35687,629.9062572,28
1660284532.35687,629.906262,21
1660284532.35687,629.9062672,19
1660284532.35687,629.9062734,26
1660284532.35687,629.9062809,16
1660284532.35687,629.9062866,0
1660284532.35687,629.9062913,2
1660284532.35687,629.9062956,19
1660284532.35687,629.9062998,28
1660284532.35687,629.9063036,38
1660284532.35687,629.9063074,42
1660284532.35687,629.9063118,42
1660284532.35687,629.9063162,47
1660284532.35687,629.9063204,47
1660284532.35687,629.9063245,35
1660284532.35687,629.9063289,38
1660284532.35687,629.9063331,59
1660284532.35687,629.9063377,71
1660284532.35687,629.9063421,71
1660284532.35687,629.9063466,164
1660284532.35687,629.906351,472
1660284532.35687,629.9063556,838
1660284532.35687,629.90636,764
1660284532.35687,629.9063644,188
1660284532.35687,629.9063693,-152
1660284532.35687,629.906374,-9
1660284532.35687,629.9063786,76
1660284532.35687,629.9063831,0
1660284532.35687,629.9063875,14
1660284532.35687,629.9063919,54
1660284532.35687,629.9063964,40
1660284532.35687,629.9064007,35
1660284532.35687,629.9064051,42
1660284532.35687,629.9064103,40
1660284532.35687,630.4435118,52
1660284532.35687,630.4435246,69
1660284532.35687,630.4435295,81
1660284532.35687,630.4435318,78
1660284532.35687,630.443534,62
1660284532.35687,630.4435361,71
1660284532.35687,630.4435382,90
1660284532.35687,630.4435403,78
1660284532.35687,630.4435424,76
1660284532.35687,630.4435445,100
1660284532.35687,630.4435466,90
1660284532.35687,630.4435487,69
1660284532.35687,630.4435508,76
1660284532.35687,630.4435529,78
1660284532.35687,630.4435551,71
1660284532.35687,630.4435572,66
1660284532.36783,630.4435593,28
1660284532.36783,630.4435625,-23
1660284532.36783,630.4435647,-33
1660284532.36783,630.4435668,-14
1660284532.36783,630.443569,-21
1660284532.36783,630.443571,-31
1660284532.36783,630.4435731,-38
1660284532.36783,630.4435752,-52
1660284532.36783,630.4435772,-52
1660284532.36783,630.4435792,-42
1660284532.36783,630.4435812,-45
1660284532.36783,630.4435833,-40
1660284532.36783,630.4435854,-26
1660284532.36783,630.4435874,-21
1660284532.36783,630.4435895,-21
1660284532.36783,630.4435916,-9
1660284532.36783,630.4435944,2
1660284532.36783,630.4436034,0
1660284532.36783,630.443614,-4
1660284532.36783,630.4436175,4
1660284532.36783,630.4436211,16
1660284532.36783,630.4436248,2
1660284532.36783,630.4436318,-9
1660284532.36783,630.4436431,4
1660284532.88516,630.4436483,19
1660284532.88516,630.4436504,21
1660284532.88516,630.4436524,28
1660284532.88516,630.4436543,40
1660284532.88516,630.4436606,38
1660284532.88516,630.4436717,35
1660284532.88516,630.4436757,47
1660284532.88516,630.4436814,50
1660284532.88516,630.44369,50
1660284532.88516,630.4436993,59
1660284532.88516,630.4437102,76
1660284532.88516,630.4437225,88
1660284532.88516,630.4437324,102
1660284532.88516,630.4437392,109
1660284532.88516,630.4437522,88
1660284532.88516,630.4437627,64
1660284532.88516,630.44377,76
1660284532.88516,630.4437821,100
1660284532.88516,630.4437926,105
1660284532.88516,630.4438026,97
1660284532.88516,630.4438115,93
1660284532.88516,630.443821,90
1660284532.88516,630.4438286,100
1660284532.88516,630.4438396,210
1660284532.88516,630.4438483,523
1660284532.88516,630.4438566,864
1660284532.88516,630.4438681,747
1660284532.88516,630.4438767,174
1660284532.88516,630.4438853,-114
1660284532.88516,630.4438961,45
1660284532.88516,630.4439043,100
1660284532.88516,630.4439145,4
1660284532.88516,630.4439249,31
1660284532.88516,630.978685,81
1660284532.88516,630.9787018,54
1660284532.88516,630.9787075,54
1660284532.88516,630.9787124,81
1660284532.88516,630.9787175,78
1660284532.88516,630.9787225,81
1660284532.88516,630.9787275,76

1660284532.88516,630.9787326,40
1660284532.88516,630.9787375,33
1660284532.88516,630.9787423,59
1660284532.88516,630.9787474,66
1660284532.88516,630.9787524,62
1660284532.88516,630.978757,64
1660284532.88516,630.9787619,40
1660284532.88516,630.9787664,21
1660284532.88516,630.9787703,42
1660284532.88516,630.9787746,64
1660284532.89812,630.9787784,64
1660284532.89812,630.9787826,52
1660284532.89812,630.9787868,33
1660284532.89812,630.978791,16
1660284532.89812,630.9787959,4
1660284532.89812,630.9788004,-16
1660284532.89812,630.9788071,-26
1660284532.89812,630.9788113,-16
1660284532.89812,630.9788173,-23
1660284532.89812,630.9788217,-45
1660284532.89812,630.9788279,-50
1660284532.89812,630.9788341,-54
1660284532.89812,630.9788386,-74
1660284532.89812,630.9788446,-71
1660284532.89812,630.9788489,-50
1660284532.89812,630.9788553,-54
1660284532.89812,630.9788595,-66
1660284532.89812,630.978864,-50
1660284532.89812,630.978871,-38
1660284532.89812,630.9788751,-33
1660284532.89812,630.9788805,-14
1660284532.89812,630.9788841,0
1660284532.89812,630.9788896,4
1660284532.89812,630.9788932,9
1660284533.56751,630.9788987,21
1660284533.56751,630.9789023,28
1660284533.56751,630.978906,38
1660284533.56751,630.9789096,52
1660284533.56751,630.9789136,54
1660284533.56751,630.9789176,42
1660284533.56751,630.9789216,47
1660284533.56751,630.9789256,76
1660284533.56751,630.9789292,90
1660284533.56751,630.9789327,76
1660284533.56751,630.9789362,69
1660284533.56751,630.9789402,78
1660284533.56751,630.978944,71
1660284533.56751,630.9789481,52
1660284533.56751,630.9789521,71
1660284533.56751,630.9789561,97
1660284533.56751,630.9789601,97
1660284533.56751,630.9789642,97
1660284533.56751,630.9789682,105
1660284533.56751,630.9789722,100
1660284533.56751,630.9789763,88
1660284533.56751,630.9789805,97
1660284533.56751,630.9789862,109
1660284533.56751,630.9789908,93
1660284533.56751,630.9789964,88
1660284533.56751,630.979,117
1660284533.56751,630.9790037,136
1660284533.56751,630.979013,222
1660284533.56751,630.979017,532
1660284533.56751,630.9790207,881
1660284533.56751,630.9790243,749
1660284533.56751,630.9790274,174
1660284533.56751,631.6615437,-95
1660284533.56751,631.6615652,74
1660284533.56751,631.6615774,121
1660284533.56751,631.6615929,16
1660284533.56751,631.6616021,7
1660284533.56751,631.6616104,35
1660284533.56751,631.6616192,28
1660284533.56751,631.6616245,38
1660284533.56751,631.6616353,57
1660284533.56751,631.6616481,45
1660284533.56751,631.6616584,16
1660284533.56751,631.6616679,2
1660284533.56751,631.6616806,14
1660284533.56751,631.6616906,33
1660284533.56751,631.6616996,26
1660284533.56751,631.6617047,0
1660284533.56751,631.6617117,2
1660284533.56751,631.6617179,26
1660284533.57947,631.6617267,47
1660284533.57947,631.6617311,57
1660284533.57947,631.6617415,50
1660284533.57947,631.6617525,38
1660284533.57947,631.6617613,35
1660284533.57947,631.661767,40
1660284533.57947,631.6617773,38
1660284533.57947,631.6617818,33
1660284533.57947,631.6617866,26
1660284533.57947,631.661789,11
1660284533.57947,631.6617964,9
1660284533.57947,631.6618307,14
1660284533.57947,631.661841,7
1660284533.57947,631.661846,-14
1660284533.57947,631.6618538,-14
1660284533.57947,631.6618607,7
1660284533.57947,631.6618651,7
1660284533.57947,631.6618742,-11
1660284533.57947,631.6618879,-2
1660284533.57947,631.6619009,19
1660284533.57947,631.661913,16
1660284533.57947,631.6619276,16
1660284533.57947,631.6619379,31
1660284533.57947,631.6619518,28
1660284534.06462,631.6619619,28
1660284534.06462,631.6619682,59
1660284534.06462,631.6619749,69
1660284534.06462,631.6619861,54
1660284534.06462,631.6619975,62
1660284534.06462,631.6620046,71
1660284534.06462,631.6620143,64
1660284534.06462,631.6620242,69
1660284534.06462,631.6620337,81
1660284534.06462,631.6620434,76
1660284534.06462,631.6620528,76
1660284534.06462,631.6620582,90
1660284534.06462,631.662063,95
1660284534.06462,631.662068,102
1660284534.06462,631.6620747,112
1660284534.06462,631.6620795,105
1660284534.06462,631.6620868,109
1660284534.06462,631.6620922,117
1660284534.06462,631.6621027,119
1660284534.06462,631.6621151,128
1660284534.06462,631.6621204,143
1660284534.06462,631.6621304,145
1660284534.06462,631.6621447,145
1660284534.06462,631.6621574,143
1660284534.06462,631.662171,128
1660284534.06462,631.6621852,124
1660284534.06462,631.6621993,138
1660284534.06462,631.6622079,143
1660284534.06462,631.6622187,138
1660284534.06462,631.6622278,145
1660284534.06462,631.6622332,155
1660284534.06462,632.1522198,229
1660284534.06462,632.152244,503
1660284534.06462,632.1522509,871
1660284534.06462,632.1522581,845
1660284534.06462,632.1522621,277
1660284534.06462,632.1522663,-112
1660284534.06462,632.1522694,19
1660284534.06462,632.152273,124
1660284534.06462,632.1522762,35
1660284534.06462,632.152281,40
1660284534.06462,632.1522846,97
1660284534.06462,632.1522903,85
1660284534.06462,632.1522939,76
1660284534.06462,632.1522972,97
1660284534.06462,632.1523004,83
1660284534.06462,632.1523038,54
1660284534.06462,632.152307,74
1660284534.06462,632.1523109,102
1660284534.06462,632.1523172,93
1660284534.07758,632.1523209,62
1660284534.07758,632.1523243,40
1660284534.07758,632.1523281,54
1660284534.07758,632.1523314,69
1660284534.07758,632.1523424,62
1660284534.07758,632.1523868,71
1660284534.07758,632.1524043,78
1660284534.07758,632.1524098,45
1660284534.07758,632.1524142,28
1660284534.07758,632.152418,54
1660284534.07758,632.1524219,59
1660284534.07758,632.1524262,40
1660284534.07758,632.1524303,33
1660284534.07758,632.1524347,31
1660284534.07758,632.1524595,21
1660284534.07758,632.1524652,14
1660284534.07758,632.1524707,-7
1660284534.07758,632.1524764,-33
1660284534.07758,632.1524796,-33
1660284534.07758,632.1524826,-23
1660284534.07758,632.1524855,-31
1660284534.07758,632.1524884,-28
1660284534.07758,632.1524914,-9
1660284534.07758,632.1524949,-2
1660284534.59383,632.1524977,-9
1660284534.59383,632.1525006,-11
1660284534.59383,632.1525034,-2
1660284534.59383,632.1525064,16
1660284534.59383,632.1525094,28
1660284534.59383,632.1525123,38
1660284534.59383,632.1525152,47
1660284534.59383,632.1525181,52
1660284534.59383,632.1525209,47
1660284534.59383,632.1525239,57
1660284534.59383,632.1525269,74
1660284534.59383,632.1525298,81
1660284534.59383,632.1525333,78
1660284534.59383,632.1525362,78
1660284534.59383,632.1525393,81
1660284534.59383,632.1525434,78
1660284534.59383,632.1525464,93
1660284534.59383,632.1525495,109
1660284534.59383,632.1525524,95
1660284534.59383,632.1525553,81
1660284534.59383,632.1525585,102
1660284534.59383,632.1525619,119
1660284534.59383,632.1525649,107
1660284534.59383,632.1525682,109
1660284534.59383,632.1525716,121
1660284534.59383,632.1525749,109
1660284534.59383,632.1525801,93
1660284534.59383,632.1525837,95
1660284534.59383,632.1525868,97
1660284534.59383,632.1525904,100
1660284534.59383,632.68687,112
1660284534.59383,632.6868901,112
1660284534.59383,632.6868966,109
1660284534.59383,632.6869037,117
1660284534.59383,632.6869095,112
1660284534.59383,632.6869136,183
1660284534.59383,632.6869191,460
1660284534.59383,632.6869232,812
1660284534.59383,632.6869303,781
1660284534.59383,632.6869342,207
1660284534.59383,632.68694,-219
1660284534.59383,632.6869439,-85
1660284534.59383,632.6869496,47
1660284534.59383,632.6869538,-40
1660284534.59383,632.6869589,-42
1660284534.59383,632.6869626,23
1660284534.59383,632.6869679,11
1660284534.59383,632.6869713,-2
1660284534.59383,632.6869747,21
1660284534.59383,632.6869781,33
1660284534.60579,632.6869815,28
1660284534.60579,632.6869876,40
1660284534.60579,632.6869918,38
1660284534.60579,632.6869974,2
1660284534.60579,632.6870021,-14
1660284534.60579,632.6870077,7
1660284534.60579,632.6870114,19
1660284534.60579,632.6870149,16
1660284534.60579,632.687021,26
1660284534.60579,632.6870247,40
1660284534.60579,632.6870284,33
1660284534.60579,632.687125,33
1660284534.60579,632.6871315,45
1660284534.60579,632.6871367,52
1660284534.60579,632.6871415,54
1660284534.60579,632.6871449,40
1660284534.60579,632.6871492,26
1660284534.60579,632.6871526,33
1660284534.60579,632.6871559,42
1660284534.60579,632.6871595,33
1660284534.60579,632.6871627,9
1660284534.60579,632.6871664,-11
1660284534.60579,632.6871704,-21
1660284534.60579,632.6871741,-14
1660284535.17733,632.6871775,-4
1660284535.17733,632.6871811,4
1660284535.17733,632.6871848,16
1660284535.17733,632.6871884,23
1660284535.17733,632.6871917,11
1660284535.17733,632.6871951,-7
1660284535.17733,632.6871985,-2
1660284535.17733,632.6872035,23
1660284535.17733,632.6872071,45
1660284535.17733,632.6872106,52
1660284535.17733,632.6872142,42
1660284535.17733,632.6872177,26
1660284535.17733,632.687221,42
1660284535.17733,632.6872244,69
1660284535.17733,632.687228,62
1660284535.17733,632.6872315,42
1660284535.17733,632.6872351,54
1660284535.17733,632.687239,62
1660284535.17733,632.6872427,59
1660284535.17733,632.6872463,69
1660284535.17733,632.6872497,78
1660284535.17733,632.6872533,74
1660284535.17733,632.6872568,66
1660284535.17733,632.6872604,64
1660284535.17733,632.6872636,66
1660284535.17733,632.6872665,69
1660284535.17733,632.6872695,76
1660284535.17733,632.6872726,107
1660284535.17733,632.6872757,119
1660284535.17733,633.2705818,93
1660284535.17733,633.2706016,71
1660284535.17733,633.2706063,64
1660284535.17733,633.2706125,52
1660284535.17733,633.2706162,59
1660284535.17733,633.2706198,81
1660284535.17733,633.2706254,64
1660284535.17733,633.2706289,33
1660284535.17733,633.2706325,33
1660284535.17733,633.2707225,45
1660284535.17733,633.2707334,119
1660284535.17733,633.2707407,408
1660284535.17733,633.2707442,788
1660284535.17733,633.2707527,745
1660284535.17733,633.2707587,157
1660284535.17733,633.2707673,-214
1660284535.17733,633.2707725,-57
1660284535.17733,633.2707811,31
1660284535.17733,633.2707908,-83
1660284535.17733,633.2707999,-88
1660284535.17733,633.270813,-33
1660284535.18929,633.2708223,-40
1660284535.18929,633.2708288,-28
1660284535.18929,633.2708349,4
1660284535.18929,633.2708406,0
1660284535.18929,633.2708463,-21
1660284535.18929,633.2708517,-26
1660284535.18929,633.2708579,-4
1660284535.18929,633.2708626,26
1660284535.18929,633.2708687,31
1660284535.18929,633.270873,11
1660284535.18929,633.2708804,9
1660284535.18929,633.2708858,33
1660284535.18929,633.2708922,40
1660284535.18929,633.2708972,28
1660284535.18929,633.2709015,33
1660284535.18929,633.2709522,50
1660284535.18929,633.2710019,59
1660284535.18929,633.271009,64
1660284535.18929,633.2710159,66
1660284535.18929,633.2710243,59
1660284535.18929,633.2710302,57
1660284535.18929,633.2710486,64
1660284535.18929,633.2710566,71
1660284535.18929,633.271065,54
1660284535.71559,633.2710738,11
1660284535.71559,633.2710808,-7
1660284535.71559,633.2710875,0
1660284535.71559,633.271094,0
1660284535.71559,633.2711416,2
1660284535.71559,633.2711527,7
1660284535.71559,633.2711577,9
1660284535.71559,633.2711663,26
1660284535.71559,633.2711783,38
1660284535.71559,633.2711876,26
1660284535.71559,633.271192,23
1660284535.71559,633.2711997,47
1660284535.71559,633.2712041,59
1660284535.71559,633.2712098,52
1660284535.71559,633.2712204,66
1660284535.71559,633.2712285,97
1660284535.71559,633.2712366,109
1660284535.71559,633.2712445,117
1660284535.71559,633.2712547,131
1660284535.71559,633.2712661,136
1660284535.71559,633.2712791,133
1660284535.71559,633.271289,117
1660284535.71559,633.2712958,109
1660284535.71559,633.2713007,121
1660284535.71559,633.2713071,133
1660284535.71559,633.2713113,126
1660284535.71559,633.2713167,112
1660284535.71559,633.27132,114
1660284535.71559,633.8085944,124
1660284535.71559,633.808617,119
1660284535.71559,633.8086247,121
1660284535.71559,633.8086326,136
1660284535.71559,633.8086399,128
1660284535.71559,633.8086516,107
1660284535.71559,633.8086613,81
1660284535.71559,633.8086683,64
1660284535.71559,633.8086743,74
1660284535.71559,633.8086781,62
1660284535.71559,633.8086836,11
1660284535.71559,633.8086896,-9
1660284535.71559,633.808698,23
1660284535.71559,633.8087024,33
1660284535.71559,633.8087059,21
1660284535.71559,633.8087095,143
1660284535.71559,633.8087152,494
1660284535.71559,633.8087187,812
1660284535.71559,633.8087222,618
1660284535.71559,633.8087256,28
1660284535.71559,633.808729,-195
1660284535.71559,633.8087329,-11
1660284535.72855,633.8087363,16
1660284535.72855,633.8087406,-69
1660284535.72855,633.8087454,-31
1660284535.72855,633.8087485,14
1660284535.72855,633.8087545,16
1660284535.72855,633.808766,31
1660284535.72855,633.8088901,47
1660284535.72855,633.8089023,50
1660284535.72855,633.8089195,52
1660284535.72855,633.8089267,57
1660284535.72855,633.8089316,54
1660284535.72855,633.8089363,54
1660284535.72855,633.8089424,76
1660284535.72855,633.8089467,90
1660284535.72855,633.8089512,78
1660284535.72855,633.808956,74
1660284535.72855,633.8089648,88
1660284535.72855,633.8089735,95
1660284535.72855,633.8089796,76
1660284535.72855,633.8089922,59
1660284535.72855,633.8089991,85
1660284535.72855,633.8090059,126
1660284535.72855,633.8090116,117
1660284535.72855,633.8090165,85
1660284536.25069,633.8090213,83
1660284536.25069,633.809028,90
1660284536.25069,633.8090369,78
1660284536.25069,633.8090439,69
1660284536.25069,633.8090487,71
1660284536.25069,633.8090534,64
1660284536.25069,633.8090589,50
1660284536.25069,633.809069,50
1660284536.25069,633.8090768,62
1660284536.25069,633.8090822,64
1660284536.25069,633.8090875,66
1660284536.25069,633.8090926,69
1660284536.25069,633.8090991,54
1660284536.25069,633.8091041,35
1660284536.25069,633.8091095,33
1660284536.25069,633.8091179,33
1660284536.25069,633.8091244,38
1660284536.25069,633.8091334,57
1660284536.25069,633.8091417,71
1660284536.25069,633.8091472,74
1660284536.25069,633.8091524,83
1660284536.25069,633.809159,81
1660284536.25069,633.809164,71
1660284536.25069,633.8091702,83
1660284536.25069,633.8091756,107
1660284536.25069,633.8091841,112
1660284536.25069,633.8091909,100
1660284536.25069,634.3429052,85
1660284536.25069,634.3429278,83
1660284536.25069,634.3429366,105
1660284536.25069,634.3429404,126
1660284536.25069,634.3429481,121
1660284536.25069,634.3429545,119
1660284536.25069,634.3429624,131
1660284536.25069,634.3429689,93
1660284536.25069,634.3429773,52
1660284536.25069,634.3429851,76
1660284536.25069,634.3429915,95
1660284536.25069,634.3429962,76
1660284536.25069,634.3430026,85
1660284536.25069,634.3430097,97
1660284536.25069,634.343016,76
1660284536.25069,634.3430296,71
1660284536.25069,634.3430406,157
1660284536.25069,634.3430466,422
1660284536.25069,634.3430552,790
1660284536.25069,634.3430628,804
1660284536.25069,634.3430707,265
1660284536.25069,634.3430773,-150
1660284536.25069,634.3430847,-11
1660284536.26464,634.3430922,138
1660284536.26464,634.3430995,64
1660284536.26464,634.3431095,62
1660284536.26464,634.3431206,124
1660284536.26464,634.3431298,112
1660284536.26464,634.3431383,78
1660284536.26464,634.3431441,74
1660284536.26464,634.3431522,90
1660284536.26464,634.3431592,105
1660284536.26464,634.3431665,107
1660284536.26464,634.3431728,126
1660284536.26464,634.3431807,143
1660284536.26464,634.3431863,131
1660284536.26464,634.3431944,119
1660284536.26464,634.3432014,133
1660284536.26464,634.3432085,148
1660284536.26464,634.3432477,152
1660284536.26464,634.343258,162
1660284536.26464,634.3432662,150
1660284536.26464,634.3432729,145
1660284536.26464,634.3432811,186
1660284536.26464,634.343287,205
1660284536.26464,634.3432962,157
1660284536.26464,634.3433039,114
1660284536.88343,634.3433148,119
1660284536.88343,634.3433232,128
1660284536.88343,634.3433293,119
1660284536.88343,634.3433349,107
1660284536.88343,634.3433387,83
1660284536.88343,634.343343,52
1660284536.88343,634.3433475,42
1660284536.88343,634.3433564,47
1660284536.88343,634.343383,40
1660284536.88343,634.3433885,23
1660284536.88343,634.3433949,31
1660284536.88343,634.3434013,54
1660284536.88343,634.3434058,69
1660284536.88343,634.3434141,66
1660284536.88343,634.3434223,64
1660284536.88343,634.3434309,59
1660284536.88343,634.3434398,66
1660284536.88343,634.3434476,90
1660284536.88343,634.3434539,95
1660284536.88343,634.34346,78
1660284536.88343,634.3434641,76
1660284536.88343,634.3434698,83
1660284536.88343,634.3434734,88
1660284536.88343,634.3434775,81
1660284536.88343,634.3434831,83
1660284536.88343,634.3434869,102
1660284536.88343,634.976415,109
1660284536.88343,634.9764345,109
1660284536.88343,634.9764435,102
1660284536.88343,634.9764501,69
1660284536.88343,634.9764551,40
1660284536.88343,634.976461,54
1660284536.88343,634.9764655,71
1660284536.88343,634.9764716,74
1660284536.88343,634.9764761,81
1660284536.88343,634.9764809,59
1660284536.88343,634.9764878,0
1660284536.88343,634.9764925,-21
1660284536.88343,634.9764976,2
1660284536.88343,634.9765023,14
1660284536.88343,634.9765083,16
1660284536.88343,634.9765128,26
1660284536.88343,634.9765193,16
1660284536.88343,634.9765242,21
1660284536.88343,634.9765302,179
1660284536.88343,634.9765338,554
1660284536.88343,634.9765369,795
1660284536.88343,634.9765399,444
1660284536.88343,634.9765428,-126
1660284536.88343,634.9765457,-198
1660284536.89638,634.9765488,-4
1660284536.89638,634.9765518,-14
1660284536.89638,634.9765548,-50
1660284536.89638,634.9765579,11
1660284536.89638,634.9765609,26
1660284536.89638,634.9765639,7
1660284536.89638,634.9765668,26
1660284536.89638,634.9765697,54
1660284536.89638,634.9765728,59
1660284536.89638,634.9765768,69
1660284536.89638,634.9765796,81
1660284536.89638,634.9765826,76
1660284536.89638,634.9765855,76
1660284536.89638,634.9765882,109
1660284536.89638,634.9765909,126
1660284536.89638,634.9765936,107
1660284536.89638,634.9765964,119
1660284536.89638,634.9765991,140
1660284536.89638,634.9766018,133
1660284536.89638,634.9766047,131
1660284536.89638,634.9766075,131
1660284536.89638,634.9766102,112
1660284536.89638,634.976617,109
1660284536.89638,634.9766293,114
1660284537.41357,634.9766425,102
1660284537.41357,634.9766501,90
1660284537.41357,634.9766594,78
1660284537.41357,634.9766667,59
1660284537.41357,634.976671,47
1660284537.41357,634.9766775,31
1660284537.41357,634.9766837,23
1660284537.41357,634.9766882,38
1660284537.41357,634.976692,28
1660284537.41357,634.9766959,9
1660284537.41357,634.9766997,19
1660284537.41357,634.9767034,31
1660284537.41357,634.9767074,40
1660284537.41357,634.9767118,62
1660284537.41357,634.9767151,50
1660284537.41357,634.9767184,21
1660284537.41357,634.9767217,35
1660284537.41357,634.9767248,54
1660284537.41357,634.9767278,47
1660284537.41357,634.9767314,47
1660284537.41357,634.9767353,64
1660284537.41357,634.9767448,81
1660284537.41357,634.9767481,66
1660284537.41357,634.9767568,42
1660284537.41357,634.9767652,59
1660284537.41357,635.5133421,74
1660284537.41357,635.5133567,54
1660284537.41357,635.5133604,45
1660284537.41357,635.5133635,64
1660284537.41357,635.5133665,76
1660284537.41357,635.5133695,83
1660284537.41357,635.5133725,85
1660284537.41357,635.5133771,85
1660284537.41357,635.5133851,97
1660284537.41357,635.5133888,112
1660284537.41357,635.5133933,117
1660284537.41357,635.513397,121
1660284537.41357,635.513403,100
1660284537.41357,635.5134088,35
1660284537.41357,635.5134153,0
1660284537.41357,635.51342,31
1660284537.41357,635.5134249,62
1660284537.41357,635.5134278,57
1660284537.41357,635.5134308,52
1660284537.41357,635.5134339,81
1660284537.41357,635.5134373,267
1660284537.41357,635.5134423,664
1660284537.41357,635.513446,824
1660284537.41357,635.5134489,360
1660284537.41357,635.5134516,-152
1660284537.42652,635.5134543,-131
1660284537.42652,635.5134571,28
1660284537.42652,635.5134599,-16
1660284537.42652,635.5134626,-42
1660284537.42652,635.5134654,-2
1660284537.42652,635.5134682,0
1660284537.42652,635.5135061,2
1660284537.42652,635.5135296,14
1660284537.42652,635.5135359,21
1660284537.42652,635.5135412,52
1660284537.42652,635.5135462,66
1660284537.42652,635.5135507,40
1660284537.42652,635.5135551,16
1660284537.42652,635.5135584,14
1660284537.42652,635.5135618,31
1660284537.42652,635.5135651,54
1660284537.42652,635.5135684,69
1660284537.42652,635.5135717,81
1660284537.42652,635.5135753,100
1660284537.42652,635.5136012,105
1660284537.42652,635.5136123,93
1660284537.42652,635.5136162,78
1660284537.42652,635.5136198,90
1660284537.42652,635.5136232,109
1660284538.00546,635.5136267,107
1660284538.00546,635.5136302,88
1660284538.00546,635.5136336,85
1660284538.00546,635.513637,85
1660284538.00546,635.5136405,71
1660284538.00546,635.513644,52
1660284538.00546,635.5136475,28
1660284538.00546,635.5136643,0
1660284538.00546,635.5136776,-16
1660284538.00546,635.5136828,-16
1660284538.00546,635.5136867,-7
1660284538.00546,635.5136901,2
1660284538.00546,635.5136938,9
1660284538.00546,635.5136974,14
1660284538.00546,635.5137021,2
1660284538.00546,635.5137066,-11
1660284538.00546,635.5137101,2
1660284538.00546,635.5137137,19
1660284538.00546,635.5137173,14
1660284538.00546,635.513721,16
1660284538.00546,635.5137246,40
1660284538.00546,635.5137283,50
1660284538.00546,635.5137321,50
1660284538.00546,635.5137361,64
1660284538.00546,636.0977873,78
1660284538.00546,636.0978055,93
1660284538.00546,636.0978126,102
1660284538.00546,636.0978172,105
1660284538.00546,636.0978235,102
1660284538.00546,636.0978303,97
1660284538.00546,636.097835,97
1660284538.00546,636.0978418,107
1660284538.00546,636.0978469,121
1660284538.00546,636.0978544,121
1660284538.00546,636.0978623,102
1660284538.00546,636.0978711,78
1660284538.00546,636.0978779,81
1660284538.00546,636.0978864,88
1660284538.00546,636.097893,88
1660284538.00546,636.0978996,83
1660284538.00546,636.0979043,59
1660284538.00546,636.0979104,38
1660284538.00546,636.0979149,57
1660284538.00546,636.0979196,69
1660284538.00546,636.0979241,59
1660284538.00546,636.0979296,176
1660284538.00546,636.0979342,532
1660284538.00546,636.0979414,867
1660284538.00546,636.0979478,697
1660284538.00546,636.0979564,131
1660284538.01941,636.0979618,-114
1660284538.01941,636.0979681,40
1660284538.01941,636.0979726,76
1660284538.01941,636.0979787,-4
1660284538.01941,636.0979859,16
1660284538.01941,636.0979946,33
1660284538.01941,636.0980015,19
1660284538.01941,636.0980101,38
1660284538.01941,636.0980176,42
1660284538.01941,636.0980255,45
1660284538.01941,636.0980326,62
1660284538.01941,636.0980417,54
1660284538.01941,636.0980489,35
1660284538.01941,636.0980577,45
1660284538.01941,636.0980665,64
1660284538.01941,636.0980729,50
1660284538.01941,636.0980794,40
1660284538.01941,636.0980864,83
1660284538.01941,636.0980974,112
1660284538.01941,636.098101,107
1660284538.01941,636.0981041,131
1660284538.01941,636.0981105,174
1660284538.01941,636.0981242,169
1660284538.01941,636.0981332,157
1660284538.53781,636.0981391,176
1660284538.53781,636.0981494,188
1660284538.53781,636.0981589,186
1660284538.53781,636.0981639,207
1660284538.53781,636.098168,193
1660284538.53781,636.0981726,150
1660284538.53781,636.0981775,157
1660284538.53781,636.0981815,164
1660284538.53781,636.0981904,117
1660284538.53781,636.0982024,105
1660284538.53781,636.0982167,114
1660284538.53781,636.0982297,90
1660284538.53781,636.0982417,83
1660284538.53781,636.0982554,100
1660284538.53781,636.098268,95
1660284538.53781,636.0982795,95
1660284538.53781,636.0982937,102
1660284538.53781,636.0983065,88
1660284538.53781,636.0983196,71
1660284538.53781,636.0983327,69
1660284538.53781,636.0983457,64
1660284538.53781,636.0983588,64
1660284538.53781,636.0983726,81
1660284538.53781,636.6341432,93
1660284538.53781,636.6341637,81
1660284538.53781,636.6341781,74
1660284538.53781,636.6341943,88
1660284538.53781,636.6342078,97
1660284538.53781,636.6342183,93
1660284538.53781,636.6342256,78
1660284538.53781,636.6342349,81
1660284538.53781,636.634244,102
1660284538.53781,636.6342511,117
1660284538.53781,636.6342562,97
