Time,TimeLsl,Value
1660293343.71416,9439.9771284,39
1660293343.71416,9439.9771468,116
1660293343.71416,9439.9771539,371
1660293343.71416,9439.9771586,773
1660293343.71416,9439.9771645,1146
1660293343.71416,9439.9771685,1053
1660293343.71416,9439.9771758,340
1660293343.71416,9439.9771792,-119
1660293343.71416,9439.9771925,58
1660293343.71416,9439.977206,128
1660293343.71416,9439.9772195,-35
1660293343.71416,9439.9772327,-21
1660293343.71416,9439.9772415,39
1660293343.71416,9439.9772452,2
1660293343.71416,9439.9772472,9
1660293343.71416,9439.9772493,46
1660293343.71416,9439.9772512,44
1660293343.71416,9439.9772538,49
1660293343.71416,9439.9772639,70
1660293343.71416,9439.9772728,88
1660293343.71416,9439.9772752,95
1660293343.71416,9439.9772772,86
1660293343.71416,9439.9772792,81
1660293343.71416,9439.9772812,109
1660293343.71416,9439.9772832,133
1660293343.71416,9439.9772852,130
1660293343.71416,9439.9772871,142
1660293343.71416,9439.9772923,170
1660293343.71416,9439.9773034,196
1660293343.71416,9439.9773087,219
1660293343.71416,9439.977311,242
1660293343.71416,9439.9773141,252
1660293343.71416,9439.9773161,254
1660293343.71416,9439.9773182,254
1660293343.71416,9439.977325,247
1660293343.71416,9439.9773363,221
1660293343.71416,9439.9773397,170
1660293343.71416,9439.9773426,109
1660293343.71416,9439.9773459,56
1660293343.71416,9439.9773556,14
1660293343.71416,9439.9773644,-14
1660293343.71416,9439.9773669,-32
1660293343.71416,9439.9773691,-49
1660293343.71416,9439.9773711,-53
1660293343.71416,9439.9773741,-46
1660293343.71416,9439.9773866,-37
1660293343.71416,9439.9773905,-42
1660293343.71416,9439.9773926,-46
1660293343.71416,9439.9773947,-44
1660293343.71416,9439.9773968,-42
1660293343.84261,9439.9774025,-35
1660293343.84261,9439.9774135,-25
1660293343.84261,9439.9774189,-21
1660293343.84261,9439.977421,-16
1660293343.84261,9439.977423,-11
1660293343.84261,9439.977425,-25
1660293343.84261,9439.9774277,-44
1660293343.84261,9439.9774382,-63
1660293343.84261,9439.9774511,-72
1660293343.84261,9439.977464,-67
1660293343.84261,9439.9774758,-63
1660293343.84261,9439.977489,-63
1660293343.84261,9439.9775034,-58
1660293343.84261,9439.9775166,-46
1660293343.84261,9439.9775298,-42
1660293343.84261,9439.9775429,-49
1660293343.84261,9439.977556,-49
1660293343.84261,9439.9775705,-35
1660293343.84261,9439.9775836,-32
1660293343.84261,9439.9775966,-42
1660293343.84261,9439.9776097,-32
1660293343.84261,9439.9776228,-16
1660293343.84261,9439.9776359,-16
1660293343.84261,9440.5143942,-18
1660293343.84261,9440.5144122,-11
1660293343.84261,9440.5144174,-2
1660293343.84261,9440.5144219,2
1660293343.84261,9440.5144275,7
1660293343.84261,9440.5144324,7
1660293343.84261,9440.5144373,0
1660293343.84261,9440.5144427,9
1660293343.84261,9440.5144513,25
1660293343.84261,9440.5144574,25
1660293343.84261,9440.5144612,25
1660293343.84261,9440.5144655,21
1660293343.84261,9440.5144696,-9
1660293343.84261,9440.5144746,-23
1660293343.84261,9440.5144798,-4
1660293343.84261,9440.5144843,11
1660293343.84261,9440.51449,21
1660293343.84261,9440.514499,23
1660293343.84261,9440.5145061,0
1660293343.84261,9440.5145117,-11
1660293343.84261,9440.514517,2
1660293343.84261,9440.5145216,2
1660293343.84261,9440.5145262,-25
1660293343.84261,9440.5145334,-28
1660293343.84261,9440.5145401,-4
1660293343.84261,9440.5145442,0
1660293343.84261,9440.5145506,-18
1660293343.8845,9440.5145573,-28
1660293343.8845,9440.5145634,0
1660293343.8845,9440.5145692,163
1660293343.8845,9440.5145754,525
1660293343.8845,9440.5145826,976
1660293343.8845,9440.5145917,1237
1660293343.8845,9440.5145993,845
1660293343.8845,9440.5146056,53
1660293343.8845,9440.5146101,-128
1660293343.8845,9440.5146174,123
1660293343.8845,9440.5146272,72
1660293343.8845,9440.5146339,-42
1660293343.8845,9440.5146405,18
1660293343.8845,9440.5146461,37
1660293343.8845,9440.5146516,2
1660293343.8845,9440.5146606,16
1660293343.8845,9440.5146684,39
1660293343.8845,9440.5146741,46
1660293343.8845,9440.5146807,56
1660293343.8845,9440.5146885,74
1660293343.8845,9440.5146975,88
1660293343.8845,9440.5147057,88
1660293343.8845,9440.5147222,81
1660293343.8845,9440.5147378,86
1660293343.8845,9440.5148189,102
1660293343.8845,9440.5148276,128
1660293343.8845,9440.5148323,151
1660293343.8845,9440.5148386,165
1660293343.8845,9440.5148423,186
1660293343.8845,9440.5148789,214
1660293343.8845,9440.514896,240
1660293343.8845,9440.5149032,252
1660293343.8845,9440.5149074,259
1660293343.8845,9440.514913,275
1660293343.8845,9440.5149168,261
1660293343.8845,9440.5149205,221
1660293343.8845,9440.514924,182
1660293343.8845,9440.5149273,121
1660293343.8845,9440.5149305,53
1660293343.8845,9440.5149501,2
1660293343.8845,9440.5149649,-32
1660293343.8845,9440.5149738,-53
1660293343.8845,9440.5149812,-65
1660293343.8845,9440.5149884,-74
1660293343.8845,9440.5149952,-79
1660293343.8845,9440.5150014,-74
1660293343.8845,9441.099029,-60
1660293343.8845,9441.0990501,-53
1660293343.8845,9441.0990644,-60
1660293343.8845,9441.099072,-46
1660293343.90445,9441.0990787,-32
1660293343.90445,9441.0990855,-39
1660293343.90445,9441.0990926,-37
1660293343.90445,9441.0990976,-21
1660293343.90445,9441.0991028,-46
1660293343.90445,9441.0991074,-77
1660293343.90445,9441.0991119,-58
1660293343.90445,9441.0991164,-42
1660293343.90445,9441.0991208,-39
1660293343.90445,9441.0991287,-23
1660293343.90445,9441.099136,-37
1660293343.90445,9441.0991411,-84
1660293343.90445,9441.099152,-93
1660293343.90445,9441.099162,-74
1660293343.90445,9441.0991669,-65
1660293343.90445,9441.0991703,-58
1660293343.90445,9441.0991743,-49
1660293343.90445,9441.099178,-65
1660293343.90445,9441.0991812,-72
1660293343.90445,9441.0991841,-60
1660293343.90445,9441.0991879,-67
1660293343.90445,9441.0991918,-72
1660293343.90445,9441.0991962,-63
1660293343.90445,9441.0991999,-70
1660293343.90445,9441.0992034,-77
1660293343.90445,9441.0992069,-63
1660293343.90445,9441.0992103,-56
1660293343.90445,9441.0992137,-58
1660293343.90445,9441.0992169,-39
1660293343.90445,9441.0992212,-32
1660293343.90445,9441.0992263,-53
1660293343.90445,9441.099231,-53
1660293343.90445,9441.0992339,-35
1660293343.90445,9441.0992406,-37
1660293343.90445,9441.0992471,-44
1660293343.90445,9441.0992507,-35
1660293343.90445,9441.0992549,-37
1660293343.90445,9441.0992592,-51
1660293343.90445,9441.0992628,-46
1660293343.90445,9441.0992671,-21
1660293343.90445,9441.0992709,-7
1660293343.90445,9441.0992749,-16
1660293343.90445,9441.0992783,-28
1660293343.90445,9441.099282,-28
1660293343.90445,9441.0992852,-14
1660293343.90445,9441.0992883,-4
1660293343.90445,9441.0992931,-4
1660293343.90445,9441.0992964,-9
1660293343.90445,9441.0993019,-2
1660293343.90445,9441.0993067,100
1660293343.91442,9441.0993104,397
1660293343.91442,9441.0993149,859
1660293343.91442,9441.0993204,1263
1660293343.91442,9441.099324,1090
1660293343.91442,9441.0993364,282
1660293343.91442,9441.0993445,-149
1660293343.91442,9441.0993512,77
1660293343.91442,9441.0993572,130
1660293343.91442,9441.0993632,-23
1660293343.91442,9441.0993692,0
1660293343.91442,9441.0993748,42
1660293343.91442,9441.0993809,14
1660293343.91442,9441.0993883,37
1660293343.91442,9441.0993979,60
1660293343.91442,9441.0994067,42
1660293343.91442,9441.0994133,53
1660293343.91442,9441.0994174,88
1660293343.91442,9441.0994242,95
1660293343.91442,9441.0994275,91
1660293343.91442,9441.7321838,109
1660293343.91442,9441.7322026,135
1660293343.91442,9441.7322094,142
1660293344.17453,9441.7322137,149
1660293344.17453,9441.7322187,177
1660293344.17453,9441.7322256,217
1660293344.17453,9441.7322296,247
1660293344.17453,9441.7322356,259
1660293344.17453,9441.7322424,259
1660293344.17453,9441.732247,282
1660293344.17453,9441.7322506,315
1660293344.17453,9441.7322538,298
1660293344.17453,9441.7322572,249
1660293344.17453,9441.7322605,228
1660293344.17453,9441.7322653,203
1660293344.17453,9441.7322702,135
1660293344.17453,9441.7322743,65
1660293344.17453,9441.7322809,2
1660293344.17453,9441.7322866,-65
1660293344.17453,9441.7322916,-93
1660293344.17453,9441.7323009,-91
1660293344.17453,9441.7323098,-112
1660293344.17453,9441.7323169,-116
1660293344.17453,9441.7323302,-93
1660293344.17453,9441.7323435,-88
1660293344.17453,9441.7323506,-93
1660293344.17453,9441.7323571,-72
1660293344.17453,9441.7323658,-51
1660293344.17453,9441.7323751,-49
1660293344.17453,9441.7323825,-60
1660293344.17453,9441.7323888,-56
1660293344.17453,9441.7323938,-25
1660293344.17453,9441.7323994,-21
1660293344.17453,9441.7324045,-44
1660293344.17453,9441.7324103,-35
1660293344.17453,9441.7324161,-21
1660293344.17453,9441.7324222,-23
1660293344.17453,9441.7324269,-30
1660293344.17453,9441.7324406,-23
1660293344.17453,9441.7324538,-4
1660293344.17453,9441.7324638,4
1660293344.17453,9441.7324694,2
1660293344.17453,9441.7324824,0
1660293344.17453,9441.7324966,7
1660293344.17453,9441.7325092,16
1660293344.17453,9441.732519,14
1660293344.17453,9441.7325263,25
1660293344.17453,9441.7325319,35
1660293344.17453,9441.732541,23
1660293344.17453,9441.7325463,25
1660293344.17453,9441.7325586,46
1660293344.17453,9441.7325677,49
1660293344.17453,9441.7325722,42
1660293344.23137,9441.7325782,46
1660293344.23137,9441.7325819,58
1660293344.23137,9441.7325862,53
1660293344.23137,9441.7325917,44
1660293344.23137,9441.7325964,44
1660293344.23137,9441.7326019,49
1660293344.23137,9441.732606,56
1660293344.23137,9441.7326099,58
1660293344.23137,9441.7326138,58
1660293344.23137,9441.7326203,58
1660293344.23137,9441.7326246,49
1660293344.23137,9441.7326297,16
1660293344.23137,9441.7326335,4
1660293344.23137,9441.7326372,28
1660293344.23137,9441.7326411,32
1660293344.23137,9441.7326464,28
1660293344.23137,9441.7326508,18
1660293344.23137,9441.7326561,11
1660293344.23137,9441.7326619,28
1660293344.23137,9441.7326655,53
1660293344.23137,9442.2691314,77
1660293344.23137,9442.2691525,98
1660293344.23137,9442.2691672,84
1660293344.23137,9442.2691841,39
1660293344.75893,9442.269197,35
1660293344.75893,9442.2692055,60
1660293344.75893,9442.2692109,60
1660293344.75893,9442.269215,46
1660293344.75893,9442.269219,32
1660293344.75893,9442.2692232,14
1660293344.75893,9442.2692276,-2
1660293344.75893,9442.269233,65
1660293344.75893,9442.269237,329
1660293344.75893,9442.2692414,775
1660293344.75893,9442.2692456,1235
1660293344.75893,9442.2692509,1258
1660293344.75893,9442.2692555,516
1660293344.75893,9442.2692601,-154
1660293344.75893,9442.2692648,-23
1660293344.75893,9442.2692692,163
1660293344.75893,9442.2692739,0
1660293344.75893,9442.2692785,-51
1660293344.75893,9442.2692833,18
1660293344.75893,9442.2692879,-4
1660293344.75893,9442.2692927,-23
1660293344.75893,9442.2692969,11
1660293344.75893,9442.2693014,25
1660293344.75893,9442.2693057,16
1660293344.75893,9442.2693101,30
1660293344.75893,9442.2693145,51
1660293344.75893,9442.2693189,58
1660293344.75893,9442.2693249,81
1660293344.75893,9442.2693294,112
1660293344.75893,9442.2693338,107
1660293344.75893,9442.2693383,107
1660293344.75893,9442.2693429,142
1660293344.75893,9442.2693474,172
1660293344.75893,9442.2693519,189
1660293344.75893,9442.2693562,217
1660293344.75893,9442.2693605,242
1660293344.75893,9442.2693649,254
1660293344.75893,9442.2693693,259
1660293344.75893,9442.2693739,268
1660293344.75893,9442.2693788,275
1660293344.75893,9442.2693832,273
1660293344.75893,9442.2693877,240
1660293344.75893,9442.2693921,186
1660293344.75893,9442.2693964,130
1660293344.75893,9442.2694007,74
1660293344.75893,9442.2694051,30
1660293344.75893,9442.2694097,7
1660293344.75893,9442.2694143,-2
1660293344.75893,9442.2694191,-14
1660293344.75893,9442.2694239,-28
1660293344.76947,9442.2694286,-28
1660293344.76947,9442.2694334,-16
1660293344.76947,9442.2694382,-4
1660293344.76947,9442.2694427,-4
1660293344.76947,9442.2694472,2
1660293344.76947,9442.2694517,11
1660293344.76947,9442.2694562,14
1660293344.76947,9442.2694609,23
1660293344.76947,9442.2694654,35
1660293344.76947,9442.2694701,44
1660293344.76947,9442.2694747,49
1660293344.76947,9442.2694792,56
1660293344.76947,9442.2694836,65
1660293344.76947,9442.2694881,77
1660293344.76947,9442.2694926,74
1660293344.76947,9442.2694971,70
1660293344.76947,9442.2695019,74
1660293344.76947,9442.2695065,86
1660293344.76947,9442.269511,88
1660293344.76947,9442.8537159,91
1660293344.76947,9442.8537357,93
1660293344.76947,9442.8537446,86
1660293344.76947,9442.8537487,88
1660293344.76947,9442.8537534,93
1660293345.24648,9442.8537563,88
1660293345.24648,9442.8537594,93
1660293345.24648,9442.8537628,105
1660293345.24648,9442.853766,102
1660293345.24648,9442.8537691,95
1660293345.24648,9442.8537725,105
1660293345.24648,9442.8537758,114
1660293345.24648,9442.8537792,107
1660293345.24648,9442.8537825,98
1660293345.24648,9442.8537858,100
1660293345.24648,9442.8537887,109
1660293345.24648,9442.8537921,112
1660293345.24648,9442.8537958,100
1660293345.24648,9442.8538017,74
1660293345.24648,9442.8538058,49
1660293345.24648,9442.8538089,35
1660293345.24648,9442.853812,30
1660293345.24648,9442.8538151,32
1660293345.24648,9442.8538185,35
1660293345.24648,9442.8538235,21
1660293345.24648,9442.8538266,2
1660293345.24648,9442.8538302,-2
1660293345.24648,9442.8538351,-2
1660293345.24648,9442.8538383,-2
1660293345.24648,9442.8538415,0
1660293345.24648,9442.8538453,-9
1660293345.24648,9442.8538505,-18
1660293345.24648,9442.8538549,-9
1660293345.24648,9442.8538593,-4
1660293345.24648,9442.8538624,-7
1660293345.24648,9442.8538661,4
1660293345.24648,9442.8538694,7
1660293345.24648,9442.8538727,-4
1660293345.24648,9442.8538759,7
1660293345.24648,9442.853879,37
1660293345.24648,9442.8538824,58
1660293345.24648,9442.8538876,58
1660293345.24648,9442.8538909,58
1660293345.24648,9442.8538942,56
1660293345.24648,9442.8538993,37
1660293345.24648,9442.8539046,9
1660293345.24648,9442.8539076,7
1660293345.24648,9442.8539106,28
1660293345.24648,9442.8539137,35
1660293345.24648,9442.853917,25
1660293345.24648,9442.8539225,11
1660293345.24648,9442.8539283,18
1660293345.24648,9442.8539341,144
1660293345.24648,9442.8539399,492
1660293345.24648,9442.8539434,983
1660293345.25845,9442.8539469,1333
1660293345.25845,9442.8539502,1039
1660293345.25845,9442.8539533,207
1660293345.25845,9442.853959,-121
1660293345.25845,9442.8539626,128
1660293345.25845,9442.8539662,133
1660293345.25845,9442.8539713,-23
1660293345.25845,9442.8539743,16
1660293345.25845,9442.8539775,56
1660293345.25845,9442.8539808,18
1660293345.25845,9442.8539839,32
1660293345.25845,9442.8539874,65
1660293345.25845,9442.8539912,67
1660293345.25845,9442.8539949,72
1660293345.25845,9442.8539984,86
1660293345.25845,9442.8540039,100
1660293345.25845,9442.8540071,114
1660293345.25845,9442.8540103,128
1660293345.25845,9443.3419854,147
1660293345.25845,9443.3420067,163
1660293345.25845,9443.3420157,172
1660293345.25845,9443.3420183,186
1660293345.25845,9443.3420204,203
1660293345.25845,9443.3420241,210
1660293345.82896,9443.3420344,228
1660293345.82896,9443.3420389,252
1660293345.82896,9443.3420432,249
1660293345.82896,9443.3420491,235
1660293345.82896,9443.3420546,242
1660293345.82896,9443.3420636,249
1660293345.82896,9443.3420735,226
1660293345.82896,9443.3420811,179
1660293345.82896,9443.342087,126
1660293345.82896,9443.3420935,53
1660293345.82896,9443.3421002,-7
1660293345.82896,9443.3421075,-35
1660293345.82896,9443.3421149,-56
1660293345.82896,9443.3421236,-77
1660293345.82896,9443.3421327,-77
1660293345.82896,9443.3421378,-74
1660293345.82896,9443.3421903,-74
1660293345.82896,9443.342218,-63
1660293345.82896,9443.3422265,-49
1660293345.82896,9443.3422306,-49
1660293345.82896,9443.3422361,-37
1660293345.82896,9443.3422395,-21
1660293345.82896,9443.3422445,-16
1660293345.82896,9443.3422479,-9
1660293345.82896,9443.3422511,7
1660293345.82896,9443.3422542,11
1660293345.82896,9443.3422572,11
1660293345.82896,9443.3422618,23
1660293345.82896,9443.3422668,28
1660293345.82896,9443.3422714,28
1660293345.82896,9443.3422767,23
1660293345.82896,9443.3422802,21
1660293345.82896,9443.3422853,30
1660293345.82896,9443.3422885,44
1660293345.82896,9443.3422939,46
1660293345.82896,9443.3422973,53
1660293345.82896,9443.3423025,58
1660293345.82896,9443.342306,58
1660293345.82896,9443.3423108,58
1660293345.82896,9443.342314,63
1660293345.82896,9443.3423169,70
1660293345.82896,9443.3423199,74
1660293345.82896,9443.342323,77
1660293345.82896,9443.3423282,79
1660293345.82896,9443.3423315,84
1660293345.82896,9443.3423369,88
1660293345.82896,9443.3423416,81
1660293345.82896,9443.3423458,79
1660293345.82896,9443.3423509,81
1660293345.82896,9443.3423539,77
1660293345.83993,9443.3423567,79
1660293345.83993,9443.34236,86
1660293345.83993,9443.3423642,88
1660293345.83993,9443.3423677,79
1660293345.83993,9443.3423706,70
1660293345.83993,9443.3423737,67
1660293345.83993,9443.3423768,70
1660293345.83993,9443.3423802,67
1660293345.83993,9443.3423837,65
1660293345.83993,9443.3423869,63
1660293345.83993,9443.34239,65
1660293345.83993,9443.3423935,65
1660293345.83993,9443.3423964,56
1660293345.83993,9443.3423997,53
1660293345.83993,9443.3424031,65
1660293345.83993,9443.3424135,67
1660293345.83993,9443.3424169,65
1660293345.83993,9443.9266221,60
1660293345.83993,9443.9266426,65
1660293345.83993,9443.9266477,77
1660293345.83993,9443.9266517,81
1660293345.83993,9443.9266556,72
1660293345.83993,9443.9266592,58
1660293345.83993,9443.9266627,49
1660293346.31665,9443.9266671,60
1660293346.31665,9443.9266727,74
1660293346.31665,9443.9266762,72
1660293346.31665,9443.9266795,67
1660293346.31665,9443.9266861,72
1660293346.31665,9443.926693,74
1660293346.31665,9443.9266998,79
1660293346.31665,9443.9267076,84
1660293346.31665,9443.9267146,88
1660293346.31665,9443.9267216,88
1660293346.31665,9443.9267295,60
1660293346.31665,9443.9267381,18
1660293346.31665,9443.9267468,11
1660293346.31665,9443.9267541,30
1660293346.31665,9443.9267613,37
1660293346.31665,9443.9267682,39
1660293346.31665,9443.9267736,28
1660293346.31665,9443.9267791,11
1660293346.31665,9443.9267855,107
1660293346.31665,9443.9267953,399
1660293346.31665,9443.9268028,808
1660293346.31665,9443.9268052,1137
1660293346.31665,9443.9268072,950
1660293346.31665,9443.9268104,238
1660293346.31665,9443.9268232,-109
1660293346.31665,9443.9268292,91
1660293346.31665,9443.9268313,121
1660293346.31665,9443.9268334,-16
1660293346.31665,9443.9268355,14
1660293346.31665,9443.9268375,53
1660293346.31665,9443.9268398,14
1660293346.31665,9443.9268494,18
1660293346.31665,9443.926858,51
1660293346.31665,9443.9268605,51
1660293346.31665,9443.9268625,60
1660293346.31665,9443.9268645,79
1660293346.31665,9443.9268665,81
1660293346.31665,9443.9268732,88
1660293346.31665,9443.926884,109
1660293346.31665,9443.9268885,126
1660293346.31665,9443.9268906,135
1660293346.31665,9443.9268927,149
1660293346.31665,9443.9269002,168
1660293346.31665,9443.9269106,186
1660293346.31665,9443.926914,200
1660293346.31665,9443.9269179,217
1660293346.31665,9443.926923,242
1660293346.31665,9443.9269341,256
1660293346.31665,9443.9269394,259
1660293346.31665,9443.9269415,263
1660293346.32846,9443.9269441,268
1660293346.32846,9443.9269469,266
1660293346.32846,9443.9269575,235
1660293346.32846,9443.9269702,184
1660293346.32846,9443.9269834,135
1660293346.32846,9443.9269918,91
1660293346.32846,9443.9269943,46
1660293346.32846,9443.9269969,14
1660293346.32846,9443.9270052,-2
1660293346.32846,9443.9270177,-16
1660293346.32846,9443.9270281,-23
1660293346.32846,9443.9270384,-23
1660293346.32846,9443.9270516,-25
1660293346.32846,9443.9270646,-35
1660293346.32846,9443.9270782,-46
1660293346.32846,9443.9270909,-39
1660293346.32846,9444.4144004,-25
1660293346.32846,9444.4144174,-23
1660293346.32846,9444.4144277,-21
1660293346.32846,9444.4144331,-11
1660293346.32846,9444.4144387,0
1660293346.32846,9444.4144425,0
1660293346.32846,9444.4144464,2
1660293346.32846,9444.4144509,4
1660293346.90502,9444.4144543,-7
1660293346.90502,9444.4144577,-14
1660293346.90502,9444.4144612,-4
1660293346.90502,9444.414465,0
1660293346.90502,9444.4144686,0
1660293346.90502,9444.4144723,0
1660293346.90502,9444.414476,-16
1660293346.90502,9444.4144796,-44
1660293346.90502,9444.414483,-58
1660293346.90502,9444.4144864,-63
1660293346.90502,9444.4144899,-72
1660293346.90502,9444.4144933,-72
1660293346.90502,9444.4144967,-70
1660293346.90502,9444.4145004,-84
1660293346.90502,9444.4145038,-88
1660293346.90502,9444.4145073,-72
1660293346.90502,9444.4145108,-65
1660293346.90502,9444.4145148,-67
1660293346.90502,9444.4145184,-65
1660293346.90502,9444.4145217,-63
1660293346.90502,9444.4145249,-60
1660293346.90502,9444.4145295,-58
1660293346.90502,9444.414533,-44
1660293346.90502,9444.4145364,-25
1660293346.90502,9444.41454,-28
1660293346.90502,9444.4145458,-28
1660293346.90502,9444.4145495,-18
1660293346.90502,9444.414555,-14
1660293346.90502,9444.4145593,-7
1660293346.90502,9444.4145646,7
1660293346.90502,9444.4145682,16
1660293346.90502,9444.4145721,21
1660293346.90502,9444.4145781,18
1660293346.90502,9444.4145815,9
1660293346.90502,9444.4145908,16
1660293346.90502,9444.4145959,30
1660293346.90502,9444.4146014,32
1660293346.90502,9444.4146112,35
1660293346.90502,9444.414615,39
1660293346.90502,9444.4146203,32
1660293346.90502,9444.4146238,32
1660293346.90502,9444.4146292,51
1660293346.90502,9444.4146342,51
1660293346.90502,9444.4146386,35
1660293346.90502,9444.4146443,28
1660293346.90502,9444.4146482,37
1660293346.90502,9444.4146534,70
1660293346.90502,9444.4146567,91
1660293346.90502,9444.4146613,86
1660293346.90502,9444.4146671,88
1660293346.91699,9444.4146707,95
1660293346.91699,9444.414676,72
1660293346.91699,9444.4146797,49
1660293346.91699,9444.4146837,46
1660293346.91699,9444.4146897,49
1660293346.91699,9444.4146942,44
1660293346.91699,9444.4146995,37
1660293346.91699,9444.4147046,23
1660293346.91699,9444.414708,4
1660293346.91699,9444.4147116,65
1660293346.91699,9444.4147172,317
1660293346.91699,9444.4147209,726
1660293346.91699,9444.4147261,1125
1660293346.91699,9444.4147308,1100
1660293346.91699,9444.4147363,415
1660293346.91699,9444.9993473,-119
1660293346.91699,9444.9993677,32
1660293346.91699,9444.9993785,170
1660293346.91699,9444.9993877,18
1660293346.91699,9444.999396,-18
1660293346.91699,9444.9994014,28
1660293346.91699,9444.9994107,-4
1660293346.91699,9444.9994168,-14
1660293346.91699,9444.9994302,21
1660293347.48266,9444.9994429,23
1660293347.48266,9444.9994498,14
1660293347.48266,9444.99946,14
1660293347.48266,9444.9994705,11
1660293347.48266,9444.9994817,21
1660293347.48266,9444.9994898,44
1660293347.48266,9444.9994974,63
1660293347.48266,9444.9995021,84
1660293347.48266,9444.9995112,105
1660293347.48266,9444.9995181,121
1660293347.48266,9444.9995296,140
1660293347.48266,9444.9995401,172
1660293347.48266,9444.9995506,196
1660293347.48266,9444.9995621,217
1660293347.48266,9444.9995707,240
1660293347.48266,9444.9995767,247
1660293347.48266,9444.9995871,249
1660293347.48266,9444.9995904,268
1660293347.48266,9444.9995943,268
1660293347.48266,9444.9996068,240
1660293347.48266,9444.9996211,207
1660293347.48266,9444.9996315,161
1660293347.48266,9444.9996366,88
1660293347.48266,9444.9996454,28
1660293347.48266,9444.9996544,-4
1660293347.48266,9444.9996595,-37
1660293347.48266,9444.9996653,-53
1660293347.48266,9444.9996743,-44
1660293347.48266,9444.9996902,-51
1660293347.48266,9444.9996984,-65
1660293347.48266,9444.9997021,-58
1660293347.48266,9444.9997055,-63
1660293347.48266,9444.9997085,-81
1660293347.48266,9444.9997117,-84
1660293347.48266,9444.9997149,-74
1660293347.48266,9444.9997181,-70
1660293347.48266,9444.9997213,-58
1660293347.48266,9444.9997245,-49
1660293347.48266,9444.9997277,-42
1660293347.48266,9444.9997308,-32
1660293347.48266,9444.9997341,-23
1660293347.48266,9444.9997372,-18
1660293347.48266,9444.9997408,-11
1660293347.48266,9444.999744,0
1660293347.48266,9444.9997472,2
1660293347.48266,9444.9997506,-2
1660293347.48266,9444.9997541,-4
1660293347.48266,9444.9997574,-11
1660293347.48266,9444.9997634,-14
1660293347.48266,9444.999767,-4
1660293347.49363,9444.9997722,2
1660293347.49363,9444.9997772,9
1660293347.49363,9444.9997821,18
1660293347.49363,9444.9997855,16
1660293347.49363,9444.9997889,18
1660293347.49363,9444.9997921,30
1660293347.49363,9444.9997954,30
1660293347.49363,9444.9997986,42
1660293347.49363,9444.9998042,56
1660293347.49363,9444.9998087,53
1660293347.49363,9444.9998121,53
1660293347.49363,9444.9998154,63
1660293347.49363,9444.9998188,65
1660293347.49363,9444.9998223,67
1660293347.49363,9445.5848529,72
1660293347.49363,9445.5848698,70
1660293347.49363,9445.5848765,63
1660293347.49363,9445.5848802,65
1660293347.49363,9445.5848836,77
1660293347.49363,9445.5848865,81
1660293347.49363,9445.5848892,91
1660293347.49363,9445.584892,93
1660293347.49363,9445.5848949,70
1660293347.49363,9445.5848976,51
1660293348.12584,9445.5849005,65
1660293348.12584,9445.5849036,79
1660293348.12584,9445.5849279,72
1660293348.12584,9445.5849358,70
1660293348.12584,9445.5849671,65
1660293348.12584,9445.5849749,49
1660293348.12584,9445.5849793,46
1660293348.12584,9445.5849832,58
1660293348.12584,9445.584987,60
1660293348.12584,9445.5849905,72
1660293348.12584,9445.5849942,105
1660293348.12584,9445.5849978,112
1660293348.12584,9445.5850014,102
1660293348.12584,9445.585005,112
1660293348.12584,9445.5850087,112
1660293348.12584,9445.5850123,91
1660293348.12584,9445.585016,79
1660293348.12584,9445.5850196,84
1660293348.12584,9445.5850232,86
1660293348.12584,9445.5850269,91
1660293348.12584,9445.5850304,91
1660293348.12584,9445.5850341,70
1660293348.12584,9445.5850377,86
1660293348.12584,9445.5850413,256
1660293348.12584,9445.5850449,621
1660293348.12584,9445.5850484,1046
1660293348.12584,9445.585052,1179
1660293348.12584,9445.5850556,663
1660293348.12584,9445.5850593,21
1660293348.12584,9445.5850629,18
1660293348.12584,9445.5850664,203
1660293348.12584,9445.5850707,88
1660293348.12584,9445.5850762,18
1660293348.12584,9445.5850797,93
1660293348.12584,9445.5850857,93
1660293348.12584,9445.5850891,65
1660293348.12584,9445.5850926,88
1660293348.12584,9445.5850965,102
1660293348.12584,9445.5850994,88
1660293348.12584,9445.5851025,84
1660293348.12584,9445.5851087,98
1660293348.12584,9445.585115,116
1660293348.12584,9445.5851211,126
1660293348.12584,9445.5851272,133
1660293348.12584,9445.585133,154
1660293348.12584,9445.5851392,172
1660293348.12584,9445.5851453,184
1660293348.12584,9445.5851515,203
1660293348.12584,9445.5851579,224
1660293348.12584,9445.5851636,240
1660293348.13581,9445.5851678,256
1660293348.13581,9445.5851723,275
1660293348.13581,9445.5851757,287
1660293348.13581,9445.5851796,284
1660293348.13581,9445.5851837,273
1660293348.13581,9445.5851871,259
1660293348.13581,9445.5851911,245
1660293348.13581,9445.5851952,214
1660293348.13581,9445.5851995,165
1660293348.13581,9445.5852033,102
1660293348.13581,9445.5852084,44
1660293348.13581,9445.5852127,7
1660293348.13581,9445.585216,-25
1660293348.13581,9446.2183794,-49
1660293348.13581,9446.2184011,-53
1660293348.13581,9446.218415,-53
1660293348.13581,9446.2184259,-60
1660293348.13581,9446.2184352,-65
1660293348.13581,9446.218443,-60
1660293348.13581,9446.2184498,-53
1660293348.13581,9446.2184608,-44
1660293348.13581,9446.2184716,-35
1660293348.13581,9446.2184792,-30
1660293348.13581,9446.2184835,-30
1660293348.61093,9446.2184973,-39
1660293348.61093,9446.2185058,-58
1660293348.61093,9446.2185131,-51
1660293348.61093,9446.2185172,-35
1660293348.61093,9446.2185216,-35
1660293348.61093,9446.2185285,-30
1660293348.61093,9446.2185352,-35
1660293348.61093,9446.2185418,-56
1660293348.61093,9446.2185466,-56
1660293348.61093,9446.2185509,-39
1660293348.61093,9446.2185546,-32
1660293348.61093,9446.2185576,-32
1660293348.61093,9446.2185609,-32
1660293348.61093,9446.2185642,-39
1660293348.61093,9446.2185676,-39
1660293348.61093,9446.2185713,-32
1660293348.61093,9446.2185745,-25
1660293348.61093,9446.2185779,-16
1660293348.61093,9446.2185823,-11
1660293348.61093,9446.218591,-14
1660293348.61093,9446.2185943,-11
1660293348.61093,9446.2185968,0
1660293348.61093,9446.2185989,9
1660293348.61093,9446.2186013,16
1660293348.61093,9446.2186033,25
1660293348.61093,9446.2186101,30
1660293348.61093,9446.2186224,23
1660293348.61093,9446.21863,23
1660293348.61093,9446.2186341,37
1660293348.61093,9446.2186427,49
1660293348.61093,9446.2186505,37
1660293348.61093,9446.2186551,21
1660293348.61093,9446.2186603,21
1660293348.61093,9446.2186656,28
1660293348.61093,9446.2186717,28
1660293348.61093,9446.2186757,37
1660293348.61093,9446.218683,53
1660293348.61093,9446.2186867,53
1660293348.61093,9446.2186919,53
1660293348.61093,9446.2186949,56
1660293348.61093,9446.2186978,58
1660293348.61093,9446.218701,60
1660293348.61093,9446.218704,70
1660293348.61093,9446.218707,81
1660293348.61093,9446.2187101,79
1660293348.61093,9446.2187133,60
1660293348.61093,9446.2187165,67
1660293348.61093,9446.2187218,84
1660293348.61093,9446.2187279,81
1660293348.61093,9446.218733,86
1660293348.6219,9446.2187366,107
1660293348.6219,9446.2187402,128
1660293348.6219,9446.218747,128
1660293348.6219,9446.2187506,123
1660293348.6219,9446.2187562,128
1660293348.6219,9446.2187595,123
1660293348.6219,9446.2187642,107
1660293348.6219,9446.2187698,91
1660293348.6219,9446.2187742,88
1660293348.6219,9446.21878,93
1660293348.6219,9446.2187834,98
1660293348.6219,9446.2187877,91
1660293348.6219,9446.7052587,77
1660293348.6219,9446.7052713,102
1660293348.6219,9446.7052758,280
1660293348.6219,9446.7052781,628
1660293348.6219,9446.7052802,1034
1660293348.6219,9446.7052824,1179
1660293348.6219,9446.7052845,670
1660293348.6219,9446.7052865,16
1660293348.6219,9446.7052886,2
1660293348.6219,9446.7052906,193
1660293348.6219,9446.7052935,77
1660293348.6219,9446.7053016,2
1660293349.13818,9446.7053099,77
1660293349.13818,9446.7053159,70
1660293349.13818,9446.7053224,32
1660293349.13818,9446.7053318,53
1660293349.13818,9446.7053419,74
1660293349.13818,9446.7053527,74
1660293349.13818,9446.7053626,79
1660293349.13818,9446.7053687,95
1660293349.13818,9446.7053737,100
1660293349.13818,9446.7053788,91
1660293349.13818,9446.7053838,93
1660293349.13818,9446.7053888,121
1660293349.13818,9446.7053937,140
1660293349.13818,9446.705401,142
1660293349.13818,9446.7054059,147
1660293349.13818,9446.7054169,156
1660293349.13818,9446.7054217,161
1660293349.13818,9446.705428,170
1660293349.13818,9446.7054326,189
1660293349.13818,9446.7054388,198
1660293349.13818,9446.7054434,203
1660293349.13818,9446.70545,196
1660293349.13818,9446.7054551,179
1660293349.13818,9446.7054621,156
1660293349.13818,9446.705468,126
1660293349.13818,9446.7054754,77
1660293349.13818,9446.7054802,11
1660293349.13818,9446.7054848,-37
1660293349.13818,9446.7054909,-70
1660293349.13818,9446.7054954,-107
1660293349.13818,9446.7055014,-140
1660293349.13818,9446.7055062,-151
1660293349.13818,9446.7055128,-144
1660293349.13818,9446.7055178,-140
1660293349.13818,9446.7055244,-137
1660293349.13818,9446.7055294,-135
1660293349.13818,9446.7055359,-130
1660293349.13818,9446.7055404,-121
1660293349.13818,9446.7055465,-112
1660293349.13818,9446.7055509,-109
1660293349.13818,9446.7055569,-98
1660293349.13818,9446.7055617,-81
1660293349.13818,9446.7055685,-74
1660293349.13818,9446.7055763,-74
1660293349.13818,9446.7055829,-65
1660293349.13818,9446.7056285,-49
1660293349.13818,9446.7056389,-39
1660293349.13818,9446.7056437,-39
1660293349.13818,9446.7056523,-35
1660293349.13818,9446.7056575,-28
1660293349.14816,9446.7056693,-16
1660293349.14816,9446.7056813,-7
1660293349.14816,9446.7056929,-7
1660293349.14816,9446.7057075,-4
1660293349.14816,9446.7057214,2
1660293349.14816,9446.7057346,4
1660293349.14816,9446.7057477,9
1660293349.14816,9446.705761,16
1660293349.14816,9446.7057696,18
1660293349.14816,9446.705772,21
1660293349.14816,9446.7057742,25
1660293349.14816,9447.2412831,28
1660293349.14816,9447.2413003,28
1660293349.14816,9447.2413086,35
1660293349.14816,9447.2413146,46
1660293349.14816,9447.2413205,51
1660293349.14816,9447.2413275,53
1660293349.14816,9447.2413361,46
1660293349.14816,9447.2413444,39
1660293349.14816,9447.2413505,51
1660293349.14816,9447.2413542,60
1660293349.14816,9447.2413574,49
1660293349.14816,9447.2413607,37
1660293349.14816,9447.2413667,28
1660293349.68165,9447.24138,23
1660293349.68165,9447.2413888,39
1660293349.68165,9447.2413966,65
1660293349.68165,9447.2414037,58
1660293349.68165,9447.2414126,28
1660293349.68165,9447.2414212,9
1660293349.68165,9447.2414321,23
1660293349.68165,9447.2414408,37
1660293349.68165,9447.2414483,35
1660293349.68165,9447.2414551,37
1660293349.68165,9447.2414583,56
1660293349.68165,9447.2414604,74
1660293349.68165,9447.2414625,81
1660293349.68165,9447.2414681,93
1660293349.68165,9447.2414791,84
1660293349.68165,9447.241488,58
1660293349.68165,9447.2414985,42
1660293349.68165,9447.2415024,37
1660293349.68165,9447.2415043,32
1660293349.68165,9447.2415064,42
1660293349.68165,9447.2415084,63
1660293349.68165,9447.2415106,56
1660293349.68165,9447.24152,28
1660293349.68165,9447.2415291,60
1660293349.68165,9447.2415316,256
1660293349.68165,9447.2415338,639
1660293349.68165,9447.2415358,1093
1660293349.68165,9447.2415379,1275
1660293349.68165,9447.2415399,745
1660293349.68165,9447.2415421,-4
1660293349.68165,9447.2415441,-46
1660293349.68165,9447.2415461,191
1660293349.68165,9447.2415481,84
1660293349.68165,9447.2415502,-9
1660293349.68165,9447.2415523,67
1660293349.68165,9447.2415543,72
1660293349.68165,9447.2415564,37
1660293349.68165,9447.2415584,60

1660293349.68165,9447.2415604,86
1660293349.68165,9447.2415625,84
1660293349.68165,9447.2415645,95
1660293349.68165,9447.2415665,119
1660293349.68165,9447.2415686,126
1660293349.68165,9447.2415706,135
1660293349.68165,9447.2415726,151
1660293349.68165,9447.2415747,168
1660293349.68165,9447.2415767,186
1660293349.68165,9447.2415788,205
1660293349.68165,9447.2415816,224
1660293349.68165,9447.2415836,238
1660293349.69356,9447.2415856,252
1660293349.69356,9447.2415876,270
1660293349.69356,9447.2415897,291
1660293349.69356,9447.2415918,308
1660293349.69356,9447.2415938,310
1660293349.69356,9447.2415958,308
1660293349.69356,9447.2415978,298
1660293349.69356,9447.2415999,275
1660293349.69356,9447.2416019,240
1660293349.69356,9447.2416107,189
1660293349.69356,9447.7781962,123
1660293349.69356,9447.7782164,70
1660293349.69356,9447.7782205,30
1660293349.69356,9447.7782271,-4
1660293349.69356,9447.7782303,-30
1660293349.69356,9447.7782359,-39
1660293349.69356,9447.7782389,-35
1660293349.69356,9447.7782418,-44
1660293349.69356,9447.7782447,-67
1660293349.69356,9447.7782482,-81
1660293349.69356,9447.7782544,-79
1660293349.69356,9447.7782573,-77
1660293349.69356,9447.7782603,-74
1660293349.69356,9447.7782632,-72
1660293350.26479,9447.7782667,-91
1660293350.26479,9447.7782733,-112
1660293350.26479,9447.7782798,-105
1660293350.26479,9447.7782831,-93
1660293350.26479,9447.7782877,-91
1660293350.26479,9447.7782911,-91
1660293350.26479,9447.7782947,-100
1660293350.26479,9447.7782983,-107
1660293350.26479,9447.7783017,-102
1660293350.26479,9447.778307,-95
1660293350.26479,9447.7783106,-86
1660293350.26479,9447.7783137,-74
1660293350.26479,9447.7783167,-70
1660293350.26479,9447.7783197,-70
1660293350.26479,9447.7783229,-70
1660293350.26479,9447.7783261,-74
1660293350.26479,9447.7783293,-65
1660293350.26479,9447.7783327,-51
1660293350.26479,9447.7783361,-49
1660293350.26479,9447.7783399,-39
1660293350.26479,9447.7783465,-30
1660293350.26479,9447.7783612,-28
1660293350.26479,9447.7783739,-21
1660293350.26479,9447.778385,-11
1660293350.26479,9447.7783935,2
1660293350.26479,9447.7783996,11
1660293350.26479,9447.7784082,9
1660293350.26479,9447.7784164,11
1660293350.26479,9447.778425,23
1660293350.26479,9447.7784314,32
1660293350.26479,9447.7784373,37
1660293350.26479,9447.7784436,46
1660293350.26479,9447.7784498,49
1660293350.26479,9447.7784558,46
1660293350.26479,9447.7784616,53
1660293350.26479,9447.7784673,72
1660293350.26479,9447.7784727,81
1660293350.26479,9447.7784784,81
1660293350.26479,9447.7784846,77
1660293350.26479,9447.7784926,81
1660293350.26479,9447.7784985,81
1660293350.26479,9447.7785066,81
1660293350.26479,9447.7785124,100
1660293350.26479,9447.7785191,128
1660293350.26479,9447.778525,137
1660293350.26479,9447.7785308,133
1660293350.26479,9447.7785367,128
1660293350.26479,9447.7785425,119
1660293350.26479,9447.7785485,100
1660293350.26479,9447.7785547,93
1660293350.27675,9447.7785634,98
1660293350.27675,9447.7785693,98
1660293350.27675,9447.7785781,91
1660293350.27675,9447.7785842,95
1660293350.27675,9447.778592,86
1660293350.27675,9447.7785975,81
1660293350.27675,9447.7786035,212
1660293350.27675,9447.7786065,560
1660293350.27675,9447.7786107,1011
1660293350.27675,9448.3630069,1303
1660293350.27675,9448.36302,973
1660293350.27675,9448.3630236,193
1660293350.27675,9448.3630266,-49
1660293350.27675,9448.3630295,182
1660293350.27675,9448.3630322,119
1660293350.27675,9448.363035,-32
1660293350.27675,9448.3630377,37
1660293350.27675,9448.3630405,74
1660293350.27675,9448.3630432,32
1660293350.27675,9448.3630456,44
1660293350.27675,9448.3630479,53
1660293350.27675,9448.3630507,28
1660293350.27675,9448.3630569,23
1660293350.27675,9448.3630687,30
1660293350.84492,9448.3630725,35
1660293350.84492,9448.3630746,56
1660293350.84492,9448.3630765,79
1660293350.84492,9448.3630785,88
1660293350.84492,9448.3630804,98
1660293350.84492,9448.3630823,112
1660293350.84492,9448.3630841,128
1660293350.84492,9448.3630861,149
1660293350.84492,9448.3630879,175
1660293350.84492,9448.3630898,186
1660293350.84492,9448.3630917,198
1660293350.84492,9448.3630936,217
1660293350.84492,9448.3630956,238
1660293350.84492,9448.3630976,242
1660293350.84492,9448.3630996,238
1660293350.84492,9448.3631065,226
1660293350.84492,9448.3631179,205
1660293350.84492,9448.3631228,179
1660293350.84492,9448.3631249,133
1660293350.84492,9448.3631278,72
1660293350.84492,9448.3631299,37
1660293350.84492,9448.3631321,18
1660293350.84492,9448.3631398,-9
1660293350.84492,9448.3631506,-16
1660293350.84492,9448.3631539,-9
1660293350.84492,9448.3631578,-7
1660293350.84492,9448.3631644,-4
1660293350.84492,9448.3631755,-4
1660293350.84492,9448.3631792,-2
1660293350.84492,9448.3631831,11
1660293350.84492,9448.363185,21
1660293350.84492,9448.363187,16
1660293350.84492,9448.363189,16
1660293350.84492,9448.3631923,25
1660293350.84492,9448.3632051,32
1660293350.84492,9448.3632111,32
1660293350.84492,9448.3632133,32
1660293350.84492,9448.3632154,25
1660293350.84492,9448.3632174,18
1660293350.84492,9448.3632226,14
1660293350.84492,9448.3632343,9
1660293350.84492,9448.3632394,9
1660293350.84492,9448.3632416,9
1660293350.84492,9448.3632436,7
1660293350.84492,9448.3632461,9
1660293350.84492,9448.3632555,11
1660293350.84492,9448.3632654,9
1660293350.84492,9448.3632693,16
1660293350.84492,9448.3632714,25
1660293350.84492,9448.3632738,30
1660293350.8549,9448.3632815,30
1660293350.8549,9448.363292,25
1660293350.8549,9448.3632954,35
1660293350.8549,9448.3632992,49
1660293350.8549,9448.3633025,42
1660293350.8549,9448.3633152,37
1660293350.8549,9448.3633211,53
1660293350.8549,9448.3633233,70
1660293350.8549,9448.9478885,67
1660293350.8549,9448.9479121,63
1660293350.8549,9448.9479224,70
1660293350.8549,9448.9479308,72
1660293350.8549,9448.9479375,65
1660293350.8549,9448.9479407,77
1660293350.8549,9448.9479436,74
1660293350.8549,9448.9479464,44
1660293350.8549,9448.9479493,18
1660293350.8549,9448.9479524,18
1660293350.8549,9448.9479552,21
1660293350.8549,9448.947958,16
1660293350.8549,9448.9479609,14
1660293350.8549,9448.9479638,16
1660293350.8549,9448.9479667,7
1660293350.8549,9448.9479695,2
1660293351.38133,9448.9479841,30
1660293351.38133,9448.9479924,53
1660293351.38133,9448.948,46
1660293351.38133,9448.9480075,51
1660293351.38133,9448.9480136,51
1660293351.38133,9448.9480236,25
1660293351.38133,9448.948032,16
1660293351.38133,9448.9480451,35
1660293351.38133,9448.9480585,44
1660293351.38133,9448.9480717,49
1660293351.38133,9448.9480849,44
1660293351.38133,9448.9480982,18
1660293351.38133,9448.9481114,56
1660293351.38133,9448.9481245,282
1660293351.38133,9448.9481376,672
1660293351.38133,9448.9481507,1072
1660293351.38133,9448.9481639,1123
1660293351.38133,9448.948177,523
1660293351.38133,9448.9481901,-60
1660293351.38133,9448.9482031,30
1660293351.38133,9448.9482161,189
1660293351.38133,9448.94823,51
1660293351.38133,9448.9482431,18
1660293351.38133,9448.9482561,84
1660293351.38133,9448.9482694,53
1660293351.38133,9448.9482824,37
1660293351.38133,9448.9482958,77
1660293351.38133,9448.9483088,79
1660293351.38133,9448.9483221,72
1660293351.38133,9448.9483352,88
1660293351.38133,9448.9483481,95
1660293351.38133,9448.9483613,105
1660293351.38133,9448.9483744,126
1660293351.38133,9448.9483878,147
1660293351.38133,9448.9484009,161
1660293351.38133,9448.9484153,172
1660293351.38133,9448.9484285,184
1660293351.38133,9448.9484416,205
1660293351.38133,9448.9484558,228
1660293351.38133,9448.948468,242
1660293351.38133,9448.9484767,256
1660293351.38133,9448.9484813,275
1660293351.38133,9448.9484872,289
1660293351.38133,9448.9484917,289
1660293351.38133,9448.9484972,291
1660293351.38133,9448.948502,298
1660293351.38133,9448.9485075,289
1660293351.38133,9448.9485124,249
1660293351.38133,9448.9485179,200
1660293351.38133,9448.9485226,154
1660293351.39131,9448.9485281,109
1660293351.39131,9448.9485329,77
1660293351.39131,9448.9485382,53
1660293351.39131,9448.9485421,39
1660293351.39131,9448.948549,30
1660293351.39131,9448.9485535,30
1660293351.39131,9448.9485589,21
1660293351.39131,9449.4840176,9
1660293351.39131,9449.4840451,11
1660293351.39131,9449.4840703,9
1660293351.39131,9449.4840797,7
1660293351.39131,9449.4840875,16
1660293351.39131,9449.4840942,25
1660293351.39131,9449.4840993,28
1660293351.39131,9449.4841044,25
1660293351.39131,9449.4841118,37
1660293351.39131,9449.4841152,53
1660293351.39131,9449.4841211,42
1660293351.39131,9449.4841244,14
1660293351.39131,9449.4841295,2
1660293351.39131,9449.4841361,9
1660293351.39131,9449.4841392,14
1660293351.39131,9449.4841519,11
1660293351.39131,9449.4841595,14
1660293351.96929,9449.4841643,0
1660293351.96929,9449.4841714,-23
1660293351.96929,9449.4841783,-28
1660293351.96929,9449.4841853,-25
1660293351.96929,9449.4841927,-30
1660293351.96929,9449.4841983,-25
1660293351.96929,9449.4842034,-18
1660293351.96929,9449.4842075,-23
1660293351.96929,9449.4842141,-23
1660293351.96929,9449.4842188,-14
1660293351.96929,9449.4842225,-9
1660293351.96929,9449.484226,-4
1660293351.96929,9449.4842305,2
1660293351.96929,9449.4842353,4
1660293351.96929,9449.4842392,4
1660293351.96929,9449.4842445,11
1660293351.96929,9449.4842495,14
1660293351.96929,9449.4842535,11
1660293351.96929,9449.4842574,14
1660293351.96929,9449.4842613,18
1660293351.96929,9449.484268,16
1660293351.96929,9449.4842711,18
1660293351.96929,9449.484283,30
1660293351.96929,9449.4842943,32
1660293351.96929,9449.4843015,39
1660293351.96929,9449.4843129,44
1660293351.96929,9449.4843207,37
1660293351.96929,9449.4843256,39
1660293351.96929,9449.4843321,63
1660293351.96929,9449.4843388,95
1660293351.96929,9449.4843494,107
1660293351.96929,9449.484356,100
1660293351.96929,9449.4843649,98
1660293351.96929,9449.4843715,88
1660293351.96929,9449.4843797,74
1660293351.96929,9449.4843867,72
1660293351.96929,9449.4843956,77
1660293351.96929,9449.4844015,79
1660293351.96929,9449.4844093,77
1660293351.96929,9449.4844152,63
1660293351.96929,9449.4844212,49
1660293351.96929,9449.4844267,79
1660293351.96929,9449.4844344,247
1660293351.96929,9449.4844412,583
1660293351.96929,9449.4844496,994
1660293351.96929,9449.4844559,1170
1660293351.96929,9449.4844647,703
1660293351.96929,9449.48447,23
1660293351.96929,9449.4844785,-39
1660293351.96929,9449.484483,156
1660293351.98126,9449.4844898,51
1660293351.98126,9449.4844947,-44
1660293351.98126,9449.4845011,25
1660293351.98126,9449.4845072,32
1660293351.98126,9449.4845139,2
1660293351.98126,9449.4845203,32
1660293351.98126,9450.0686958,56
1660293351.98126,9450.0687092,49
1660293351.98126,9450.0687141,60
1660293351.98126,9450.0687187,81
1660293351.98126,9450.0687221,91
1660293351.98126,9450.0687253,100
1660293351.98126,9450.0687296,119
1660293351.98126,9450.0687344,126
1660293351.98126,9450.0687375,114
1660293351.98126,9450.0687399,114
1660293351.98126,9450.068742,140
1660293351.98126,9450.0687441,165
1660293351.98126,9450.0687462,179
1660293351.98126,9450.0687483,193
1660293351.98126,9450.0687502,198
1660293351.98126,9450.0687523,191
1660293351.98126,9450.0687543,196
1660293351.98126,9450.0687563,210
1660293352.55419,9450.0687584,210
1660293352.55419,9450.0687613,200
1660293352.55419,9450.0687641,170
1660293352.55419,9450.068767,116
1660293352.55419,9450.06877,67
1660293352.55419,9450.0687729,28
1660293352.55419,9450.0687758,-7
1660293352.55419,9450.0687785,-39
1660293352.55419,9450.0687811,-67
1660293352.55419,9450.0687834,-74
1660293352.55419,9450.0687861,-70
1660293352.55419,9450.0687903,-65
1660293352.55419,9450.0687951,-58
1660293352.55419,9450.0688,-51
1660293352.55419,9450.0688047,-44
1660293352.55419,9450.0688096,-39
1660293352.55419,9450.068817,-30
1660293352.55419,9450.0688207,-16
1660293352.55419,9450.0688237,-11
1660293352.55419,9450.0688273,-7
1660293352.55419,9450.0688295,2
1660293352.55419,9450.0688316,9
1660293352.55419,9450.0688336,14
1660293352.55419,9450.0688357,23
1660293352.55419,9450.0688377,25
1660293352.55419,9450.0688398,23
1660293352.55419,9450.0688419,30
1660293352.55419,9450.0688439,39
1660293352.55419,9450.0688459,37
1660293352.55419,9450.0688479,42
1660293352.55419,9450.0688499,49
1660293352.55419,9450.068852,46
1660293352.55419,9450.0688539,46
1660293352.55419,9450.068856,53
1660293352.55419,9450.068858,53
1660293352.55419,9450.0688599,42
1660293352.55419,9450.0688619,42
1660293352.55419,9450.0688639,46
1660293352.55419,9450.068866,39
1660293352.55419,9450.0688681,23
1660293352.55419,9450.0688701,14
1660293352.55419,9450.0688721,11
1660293352.55419,9450.0688742,7
1660293352.55419,9450.0688762,0
1660293352.55419,9450.0688783,-4
1660293352.55419,9450.0688803,-7
1660293352.55419,9450.0688822,-2
1660293352.55419,9450.0688842,-2
1660293352.55419,9450.0688862,-4
1660293352.55419,9450.0688883,0
1660293352.56516,9450.0688903,4
1660293352.56516,9450.0688923,4
1660293352.56516,9450.0688944,9
1660293352.56516,9450.0688964,14
1660293352.56516,9450.0688985,11
1660293352.56516,9450.6557407,7
1660293352.56516,9450.655765,14
1660293352.56516,9450.6557802,37
1660293352.56516,9450.6557947,65
1660293352.56516,9450.6558081,70
1660293352.56516,9450.6558242,60
1660293352.56516,9450.6558355,58
1660293352.56516,9450.6558408,53
1660293352.56516,9450.6558453,42
1660293352.56516,9450.6558495,37
1660293352.56516,9450.6558541,35
1660293352.56516,9450.6558588,18
1660293352.56516,9450.655864,0
1660293352.56516,9450.6558688,0
1660293352.56516,9450.6558735,-7
1660293352.56516,9450.6558784,44
1660293352.56516,9450.6558831,277
1660293352.56516,9450.6558877,660
1660293352.56516,9450.6558926,1030
1660293353.04861,9450.6558975,1013
1660293353.04861,9450.655903,366
1660293353.04861,9450.6559102,-163
1660293353.04861,9450.6559175,-21
1660293353.04861,9450.6559233,109
1660293353.04861,9450.6559308,-51
1660293353.04861,9450.6559375,-70
1660293353.04861,9450.6559433,4
1660293353.04861,9450.6559491,-14
1660293353.04861,9450.6559537,-16
1660293353.04861,9450.6559593,21
1660293353.04861,9450.6559637,18
1660293353.04861,9450.6559674,18
1660293353.04861,9450.655971,51
1660293353.04861,9450.6559746,72
1660293353.04861,9450.6559793,74
1660293353.04861,9450.6559829,88
1660293353.04861,9450.6559865,107
1660293353.04861,9450.65599,121
1660293353.04861,9450.6559936,140
1660293353.04861,9450.6559976,161
1660293353.04861,9450.6560015,177
1660293353.04861,9450.6560055,200
1660293353.04861,9450.6560106,217
1660293353.04861,9450.6560173,226
1660293353.04861,9450.6560216,240
1660293353.04861,9450.6560275,259
1660293353.04861,9450.6560339,266
1660293353.04861,9450.6560385,263
1660293353.04861,9450.6560426,252
1660293353.04861,9450.6560481,219
1660293353.04861,9450.6560556,168
1660293353.04861,9450.656062,107
1660293353.04861,9450.6560686,58
1660293353.04861,9450.6560751,23
1660293353.04861,9450.6560816,-7
1660293353.04861,9450.6560881,-28
1660293353.04861,9450.6560946,-39
1660293353.04861,9450.6561009,-39
1660293353.04861,9450.6561077,-35
1660293353.04861,9450.6561141,-30
1660293353.04861,9450.6561208,-25
1660293353.04861,9450.6561316,-23
1660293353.04861,9450.656138,-18
1660293353.04861,9450.6561478,-7
1660293353.04861,9450.6561549,4
1660293353.04861,9450.6561636,14
1660293353.04861,9450.6561703,18
1660293353.04861,9450.6561756,23
1660293353.04861,9450.6561793,30
1660293353.05758,9450.6561847,32
1660293353.05758,9450.6561892,37
1660293353.05758,9450.656194,49
1660293353.05758,9450.6561971,56
1660293353.05758,9451.142052,56
1660293353.05758,9451.142073,53
1660293353.05758,9451.1420879,56
1660293353.05758,9451.1420982,60
1660293353.05758,9451.1421079,65
1660293353.05758,9451.1421168,65
1660293353.05758,9451.1421249,70
1660293353.05758,9451.1421366,70
1660293353.05758,9451.1421473,65
1660293353.05758,9451.1421508,63
1660293353.05758,9451.1421552,67
1660293353.05758,9451.1421572,67
1660293353.05758,9451.1421591,74
1660293353.05758,9451.1421612,79
1660293353.05758,9451.1421633,53
1660293353.05758,9451.1421653,23
1660293353.05758,9451.1421674,30
1660293353.05758,9451.1421694,39
1660293353.05758,9451.1421717,35
1660293353.05758,9451.1421738,39
1660293353.62441,9451.1421759,39
1660293353.62441,9451.1421779,25
1660293353.62441,9451.1421798,21
1660293353.62441,9451.1421818,23
1660293353.62441,9451.142184,18
1660293353.62441,9451.1421911,11
1660293353.62441,9451.1422008,4
1660293353.62441,9451.1422051,-11
1660293353.62441,9451.1422171,-21
1660293353.62441,9451.1422278,-18
1660293353.62441,9451.1422335,-21
1660293353.62441,9451.1422357,-16
1660293353.62441,9451.1422387,4
1660293353.62441,9451.1422417,28
1660293353.62441,9451.1422519,35
1660293353.62441,9451.1422603,35
1660293353.62441,9451.1422627,39
1660293353.62441,9451.1422658,42
1660293353.62441,9451.1422679,28
1660293353.62441,9451.1422699,11
1660293353.62441,9451.1422733,7
1660293353.62441,9451.1422862,14
1660293353.62441,9451.1422922,9
1660293353.62441,9451.1422943,-9
1660293353.62441,9451.1422963,-23
1660293353.62441,9451.1422982,11
1660293353.62441,9451.1423002,186
1660293353.62441,9451.1423064,544
1660293353.62441,9451.142318,978
1660293353.62441,9451.1423225,1151
1660293353.62441,9451.1423247,656
1660293353.62441,9451.1423267,-28
1660293353.62441,9451.1423287,-60
1660293353.62441,9451.1423308,144
1660293353.62441,9451.1423328,37
1660293353.62441,9451.1423381,-39
1660293353.62441,9451.14235,35
1660293353.62441,9451.1423553,39
1660293353.62441,9451.1423576,9
1660293353.62441,9451.1423595,32
1660293353.62441,9451.1423623,56
1660293353.62441,9451.1423725,56
1660293353.62441,9451.1423811,72
1660293353.62441,9451.1423836,91
1660293353.62441,9451.1423856,100
1660293353.62441,9451.1423876,107
1660293353.62441,9451.1423902,121
1660293353.62441,9451.1424002,140
1660293353.62441,9451.1424101,158
1660293353.62441,9451.1424125,179
1660293353.63539,9451.1424274,198
1660293353.63539,9451.1424295,207
1660293353.63539,9451.1424501,217
1660293353.63539,9451.7273783,233
1660293353.63539,9451.7273975,252
1660293353.63539,9451.7274108,268
1660293353.63539,9451.7274217,273
1660293353.63539,9451.7274324,259
1660293353.63539,9451.7274387,231
1660293353.63539,9451.7274474,214
1660293353.63539,9451.7274539,198
1660293353.63539,9451.7274625,154
1660293353.63539,9451.7274667,98
1660293353.63539,9451.7274765,49
1660293353.63539,9451.7274858,-7
1660293353.63539,9451.7274922,-42
1660293353.63539,9451.727501,-44
1660293353.63539,9451.7275097,-39
1660293353.63539,9451.7275161,-44
1660293353.63539,9451.7275246,-39
1660293353.63539,9451.7275299,-32
1660293353.63539,9451.727539,-35
1660293353.63539,9451.7275454,-28
1660293353.63539,9451.7275541,-9
1660293354.21427,9451.7275626,0
1660293354.21427,9451.7275685,2
1660293354.21427,9451.7275748,9
1660293354.21427,9451.727581,16
1660293354.21427,9451.7275873,23
1660293354.21427,9451.7275933,37
1660293354.21427,9451.7275996,49
1660293354.21427,9451.7276062,44
1660293354.21427,9451.7276153,44
1660293354.21427,9451.7276222,51
1660293354.21427,9451.7276305,51
1660293354.21427,9451.7276382,46
1660293354.21427,9451.7276543,51
1660293354.21427,9451.7276625,56
1660293354.21427,9451.7276723,53
1660293354.21427,9451.7276855,44
1660293354.21427,9451.7276961,42
1660293354.21427,9451.7277082,51
1660293354.21427,9451.7277162,58
1660293354.21427,9451.7277257,58
1660293354.21427,9451.7277308,60
1660293354.21427,9451.7277443,67
1660293354.21427,9451.7277548,67
1660293354.21427,9451.7277636,72
1660293354.21427,9451.7277759,81
1660293354.21427,9451.7277859,79
1660293354.21427,9451.7277967,77
1660293354.21427,9451.7278078,74
1660293354.21427,9451.727816,72
1660293354.21427,9451.7278215,72
1660293354.21427,9451.727834,77
1660293354.21427,9451.727849,77
1660293354.21427,9451.7278605,79
1660293354.21427,9451.7278742,79
1660293354.21427,9451.7278883,70
1660293354.21427,9451.7278993,63
1660293354.21427,9451.727906,60
1660293354.21427,9451.7279202,53
1660293354.21427,9451.7279332,49
1660293354.21427,9451.7279462,56
1660293354.21427,9451.7279582,58
1660293354.21427,9451.7279715,53
1660293354.21427,9451.7279878,44
1660293354.21427,9451.7279992,39
1660293354.21427,9451.7280095,56
1660293354.21427,9451.7280166,84
1660293354.21427,9451.7280296,95
1660293354.21427,9451.7280398,88
1660293354.21427,9451.7280454,84
1660293354.21427,9451.7280533,81
1660293354.22424,9451.7280569,70
1660293354.22424,9451.7280613,58
1660293354.22424,9452.3132395,53
1660293354.22424,9452.3132601,58
1660293354.22424,9452.3132695,63
1660293354.22424,9452.313274,58
1660293354.22424,9452.31328,44
1660293354.22424,9452.3132842,49
1660293354.22424,9452.3132884,182
1660293354.22424,9452.3132932,492
1660293354.22424,9452.3133027,885
1660293354.22424,9452.3133155,1107
1660293354.22424,9452.3133254,752
1660293354.22424,9452.31333,65
1660293354.22424,9452.3133356,-79
1660293354.22424,9452.3133428,140
1660293354.22424,9452.3133476,56
1660293354.22424,9452.3133546,-79
1660293354.22424,9452.3133589,-11
1660293354.22424,9452.3133724,18
1660293354.22424,9452.3133842,-14
1660293354.22424,9452.3133891,11
1660293354.22424,9452.3133955,32
1660293354.22424,9452.3133998,16
1660293354.79745,9452.3134058,18
1660293354.79745,9452.3134099,39
1660293354.79745,9452.3134139,53
1660293354.79745,9452.3134178,67
1660293354.79745,9452.3134219,86
1660293354.79745,9452.3134258,93
1660293354.79745,9452.3134298,100
1660293354.79745,9452.3134337,109
1660293354.79745,9452.3134377,119
1660293354.79745,9452.3134417,142
1660293354.79745,9452.3134456,165
1660293354.79745,9452.3134495,182
1660293354.79745,9452.3134534,196
1660293354.79745,9452.3134572,214
1660293354.79745,9452.3134611,224
1660293354.79745,9452.3134648,233
1660293354.79745,9452.3134684,238
1660293354.79745,9452.3134721,228
1660293354.79745,9452.3134758,198
1660293354.79745,9452.3134795,163
1660293354.79745,9452.3134832,119
1660293354.79745,9452.313487,77
1660293354.79745,9452.3134906,46
1660293354.79745,9452.3134942,18
1660293354.79745,9452.3134981,-2
1660293354.79745,9452.313502,-7
1660293354.79745,9452.3135074,0
1660293354.79745,9452.3135111,4
1660293354.79745,9452.3135147,7
1660293354.79745,9452.3135184,9
1660293354.79745,9452.3135221,14
1660293354.79745,9452.3135258,14
1660293354.79745,9452.3135295,11
1660293354.79745,9452.313533,23
1660293354.79745,9452.3135369,30
1660293354.79745,9452.3135405,32
1660293354.79745,9452.3135442,37
1660293354.79745,9452.3135478,44
1660293354.79745,9452.3135516,49
1660293354.79745,9452.3135573,56
1660293354.79745,9452.3135611,60
1660293354.79745,9452.3135664,60
1660293354.79745,9452.3135709,63
1660293354.79745,9452.3135746,67
1660293354.79745,9452.3135799,70
1660293354.79745,9452.313584,74
1660293354.79745,9452.3135892,79
1660293354.79745,9452.3135945,81
1660293354.79745,9452.3135997,81
1660293354.79745,9452.313604,81
1660293354.80738,9452.3136077,84
1660293354.80738,9452.8972917,88
1660293354.80738,9452.8973082,93
1660293354.80738,9452.8973149,93
1660293354.80738,9452.8973192,93
1660293354.80738,9452.8973234,93
1660293354.80738,9452.8973276,91
1660293354.80738,9452.8973316,88
1660293354.80738,9452.8973356,86
1660293354.80738,9452.8973396,81
1660293354.80738,9452.8973436,81
1660293354.80738,9452.8973499,81
1660293354.80738,9452.8973534,67
1660293354.80738,9452.8973572,56
1660293354.80738,9452.8973611,46
1660293354.80738,9452.8973648,39
1660293354.80738,9452.8973686,37
1660293354.80738,9452.8973724,28
1660293354.80738,9452.8973762,2
1660293354.80738,9452.8973819,-16
1660293354.80738,9452.8973857,-7
1660293354.80738,9452.8973896,-2
1660293354.80738,9452.8973948,-11
1660293354.80738,9452.8973986,-25
1660293355.33544,9452.8974039,-39
1660293355.33544,9452.8974076,-51
1660293355.33544,9452.8974112,-42
1660293355.33544,9452.8974149,-9
1660293355.33544,9452.8974186,9
1660293355.33544,9452.8974223,11
1660293355.33544,9452.8974258,14
1660293355.33544,9452.8974296,14
1660293355.33544,9452.8974333,0
1660293355.33544,9452.8974369,-11
1660293355.33544,9452.8974405,-11
1660293355.33544,9452.8974444,0
1660293355.33544,9452.897448,11
1660293355.33544,9452.8974514,9
1660293355.33544,9452.897455,-2
1660293355.33544,9452.8974586,-4
1660293355.33544,9452.8974623,95
1660293355.33544,9452.8974659,380
1660293355.33544,9452.8974695,787
1660293355.33544,9452.8974735,1100
1660293355.33544,9452.8974769,873
1660293355.33544,9452.8974803,165
1660293355.33544,9452.8974839,-123
1660293355.33544,9452.8974873,98
1660293355.33544,9452.897491,105
1660293355.33544,9452.8974946,-32
1660293355.33544,9452.8974981,2
1660293355.33544,9452.8975018,37
1660293355.33544,9452.8975055,7
1660293355.33544,9452.8975092,25
1660293355.33544,9452.8975127,58
1660293355.33544,9452.8975162,58
1660293355.33544,9452.8975198,65
1660293355.33544,9452.8975234,79
1660293355.33544,9452.8975271,88
1660293355.33544,9452.8975308,102
1660293355.33544,9452.8975347,119
1660293355.33544,9452.8975386,135
1660293355.33544,9452.897544,147
1660293355.33544,9452.8975492,154
1660293355.33544,9452.8975536,172
1660293355.33544,9452.8975575,198
1660293355.33544,9452.8975605,214
1660293355.33544,9452.8975636,231
1660293355.33544,9452.8975666,245
1660293355.33544,9452.8975697,252
1660293355.33544,9452.8975726,259
1660293355.33544,9452.8975757,266
1660293355.33544,9452.8975787,266
1660293355.33544,9452.8975817,256
1660293355.34341,9453.434935,235
1660293355.34341,9453.4349534,196
1660293355.34341,9453.4349642,142
1660293355.34341,9453.4349773,93
1660293355.34341,9453.4349862,53
1660293355.34341,9453.4349897,21
1660293355.34341,9453.4349927,0
1660293355.34341,9453.4349957,-23
1660293355.34341,9453.4349986,-51
1660293355.34341,9453.4350017,-58
1660293355.34341,9453.4350047,-39
1660293355.34341,9453.4350077,-28
1660293355.34341,9453.4350106,-25
1660293355.34341,9453.4350136,-23
1660293355.34341,9453.4350164,-25
1660293355.34341,9453.4350193,-35
1660293355.34341,9453.4350223,-28
1660293355.34341,9453.4350252,-7
1660293355.34341,9453.4350283,2
1660293355.34341,9453.4350313,0
1660293355.34341,9453.4350343,-16
1660293355.34341,9453.4350373,-25
1660293355.34341,9453.4350403,-18
1660293355.34341,9453.4350433,-7
1660293355.86756,9453.4350463,-7
1660293355.86756,9453.4350493,-4
1660293355.86756,9453.435052,2
1660293355.86756,9453.4350548,7
1660293355.86756,9453.4350598,7
1660293355.86756,9453.4350631,16
1660293355.86756,9453.4350671,25
1660293355.86756,9453.43507,25
1660293355.86756,9453.435074,25
1660293355.86756,9453.4350792,30
1660293355.86756,9453.4350846,32
1660293355.86756,9453.4350894,32
1660293355.86756,9453.435094,28
1660293355.86756,9453.4350975,18
1660293355.86756,9453.435102,14
1660293355.86756,9453.4351076,23
1660293355.86756,9453.4351132,25
1660293355.86756,9453.4351202,25
1660293355.86756,9453.4351272,30
1660293355.86756,9453.4351306,28
1660293355.86756,9453.4351356,23
1660293355.86756,9453.4351387,18
1660293355.86756,9453.4351419,11
1660293355.86756,9453.4351478,9
1660293355.86756,9453.4351542,16
1660293355.86756,9453.4351602,21
1660293355.86756,9453.4351646,21
1660293355.86756,9453.4351744,23
1660293355.86756,9453.4351818,21
1660293355.86756,9453.435184,23
1660293355.86756,9453.435186,30
1660293355.86756,9453.435192,32
1660293355.86756,9453.4352045,30
1660293355.86756,9453.435217,30
1660293355.86756,9453.435226,49
1660293355.86756,9453.4352313,70
1660293355.86756,9453.4352393,77
1660293355.86756,9453.4352466,77
1660293355.86756,9453.4352537,86
1660293355.86756,9453.4352575,81
1660293355.86756,9453.4352703,58
1660293355.86756,9453.4352805,46
1660293355.86756,9453.4352855,53
1660293355.86756,9453.4352899,53
1660293355.86756,9453.4352932,42
1660293355.86756,9453.4352993,35
1660293355.86756,9453.4353054,28
1660293355.86756,9453.4353108,51
1660293355.86756,9453.4353136,219
1660293355.86756,9453.9711972,565
1660293355.88053,9453.9712138,971
1660293355.88053,9453.9712207,1118
1660293355.88053,9453.9712262,625
1660293355.88053,9453.971231,-23
1660293355.88053,9453.9712346,-32
1660293355.88053,9453.9712397,168
1660293355.88053,9453.9712431,44
1660293355.88053,9453.9712466,-44
1660293355.88053,9453.9712502,25
1660293355.88053,9453.9712542,21
1660293355.88053,9453.9712609,-25
1660293355.88053,9453.9712665,-7
1660293355.88053,9453.9712699,23
1660293355.88053,9453.9712763,28
1660293355.88053,9453.9712852,39
1660293355.88053,9453.9712914,56
1660293355.88053,9453.9712985,49
1660293355.88053,9453.9713041,44
1660293355.88053,9453.9713132,65
1660293355.88053,9453.9713181,91
1660293355.88053,9453.9713313,109
1660293355.88053,9453.9713418,128
1660293355.88053,9453.971347,133
1660293355.88053,9453.9713606,123
1660293356.40187,9453.9713711,140
1660293356.40187,9453.9713771,170
1660293356.40187,9453.9713864,175
1660293356.40187,9453.9713938,177
1660293356.40187,9453.9714027,186
1660293356.40187,9453.9714112,189
1660293356.40187,9453.9714212,184
1660293356.40187,9453.9714333,182
1660293356.40187,9453.9714443,161
1660293356.40187,9453.9714487,119
1660293356.40187,9453.9714507,70
1660293356.40187,9453.9714528,21
1660293356.40187,9453.9714549,-9
1660293356.40187,9453.9714616,-21
1660293356.40187,9453.9714726,-28
1660293356.40187,9453.9714776,-30
1660293356.40187,9453.9714797,-25
1660293356.40187,9453.9714818,-25
1660293356.40187,9453.9714838,-25
1660293356.40187,9453.97149,-14
1660293356.40187,9453.9715014,-2
1660293356.40187,9453.9715047,7
1660293356.40187,9453.9715069,16
1660293356.40187,9453.971509,23
1660293356.40187,9453.971511,25
1660293356.40187,9453.9715132,35
1660293356.40187,9453.9715152,44
1660293356.40187,9453.9715172,53
1660293356.40187,9453.9715192,60
1660293356.40187,9453.9715211,65
1660293356.40187,9453.9715231,65
1660293356.40187,9453.9715251,67
1660293356.40187,9453.9715271,74
1660293356.40187,9453.9715291,74
1660293356.40187,9453.971531,65
1660293356.40187,9453.971533,60
1660293356.40187,9453.971535,63
1660293356.40187,9453.971537,65
1660293356.40187,9453.971539,67
1660293356.40187,9453.971541,77
1660293356.40187,9453.971543,79
1660293356.40187,9453.971545,72
1660293356.40187,9453.9715469,67
1660293356.40187,9453.971549,65
1660293356.40187,9453.971551,65
1660293356.40187,9453.971553,72
1660293356.40187,9453.971555,79
1660293356.40187,9453.971557,72
1660293356.40187,9454.50532,51
1660293356.40187,9454.5053357,32
1660293356.41185,9454.5053433,30
1660293356.41185,9454.5053496,30
1660293356.41185,9454.5053543,28
1660293356.41185,9454.5053581,28
1660293356.41185,9454.5053619,28
1660293356.41185,9454.5053657,14
1660293356.41185,9454.5053719,-4
1660293356.41185,9454.5053803,-2
1660293356.41185,9454.5053859,7
1660293356.41185,9454.5053901,2
1660293356.41185,9454.5053958,4
1660293356.41185,9454.505406,16
1660293356.41185,9454.5054099,16
1660293356.41185,9454.5054154,18
1660293356.41185,9454.5054192,21
1660293356.41185,9454.5054248,14
1660293356.41185,9454.5054287,14
1660293356.41185,9454.5054339,32
1660293356.41185,9454.5054378,37
1660293356.41185,9454.5054417,18
1660293356.41185,9454.5054455,18
1660293356.41185,9454.5054494,28
1660293356.41185,9454.5054547,21
1660293356.41185,9454.5054586,7
1660293356.99503,9454.5054641,4
1660293356.99503,9454.5054678,11
1660293356.99503,9454.5054714,21
1660293356.99503,9454.5054751,28
1660293356.99503,9454.5054788,21
1660293356.99503,9454.5054824,21
1660293356.99503,9454.5054892,123
1660293356.99503,9454.5054928,411
1660293356.99503,9454.5054962,819
1660293356.99503,9454.5054999,1139
1660293356.99503,9454.5055036,929
1660293356.99503,9454.5055071,214
1660293356.99503,9454.5055106,-95
1660293356.99503,9454.5055141,128
1660293356.99503,9454.5055178,142
1660293356.99503,9454.5055216,-4
1660293356.99503,9454.5055253,32
1660293356.99503,9454.5055333,77
1660293356.99503,9454.5055371,42
1660293356.99503,9454.5055428,53
1660293356.99503,9454.5055465,81
1660293356.99503,9454.5055544,79
1660293356.99503,9454.5055603,91
1660293356.99503,9454.5055648,109
1660293356.99503,9454.5055701,109
1660293356.99503,9454.5055739,109
1660293356.99503,9454.5055777,126
1660293356.99503,9454.5055828,140
1660293356.99503,9454.5055863,147
1660293356.99503,9454.50559,165
1660293356.99503,9454.5055936,189
1660293356.99503,9454.5055973,207
1660293356.99503,9454.505601,221
1660293356.99503,9454.5056046,231
1660293356.99503,9454.5056082,245
1660293356.99503,9454.505614,259
1660293356.99503,9454.5056177,270
1660293356.99503,9454.5056229,277
1660293356.99503,9454.5056264,277
1660293356.99503,9454.5056301,252
1660293356.99503,9454.5056337,217
1660293356.99503,9454.5056373,184
1660293356.99503,9454.5056408,147
1660293356.99503,9454.5056442,100
1660293356.99503,9454.5056479,63
1660293356.99503,9454.5056517,30
1660293356.99503,9454.5056573,9
1660293356.99503,9455.0903614,7
1660293356.99503,9455.090374,11
1660293356.99503,9455.0903768,11
1660293357.00601,9455.0903798,9
1660293357.00601,9455.0903821,-4
1660293357.00601,9455.0903842,-21
1660293357.00601,9455.0903862,-14
1660293357.00601,9455.0903882,2
1660293357.00601,9455.0903903,7
1660293357.00601,9455.0903923,7
1660293357.00601,9455.0903945,-7
1660293357.00601,9455.0903965,-28
1660293357.00601,9455.0903985,-25
1660293357.00601,9455.0904005,-7
1660293357.00601,9455.0904026,-2
1660293357.00601,9455.0904047,0
1660293357.00601,9455.0904068,7
1660293357.00601,9455.0904088,4
1660293357.00601,9455.0904124,4
1660293357.00601,9455.0904257,18
1660293357.00601,9455.0904335,28
1660293357.00601,9455.0904369,25
1660293357.00601,9455.0904391,30
1660293357.00601,9455.0904411,32
1660293357.00601,9455.0904431,28
1660293357.00601,9455.0904455,28
1660293357.00601,9455.0904549,35
1660293357.67793,9455.0904647,37
1660293357.67793,9455.0904671,42

1660293357.67793,9455.0904691,39
1660293357.67793,9455.090471,30
1660293357.67793,9455.0904728,25
1660293357.67793,9455.0904747,28
1660293357.67793,9455.0904765,28
1660293357.67793,9455.0904783,21
1660293357.67793,9455.0904808,21
1660293357.67793,9455.090487,25
1660293357.67793,9455.0904941,30
1660293357.67793,9455.0904987,28
1660293357.67793,9455.0905028,30
1660293357.67793,9455.0905106,35
1660293357.67793,9455.090515,28
1660293357.67793,9455.0905262,21
1660293357.67793,9455.0905306,25
1660293357.67793,9455.0905328,35
1660293357.67793,9455.0905348,39
1660293357.67793,9455.0905369,35
1660293357.67793,9455.090539,35
1660293357.67793,9455.0905409,44
1660293357.67793,9455.0905429,49
1660293357.67793,9455.0905449,49
1660293357.67793,9455.0905469,56
1660293357.67793,9455.0905489,70
1660293357.67793,9455.0905509,93
1660293357.67793,9455.0905528,107
1660293357.67793,9455.0905549,105
1660293357.67793,9455.0905568,105
1660293357.67793,9455.0905589,98
1660293357.67793,9455.0905616,60
1660293357.67793,9455.0905637,35
1660293357.67793,9455.0905658,46
1660293357.67793,9455.0905678,58
1660293357.67793,9455.0905698,51
1660293357.67793,9455.0905717,51
1660293357.67793,9455.0905737,46
1660293357.67793,9455.0905757,56
1660293357.67793,9455.0905777,189
1660293357.67793,9455.0905796,502
1660293357.67793,9455.0905816,896
1660293357.67793,9455.0905836,1121
1660293357.67793,9455.0905856,766
1660293357.67793,9455.0905883,88
1660293357.67793,9455.0905913,-49
1660293357.67793,9455.7745988,170
1660293357.67793,9455.7746325,98
1660293357.67793,9455.7746414,-18
1660293357.67793,9455.7746482,42
1660293357.6889,9455.7746515,63
1660293357.6889,9455.7746618,39
1660293357.6889,9455.7746649,60
1660293357.6889,9455.7746671,65
1660293357.6889,9455.7746691,37
1660293357.6889,9455.7746712,39
1660293357.6889,9455.7746732,65
1660293357.6889,9455.7746753,79
1660293357.6889,9455.7746774,93
1660293357.6889,9455.7746795,102
1660293357.6889,9455.7746815,88
1660293357.6889,9455.7746836,79
1660293357.6889,9455.7746857,116
1660293357.6889,9455.7746877,151
1660293357.6889,9455.7746899,158
1660293357.6889,9455.774692,175
1660293357.6889,9455.7746941,196
1660293357.6889,9455.7746963,203
1660293357.6889,9455.7746984,214
1660293357.6889,9455.7747004,226
1660293357.6889,9455.7747024,235
1660293357.6889,9455.7747045,242
1660293357.6889,9455.7747066,228
1660293357.6889,9455.7747086,193
1660293358.16338,9455.7747107,158
1660293358.16338,9455.7747128,121
1660293358.16338,9455.7747148,79
1660293358.16338,9455.7747167,42
1660293358.16338,9455.7747186,9
1660293358.16338,9455.7747207,-21
1660293358.16338,9455.7747227,-28
1660293358.16338,9455.7747246,-18
1660293358.16338,9455.7747266,-16
1660293358.16338,9455.7747285,-16
1660293358.16338,9455.7747305,-4
1660293358.16338,9455.7747326,4
1660293358.16338,9455.7747345,4
1660293358.16338,9455.7747364,9
1660293358.16338,9455.7747383,16
1660293358.16338,9455.7747403,25
1660293358.16338,9455.7747423,35
1660293358.16338,9455.7747443,35
1660293358.16338,9455.7747463,32
1660293358.16338,9455.7747483,42
1660293358.16338,9455.7747511,53
1660293358.16338,9455.7747542,56
1660293358.16338,9455.7747631,53
1660293358.16338,9455.7747778,42
1660293358.16338,9455.7747897,23
1660293358.16338,9455.7747986,21
1660293358.16338,9455.774808,37
1660293358.16338,9455.7748133,51
1660293358.16338,9455.7748155,53
1660293358.16338,9455.7748175,37
1660293358.16338,9455.7748197,16
1660293358.16338,9455.7748218,25
1660293358.16338,9455.7748239,49
1660293358.16338,9455.7748259,53
1660293358.16338,9455.7748279,49
1660293358.16338,9455.77483,39
1660293358.16338,9455.774832,23
1660293358.16338,9455.774834,11
1660293358.16338,9455.774836,9
1660293358.16338,9455.7748381,9
1660293358.16338,9455.7748402,11
1660293358.16338,9455.7748422,9
1660293358.16338,9455.7748441,7
1660293358.16338,9455.7748461,7
1660293358.16338,9455.7748481,11
1660293358.16338,9456.260777,21
1660293358.16338,9456.2607895,25
1660293358.16338,9456.2607931,18
1660293358.16338,9456.2607974,18
1660293358.16338,9456.2607994,25
1660293358.17435,9456.2608015,28
1660293358.17435,9456.2608035,30
1660293358.17435,9456.2608054,39
1660293358.17435,9456.2608074,42
1660293358.17435,9456.2608094,32
1660293358.17435,9456.2608113,30
1660293358.17435,9456.2608133,44
1660293358.17435,9456.2608153,77
1660293358.17435,9456.2608174,91
1660293358.17435,9456.2608203,81
1660293358.17435,9456.2608223,86
1660293358.17435,9456.2608242,84
1660293358.17435,9456.2608268,39
1660293358.17435,9456.2608289,4
1660293358.17435,9456.2608309,9
1660293358.17435,9456.2608329,18
1660293358.17435,9456.2608349,16
1660293358.17435,9456.2608369,25
1660293358.17435,9456.2608388,16
1660293358.17435,9456.2608409,14
1660293358.17435,9456.2608428,156
1660293358.17435,9456.2608448,490
1660293358.17435,9456.2608468,899
1660293358.17435,9456.2608488,1104
1660293358.70109,9456.2608507,681
1660293358.70109,9456.2608528,-21
1660293358.70109,9456.2608547,-107
1660293358.70109,9456.2608565,133
1660293358.70109,9456.2608584,46
1660293358.70109,9456.2608603,-63
1660293358.70109,9456.2608623,7
1660293358.70109,9456.2608642,2
1660293358.70109,9456.2608661,-44
1660293358.70109,9456.260868,-9
1660293358.70109,9456.2608699,16
1660293358.70109,9456.2608717,16
1660293358.70109,9456.2608735,39
1660293358.70109,9456.2608754,56
1660293358.70109,9456.2608774,39
1660293358.70109,9456.2608816,35
1660293358.70109,9456.2608858,49
1660293358.70109,9456.2608902,72
1660293358.70109,9456.2608948,102
1660293358.70109,9456.2608975,116
1660293358.70109,9456.2608994,114
1660293358.70109,9456.2609048,135
1660293358.70109,9456.2609148,163
1660293358.70109,9456.2609239,184
1660293358.70109,9456.2609264,205
1660293358.70109,9456.2609285,217
1660293358.70109,9456.2609304,214
1660293358.70109,9456.2609324,210
1660293358.70109,9456.2609344,210
1660293358.70109,9456.2609364,198
1660293358.70109,9456.2609384,172
1660293358.70109,9456.2609404,130
1660293358.70109,9456.2609429,81
1660293358.70109,9456.260945,32
1660293358.70109,9456.260947,-2
1660293358.70109,9456.260949,-18
1660293358.70109,9456.2609511,-25
1660293358.70109,9456.260953,-30
1660293358.70109,9456.260955,-37
1660293358.70109,9456.260957,-46
1660293358.70109,9456.260959,-42
1660293358.70109,9456.260961,-25
1660293358.70109,9456.260963,-16
1660293358.70109,9456.260965,-11
1660293358.70109,9456.7981076,-7
1660293358.70109,9456.7981222,-4
1660293358.70109,9456.7981249,-2
1660293358.70109,9456.7981271,9
1660293358.70109,9456.7981292,18
1660293358.70109,9456.7981313,25
1660293358.71306,9456.7981333,30
1660293358.71306,9456.7981353,11
1660293358.71306,9456.7981374,-18
1660293358.71306,9456.7981394,-14
1660293358.71306,9456.7981414,7
1660293358.71306,9456.7981434,7
1660293358.71306,9456.7981454,4
1660293358.71306,9456.7981485,18
1660293358.71306,9456.7981571,21
1660293358.71306,9456.7981664,7
1660293358.71306,9456.7981694,7
1660293358.71306,9456.7981714,14
1660293358.71306,9456.7981733,7
1660293358.71306,9456.7981758,-4
1660293358.71306,9456.7981826,-18
1660293358.71306,9456.7981884,-25
1660293358.71306,9456.7981933,-25
1660293358.71306,9456.7982016,-28
1660293358.71306,9456.7982153,-32
1660293358.71306,9456.7982246,-35
1660293358.71306,9456.7982271,-44
1660293358.71306,9456.7982292,-49
1660293358.71306,9456.7982312,-42
1660293358.71306,9456.7982364,-35
1660293359.23898,9456.7982478,-28
1660293359.23898,9456.7982514,-21
1660293359.23898,9456.7982535,-21
1660293359.23898,9456.7982554,-25
1660293359.23898,9456.7982572,-21
1660293359.23898,9456.7982591,-11
1660293359.23898,9456.798261,-7
1660293359.23898,9456.7982645,-18
1660293359.23898,9456.7982725,-21
1660293359.23898,9456.79828,-23
1660293359.23898,9456.7982842,-28
1660293359.23898,9456.7982914,-14
1660293359.23898,9456.7982955,21
1660293359.23898,9456.7983061,46
1660293359.23898,9456.7983133,53
1660293359.23898,9456.7983165,53
1660293359.23898,9456.7983185,46
1660293359.23898,9456.7983207,25
1660293359.23898,9456.7983226,11
1660293359.23898,9456.7983246,16
1660293359.23898,9456.7983266,21
1660293359.23898,9456.7983286,25
1660293359.23898,9456.7983306,32
1660293359.23898,9456.7983326,30
1660293359.23898,9456.7983345,18
1660293359.23898,9456.7983365,72
1660293359.23898,9456.7983385,294
1660293359.23898,9456.7983406,674
1660293359.23898,9456.7983426,1058
1660293359.23898,9456.7983446,1046
1660293359.23898,9456.7983466,411
1660293359.23898,9456.7983486,-93
1660293359.23898,9456.7983506,53
1660293359.23898,9456.7983526,184
1660293359.23898,9456.7983545,37
1660293359.23898,9456.7983566,18
1660293359.23898,9456.7983587,84
1660293359.23898,9456.7983606,53
1660293359.23898,9456.7983626,39
1660293359.23898,9456.7983646,88
1660293359.23898,9456.7983666,100
1660293359.23898,9456.7983686,86
1660293359.23898,9456.7983706,105
1660293359.23898,9457.3327408,130
1660293359.23898,9457.3327604,137
1660293359.23898,9457.3327691,144
1660293359.23898,9457.3327745,158
1660293359.23898,9457.3327789,177
1660293359.23898,9457.3327809,182
1660293359.23898,9457.3327838,179
1660293359.25094,9457.3327858,200
1660293359.25094,9457.332789,231
1660293359.25094,9457.3328002,240
1660293359.25094,9457.3328092,233
1660293359.25094,9457.3328198,226
1660293359.25094,9457.3328337,231
1660293359.25094,9457.3328471,240
1660293359.25094,9457.332854,240
1660293359.25094,9457.3328656,238
1660293359.25094,9457.3328692,217
1660293359.25094,9457.3328714,163
1660293359.25094,9457.3328746,100
1660293359.25094,9457.3328838,65
1660293359.25094,9457.3328957,39
1660293359.25094,9457.3329033,16
1660293359.25094,9457.3329085,-7
1660293359.25094,9457.3329171,-35
1660293359.25094,9457.3329269,-63
1660293359.25094,9457.3329405,-63
1660293359.25094,9457.3329516,-42
1660293359.25094,9457.3329617,-30
1660293359.25094,9457.3329704,-21
1660293359.25094,9457.3329815,-18
1660293359.25094,9457.3329943,-30
1660293359.7723,9457.3330017,-30
1660293359.7723,9457.3330127,-16
1660293359.7723,9457.3330211,-11
1660293359.7723,9457.3330262,2
1660293359.7723,9457.3330309,21
1660293359.7723,9457.3330373,18
1660293359.7723,9457.3330428,11
1660293359.7723,9457.3330493,9
1660293359.7723,9457.3330581,9
1660293359.7723,9457.3330646,25
1660293359.7723,9457.333074,37
1660293359.7723,9457.3330797,18
1660293359.7723,9457.3330925,11
1660293359.7723,9457.3331032,35
1660293359.7723,9457.3331129,51
1660293359.7723,9457.333123,51
1660293359.7723,9457.3331336,56
1660293359.7723,9457.3331429,53
1660293359.7723,9457.3331537,37
1660293359.7723,9457.3331645,30
1660293359.7723,9457.3331737,42
1660293359.7723,9457.3331842,56
1660293359.7723,9457.3331944,58
1660293359.7723,9457.3332037,51
1660293359.7723,9457.333209,44
1660293359.7723,9457.333213,44
1660293359.7723,9457.3332163,44
1660293359.7723,9457.3332184,42
1660293359.7723,9457.3332203,32
1660293359.7723,9457.3332228,28
1660293359.7723,9457.333229,28
1660293359.7723,9457.3332398,28
1660293359.7723,9457.3332512,30
1660293359.7723,9457.3332654,42
1660293359.7723,9457.3332732,49
1660293359.7723,9457.3332756,51
1660293359.7723,9457.3332777,44
1660293359.7723,9457.3332797,28
1660293359.7723,9457.3332817,30
1660293359.7723,9457.3332838,49
1660293359.7723,9457.3332858,51
1660293359.7723,9457.3332879,32
1660293359.7723,9457.8702251,30
1660293359.7723,9457.870239,58
1660293359.7723,9457.870244,91
1660293359.7723,9457.8702485,105
1660293359.7723,9457.870251,91
1660293359.7723,9457.8702543,74
1660293359.7723,9457.8702567,77
1660293359.7723,9457.8702588,58
1660293359.78426,9457.8702608,9
1660293359.78426,9457.8702628,7
1660293359.78426,9457.8702649,30
1660293359.78426,9457.8702669,23
1660293359.78426,9457.8702689,23
1660293359.78426,9457.8702708,14
1660293359.78426,9457.8702731,0
1660293359.78426,9457.8702753,140
1660293359.78426,9457.8702776,490
1660293359.78426,9457.8702799,903
1660293359.78426,9457.8702822,1060
1660293359.78426,9457.8702843,597
1660293359.78426,9457.8702866,-44
1660293359.78426,9457.8702888,-77
1660293359.78426,9457.8702911,121
1660293359.78426,9457.8702932,14
1660293359.78426,9457.8702954,-67
1660293359.78426,9457.8702976,0
1660293359.78426,9457.8702998,2
1660293359.78426,9457.870302,-16
1660293359.78426,9457.8703043,16
1660293359.78426,9457.8703064,18
1660293359.78426,9457.8703085,2
1660293359.78426,9457.8703106,30
1660293360.35514,9457.8703125,56
1660293360.35514,9457.8703146,60
1660293360.35514,9457.8703167,81
1660293360.35514,9457.8703187,98
1660293360.35514,9457.8703206,100
1660293360.35514,9457.8703226,126
1660293360.35514,9457.8703247,140
1660293360.35514,9457.8703267,151
1660293360.35514,9457.8703289,179
1660293360.35514,9457.8703309,191
1660293360.35514,9457.8703329,212
1660293360.35514,9457.870335,254
1660293360.35514,9457.8703369,266
1660293360.35514,9457.8703388,245
1660293360.35514,9457.8703409,242
1660293360.35514,9457.870343,259
1660293360.35514,9457.8703451,259
1660293360.35514,9457.8703471,226
1660293360.35514,9457.8703491,170
1660293360.35514,9457.8703511,109
1660293360.35514,9457.8703531,63
1660293360.35514,9457.8703552,37
1660293360.35514,9457.8703593,18
1660293360.35514,9457.8703613,9
1660293360.35514,9457.8703633,16
1660293360.35514,9457.8703653,11
1660293360.35514,9457.8703674,-2
1660293360.35514,9457.8703695,2
1660293360.35514,9457.870372,9
1660293360.35514,9457.8703741,4
1660293360.35514,9457.870376,4
1660293360.35514,9457.870378,11
1660293360.35514,9457.8703801,11
1660293360.35514,9457.8703821,21
1660293360.35514,9457.8703841,37
1660293360.35514,9457.8703861,35
1660293360.35514,9457.8703881,42
1660293360.35514,9457.87039,63
1660293360.35514,9457.870392,65
1660293360.35514,9457.8703939,53
1660293360.35514,9457.870396,51
1660293360.35514,9458.4550855,60
1660293360.35514,9458.455101,65
1660293360.35514,9458.4551054,72
1660293360.35514,9458.4551108,81
1660293360.35514,9458.4551153,65
1660293360.35514,9458.4551203,51
1660293360.35514,9458.4551238,60
1660293360.35514,9458.4551273,70
1660293360.35514,9458.4551323,79
1660293360.37209,9458.4551356,81
1660293360.37209,9458.4551391,53
1660293360.37209,9458.4551441,16
1660293360.37209,9458.4551475,16
1660293360.37209,9458.455151,32
1660293360.37209,9458.4551546,23
1660293360.37209,9458.4551581,0
1660293360.37209,9458.4551618,-16
1660293360.37209,9458.4551653,-30
1660293360.37209,9458.45517,-35
1660293360.37209,9458.4551735,-39
1660293360.37209,9458.455179,-58
1660293360.37209,9458.4551825,-63
1660293360.37209,9458.4551874,-44
1660293360.37209,9458.4551907,-46
1660293360.37209,9458.455194,-58
1660293360.37209,9458.455199,-44
1660293360.37209,9458.455204,-30
1660293360.37209,9458.4552075,-32
1660293360.37209,9458.455211,-25
1660293360.37209,9458.4552159,-18
1660293360.37209,9458.4552192,-14
1660293360.37209,9458.4552241,-7
1660293360.37209,9458.4552274,-4
1660293360.99152,9458.4552308,7
1660293360.99152,9458.4552341,28
1660293360.99152,9458.4552374,49
1660293360.99152,9458.4552408,53
1660293360.99152,9458.4552441,53
1660293360.99152,9458.4552475,49
1660293360.99152,9458.4552507,37
1660293360.99152,9458.4552546,18
1660293360.99152,9458.455258,21
1660293360.99152,9458.4552614,30
1660293360.99152,9458.4552647,23
1660293360.99152,9458.4552681,23
1660293360.99152,9458.4552715,25
1660293360.99152,9458.4552748,9
1660293360.99152,9458.4552782,65
1660293360.99152,9458.4552816,315
1660293360.99152,9458.455285,721
1660293360.99152,9458.4552883,1086
1660293360.99152,9458.4552916,980
1660293360.99152,9458.4552951,294
1660293360.99152,9458.4552986,-121
1660293360.99152,9458.4553035,67
1660293360.99152,9458.4553069,130
1660293360.99152,9458.4553102,-16
1660293360.99152,9458.4553152,7
1660293360.99152,9458.4553185,63
1660293360.99152,9458.4553218,28
1660293360.99152,9458.4553263,25
1660293360.99152,9458.4553296,53
1660293360.99152,9458.455333,58
1660293360.99152,9458.4553364,63
1660293360.99152,9458.4553399,81
1660293360.99152,9458.4553448,95
1660293360.99152,9458.4553499,114
1660293360.99152,9458.4553549,130
1660293360.99152,9458.4553598,133
1660293360.99152,9458.4553632,140
1660293360.99152,9458.4553667,168
1660293360.99152,9458.4553716,186
1660293360.99152,9458.4553748,200
1660293360.99152,9459.0881682,228
1660293360.99152,9459.0881875,252
1660293360.99152,9459.088192,259
1660293360.99152,9459.088196,263
1660293360.99152,9459.0881995,270
1660293360.99152,9459.0882031,282
1660293360.99152,9459.0882088,280
1660293360.99152,9459.0882124,235
1660293360.99152,9459.0882183,168
1660293360.99152,9459.0882227,126
1660293361.00348,9459.0882261,86
1660293361.00348,9459.0882292,30
1660293361.00348,9459.0882322,-16
1660293361.00348,9459.0882353,-51
1660293361.00348,9459.0882383,-86
1660293361.00348,9459.0882414,-114
1660293361.00348,9459.0882444,-112
1660293361.00348,9459.0882475,-91
1660293361.00348,9459.0882505,-79
1660293361.00348,9459.0882535,-74
1660293361.00348,9459.0882597,-60
1660293361.00348,9459.0882686,-53
1660293361.00348,9459.0882762,-49
1660293361.00348,9459.0882827,-46
1660293361.00348,9459.0882866,-37
1660293361.00348,9459.0882904,-14
1660293361.00348,9459.0882941,0
1660293361.00348,9459.0882979,-4
1660293361.00348,9459.0883022,2
1660293361.00348,9459.0883058,16
1660293361.00348,9459.0883092,18
1660293361.00348,9459.0883126,25
1660293361.00348,9459.0883163,32
1660293361.00348,9459.0883195,28
1660293361.48254,9459.0883229,25
1660293361.48254,9459.0883262,39
1660293361.48254,9459.0883297,42
1660293361.48254,9459.0883331,35
1660293361.48254,9459.0883367,44
1660293361.48254,9459.0883401,51
1660293361.48254,9459.0883434,49
1660293361.48254,9459.088347,56
1660293361.48254,9459.0883507,56
1660293361.48254,9459.088354,30
1660293361.48254,9459.0883575,18
1660293361.48254,9459.0883637,35
1660293361.48254,9459.0883672,35
1660293361.48254,9459.0883705,23
1660293361.48254,9459.0883738,37
1660293361.48254,9459.0883772,42
1660293361.48254,9459.0883806,18
1660293361.48254,9459.0883843,9
1660293361.48254,9459.0883877,18
1660293361.48254,9459.0883913,25
1660293361.48254,9459.088395,21
1660293361.48254,9459.0883999,14
1660293361.48254,9459.0884034,16
1660293361.48254,9459.0884069,23
1660293361.48254,9459.0884105,28
1660293361.48254,9459.088415,14
1660293361.48254,9459.0884192,11
1660293361.48254,9459.0884228,35
1660293361.48254,9459.0884263,49
1660293361.48254,9459.08843,28
1660293361.48254,9459.0884336,18
1660293361.48254,9459.0884382,37
1660293361.48254,9459.088443,53
1660293361.48254,9459.0884467,72
1660293361.48254,9459.0884503,91
1660293361.48254,9459.0884538,91
1660293361.48254,9459.0884572,86
1660293361.48254,9459.0884608,79
1660293361.48254,9459.0884643,56
1660293361.48254,9459.5758908,35
1660293361.48254,9459.57591,25
1660293361.48254,9459.5759332,14
1660293361.48254,9459.5759407,7
1660293361.48254,9459.5759454,16
1660293361.48254,9459.5759506,23
1660293361.48254,9459.5759538,11
1660293361.48254,9459.5759605,11
1660293361.48254,9459.5759652,140
1660293361.48254,9459.5759685,457
1660293361.48254,9459.5759802,861
1660293361.49451,9459.5759876,1090
1660293361.49451,9459.575994,735
1660293361.49451,9459.5759998,39
1660293361.49451,9459.5760028,-116
1660293361.49451,9459.5760057,128
1660293361.49451,9459.5760085,84
1660293361.49451,9459.5760115,-42
1660293361.49451,9459.5760144,7
1660293361.49451,9459.5760174,35
1660293361.49451,9459.5760202,4
1660293361.49451,9459.576023,21
1660293361.49451,9459.5760259,49
1660293361.49451,9459.5760287,37
1660293361.49451,9459.5760316,32
1660293361.49451,9459.5760344,53
1660293361.49451,9459.5760372,60
1660293361.49451,9459.57604,70
1660293361.49451,9459.5760428,95
1660293361.49451,9459.5760457,112
1660293361.49451,9459.5760487,116
1660293361.49451,9459.5760515,135
1660293361.49451,9459.5760543,163
1660293361.49451,9459.5760571,191
1660293361.49451,9459.5760598,205
1660293362.16011,9459.5760635,205
1660293362.16011,9459.5760703,228
1660293362.16011,9459.5760771,247
1660293362.16011,9459.5760837,245
1660293362.16011,9459.5760909,249
1660293362.16011,9459.576098,259
1660293362.16011,9459.5761033,245
1660293362.16011,9459.5761074,205
1660293362.16011,9459.5761132,161
1660293362.16011,9459.57612,107
1660293362.16011,9459.5761263,56
1660293362.16011,9459.5761298,23
1660293362.16011,9459.5761356,9
1660293362.16011,9459.576139,4
1660293362.16011,9459.5761422,-7
1660293362.16011,9459.5761456,-18
1660293362.16011,9459.576152,-9
1660293362.16011,9459.5761551,4
1660293362.16011,9459.5761579,9
1660293362.16011,9459.5761608,14
1660293362.16011,9459.5761636,16
1660293362.16011,9459.5761665,23
1660293362.16011,9459.5761717,42
1660293362.16011,9459.5761748,49
1660293362.16011,9459.5761778,63
1660293362.16011,9459.5761807,72
1660293362.16011,9459.5761834,58
1660293362.16011,9459.5761863,60
1660293362.16011,9459.5761892,88
1660293362.16011,9459.5761923,77
1660293362.16011,9459.5761951,51
1660293362.16011,9459.576198,46
1660293362.16011,9459.5762009,44
1660293362.16011,9459.5762038,39
1660293362.16011,9459.5762066,42
1660293362.16011,9459.5762094,42
1660293362.16011,9459.5762122,44
1660293362.16011,9459.576215,58
1660293362.16011,9460.2589725,70
1660293362.16011,9460.2589873,65
1660293362.16011,9460.2589923,56
1660293362.16011,9460.2589968,49
1660293362.16011,9460.2589997,46
1660293362.16011,9460.2590025,51
1660293362.16011,9460.2590047,49
1660293362.16011,9460.2590069,30
1660293362.16011,9460.2590089,14
1660293362.16011,9460.259011,4
1660293362.16011,9460.259013,2
1660293362.16011,9460.259015,9
1660293362.17208,9460.2590171,4
1660293362.17208,9460.2590196,-16
1660293362.17208,9460.2590223,-39
1660293362.17208,9460.2590251,-42
1660293362.17208,9460.2590278,-18
1660293362.17208,9460.2590304,-11
1660293362.17208,9460.2590332,-18
1660293362.17208,9460.259036,-23
1660293362.17208,9460.2590387,-23
1660293362.17208,9460.2590414,-14
1660293362.17208,9460.2590442,-7
1660293362.17208,9460.2590469,-2
1660293362.17208,9460.2590496,-4
1660293362.17208,9460.2590522,-23
1660293362.17208,9460.2590548,-18
1660293362.17208,9460.2590575,16
1660293362.17208,9460.2590599,42
1660293362.17208,9460.259062,42
1660293362.17208,9460.259064,35
1660293362.17208,9460.259066,35
1660293362.17208,9460.259068,21
1660293362.17208,9460.2590702,-9
1660293362.17208,9460.2590726,-7
1660293362.17208,9460.2590749,23
1660293362.64963,9460.2590782,30
1660293362.64963,9460.2590803,21
1660293362.64963,9460.2590825,14
1660293362.64963,9460.2590844,4
1660293362.64963,9460.2590865,39
1660293362.64963,9460.2590886,235
1660293362.64963,9460.2590908,614
1660293362.64963,9460.2590929,1015
1660293362.64963,9460.259095,1079
1660293362.64963,9460.2590971,518
1660293362.64963,9460.2590992,-53
1660293362.64963,9460.2591011,7
1660293362.64963,9460.259103,165
1660293362.64963,9460.259105,46
1660293362.64963,9460.2591069,7
1660293362.64963,9460.2591088,60
1660293362.64963,9460.2591108,42
1660293362.64963,9460.2591128,39
1660293362.64963,9460.2591148,79
1660293362.64963,9460.2591169,84
1660293362.64963,9460.2591189,74
1660293362.64963,9460.259121,86
1660293362.64963,9460.259125,84
1660293362.64963,9460.2591295,81
1660293362.64963,9460.2591345,107
1660293362.64963,9460.2591393,126
1660293362.64963,9460.2591466,133
1660293362.64963,9460.2591519,154
1660293362.64963,9460.2591582,182
1660293362.64963,9460.2591611,207
1660293362.64963,9460.259164,224
1660293362.64963,9460.2591669,233
1660293362.64963,9460.2591698,247
1660293362.64963,9460.2591727,275
1660293362.64963,9460.2591755,296
1660293362.64963,9460.2591783,298
1660293362.64963,9460.2591812,294
1660293362.64963,9460.7458504,289
1660293362.64963,9460.7459053,277
1660293362.64963,9460.7459195,235
1660293362.64963,9460.7459288,172
1660293362.64963,9460.7459381,119
1660293362.64963,9460.7459512,79
1660293362.64963,9460.7459646,44
1660293362.64963,9460.745978,21
1660293362.64963,9460.7459869,9
1660293362.64963,9460.7459894,4
1660293362.64963,9460.7459915,4
1660293362.64963,9460.7459936,0
1660293362.64963,9460.7459956,2
1660293362.6596,9460.7459977,18
1660293362.6596,9460.7460008,30
1660293362.6596,9460.7460109,23
1660293362.6596,9460.7460209,18
1660293362.6596,9460.7460243,30
1660293362.6596,9460.7460273,39
1660293362.6596,9460.7460352,46
1660293362.6596,9460.7460429,63
1660293362.6596,9460.7460472,79
1660293362.6596,9460.7460504,77
1660293362.6596,9460.7460535,56
1660293362.6596,9460.7460584,35
1660293362.6596,9460.7460614,39
1660293362.6596,9460.7460645,60
1660293362.6596,9460.7460675,60
1660293362.6596,9460.7460705,58
1660293362.6596,9460.7460735,58
1660293362.6596,9460.7460765,44
1660293362.6596,9460.7460795,46
1660293362.6596,9460.7460829,49
1660293362.6596,9460.7460859,39
1660293362.6596,9460.7460889,37
1660293362.6596,9460.7460918,35
1660293362.6596,9460.7460949,25
1660293363.13214,9460.7460979,25
1660293363.13214,9460.7461007,35
1660293363.13214,9460.7461036,32
1660293363.13214,9460.7461064,37
1660293363.13214,9460.7461093,42
1660293363.13214,9460.7461122,21
1660293363.13214,9460.7461151,9
1660293363.13214,9460.746118,23
1660293363.13214,9460.7461213,30
1660293363.13214,9460.7461243,35
1660293363.13214,9460.746127,37
1660293363.13214,9460.7461311,21
1660293363.13214,9460.7461351,2
1660293363.13214,9460.7461421,-9
1660293363.13214,9460.7461493,-4
1660293363.13214,9460.7461566,11
1660293363.13214,9460.7461654,11
1660293363.13214,9460.7461766,7
1660293363.13214,9460.7461896,9
1660293363.13214,9460.7462039,21
1660293363.13214,9460.7462179,30
1660293363.13214,9460.7462307,35
1660293363.13214,9460.7462438,51
1660293363.13214,9460.7462565,86
1660293363.13214,9460.7462679,95
1660293363.13214,9460.746281,77
1660293363.13214,9460.7462905,79
1660293363.13214,9460.7463019,91
1660293363.13214,9460.7463149,74
1660293363.13214,9460.7463288,53
1660293363.13214,9460.7463417,63
1660293363.13214,9460.7463547,70
1660293363.13214,9460.7463676,67
1660293363.13214,9460.7463807,77
1660293363.13214,9460.7463937,67
1660293363.13214,9460.7464068,37
1660293363.13214,9461.2330402,95
1660293363.13214,9461.2330566,338
1660293363.13214,9461.2330651,731
1660293363.13214,9461.2330693,1107
1660293363.13214,9461.2330737,1025
1660293363.13214,9461.2330796,364
1660293363.13214,9461.2330837,-51
1660293363.13214,9461.2330919,105
1660293363.13214,9461.2330976,161
1660293363.13214,9461.2331017,32
1660293363.13214,9461.2331075,49
1660293363.13214,9461.2331115,91
1660293363.13214,9461.2331172,56
1660293363.13214,9461.2331211,51
1660293363.14269,9461.2331263,72
1660293363.14269,9461.2331318,72
1660293363.14269,9461.2331371,72
1660293363.14269,9461.2331406,79
1660293363.14269,9461.2331445,93
1660293363.14269,9461.2331499,107
1660293363.14269,9461.2331537,98
1660293363.14269,9461.2331597,86
1660293363.14269,9461.233168,107
1660293363.14269,9461.2331792,137
1660293363.14269,9461.2331847,156
1660293363.14269,9461.2331868,172
1660293363.14269,9461.2331907,191
1660293363.14269,9461.2332001,212
1660293363.14269,9461.2332089,240
1660293363.14269,9461.2332114,252
1660293363.14269,9461.2332135,261
1660293363.14269,9461.2332155,277
1660293363.14269,9461.233223,277
1660293363.14269,9461.2332336,266
1660293363.14269,9461.2332443,247
1660293363.14269,9461.2332542,210
1660293363.14269,9461.2332648,151
1660293363.14269,9461.2332727,105
1660293363.71791,9461.2332751,67
1660293363.71791,9461.2332772,28
1660293363.71791,9461.2332792,7
1660293363.71791,9461.2332813,-4
1660293363.71791,9461.2332841,-28
1660293363.71791,9461.2332945,-49
1660293363.71791,9461.233304,-35
1660293363.71791,9461.2333083,-11
1660293363.71791,9461.2333117,-14
1660293363.71791,9461.2333171,-16
1660293363.71791,9461.2333219,-9
1660293363.71791,9461.2333318,-4
1660293363.71791,9461.2333442,7
1660293363.71791,9461.2333547,18
1660293363.71791,9461.2333592,18
1660293363.71791,9461.2333613,18
1660293363.71791,9461.2333663,25
1660293363.71791,9461.2333775,42
1660293363.71791,9461.2333828,51
1660293363.71791,9461.2333859,51
1660293363.71791,9461.2333887,56
1660293363.71791,9461.233399,58
1660293363.71791,9461.233412,56
1660293363.71791,9461.2334261,58
1660293363.71791,9461.2334378,70
1660293363.71791,9461.2334455,79
1660293363.71791,9461.2334501,81
1660293363.71791,9461.2334547,63
1660293363.71791,9461.2334674,49
1660293363.71791,9461.2334802,53
1660293363.71791,9461.2334928,65
1660293363.71791,9461.233507,72
1660293363.71791,9461.2335209,72
1660293363.71791,9461.2335338,63
1660293363.71791,9461.233547,46
1660293363.71791,9461.8189042,32
1660293363.71791,9461.8189291,35
1660293363.71791,9461.8189367,32
1660293363.71791,9461.8189488,16
1660293363.71791,9461.8189574,-9
1660293363.71791,9461.8189628,-28
1660293363.71791,9461.8189701,-21
1660293363.71791,9461.818977,-2
1660293363.71791,9461.818982,0
1660293363.71791,9461.8189872,-4
1660293363.71791,9461.8189922,-21
1660293363.71791,9461.819002,-42
1660293363.71791,9461.8190095,-39
1660293363.71791,9461.8190155,-21
1660293363.71791,9461.8190226,-11
1660293363.72789,9461.8190321,-14
1660293363.72789,9461.819039,-21
1660293363.72789,9461.8190493,-11
1660293363.72789,9461.8190551,18
1660293363.72789,9461.8190622,46
1660293363.72789,9461.8190719,56
1660293363.72789,9461.8190755,46
1660293363.72789,9461.8190845,37
1660293363.72789,9461.8190947,37
1660293363.72789,9461.8191038,28
1660293363.72789,9461.8191085,16
1660293363.72789,9461.819114,21
1660293363.72789,9461.8191202,30
1660293363.72789,9461.8191279,32
1660293363.72789,9461.8191367,30
1660293363.72789,9461.8191433,9
1660293363.72789,9461.8191497,-4
1660293363.72789,9461.8191555,107
1660293363.72789,9461.8191615,413
1660293363.72789,9461.8191708,833
1660293363.72789,9461.8192047,1125
1660293363.72789,9461.8192126,815
1660293363.72789,9461.81922,95
1660293363.72789,9461.8192263,-105
1660293364.30839,9461.8192327,116
1660293364.30839,9461.8192368,81
1660293364.30839,9461.8192409,-32
1660293364.30839,9461.8192451,16
1660293364.30839,9461.8192492,35
1660293364.30839,9461.8192531,14
1660293364.30839,9461.8192572,49
1660293364.30839,9461.8192612,60
1660293364.30839,9461.8192656,39
1660293364.30839,9461.8192696,58
1660293364.30839,9461.8192733,84
1660293364.30839,9461.8192772,86
1660293364.30839,9461.8192809,105
1660293364.30839,9461.8192912,137
1660293364.30839,9461.8193005,149
1660293364.30839,9461.8193073,149
1660293364.30839,9461.8193167,163
1660293364.30839,9461.8193238,184
1660293364.30839,9461.8193307,203
1660293364.30839,9461.819335,228
1660293364.30839,9461.8193391,252
1660293364.30839,9461.8193468,270
1660293364.30839,9461.819353,277
1660293364.30839,9461.8193587,284
1660293364.30839,9461.8193627,284
1660293364.30839,9461.8193683,280
1660293364.30839,9461.8193722,273
1660293364.30839,9461.8193774,242
1660293364.30839,9461.8193812,182
1660293364.30839,9461.8193868,121
1660293364.30839,9461.8193905,77
1660293364.30839,9461.8193958,32
1660293364.30839,9461.8194005,0
1660293364.30839,9461.8194067,-11
1660293364.30839,9462.4034597,-18
1660293364.30839,9462.4034801,-30
1660293364.30839,9462.4034905,-30
1660293364.30839,9462.4034933,-28
1660293364.30839,9462.4034954,-25
1660293364.30839,9462.4034976,-14
1660293364.30839,9462.4034997,-14
1660293364.30839,9462.4035017,-39
1660293364.30839,9462.4035037,-51
1660293364.30839,9462.4035059,-39
1660293364.30839,9462.4035079,-30
1660293364.30839,9462.40351,-28
1660293364.30839,9462.403512,-25
1660293364.30839,9462.4035141,-39
1660293364.30839,9462.4035161,-60
1660293364.30839,9462.4035182,-60
1660293364.32135,9462.4035202,-44
1660293364.32135,9462.4035222,-39
1660293364.32135,9462.4035243,-39
1660293364.32135,9462.4035263,-35
1660293364.32135,9462.4035283,-39
1660293364.32135,9462.4035304,-46
1660293364.32135,9462.4035324,-35
1660293364.32135,9462.4035345,-35
1660293364.32135,9462.4035364,-39
1660293364.32135,9462.4035384,-35
1660293364.32135,9462.4035404,-51
1660293364.32135,9462.4035424,-77
1660293364.32135,9462.4035444,-77
1660293364.32135,9462.4035465,-53
1660293364.32135,9462.4035484,-39
1660293364.32135,9462.4035505,-51
1660293364.32135,9462.4035525,-77
1660293364.32135,9462.4035545,-84
1660293364.32135,9462.4035565,-77
1660293364.32135,9462.403559,-67
1660293364.32135,9462.4035611,-65
1660293364.32135,9462.4035632,-51
1660293364.32135,9462.4035652,-37
1660293364.32135,9462.4035672,-46
1660293364.93706,9462.4035693,-67
1660293364.93706,9462.4035712,-65
1660293364.93706,9462.4035732,-46
1660293364.93706,9462.4035751,-39
1660293364.93706,9462.4035769,-42
1660293364.93706,9462.4035788,-25
1660293364.93706,9462.4035807,-4
1660293364.93706,9462.4035827,18
1660293364.93706,9462.4035847,35
1660293364.93706,9462.4035867,35
1660293364.93706,9462.4035887,25
1660293364.93706,9462.4035914,21
1660293364.93706,9462.4035933,11
1660293364.93706,9462.4035953,-7
1660293364.93706,9462.4035974,-21
1660293364.93706,9462.4035995,-14
1660293364.93706,9462.4036016,4
1660293364.93706,9462.4036036,4
1660293364.93706,9462.4036064,-14
1660293364.93706,9462.4036085,-7
1660293364.93706,9462.4036105,84
1660293364.93706,9462.4036124,322
1660293364.93706,9462.4036143,693
1660293364.93706,9462.4036161,1032
1660293364.93706,9462.403618,936
1660293364.93706,9462.4036199,298
1660293364.93706,9462.4036219,-116
1660293364.93706,9462.4036237,49
1660293364.93706,9462.4036256,137
1660293364.93706,9462.4036275,-11
1660293364.93706,9462.4036294,-4
1660293364.93706,9462.4036312,72
1660293364.93706,9462.4036332,46
1660293364.93706,9463.0375584,32
1660293364.93706,9463.0375772,60
1660293364.93706,9463.0375855,63
1660293364.93706,9463.0375895,77
1660293364.93706,9463.0375931,105
1660293364.93706,9463.0375985,114
1660293364.93706,9463.0376033,123

1660293364.93706,9463.0376095,133
1660293364.93706,9463.0376131,135
1660293364.93706,9463.0376177,144
1660293364.93706,9463.0376236,158
1660293364.93706,9463.0376271,170
1660293364.93706,9463.0376306,184
1660293364.93706,9463.0376349,196
1660293364.93706,9463.0376409,207
1660293364.93706,9463.0376445,231
1660293364.93706,9463.0376483,242
1660293364.94902,9463.0376543,233
1660293364.94902,9463.0376628,235
1660293364.94902,9463.0376687,254
1660293364.94902,9463.0376723,242
1660293364.94902,9463.037736,182
1660293364.94902,9463.0377497,109
1660293364.94902,9463.037759,60
1660293364.94902,9463.0377624,23
1660293364.94902,9463.0377658,-14
1660293364.94902,9463.0377698,-42
1660293364.94902,9463.0377731,-60
1660293364.94902,9463.0377761,-67
1660293364.94902,9463.0377792,-72
1660293364.94902,9463.0377825,-63
1660293364.94902,9463.0377859,-56
1660293364.94902,9463.0377946,-60
1660293364.94902,9463.0378006,-46
1660293364.94902,9463.0378044,-16
1660293364.94902,9463.0378105,-14
1660293364.94902,9463.0378144,-23
1660293364.94902,9463.0378211,-7
1660293364.94902,9463.0378242,16
1660293364.94902,9463.0378272,25
1660293364.94902,9463.0378301,30
1660293365.42599,9463.037834,37
1660293365.42599,9463.0378412,46
1660293365.42599,9463.037848,53
1660293365.42599,9463.0378549,51
1660293365.42599,9463.0378586,46
1660293365.42599,9463.0378629,46
1660293365.42599,9463.0378658,51
1660293365.42599,9463.0378688,56
1660293365.42599,9463.0378716,58
1660293365.42599,9463.0378745,60
1660293365.42599,9463.0378774,67
1660293365.42599,9463.0378806,74
1660293365.42599,9463.0378837,79
1660293365.42599,9463.0378867,79
1660293365.42599,9463.0378906,74
1660293365.42599,9463.0378941,74
1660293365.42599,9463.0378969,77
1660293365.42599,9463.0378998,77
1660293365.42599,9463.0379029,79
1660293365.42599,9463.0379061,81
1660293365.42599,9463.0379091,81
1660293365.42599,9463.0379126,74
1660293365.42599,9463.0379159,72
1660293365.42599,9463.0379199,79
1660293365.42599,9463.037924,79
1660293365.42599,9463.0379281,70
1660293365.42599,9463.0379316,60
1660293365.42599,9463.0379349,58
1660293365.42599,9463.0379384,53
1660293365.42599,9463.037942,53
1660293365.42599,9463.0379456,58
1660293365.42599,9463.037949,65
1660293365.42599,9463.5265867,63
1660293365.42599,9463.5266055,51
1660293365.42599,9463.5266148,53
1660293365.42599,9463.5266312,72
1660293365.42599,9463.5266382,93
1660293365.42599,9463.5266455,102
1660293365.42599,9463.5266531,81
1660293365.42599,9463.5266591,56
1660293365.42599,9463.5266659,51
1660293365.42599,9463.5266716,44
1660293365.42599,9463.5266766,35
1660293365.42599,9463.5266825,30
1660293365.42599,9463.5266856,30
1660293365.42599,9463.5266888,37
1660293365.42599,9463.526692,35
1660293365.42599,9463.5266955,9
1660293365.42599,9463.5267004,9
1660293365.42599,9463.5267038,109
1660293365.43796,9463.5267077,380
1660293365.43796,9463.526713,791
1660293365.43796,9463.5267165,1151
1660293365.43796,9463.5267204,990
1660293365.43796,9463.5267263,275
1660293365.43796,9463.5267299,-95
1660293365.43796,9463.5267352,95
1660293365.43796,9463.5267388,130
1660293365.43796,9463.5267422,-16
1660293365.43796,9463.5267458,-7
1660293365.43796,9463.5267493,23
1660293365.43796,9463.5267527,-4
1660293365.43796,9463.5267561,9
1660293365.43796,9463.5267597,42
1660293365.43796,9463.5267631,42
1660293365.43796,9463.5267665,51
1660293365.43796,9463.52677,72
1660293365.43796,9463.5267736,88
1660293365.43796,9463.5267771,100
1660293365.43796,9463.5267806,105
1660293365.43796,9463.5267844,112
1660293365.43796,9463.5267884,135
1660293365.43796,9463.5267919,170
1660293365.43796,9463.5267954,189
1660293366.00806,9463.5267988,198
1660293366.00806,9463.5268024,212
1660293366.00806,9463.5268062,235
1660293366.00806,9463.5268097,259
1660293366.00806,9463.5268131,284
1660293366.00806,9463.5268177,317
1660293366.00806,9463.5268211,315
1660293366.00806,9463.5268256,289
1660293366.00806,9463.5268291,277
1660293366.00806,9463.5268331,259
1660293366.00806,9463.5268365,212
1660293366.00806,9463.5268399,163
1660293366.00806,9463.5268435,114
1660293366.00806,9463.5268474,67
1660293366.00806,9463.526851,39
1660293366.00806,9463.5268542,28
1660293366.00806,9463.5268572,18
1660293366.00806,9463.5268603,14
1660293366.00806,9463.5268634,16
1660293366.00806,9463.5268666,16
1660293366.00806,9463.5268697,18
1660293366.00806,9463.5268729,32
1660293366.00806,9463.5268758,39
1660293366.00806,9463.5268788,39
1660293366.00806,9463.5268821,39
1660293366.00806,9463.5268855,37
1660293366.00806,9463.5268886,37
1660293366.00806,9463.5268919,39
1660293366.00806,9463.5268953,42
1660293366.00806,9463.5268986,49
1660293366.00806,9463.5269022,56
1660293366.00806,9464.1101579,56
1660293366.00806,9464.110177,58
1660293366.00806,9464.1101813,70
1660293366.00806,9464.110185,74
1660293366.00806,9464.1101886,72
1660293366.00806,9464.1101941,70
1660293366.00806,9464.1101978,51
1660293366.00806,9464.110204,32
1660293366.00806,9464.1102086,44
1660293366.00806,9464.1102158,53
1660293366.00806,9464.1102202,28
1660293366.00806,9464.1103206,7
1660293366.00806,9464.1103358,14
1660293366.00806,9464.110346,23
1660293366.00806,9464.1103548,23
1660293366.00806,9464.1103611,28
1660293366.00806,9464.1103716,30
1660293366.00806,9464.1103763,16
1660293366.00806,9464.1103785,2
1660293366.01804,9464.1103813,4
1660293366.01804,9464.1103834,16
1660293366.01804,9464.110387,25
1660293366.01804,9464.1105541,25
1660293366.01804,9464.110566,9
1660293366.01804,9464.1105809,-2
1660293366.01804,9464.1105881,-4
1660293366.01804,9464.1105971,-7
1660293366.01804,9464.1106067,-23
1660293366.01804,9464.1106117,-35
1660293366.01804,9464.110619,-37
1660293366.01804,9464.1106271,-35
1660293366.01804,9464.110634,-30
1660293366.01804,9464.1106388,-14
1660293366.01804,9464.1106426,18
1660293366.01804,9464.1106462,42
1660293366.01804,9464.1106484,35
1660293366.01804,9464.1106539,23
1660293366.01804,9464.1106804,28
1660293366.01804,9464.1106905,25
1660293366.01804,9464.1106973,9
1660293366.01804,9464.1107942,14
1660293366.01804,9464.1108056,23
1660293366.01804,9464.1108622,21
1660293366.59596,9464.1108718,23
1660293366.59596,9464.110879,23
1660293366.59596,9464.1108833,4
1660293366.59596,9464.1108877,44
1660293366.59596,9464.1109064,254
1660293366.59596,9464.1109146,614
1660293366.59596,9464.1109211,999
1660293366.59596,9464.1109278,1051
1660293366.59596,9464.1109349,471
1660293366.59596,9464.110961,-86
1660293366.59596,9464.110973,14
1660293366.59596,9464.11098,165
1660293366.59596,9464.1109855,11
1660293366.59596,9464.1109958,-25
1660293366.59596,9464.1110039,65
1660293366.59596,9464.1110162,51
1660293366.59596,9464.1110267,14
1660293366.59596,9464.1110375,35
1660293366.59596,9464.1110483,56
1660293366.59596,9464.1110564,58
1660293366.59596,9464.1110666,65
1660293366.59596,9464.1110772,81
1660293366.59596,9464.1110853,95
1660293366.59596,9464.1110929,112
1660293366.59596,9464.1111001,126
1660293366.59596,9464.1111049,137
1660293366.59596,9464.1111124,149
1660293366.59596,9464.1111221,172
1660293366.59596,9464.1111328,203
1660293366.59596,9464.1111435,219
1660293366.59596,9464.6945079,212
1660293366.59596,9464.6945207,219
1660293366.59596,9464.6945243,247
1660293366.59596,9464.6945286,259
1660293366.59596,9464.6945312,254
1660293366.59596,9464.6945339,256
1660293366.59596,9464.6945366,259
1660293366.59596,9464.6945389,238
1660293366.59596,9464.6945413,189
1660293366.59596,9464.6945433,130
1660293366.59596,9464.6945453,77
1660293366.59596,9464.6945472,30
1660293366.59596,9464.6945495,-7
1660293366.59596,9464.6945522,-44
1660293366.59596,9464.6945548,-74
1660293366.59596,9464.6945575,-77
1660293366.59596,9464.6945601,-63
1660293366.59596,9464.6945627,-70
1660293366.59596,9464.6945655,-88
1660293366.59596,9464.6945681,-102
1660293366.60693,9464.6945727,-112
1660293366.60693,9464.6946058,-112
1660293366.60693,9464.6946263,-95
1660293366.60693,9464.6946347,-81
1660293366.60693,9464.69464,-77
1660293366.60693,9464.6946454,-70
1660293366.60693,9464.6946494,-65
1660293366.60693,9464.6946546,-56
1660293366.60693,9464.6946586,-39
1660293366.60693,9464.6946641,-39
1660293366.60693,9464.6946775,-37
1660293366.60693,9464.6946887,-16
1660293366.60693,9464.6946978,-9
1660293366.60693,9464.694707,-16
1660293366.60693,9464.6947212,-11
1660293366.60693,9464.6947307,-4
1660293366.60693,9464.6947763,-7
1660293366.60693,9464.6947831,0
1660293366.60693,9464.6947862,14
1660293366.60693,9464.6947883,11
1660293366.60693,9464.6947904,7
1660293366.60693,9464.6947925,9
1660293366.60693,9464.6947945,11
1660293366.60693,9464.6947965,28
1660293367.08296,9464.6947984,49
1660293367.08296,9464.6948004,46
1660293367.08296,9464.6948024,37
1660293367.08296,9464.6948043,32
1660293367.08296,9464.6948063,35
1660293367.08296,9464.6948082,42
1660293367.08296,9464.6948102,46
1660293367.08296,9464.6948121,32
1660293367.08296,9464.6948139,25
1660293367.08296,9464.6948158,37
1660293367.08296,9464.6948177,51
1660293367.08296,9464.6948195,53
1660293367.08296,9464.6948215,53
1660293367.08296,9464.6948234,51
1660293367.08296,9464.6948254,46
1660293367.08296,9464.6948273,49
1660293367.08296,9464.6948293,63
1660293367.08296,9464.6948311,65
1660293367.08296,9464.6948332,63
1660293367.08296,9464.6948374,60
1660293367.08296,9464.6948422,60
1660293367.08296,9464.6948471,67
1660293367.08296,9464.6948529,72
1660293367.08296,9464.6948549,70
1660293367.08296,9464.6948569,58
1660293367.08296,9464.6948589,58
1660293367.08296,9464.6948609,46
1660293367.08296,9464.6948629,18
1660293367.08296,9464.6948649,14
1660293367.08296,9465.1816124,25
1660293367.08296,9465.1816307,30
1660293367.08296,9465.1816402,28
1660293367.08296,9465.1816472,18
1660293367.08296,9465.1816578,-4
1660293367.08296,9465.1816612,51
1660293367.08296,9465.1816641,305
1660293367.08296,9465.181667,726
1660293367.08296,9465.1816699,1151
1660293367.08296,9465.1816727,1114
1660293367.08296,9465.1816756,380
1660293367.08296,9465.1816784,-161
1660293367.08296,9465.1816813,9
1660293367.08296,9465.1816841,133
1660293367.08296,9465.181687,-28
1660293367.08296,9465.1816899,-37
1660293367.08296,9465.1816928,32
1660293367.08296,9465.1816955,7
1660293367.08296,9465.1816985,2
1660293367.08296,9465.1817013,42
1660293367.08296,9465.1817041,49
1660293367.09393,9465.1817069,51
1660293367.09393,9465.1817098,58
1660293367.09393,9465.1817125,44
1660293367.09393,9465.1817154,46
1660293367.09393,9465.1817182,79
1660293367.09393,9465.181721,98
1660293367.09393,9465.1817238,102
1660293367.09393,9465.1817267,114
1660293367.09393,9465.1817294,135
1660293367.09393,9465.1817322,161
1660293367.09393,9465.181735,189
1660293367.09393,9465.1817379,212
1660293367.09393,9465.1817407,231
1660293367.09393,9465.1817578,245
1660293367.09393,9465.1817631,252
1660293367.09393,9465.1817653,263
1660293367.09393,9465.1817674,277
1660293367.09393,9465.1817695,263
1660293367.09393,9465.1817714,228
1660293367.09393,9465.1817735,186
1660293367.09393,9465.1817754,130
1660293367.09393,9465.1817774,67
1660293367.09393,9465.1817794,35
1660293367.09393,9465.1817815,18
1660293367.71818,9465.1817834,2
1660293367.71818,9465.1817854,-14
1660293367.71818,9465.1817873,-25
1660293367.71818,9465.1817892,-16
1660293367.71818,9465.181791,-2
1660293367.71818,9465.1817929,2
1660293367.71818,9465.1817948,9
1660293367.71818,9465.1817968,9
1660293367.71818,9465.1817987,7
1660293367.71818,9465.1818005,23
1660293367.71818,9465.1818023,39
1660293367.71818,9465.1818042,42
1660293367.71818,9465.181806,44
1660293367.71818,9465.1818111,46
1660293367.71818,9465.1818198,46
1660293367.71818,9465.1818287,44
1660293367.71818,9465.1818338,44
1660293367.71818,9465.1818382,60
1660293367.71818,9465.1818401,74
1660293367.71818,9465.1818421,74
1660293367.71818,9465.1818441,88
1660293367.71818,9465.1818468,93
1660293367.71818,9465.1818488,72
1660293367.71818,9465.181851,74
1660293367.71818,9465.181853,105
1660293367.71818,9465.181855,105
1660293367.71818,9465.181857,95
1660293367.71818,9465.181859,109
1660293367.71818,9465.8153923,114
1660293367.71818,9465.8154126,98
1660293367.71818,9465.8154234,100
1660293367.71818,9465.8154982,107
1660293367.71818,9465.8155063,98
1660293367.71818,9465.8155094,102
1660293367.71818,9465.815512,107
1660293367.71818,9465.8155145,79
1660293367.71818,9465.8155169,63
1660293367.71818,9465.8155194,79
1660293367.71818,9465.8155217,74
1660293367.71818,9465.8155238,53
1660293367.71818,9465.8155258,56
1660293367.71818,9465.8155278,56
1660293367.71818,9465.8155298,39
1660293367.71818,9465.8155318,32
1660293367.71818,9465.8155338,32
1660293367.71818,9465.8155357,18
1660293367.71818,9465.8155379,14
1660293367.71818,9465.8155399,11
1660293367.71818,9465.8155419,2
1660293367.71818,9465.8155439,2
1660293367.72915,9465.8155459,9
1660293367.72915,9465.8155479,18
1660293367.72915,9465.81555,35
1660293367.72915,9465.815552,51
1660293367.72915,9465.8155541,51
1660293367.72915,9465.815556,49
1660293367.72915,9465.8155581,53
1660293367.72915,9465.8155602,46
1660293367.72915,9465.8155622,28
1660293367.72915,9465.8155642,25
1660293367.72915,9465.8155662,28
1660293367.72915,9465.8155682,18
1660293367.72915,9465.8155702,11
1660293367.72915,9465.8155722,21
1660293367.72915,9465.8155742,14
1660293367.72915,9465.8155799,0
1660293367.72915,9465.8155911,86
1660293367.72915,9465.8155965,355
1660293367.72915,9465.8155986,773
1660293367.72915,9465.8156006,1142
1660293367.72915,9465.8156027,964
1660293367.72915,9465.8156047,249
1660293367.72915,9465.8156068,-81
1660293367.72915,9465.8156089,102
1660293368.25072,9465.8156109,109
1660293368.25072,9465.8156131,-14
1660293368.25072,9465.8156149,18
1660293368.25072,9465.8156168,58
1660293368.25072,9465.8156187,28
1660293368.25072,9465.8156214,18
1660293368.25072,9465.8156233,32
1660293368.25072,9465.8156252,39
1660293368.25072,9465.8156271,46
1660293368.25072,9465.815629,67
1660293368.25072,9465.8156308,86
1660293368.25072,9465.8156327,93
1660293368.25072,9465.8156346,86
1660293368.25072,9465.8156365,105
1660293368.25072,9465.8156431,140
1660293368.25072,9465.8156511,151
1660293368.25072,9465.8156582,147
1660293368.25072,9465.8156651,170
1660293368.25072,9465.8156776,193
1660293368.25072,9465.8156915,196
1660293368.25072,9465.8157021,207
1660293368.25072,9465.8157079,240
1660293368.25072,9465.8157202,256
1660293368.25072,9465.8157281,249
1660293368.25072,9465.8157378,242
1660293368.25072,9465.8157492,240
1660293368.25072,9465.8157622,224
1660293368.25072,9466.352585,170
1660293368.25072,9466.3526038,105
1660293368.25072,9466.3526101,60
1660293368.25072,9466.3526151,30
1660293368.25072,9466.3526217,-2
1660293368.25072,9466.3526299,-35
1660293368.25072,9466.3526375,-42
1660293368.25072,9466.3526452,-30
1660293368.25072,9466.3526534,-37
1660293368.25072,9466.3526613,-51
1660293368.25072,9466.3526691,-56
1660293368.25072,9466.352677,-58
1660293368.25072,9466.3526849,-44
1660293368.25072,9466.3526918,-30
1660293368.25072,9466.352698,-35
1660293368.25072,9466.352702,-35
1660293368.25072,9466.352708,-37
1660293368.25072,9466.3527114,-60
1660293368.25072,9466.3527174,-56
1660293368.25072,9466.3527216,-35
1660293368.25072,9466.3527275,-32
1660293368.25072,9466.352732,-18
1660293368.25072,9466.3527388,-4
1660293368.2613,9466.3527425,-14
1660293368.2613,9466.3527457,-23
1660293368.2613,9466.3527492,-18
1660293368.2613,9466.3527535,-14
1660293368.2613,9466.3527604,-4
1660293368.2613,9466.3527639,2
1660293368.2613,9466.3527671,-2
1660293368.2613,9466.3527709,2
1660293368.2613,9466.3527747,7
1660293368.2613,9466.3527799,4
1660293368.2613,9466.3527835,11
1660293368.2613,9466.352787,25
1660293368.2613,9466.3527906,16
1660293368.2613,9466.352796,11
1660293368.2613,9466.3528003,28
1660293368.2613,9466.3528062,28
1660293368.2613,9466.3528114,21
1660293368.2613,9466.3528184,25
1660293368.2613,9466.3528229,21
1660293368.2613,9466.3528298,16
1660293368.2613,9466.3528343,18
1660293368.2613,9466.3528412,-2
1660293368.2613,9466.3528449,-32
1660293368.2613,9466.3528511,-23
1660293368.79532,9466.3528552,0
1660293368.79532,9466.3528615,-11
1660293368.79532,9466.3528655,-28
1660293368.79532,9466.3528699,-18
1660293368.79532,9466.352874,0
1660293368.79532,9466.3528778,23
1660293368.79532,9466.3528813,30
1660293368.79532,9466.352889,7
1660293368.79532,9466.3528934,-7
1660293368.79532,9466.3528971,-4
1660293368.79532,9466.3529015,0
1660293368.79532,9466.3529059,-7
1660293368.79532,9466.3529095,-2
1660293368.79532,9466.3529144,37
1660293368.79532,9466.3529196,81
1660293368.79532,9466.3529239,74
1660293368.79532,9466.3529326,60
1660293368.79532,9466.352937,70
1660293368.79532,9466.3529414,67
1660293368.79532,9466.3529456,51
1660293368.79532,9466.3529498,51
1660293368.79532,9466.3529531,56
1660293368.79532,9466.3529563,46
1660293368.79532,9466.35296,44
1660293368.79532,9466.3529633,49
1660293368.79532,9466.3529673,39
1660293368.79532,9466.8905212,77
1660293368.79532,9466.8905344,289
1660293368.79532,9466.890537,672
1660293368.79532,9466.8905393,1048
1660293368.79532,9466.8905414,1046
1660293368.79532,9466.8905436,453
1660293368.79532,9466.8905458,-39
1660293368.79532,9466.890548,70
1660293368.79532,9466.8905501,182
1660293368.79532,9466.8905522,49
1660293368.79532,9466.8905543,35
1660293368.79532,9466.8905564,98
1660293368.79532,9466.8905585,63
1660293368.79532,9466.8905605,28
1660293368.79532,9466.8905627,37
1660293368.79532,9466.8905647,32
1660293368.79532,9466.8905668,25
1660293368.79532,9466.8905688,46
1660293368.79532,9466.8905708,63
1660293368.79532,9466.8905729,56
1660293368.79532,9466.8905748,49
1660293368.79532,9466.8905768,53
1660293368.79532,9466.8905788,63
1660293368.79532,9466.8905808,81
1660293368.80529,9466.8905827,105
1660293368.80529,9466.8905847,121
1660293368.80529,9466.8905867,133
1660293368.80529,9466.8905887,147
1660293368.80529,9466.8905907,172
1660293368.80529,9466.8905928,200
1660293368.80529,9466.8905948,221
1660293368.80529,9466.8905968,228
1660293368.80529,9466.8905988,210
1660293368.80529,9466.8906008,191
1660293368.80529,9466.8906027,184
1660293368.80529,9466.8906047,149
1660293368.80529,9466.8906067,95
1660293368.80529,9466.8906087,49
1660293368.80529,9466.8906107,2
1660293368.80529,9466.8906128,-39
1660293368.80529,9466.8906181,-53
1660293368.80529,9466.8906304,-51
1660293368.80529,9466.8906413,-46
1660293368.80529,9466.8906458,-51
1660293368.80529,9466.890648,-51
1660293368.80529,9466.89065,-32
1660293368.80529,9466.8906522,-11
1660293368.80529,9466.8906542,-11
1660293369.38042,9466.8906562,-14
1660293369.38042,9466.8906583,0
1660293369.38042,9466.8906604,11
1660293369.38042,9466.8906622,-2
1660293369.38042,9466.8906641,-2
1660293369.38042,9466.890666,30
1660293369.38042,9466.8906679,39
1660293369.38042,9466.8906697,18
1660293369.38042,9466.8906716,21
1660293369.38042,9466.8906736,35
1660293369.38042,9466.8906755,39
1660293369.38042,9466.8906789,39
1660293369.38042,9466.8906902,39
1660293369.38042,9466.8906947,39
1660293369.38042,9466.8906979,42
1660293369.38042,9466.8907039,42
1660293369.38042,9466.8907099,49
1660293369.38042,9466.8907187,53
1660293369.38042,9466.8907265,53
1660293369.38042,9466.8907289,56
1660293369.38042,9466.890731,56
1660293369.38042,9466.8907331,49
1660293369.38042,9466.8907352,51
1660293369.38042,9466.8907373,56
1660293369.38042,9466.8907393,56
1660293369.38042,9467.4741987,58
1660293369.38042,9467.4742158,63
1660293369.38042,9467.4742281,60
1660293369.38042,9467.4742409,42
1660293369.38042,9467.4742529,32
1660293369.38042,9467.4742561,28
1660293369.38042,9467.4742646,7
1660293369.38042,9467.4742738,4
1660293369.38042,9467.4742805,23
1660293369.38042,9467.4742941,14
1660293369.38042,9467.4743085,-21
1660293369.38042,9467.4743204,-30
1660293369.38042,9467.4743257,-18
1660293369.38042,9467.4743343,-14
1660293369.38042,9467.4743494,-9
1660293369.38042,9467.4743639,0
1660293369.38042,9467.4743774,-11
1660293369.38042,9467.4743863,-21
1660293369.38042,9467.474389,-4
1660293369.38042,9467.4743912,18
1660293369.38042,9467.4743933,39
1660293369.38042,9467.4743953,51
1660293369.38042,9467.4744028,35
1660293369.38042,9467.4744156,7
1660293369.38042,9467.474422,-7
1660293369.39538,9467.4744243,-9
1660293369.39538,9467.4744263,-18
1660293369.39538,9467.474429,-18
1660293369.39538,9467.4744387,-23
1660293369.39538,9467.4744528,-42
1660293369.39538,9467.4744675,-49
1660293369.39538,9467.474481,-51
1660293369.39538,9467.4744942,-30
1660293369.39538,9467.4745075,142
1660293369.39538,9467.4745206,516
1660293369.39538,9467.4745339,938
