Time,TimeLsl,Value
1660296885.12782,12981.2849845,-46
1660296885.12782,12981.285003,-39
1660296885.12782,12981.2850137,-32
1660296885.12782,12981.2850226,-32
1660296885.12782,12981.2850281,-21
1660296885.12782,12981.2850344,-7
1660296885.12782,12981.2850376,-9
1660296885.12782,12981.2850435,-7
1660296885.12782,12981.2850467,14
1660296885.12782,12981.2850497,25
1660296885.12782,12981.2850527,18
1660296885.12782,12981.2850556,25
1660296885.12782,12981.2850595,39
1660296885.12782,12981.2850676,30
1660296885.12782,12981.2850752,16
1660296885.12782,12981.2850873,23
1660296885.12782,12981.2850988,30
1660296885.12782,12981.2851123,14
1660296885.12782,12981.2851226,4
1660296885.12782,12981.285131,9
1660296885.12782,12981.2851357,21
1660296885.12782,12981.2851444,39
1660296885.12782,12981.2851556,23
1660296885.12782,12981.2851701,-7
1660296885.12782,12981.285184,-2
1660296885.12782,12981.2851987,-2
1660296885.12782,12981.2852086,4
1660296885.12782,12981.2852337,32
1660296885.12782,12981.2852426,32
1660296885.12782,12981.2852484,21
1660296885.12782,12981.2852531,30
1660296885.12782,12981.2852585,39
1660296885.12782,12981.2852684,44
1660296885.12782,12981.2852748,60
1660296885.12782,12981.2852832,60
1660296885.12782,12981.2852892,35
1660296885.12782,12981.2852981,28
1660296885.12782,12981.2853023,51
1660296885.12782,12981.2853134,79
1660296885.12782,12981.2853166,86
1660296885.12782,12981.2853244,70
1660296885.12782,12981.2853372,77
1660296885.12782,12981.2853496,81
1660296885.12782,12981.2853614,58
1660296885.12782,12981.2853694,30
1660296885.12782,12981.285376,28
1660296885.12782,12981.2853829,42
1660296885.12782,12981.2853967,39
1660296885.12782,12981.2854076,18
1660296885.12782,12981.285412,21
1660296885.25748,12981.2854247,39
1660296885.25748,12981.285439,28
1660296885.25748,12981.2854509,-2
1660296885.25748,12981.2854612,-21
1660296885.25748,12981.2854731,114
1660296885.25748,12981.2854843,541
1660296885.25748,12981.2854958,1032
1660296885.25748,12981.2855105,1111
1660296885.25748,12981.2855236,513
1660296885.25748,12981.2855367,-184
1660296885.25748,12981.2855484,-177
1660296885.25748,12981.2855556,93
1660296885.25748,12981.2855693,9
1660296885.25748,12981.2855828,-72
1660296885.25748,12981.2855958,30
1660296885.25748,12981.2856089,49
1660296885.25748,12981.285622,-2
1660296885.25748,12981.2856349,9
1660296885.25748,12981.2856482,42
1660296885.25748,12981.2856613,56
1660296885.25748,12981.2856739,77
1660296885.25748,12981.285681,81
1660296885.25748,12981.2856896,79
1660296885.25748,12981.9189174,95
1660296885.25748,12981.9189364,116
1660296885.25748,12981.918943,140
1660296885.25748,12981.9189496,172
1660296885.25748,12981.9189565,214
1660296885.25748,12981.9189604,245
1660296885.25748,12981.9189654,259
1660296885.25748,12981.9189702,273
1660296885.25748,12981.918975,296
1660296885.25748,12981.9189891,312
1660296885.25748,12981.9189968,317
1660296885.25748,12981.919,305
1660296885.25748,12981.9190076,277
1660296885.25748,12981.9190134,231
1660296885.25748,12981.9190164,144
1660296885.25748,12981.9190195,60
1660296885.25748,12981.9190224,7
1660296885.25748,12981.9190253,-32
1660296885.25748,12981.9190282,-65
1660296885.25748,12981.9190311,-84
1660296885.25748,12981.919034,-74
1660296885.25748,12981.9190369,-46
1660296885.25748,12981.9190397,-51
1660296885.25748,12981.9190427,-77
1660296885.25748,12981.9190457,-56
1660296885.25748,12981.9190487,-35
1660296885.25748,12981.9190516,-58
1660296885.30194,12981.9190544,-49
1660296885.30194,12981.9190573,-9
1660296885.30194,12981.9190603,0
1660296885.30194,12981.9190632,-4
1660296885.30194,12981.919066,11
1660296885.30194,12981.9190688,28
1660296885.30194,12981.9190717,44
1660296885.30194,12981.9190746,44
1660296885.30194,12981.9190775,18
1660296885.30194,12981.9190804,25
1660296885.30194,12981.9190832,58
1660296885.30194,12981.9190861,65
1660296885.30194,12981.9190889,51
1660296885.30194,12981.9190917,39
1660296885.30194,12981.9190946,51
1660296885.30194,12981.9190975,77
1660296885.30194,12981.9191003,84
1660296885.30194,12981.9191033,74
1660296885.30194,12981.9191062,67
1660296885.30194,12981.919109,72
1660296885.30194,12981.9191119,77
1660296885.30194,12981.9191148,72
1660296885.30194,12981.9191184,65
1660296885.30194,12981.9191236,49
1660296885.30194,12981.9191265,18
1660296885.30194,12981.9191293,4
1660296885.30194,12981.9191321,7
1660296885.30194,12981.9191349,4
1660296885.30194,12981.9191378,7
1660296885.30194,12981.9191406,16
1660296885.30194,12981.9191434,16
1660296885.30194,12981.9191463,14
1660296885.30194,12981.9191491,18
1660296885.30194,12981.9191521,25
1660296885.30194,12981.9191549,44
1660296885.30194,12981.9191577,53
1660296885.30194,12981.9191606,39
1660296885.30194,12981.9191639,37
1660296885.30194,12981.9191773,42
1660296885.30194,12981.9191917,35
1660296885.30194,12981.9192045,28
1660296885.30194,12981.9192176,65
1660296885.30194,12981.9192307,114
1660296885.30194,12981.9192439,112
1660296885.30194,12981.919258,81
1660296885.30194,12981.9192708,79
1660296885.30194,12982.5521379,81
1660296885.30194,12982.5521592,63
1660296885.30194,12982.5521651,49
1660296885.30194,12982.5521682,53
1660296885.32288,12982.5521702,79
1660296885.32288,12982.5521721,98
1660296885.32288,12982.552174,77
1660296885.32288,12982.5521793,67
1660296885.32288,12982.552188,98
1660296885.32288,12982.5521925,81
1660296885.32288,12982.5521993,-7
1660296885.32288,12982.5522051,2
1660296885.32288,12982.5522119,296
1660296885.32288,12982.5522173,808
1660296885.32288,12982.5522233,1172
1660296885.32288,12982.5522271,934
1660296885.32288,12982.5522327,177
1660296885.32288,12982.5522363,-205
1660296885.32288,12982.5522401,32
1660296885.32288,12982.552246,130
1660296885.32288,12982.5522516,0
1660296885.32288,12982.5522554,32
1660296885.32288,12982.5522591,81
1660296885.32288,12982.5522646,21
1660296885.32288,12982.5522692,11
1660296885.32288,12982.5522751,63
1660296885.32288,12982.5522789,79
1660296885.32288,12982.5522826,70
1660296885.32288,12982.5522864,79
1660296885.32288,12982.5522919,105
1660296885.32288,12982.5522958,109
1660296885.32288,12982.552301,119
1660296885.32288,12982.552306,135
1660296885.32288,12982.5523098,161
1660296885.32288,12982.5523136,217
1660296885.32288,12982.552319,249
1660296885.32288,12982.5523227,247
1660296885.32288,12982.5523281,287
1660296885.32288,12982.5523338,338
1660296885.32288,12982.552339,348
1660296885.32288,12982.5523457,343
1660296885.32288,12982.552351,348
1660296885.32288,12982.5523546,336
1660296885.32288,12982.5523583,294
1660296885.32288,12982.552364,233
1660296885.32288,12982.5523677,142
1660296885.32288,12982.5523731,63
1660296885.32288,12982.5523773,44
1660296885.32288,12982.552383,18
1660296885.32288,12982.5523867,-46
1660296885.32288,12982.5523921,-70
1660296885.32288,12982.5523957,-39
1660296885.32288,12982.5523995,-39
1660296885.32288,12982.5524047,-70
1660296885.33884,12982.5524086,-74
1660296885.33884,12982.552414,-67
1660296885.33884,12982.5524179,-72
1660296885.33884,12982.5524232,-67
1660296885.33884,12982.5524277,-42
1660296885.33884,12982.5524334,-21
1660296885.33884,12982.5524371,-37
1660296885.33884,12982.5524408,-44
1660296885.33884,12982.5524446,-21
1660296885.33884,12982.5524499,-9
1660296885.33884,12982.5524535,-11
1660296885.33884,12982.5524589,-16
1660296885.33884,12982.5524628,-28
1660296885.33884,12982.5524664,-25
1660296885.33884,12982.5524701,0
1660296885.33884,12982.5524738,23
1660296885.33884,12982.552479,25
1660296885.33884,12982.5524827,23
1660296885.33884,12982.5524882,28
1660296885.33884,12983.0397748,28
1660296885.33884,12983.0397909,18
1660296885.33884,12983.039795,23
1660296885.60957,12983.039798,32
1660296885.60957,12983.039801,28
1660296885.60957,12983.039804,23
1660296885.60957,12983.0398072,30
1660296885.60957,12983.0398105,44
1660296885.60957,12983.0398144,60
1660296885.60957,12983.0398173,58
1660296885.60957,12983.0398202,46
1660296885.60957,12983.0398232,53
1660296885.60957,12983.0398262,53
1660296885.60957,12983.0398292,32
1660296885.60957,12983.039832,16
1660296885.60957,12983.039835,16
1660296885.60957,12983.039838,16
1660296885.60957,12983.0398409,25
1660296885.60957,12983.039844,63
1660296885.60957,12983.0398471,86
1660296885.60957,12983.0398501,65
1660296885.60957,12983.039853,56
1660296885.60957,12983.0398561,70
1660296885.60957,12983.039859,88
1660296885.60957,12983.039862,105
1660296885.60957,12983.0398648,114
1660296885.60957,12983.0398679,98
1660296885.60957,12983.0398708,100
1660296885.60957,12983.0398738,130
1660296885.60957,12983.0398773,128
1660296885.60957,12983.0398803,100
1660296885.60957,12983.0398832,88
1660296885.60957,12983.0398863,70
1660296885.60957,12983.0398893,46
1660296885.60957,12983.0398926,39
1660296885.60957,12983.0398955,28
1660296885.60957,12983.0398988,18
1660296885.60957,12983.0399018,44
1660296885.60957,12983.0399047,46
1660296885.60957,12983.0399077,0
1660296885.60957,12983.0399106,114
1660296885.60957,12983.0399137,551
1660296885.60957,12983.0399168,1051
1660296885.60957,12983.0399197,1090
1660296885.60957,12983.0399226,406
1660296885.60957,12983.0399258,-270
1660296885.60957,12983.0399287,-144
1660296885.60957,12983.0399318,158
1660296885.60957,12983.0399348,51
1660296885.60957,12983.0399378,-14
1660296885.60957,12983.0399408,72
1660296885.60957,12983.0399437,56
1660296885.60957,12983.0399468,39
1660296885.67199,12983.039951,93
1660296885.67199,12983.039954,93
1660296885.67199,12983.0399569,72
1660296885.67199,12983.0399599,95
1660296885.67199,12983.0399631,109
1660296885.67199,12983.039966,114
1660296885.67199,12983.0399693,140
1660296885.67199,12983.0399732,158
1660296885.67199,12983.0399762,168
1660296885.67199,12983.0399793,186
1660296885.67199,12983.0399822,207
1660296885.67199,12983.0399855,224
1660296885.67199,12983.03999,247
1660296885.67199,12983.0399932,268
1660296885.67199,12983.0399963,289
1660296885.67199,12983.0399994,308
1660296885.67199,12983.0400279,312
1660296885.67199,12983.040042,317
1660296885.67199,12983.0400509,282
1660296885.67199,12983.040062,200
1660296885.67199,12983.6249931,133
1660296885.67199,12983.6250112,72
1660296885.67199,12983.6250206,-7
1660296885.67199,12983.6250287,-63
1660296886.02048,12983.6250352,-70
1660296886.02048,12983.62504,-67
1660296886.02048,12983.6250446,-98
1660296886.02048,12983.6250507,-107
1660296886.02048,12983.6250544,-60
1660296886.02048,12983.6250578,-46
1660296886.02048,12983.6250607,-72
1660296886.02048,12983.6250644,-65
1660296886.02048,12983.6250698,-46
1660296886.02048,12983.6250747,-46
1660296886.02048,12983.6250785,-42
1660296886.02048,12983.6250851,-32
1660296886.02048,12983.6250919,-39
1660296886.02048,12983.6250987,-58
1660296886.02048,12983.6251048,-42
1660296886.02048,12983.6251084,2
1660296886.02048,12983.6251114,16
1660296886.02048,12983.6251146,7
1660296886.02048,12983.6251181,2
1660296886.02048,12983.625121,-16
1660296886.02048,12983.6251263,-32
1660296886.02048,12983.6251303,-18
1660296886.02048,12983.6251358,0
1660296886.02048,12983.6251406,-7
1660296886.02048,12983.6251443,-7
1660296886.02048,12983.6251492,-4
1660296886.02048,12983.6251544,-14
1660296886.02048,12983.6251576,-30
1660296886.02048,12983.6251606,-42
1660296886.02048,12983.6251653,-28
1660296886.02048,12983.6251701,-7
1660296886.02048,12983.6251756,-11
1660296886.02048,12983.6251835,-16
1660296886.02048,12983.6251928,2
1660296886.02048,12983.6252007,2
1660296886.02048,12983.6252075,4
1660296886.02048,12983.6252105,35
1660296886.02048,12983.6252134,49
1660296886.02048,12983.6252163,53
1660296886.02048,12983.6252192,72
1660296886.02048,12983.6252221,65
1660296886.02048,12983.625225,58
1660296886.02048,12983.625228,74
1660296886.02048,12983.6252308,63
1660296886.02048,12983.6252337,42
1660296886.02048,12983.6252365,46
1660296886.02048,12983.6252394,58
1660296886.02048,12983.6252421,70
1660296886.02048,12983.625245,77
1660296886.02048,12983.6252479,65
1660296886.03245,12983.625251,67
1660296886.03245,12983.6252539,74
1660296886.03245,12983.6252568,37
1660296886.03245,12983.6252596,37
1660296886.03245,12983.6252625,315
1660296886.03245,12983.6252655,878
1660296886.03245,12983.6252683,1284
1660296886.03245,12983.6252711,969
1660296886.03245,12983.625274,98
1660296886.03245,12983.6252769,-270
1660296886.03245,12983.6252798,58
1660296886.03245,12983.6252827,168
1660296886.03245,12983.6252856,2
1660296886.03245,12983.6252884,23
1660296886.03245,12983.6252913,81
1660296886.03245,12983.6252941,49
1660296886.03245,12983.625297,60
1660296886.03245,12983.6252998,98
1660296886.03245,12983.6253027,93
1660296886.03245,12984.1126425,88
1660296886.03245,12984.112666,107
1660296886.03245,12984.1126738,126
1660296886.03245,12984.1126809,135
1660296886.03245,12984.1126877,133
1660296886.54835,12984.1126939,133
1660296886.54835,12984.1126986,147
1660296886.54835,12984.1127026,189
1660296886.54835,12984.1127083,240
1660296886.54835,12984.1127144,266
1660296886.54835,12984.1127197,284
1660296886.54835,12984.1127254,322
1660296886.54835,12984.1127323,338
1660296886.54835,12984.1127392,308
1660296886.54835,12984.1127465,280
1660296886.54835,12984.1127525,273
1660296886.54835,12984.1127575,228
1660296886.54835,12984.1127617,144
1660296886.54835,12984.112766,81
1660296886.54835,12984.1127709,25
1660296886.54835,12984.1127765,-44
1660296886.54835,12984.1127814,-88
1660296886.54835,12984.1127905,-107
1660296886.54835,12984.1128021,-121
1660296886.54835,12984.1128159,-128
1660296886.54835,12984.1128256,-140
1660296886.54835,12984.1128306,-142
1660296886.54835,12984.1128409,-123
1660296886.54835,12984.1128468,-109
1660296886.54835,12984.1128503,-98
1660296886.54835,12984.1128589,-77
1660296886.54835,12984.1128691,-72
1660296886.54835,12984.1128761,-84
1660296886.54835,12984.1128793,-72
1660296886.54835,12984.1128914,-39
1660296886.54835,12984.1129045,-32
1660296886.54835,12984.1129126,-28
1660296886.54835,12984.1129205,-2
1660296886.54835,12984.112935,7
1660296886.54835,12984.112946,-2
1660296886.54835,12984.1129545,11
1660296886.54835,12984.1129598,30
1660296886.54835,12984.1129735,32
1660296886.54835,12984.1129853,35
1660296886.54835,12984.1129951,35
1660296886.54835,12984.113008,23
1660296886.54835,12984.1130201,30
1660296886.54835,12984.1130309,56
1660296886.54835,12984.1130386,60
1660296886.54835,12984.1130469,49
1660296886.54835,12984.1130546,53
1660296886.54835,12984.1130601,70
1660296886.54835,12984.113073,72
1660296886.54835,12984.1130859,51
1660296886.54835,12984.1130993,42
1660296886.55917,12984.1131085,60
1660296886.55917,12984.1131136,67
1660296886.55917,12984.1131218,53
1660296886.55917,12984.1131286,51
1660296886.55917,12984.1131363,65
1660296886.55917,12984.1131404,70
1660296886.55917,12984.1131459,86
1660296886.55917,12984.1131498,137
1660296886.55917,12984.1131554,156
1660296886.55917,12984.1131595,112
1660296886.55917,12984.1131647,100
1660296886.55917,12984.1131693,114
1660296886.55917,12984.1131743,91
1660296886.55917,12984.1131791,81
1660296886.55917,12984.1131848,91
1660296886.55917,12984.1131922,81
1660296886.55917,12984.113222,84
1660296886.55917,12984.1132292,114
1660296886.55917,12984.6484076,121
1660296886.55917,12984.6484213,105
1660296886.55917,12984.6484251,95
1660296886.55917,12984.6484297,58
1660296886.55917,12984.648433,74
1660296886.55917,12984.6484361,359
1660296887.14041,12984.648439,878
1660296887.14041,12984.6484421,1228
1660296887.14041,12984.6484449,978
1660296887.14041,12984.6484475,200
1660296887.14041,12984.6484502,-221
1660296887.14041,12984.648453,18
1660296887.14041,12984.6484559,116
1660296887.14041,12984.6484587,-67
1660296887.14041,12984.6484616,-70
1660296887.14041,12984.6484643,0
1660296887.14041,12984.6484678,-44
1660296887.14041,12984.6484738,-70
1660296887.14041,12984.6484798,-28
1660296887.14041,12984.6484851,-14
1660296887.14041,12984.6484891,-14
1660296887.14041,12984.6484921,9
1660296887.14041,12984.648495,28
1660296887.14041,12984.6485008,39
1660296887.14041,12984.6485052,51
1660296887.14041,12984.6485111,65
1660296887.14041,12984.648516,88
1660296887.14041,12984.6485255,123
1660296887.14041,12984.648531,154
1660296887.14041,12984.6485356,179
1660296887.14041,12984.64854,210
1660296887.14041,12984.6485451,238
1660296887.14041,12984.6485529,270
1660296887.14041,12984.6485585,298
1660296887.14041,12984.6485708,301
1660296887.14041,12984.6485828,273
1660296887.14041,12984.6485922,231
1660296887.14041,12984.6485979,175
1660296887.14041,12984.6486023,100
1660296887.14041,12984.6486091,28
1660296887.14041,12984.6486155,-18
1660296887.14041,12984.6486223,-56
1660296887.14041,12984.6486255,-91
1660296887.14041,12984.6486322,-81
1660296887.14041,12984.6486377,-56
1660296887.14041,12984.6486479,-49
1660296887.14041,12984.6486559,-51
1660296887.14041,12984.6486638,-60
1660296887.14041,12984.6486745,-60
1660296887.14041,12984.6487054,-44
1660296887.14041,12984.6487154,-37
1660296887.14041,12984.6487228,-32
1660296887.14041,12984.6487302,-21
1660296887.14041,12984.6487325,-9
1660296887.14041,12984.6487347,2
1660296887.14041,12984.648738,21
1660296887.16135,12984.6487531,30
1660296887.16135,12984.6487654,32
1660296887.16135,12984.6487764,37
1660296887.16135,12984.6487853,39
1660296887.16135,12984.6487927,35
1660296887.16135,12984.6487999,28
1660296887.16135,12984.6488024,21
1660296887.16135,12984.6488046,30
1660296887.16135,12984.6488068,39
1660296887.16135,12984.6488088,44
1660296887.16135,12984.648811,58
1660296887.16135,12984.6488129,58
1660296887.16135,12984.6488201,44
1660296887.16135,12984.6488311,46
1660296887.16135,12984.648836,58
1660296887.16135,12984.6488382,51
1660296887.16135,12984.6488412,35
1660296887.16135,12985.2332718,56
1660296887.16135,12985.2332883,88
1660296887.16135,12985.2332923,81
1660296887.16135,12985.2332957,65
1660296887.16135,12985.2333006,63
1660296887.16135,12985.2333041,35
1660296887.16135,12985.2333105,2
1660296887.6802,12985.2333155,0
1660296887.6802,12985.2333211,7
1660296887.6802,12985.2333259,14
1660296887.6802,12985.2333301,18
1660296887.6802,12985.2333342,14
1660296887.6802,12985.2333384,7
1660296887.6802,12985.2333434,-11
1660296887.6802,12985.2334303,-21
1660296887.6802,12985.2334496,7
1660296887.6802,12985.2334551,49
1660296887.6802,12985.233459,56
1660296887.6802,12985.2334626,30
1660296887.6802,12985.2334659,28
1660296887.6802,12985.2334694,32
1660296887.6802,12985.2334728,25
1660296887.6802,12985.2334762,28
1660296887.6802,12985.2334797,39
1660296887.6802,12985.2334833,44
1660296887.6802,12985.2334908,51
1660296887.6802,12985.2334944,60
1660296887.6802,12985.233498,65
1660296887.6802,12985.2335018,65
1660296887.6802,12985.2335053,42
1660296887.6802,12985.2335089,23
1660296887.6802,12985.2335126,156
1660296887.6802,12985.2335162,555
1660296887.6802,12985.2335196,1001
1660296887.6802,12985.233523,1039
1660296887.6802,12985.2335264,446
1660296887.6802,12985.2335301,-168
1660296887.6802,12985.2335336,-112
1660296887.6802,12985.233537,109
1660296887.6802,12985.2335404,4
1660296887.6802,12985.2335439,-58
1660296887.6802,12985.2335475,14
1660296887.6802,12985.2335508,11
1660296887.6802,12985.2335541,-7
1660296887.6802,12985.2335578,23
1660296887.6802,12985.2335618,30
1660296887.6802,12985.2335651,30
1660296887.6802,12985.2335689,39
1660296887.6802,12985.2335725,37
1660296887.6802,12985.2335761,63
1660296887.6802,12985.2335798,98
1660296887.6802,12985.2335834,98
1660296887.6802,12985.2335869,107
1660296887.6802,12985.2335905,142
1660296887.6802,12985.2335939,175
1660296887.6802,12985.2335976,189
1660296887.6802,12985.2336017,196
1660296887.69316,12985.2336061,228
1660296887.69316,12985.2336096,273
1660296887.69316,12985.233613,287
1660296887.69316,12985.2336165,280
1660296887.69316,12985.2336201,280
1660296887.69316,12985.2336246,270
1660296887.69316,12985.2336293,224
1660296887.69316,12985.2336331,156
1660296887.69316,12985.2336367,91
1660296887.69316,12985.2336404,39
1660296887.69316,12985.2336441,0
1660296887.69316,12985.2336478,-37
1660296887.69316,12985.2336512,-63
1660296887.69316,12985.2336548,-72
1660296887.69316,12985.2336582,-84
1660296887.69316,12985.233662,-86
1660296887.69316,12985.7718084,-72
1660296887.69316,12985.7718287,-56
1660296887.69316,12985.771833,-51
1660296887.69316,12985.7718363,-49
1660296887.69316,12985.7718394,-42
1660296887.69316,12985.7718425,-28
1660296887.69316,12985.7718455,-11
1660296887.69316,12985.7718487,2
1660296888.36071,12985.771852,9
1660296888.36071,12985.771855,4
1660296888.36071,12985.771858,-18
1660296888.36071,12985.7718615,-21
1660296888.36071,12985.7718644,7
1660296888.36071,12985.7718676,18
1660296888.36071,12985.7718713,9
1660296888.36071,12985.7718745,9
1660296888.36071,12985.7718775,-4
1660296888.36071,12985.7718808,-21
1660296888.36071,12985.771884,-14
1660296888.36071,12985.7718871,2
1660296888.36071,12985.7718901,-2
1660296888.36071,12985.7718934,-18
1660296888.36071,12985.7718966,-32
1660296888.36071,12985.7718997,-30
1660296888.36071,12985.7719029,-18
1660296888.36071,12985.7719063,-4
1660296888.36071,12985.7719124,2
1660296888.36071,12985.7719158,-2
1660296888.36071,12985.7719199,-14
1660296888.36071,12985.7719244,-7
1660296888.36071,12985.7719276,11
1660296888.36071,12985.7719335,16
1660296888.36071,12985.77194,16
1660296888.36071,12985.7719466,21
1660296888.36071,12985.7719529,23
1660296888.36071,12985.7719571,32
1660296888.36071,12985.7719629,72
1660296888.36071,12985.7719687,91
1660296888.36071,12985.7719737,72
1660296888.36071,12985.7719792,67
1660296888.36071,12985.7719853,65
1660296888.36071,12985.771991,46
1660296888.36071,12985.7719952,46
1660296888.36071,12985.7719982,56
1660296888.36071,12985.7720017,60
1660296888.36071,12985.772005,65
1660296888.36071,12985.7720083,70
1660296888.36071,12985.7720118,67
1660296888.36071,12985.772015,63
1660296888.36071,12985.7720185,49
1660296888.36071,12985.7720226,32
1660296888.36071,12985.77203,147
1660296888.36071,12985.7720342,534
1660296888.36071,12985.7720414,1006
1660296888.36071,12985.7720482,1090
1660296888.36071,12985.7720512,504
1660296888.36071,12985.7720543,-156
1660296888.36071,12985.7720573,-116
1660296888.37367,12985.7720602,168
1660296888.37367,12985.7720631,91
1660296888.37367,12985.7720662,-2
1660296888.37367,12985.7720691,65
1660296888.37367,12985.7720719,72
1660296888.37367,12985.7720748,32
1660296888.37367,12985.7720776,42
1660296888.37367,12985.7720805,63
1660296888.37367,12985.7720836,63
1660296888.37367,12985.7720865,65
1660296888.37367,12985.7720896,74
1660296888.37367,12985.7720924,93
1660296888.37367,12985.7720953,102
1660296888.37367,12985.7720982,107
1660296888.37367,12985.7721304,123
1660296888.37367,12986.4522659,147
1660296888.37367,12986.4522861,165
1660296888.37367,12986.4522904,196
1660296888.37367,12986.452294,231
1660296888.37367,12986.4522985,261
1660296888.37367,12986.4523064,280
1660296888.37367,12986.4523123,277
1660296888.37367,12986.4523171,256
1660296888.37367,12986.4523205,245
1660296888.94314,12986.4523237,228
1660296888.94314,12986.4523267,184
1660296888.94314,12986.4523298,119
1660296888.94314,12986.4523327,35
1660296888.94314,12986.4523357,-51
1660296888.94314,12986.4523388,-105
1660296888.94314,12986.4523419,-116
1660296888.94314,12986.4523451,-116
1660296888.94314,12986.4523479,-119
1660296888.94314,12986.4523509,-123
1660296888.94314,12986.452354,-123
1660296888.94314,12986.452357,-119
1660296888.94314,12986.4523602,-116
1660296888.94314,12986.4523631,-102
1660296888.94314,12986.4523668,-81
1660296888.94314,12986.4523712,-74
1660296888.94314,12986.4523763,-67
1660296888.94314,12986.4523796,-51
1660296888.94314,12986.4523846,-42
1660296888.94314,12986.4523885,-32
1660296888.94314,12986.4523956,-11
1660296888.94314,12986.4524007,2
1660296888.94314,12986.4524045,7
1660296888.94314,12986.4524115,11
1660296888.94314,12986.4524154,14
1660296888.94314,12986.4524207,28
1660296888.94314,12986.4524415,39
1660296888.94314,12986.4524553,42
1660296888.94314,12986.452463,44
1660296888.94314,12986.4524707,49
1660296888.94314,12986.4524756,49
1660296888.94314,12986.4525107,49
1660296888.94314,12986.4525162,53
1660296888.94314,12986.45252,60
1660296888.94314,12986.4525232,65
1660296888.94314,12986.4525272,63
1660296888.94314,12986.4525311,63
1660296888.94314,12986.4525349,67
1660296888.94314,12986.4525384,95
1660296888.94314,12986.4525418,128
1660296888.94314,12986.4525453,126
1660296888.94314,12986.4525488,100
1660296888.94314,12986.4525542,91
1660296888.94314,12986.4525576,88
1660296888.94314,12986.4525614,79
1660296888.94314,12986.4525673,77
1660296888.94314,12986.4525708,81
1660296888.94314,12986.4525742,81
1660296888.94314,12986.4525777,67
1660296888.94314,12986.4525847,58
1660296888.9551,12986.4525902,67
1660296888.9551,12986.4525946,70
1660296888.9551,12986.4525982,35
1660296888.9551,12986.4526025,21
1660296888.9551,12986.4526066,224
1660296888.9551,12986.4526125,733
1660296888.9551,12986.4526169,1221
1660296888.9551,12986.4526206,1097
1660296888.9551,12986.452626,284
1660296888.9551,12986.4526327,-259
1660296888.9551,12986.452639,-14
1660296888.9551,12986.4526454,177
1660296888.9551,12986.4526516,21
1660296888.9551,12986.4526557,16
1660296888.9551,12987.0377149,107
1660296888.9551,12987.0377361,86
1660296888.9551,12987.0377514,67
1660296888.9551,12987.0377645,95
1660296888.9551,12987.0377733,105
1660296888.9551,12987.0377759,105
1660296888.9551,12987.037778,123
1660296888.9551,12987.0377801,133
1660296888.9551,12987.0377821,137
1660296888.9551,12987.0377842,151
1660296889.42438,12987.0377862,163
1660296889.42438,12987.0377883,179
1660296889.42438,12987.0377902,207
1660296889.42438,12987.0377922,238
1660296889.42438,12987.0377941,263
1660296889.42438,12987.037796,282
1660296889.42438,12987.0377979,291
1660296889.42438,12987.0378005,287
1660296889.42438,12987.0378089,284
1660296889.42438,12987.0378203,289
1660296889.42438,12987.0378287,275
1660296889.42438,12987.0378329,226
1660296889.42438,12987.0378425,147
1660296889.42438,12987.0378472,53
1660296889.42438,12987.0378553,-18
1660296889.42438,12987.0378587,-60
1660296889.42438,12987.0378631,-93
1660296889.42438,12987.037866,-114
1660296889.42438,12987.037869,-130
1660296889.42438,12987.0378718,-158
1660296889.42438,12987.0378747,-165
1660296889.42438,12987.0378777,-147
1660296889.42438,12987.0378805,-137
1660296889.42438,12987.0378833,-137
1660296889.42438,12987.0378862,-128
1660296889.42438,12987.0378892,-123
1660296889.42438,12987.0378921,-116
1660296889.42438,12987.0378949,-100
1660296889.42438,12987.0378977,-86
1660296889.42438,12987.0379005,-77
1660296889.42438,12987.0379034,-65
1660296889.42438,12987.0379062,-58
1660296889.42438,12987.0379091,-56
1660296889.42438,12987.0379119,-51
1660296889.42438,12987.0379147,-44
1660296889.42438,12987.0379175,-35
1660296889.42438,12987.0379203,-23
1660296889.42438,12987.0379233,-21
1660296889.42438,12987.037926,-23
1660296889.42438,12987.0379289,-25
1660296889.42438,12987.0379318,-37
1660296889.42438,12987.0379345,-37
1660296889.42438,12987.0379374,-30
1660296889.42438,12987.0379403,-25
1660296889.42438,12987.0379432,-25
1660296889.42438,12987.0379459,-25
1660296889.42438,12987.0379487,-18
1660296889.42438,12987.0379516,0
1660296889.42438,12987.0379545,32
1660296889.42438,12987.0379572,58
1660296889.43535,12987.0379602,42
1660296889.43535,12987.0379631,28
1660296889.43535,12987.037966,37
1660296889.43535,12987.037969,35
1660296889.43535,12987.0379718,25
1660296889.43535,12987.0379746,35
1660296889.43535,12987.0379774,37
1660296889.43535,12987.0379802,35
1660296889.43535,12987.037983,37
1660296889.43535,12987.037986,49
1660296889.43535,12987.037989,56
1660296889.43535,12987.0379919,46
1660296889.43535,12987.0379947,11
1660296889.43535,12987.5258342,42
1660296889.43535,12987.5258476,345
1660296889.43535,12987.5258513,873
1660296889.43535,12987.5258546,1195
1660296889.43535,12987.5258577,847
1660296889.43535,12987.5258607,63
1660296889.43535,12987.5258638,-217
1660296889.43535,12987.5258669,67
1660296889.43535,12987.5258697,121
1660296889.43535,12987.5258724,-16
1660296889.43535,12987.5258752,30
1660296889.91042,12987.525878,86
1660296889.91042,12987.5258808,42
1660296889.91042,12987.5258837,25
1660296889.91042,12987.5258858,44
1660296889.91042,12987.5258886,56
1660296889.91042,12987.5258912,67
1660296889.91042,12987.5258946,81
1660296889.91042,12987.525906,95
1660296889.91042,12987.5259164,88
1660296889.91042,12987.5259261,77
1660296889.91042,12987.5259366,105
1660296889.91042,12987.5259455,144
1660296889.91042,12987.5259587,163
1660296889.91042,12987.5259723,186
1660296889.91042,12987.5259856,217
1660296889.91042,12987.5259988,242
1660296889.91042,12987.5260121,266
1660296889.91042,12987.5260257,287
1660296889.91042,12987.5260342,298
1660296889.91042,12987.5260367,298
1660296889.91042,12987.5260388,275
1660296889.91042,12987.5260408,224
1660296889.91042,12987.5260429,149
1660296889.91042,12987.5260449,60
1660296889.91042,12987.5260469,4
1660296889.91042,12987.5260491,-25
1660296889.91042,12987.5260511,-53
1660296889.91042,12987.5260531,-79
1660296889.91042,12987.5260551,-84
1660296889.91042,12987.5260572,-79
1660296889.91042,12987.5260591,-81
1660296889.91042,12987.5260612,-102
1660296889.91042,12987.5260651,-126
1660296889.91042,12987.5260678,-116
1660296889.91042,12987.5260764,-100
1660296889.91042,12987.5260888,-91
1660296889.91042,12987.5260953,-81
1660296889.91042,12987.5261046,-72
1660296889.91042,12987.5261136,-65
1660296889.91042,12987.5261218,-60
1660296889.91042,12987.526135,-49
1660296889.91042,12987.5261476,-37
1660296889.91042,12987.5261571,-30
1660296889.91042,12987.5261662,-23
1660296889.91042,12987.5261729,-16
1660296889.91042,12987.5261794,-11
1660296889.91042,12987.5261855,-7
1660296889.91042,12987.5261945,-9
1660296889.91042,12987.526201,-7
1660296889.91042,12987.5262095,2
1660296889.9219,12987.5262157,4
1660296889.9219,12987.5262246,4
1660296889.9219,12987.5262335,11
1660296889.9219,12987.5262407,14
1660296889.9219,12987.5262492,11
1660296889.9219,12987.5262539,4
1660296889.9219,12987.5262573,4
1660296889.9219,12987.5262605,16
1660296889.9219,12987.526267,28
1660296889.9219,12987.5262727,56
1660296889.9219,12987.5262774,84
1660296889.9219,12987.5262809,72
1660296889.9219,12988.0126771,56
1660296889.9219,12988.0127012,60
1660296889.9219,12988.012712,53
1660296889.9219,12988.0127194,39
1660296889.9219,12988.0127238,44
1660296889.9219,12988.0127295,53
1660296889.9219,12988.0127348,58
1660296889.9219,12988.0127394,60
1660296889.9219,12988.0127449,65
1660296889.9219,12988.0127483,56
1660296889.9219,12988.0127534,23
1660296889.9219,12988.0127584,-23
1660296890.50209,12988.0127637,21
1660296890.50209,12988.0127702,329
1660296890.50209,12988.0127737,838
1660296890.50209,12988.0127771,1135
1660296890.50209,12988.0127805,798
1660296890.50209,12988.0127837,56
1660296890.50209,12988.0127872,-207
1660296890.50209,12988.0127916,65
1660296890.50209,12988.012798,114
1660296890.50209,12988.0128036,-21
1660296890.50209,12988.0128081,16
1660296890.50209,12988.0128137,53
1660296890.50209,12988.0128173,7
1660296890.50209,12988.0128207,14
1660296890.50209,12988.012826,58
1660296890.50209,12988.0128304,65
1660296890.50209,12988.0128341,60
1660296890.50209,12988.0128395,65
1660296890.50209,12988.0128436,70
1660296890.50209,12988.0128469,88
1660296890.50209,12988.0128517,119
1660296890.50209,12988.012855,135
1660296890.50209,12988.0128593,156
1660296890.50209,12988.0128653,177
1660296890.50209,12988.0128692,189
1660296890.50209,12988.0128743,214
1660296890.50209,12988.0128778,254
1660296890.50209,12988.0128822,289
1660296890.50209,12988.0128871,303
1660296890.50209,12988.0128903,303
1660296890.50209,12988.0128941,301
1660296890.50209,12988.0128993,287
1660296890.50209,12988.012903,242
1660296890.50209,12988.0129089,179
1660296890.50209,12988.0129132,107
1660296890.50209,12988.0129196,44
1660296890.50209,12988.0129244,4
1660296890.50209,12988.0129307,-21
1660296890.50209,12988.0129349,-32
1660296890.50209,12988.012941,-28
1660296890.50209,12988.0129457,-21
1660296890.50209,12988.0129522,-23
1660296890.50209,12988.0129566,-28
1660296890.50209,12988.0129618,-28
1660296890.50209,12988.0129691,-30
1660296890.50209,12988.0129745,-30
1660296890.50209,12988.01298,-16
1660296890.50209,12988.012986,-7
1660296890.50209,12988.0129905,-11
1660296890.50209,12988.012997,-11
1660296890.51304,12988.0130015,-2
1660296890.51304,12988.0130078,4
1660296890.51304,12988.0130113,4
1660296890.51304,12988.0130163,7
1660296890.51304,12988.0130195,2
1660296890.51304,12988.0130226,2
1660296890.51304,12988.013026,9
1660296890.51304,12988.0130318,14
1660296890.51304,12988.0130362,11
1660296890.51304,12988.0130412,16
1660296890.51304,12988.0130447,18
1660296890.51304,12988.5980068,14
1660296890.51304,12988.5980282,14
1660296890.51304,12988.5980423,23
1660296890.51304,12988.5980505,25
1660296890.51304,12988.5980606,32
1660296890.51304,12988.598066,30
1660296890.51304,12988.5980759,9
1660296890.51304,12988.5980857,-14
1660296890.51304,12988.5980913,-7
1660296890.51304,12988.5980976,14
1660296890.51304,12988.5981005,39
1660296890.51304,12988.5981034,65
1660296890.51304,12988.5981063,49
1660296891.03323,12988.5981103,11
1660296891.03323,12988.5981169,2
1660296891.03323,12988.5981237,-4
1660296891.03323,12988.5981308,-23
1660296891.03323,12988.5981378,-23
1660296891.03323,12988.5981422,-9
1660296891.03323,12988.5981467,-9
1660296891.03323,12988.5981527,-7
1660296891.03323,12988.5981597,7
1660296891.03323,12988.5981658,18
1660296891.03323,12988.5981717,11
1660296891.03323,12988.5981859,-21
1660296891.03323,12988.5981976,-11
1660296891.03323,12988.5982052,252
1660296891.03323,12988.5982116,775
1660296891.03323,12988.5982176,1146
1660296891.03323,12988.5982234,878
1660296891.03323,12988.5982266,109
1660296891.03323,12988.5982319,-249
1660296891.03323,12988.5982444,7
1660296891.03323,12988.5982531,105
1660296891.03323,12988.5982671,-30
1660296891.03323,12988.598279,-4
1660296891.03323,12988.5982917,67
1660296891.03323,12988.5983036,44
1660296891.03323,12988.598316,42
1660296891.03323,12988.5983219,79
1660296891.03323,12988.5983252,93
1660296891.03323,12988.5983327,93
1660296891.03323,12988.5983434,107
1660296891.03323,12988.5983468,126
1660296891.03323,12988.5983497,142
1660296891.03323,12988.5983942,158
1660296891.03323,12988.5984061,177
1660296891.03323,12988.5984166,191
1660296891.03323,12988.598428,207
1660296891.03323,12988.5984368,245
1660296891.03323,12988.5984415,284

1660296891.03323,12988.5984487,301
1660296891.03323,12988.5984519,319
1660296891.03323,12988.5984549,343
1660296891.03323,12988.5984578,352
1660296891.03323,12988.5984606,352
1660296891.03323,12988.5984634,340
1660296891.03323,12988.5984662,298
1660296891.03323,12988.598469,221
1660296891.03323,12988.5984719,147
1660296891.03323,12988.5984762,91
1660296891.03323,12988.5985102,51
1660296891.03323,12988.5985171,23
1660296891.0462,12988.5985238,4
1660296891.0462,12988.5985325,-4
1660296891.0462,12988.5985402,-4
1660296891.0462,12988.5985469,0
1660296891.0462,12988.5985521,11
1660296891.0462,12988.5985663,16
1660296891.0462,12988.5985714,16
1660296891.0462,12988.5985765,25
1660296891.0462,12988.5985834,35
1660296891.0462,12988.5985884,39
1660296891.0462,12989.1336342,53
1660296891.0462,12989.1336576,72
1660296891.0462,12989.1336718,79
1660296891.0462,12989.1336861,72
1660296891.0462,12989.1337005,77
1660296891.0462,12989.1337142,86
1660296891.0462,12989.133728,81
1660296891.0462,12989.133742,72
1660296891.0462,12989.1337552,67
1660296891.0462,12989.1337621,58
1660296891.0462,12989.133773,42
1660296891.0462,12989.1337825,39
1660296891.0462,12989.1337917,46
1660296891.0462,12989.1337963,39
1660296891.72273,12989.1338036,30
1660296891.72273,12989.1338096,18
1660296891.72273,12989.133817,-9
1660296891.72273,12989.1338248,-30
1660296891.72273,12989.1338317,-16
1660296891.72273,12989.1338362,-9
1660296891.72273,12989.1338406,-18
1660296891.72273,12989.1338443,-28
1660296891.72273,12989.1338492,-14
1660296891.72273,12989.1338524,7
1660296891.72273,12989.1338555,0
1660296891.72273,12989.1338585,-4
1660296891.72273,12989.1338616,4
1660296891.72273,12989.1338647,-7
1660296891.72273,12989.1338678,-25
1660296891.72273,12989.1338708,-18
1660296891.72273,12989.1338757,-7
1660296891.72273,12989.1338832,4
1660296891.72273,12989.1338893,9
1660296891.72273,12989.1339035,14
1660296891.72273,12989.1339131,18
1660296891.72273,12989.1339265,9
1660296891.72273,12989.1339357,-23
1660296891.72273,12989.1339429,-4
1660296891.72273,12989.1339498,280
1660296891.72273,12989.1339589,838
1660296891.72273,12989.1339633,1219
1660296891.72273,12989.1339676,864
1660296891.72273,12989.1339708,2
1660296891.72273,12989.1339742,-303
1660296891.72273,12989.1339783,39
1660296891.72273,12989.1339838,119
1660296891.72273,12989.1339872,-32
1660296891.72273,12989.1339906,18
1660296891.72273,12989.1339959,79
1660296891.72273,12989.1339991,35
1660296891.72273,12989.1340025,49
1660296891.72273,12989.1340079,93
1660296891.72273,12989.1340126,91
1660296891.72273,12989.1340175,91
1660296891.72273,12989.1340222,119
1660296891.72273,12989.1340276,130
1660296891.72273,12989.1340327,140
1660296891.72273,12989.1340382,168
1660296891.72273,12989.1340419,191
1660296891.72273,12989.1340507,207
1660296891.72273,12989.1340659,240
1660296891.72273,12989.1340774,268
1660296891.72273,12989.1340919,289
1660296891.72273,12989.1341036,324
1660296891.7337,12989.1341185,350
1660296891.7337,12989.134132,352
1660296891.7337,12989.1341445,357
1660296891.7337,12989.1341527,364
1660296891.7337,12989.1341657,336
1660296891.7337,12989.1341754,266
1660296891.7337,12989.1341848,186
1660296891.7337,12989.1341932,112
1660296891.7337,12989.1341981,46
1660296891.7337,12989.8160234,4
1660296891.7337,12989.8160439,-16
1660296891.7337,12989.8160523,-25
1660296891.7337,12989.81606,-30
1660296891.7337,12989.8160653,-32
1660296891.7337,12989.8160686,-32
1660296891.7337,12989.8160716,-46
1660296891.7337,12989.8160747,-60
1660296891.7337,12989.8160776,-49
1660296891.7337,12989.8160805,-39
1660296891.7337,12989.8160834,-42
1660296891.7337,12989.8160863,-30
1660296891.7337,12989.8160891,-25
1660296891.7337,12989.816092,-44
1660296891.7337,12989.8160949,-58
1660296892.20055,12989.8160979,-51
1660296892.20055,12989.8161007,-39
1660296892.20055,12989.8161035,-28
1660296892.20055,12989.8161064,-18
1660296892.20055,12989.8161093,-16
1660296892.20055,12989.816112,-16
1660296892.20055,12989.8161149,-11
1660296892.20055,12989.8161177,0
1660296892.20055,12989.8161234,7
1660296892.20055,12989.8161327,14
1660296892.20055,12989.8161383,9
1660296892.20055,12989.8161404,2
1660296892.20055,12989.8161425,-2
1660296892.20055,12989.8161445,0
1660296892.20055,12989.8161466,-7
1660296892.20055,12989.8161486,-18
1660296892.20055,12989.8161507,-23
1660296892.20055,12989.8161527,-23
1660296892.20055,12989.8161547,-9
1660296892.20055,12989.8161568,18
1660296892.20055,12989.8161587,23
1660296892.20055,12989.8161607,0
1660296892.20055,12989.8161627,-9
1660296892.20055,12989.8161647,-9
1660296892.20055,12989.8161667,-30
1660296892.20055,12989.8161687,-37
1660296892.20055,12989.8161715,-25
1660296892.20055,12989.8161823,-16
1660296892.20055,12989.8161897,-9
1660296892.20055,12989.816192,-9
1660296892.20055,12989.816194,-14
1660296892.20055,12989.8161961,-9
1660296892.20055,12989.8162036,-16
1660296892.20055,12989.8162145,-60
1660296892.20055,12989.8162179,2
1660296892.20055,12989.8162208,385
1660296892.20055,12989.8162238,955
1660296892.20055,12989.816231,1202
1660296892.20055,12989.816242,721
1660296892.20055,12989.8162454,-70
1660296892.20055,12989.8162484,-226
1660296892.20055,12989.8162514,77
1660296892.20055,12989.8162616,63
1660296892.20055,12989.8162718,-65
1660296892.20055,12989.8162802,9
1660296892.20055,12989.8162881,49
1660296892.20055,12989.8162968,2
1660296892.20055,12989.8163048,16
1660296892.20055,12989.8163137,49
1660296892.20055,12989.816322,46
1660296892.21152,12989.8163284,53
1660296892.21152,12989.8163367,77
1660296892.21152,12989.8163431,91
1660296892.21152,12989.8163536,109
1660296892.21152,12989.8163942,126
1660296892.21152,12989.8164074,142
1660296892.21152,12989.8164139,165
1660296892.21152,12989.8164162,198
1660296892.21152,12990.3034833,231
1660296892.21152,12990.3035044,259
1660296892.21152,12990.303512,287
1660296892.21152,12990.3035161,308
1660296892.21152,12990.3035228,317
1660296892.21152,12990.3035305,319
1660296892.21152,12990.3035392,310
1660296892.21152,12990.3035439,270
1660296892.21152,12990.3035485,203
1660296892.21152,12990.3035548,123
1660296892.21152,12990.3035634,53
1660296892.21152,12990.3035679,7
1660296892.21152,12990.3035766,-25
1660296892.21152,12990.3035821,-44
1660296892.21152,12990.3035907,-53
1660296892.21152,12990.3035964,-67
1660296892.79588,12990.3036039,-86
1660296892.79588,12990.3036106,-84
1660296892.79588,12990.3036163,-67
1660296892.79588,12990.3036221,-63
1660296892.79588,12990.3036269,-67
1660296892.79588,12990.3036327,-65
1660296892.79588,12990.303637,-60
1660296892.79588,12990.3036423,-51
1660296892.79588,12990.3036473,-37
1660296892.79588,12990.3036533,-23
1660296892.79588,12990.3036572,-14
1660296892.79588,12990.3036611,-4
1660296892.79588,12990.3036641,-4
1660296892.79588,12990.3036671,-18
1660296892.79588,12990.3036699,-21
1660296892.79588,12990.3036729,-9
1660296892.79588,12990.3036758,-2
1660296892.79588,12990.3036788,0
1660296892.79588,12990.3036816,2
1660296892.79588,12990.3036845,2
1660296892.79588,12990.3036874,9
1660296892.79588,12990.3036903,14
1660296892.79588,12990.3036933,9
1660296892.79588,12990.3036961,7
1660296892.79588,12990.3036989,16
1660296892.79588,12990.3037018,14
1660296892.79588,12990.3037047,7
1660296892.79588,12990.3037076,11
1660296892.79588,12990.3037105,14
1660296892.79588,12990.3037134,11
1660296892.79588,12990.3037163,11
1660296892.79588,12990.3037194,25
1660296892.79588,12990.3037333,49
1660296892.79588,12990.3037468,46
1660296892.79588,12990.3037523,21
1660296892.79588,12990.3037608,18
1660296892.79588,12990.3037696,16
1660296892.79588,12990.3037765,-7
1660296892.79588,12990.3037815,-16
1660296892.79588,12990.3037836,-7
1660296892.79588,12990.3037857,-4
1660296892.79588,12990.3037877,0
1660296892.79588,12990.3037938,7
1660296892.79588,12990.3038051,16
1660296892.79588,12990.303814,16
1660296892.79588,12990.3038241,-9
1660296892.79588,12990.3038378,-37
1660296892.79588,12990.3038505,79
1660296892.79588,12990.3038636,488
1660296892.79588,12990.3038765,985
1660296892.80785,12990.3038897,1088
1660296892.80785,12990.3039027,513
1660296892.80785,12990.3039148,-156
1660296892.80785,12990.3039257,-142
1660296892.80785,12990.3039369,121
1660296892.80785,12990.3039496,51
1660296892.80785,12990.3039626,-28
1660296892.80785,12990.8889536,35
1660296892.80785,12990.888975,37
1660296892.80785,12990.8889854,18
1660296892.80785,12990.8889883,51
1660296892.80785,12990.8889906,72
1660296892.80785,12990.8889927,72
1660296892.80785,12990.8889948,84
1660296892.80785,12990.8889968,98
1660296892.80785,12990.8889989,109
1660296892.80785,12990.889001,128
1660296892.80785,12990.889003,151
1660296892.80785,12990.8890051,165
1660296892.80785,12990.8890072,165
1660296892.80785,12990.8890092,165
1660296892.80785,12990.8890111,189
1660296892.80785,12990.8890131,228
1660296892.80785,12990.8890152,263
1660296893.27713,12990.8890173,287
1660296893.27713,12990.8890193,294
1660296893.27713,12990.889025,277
1660296893.27713,12990.8890353,252
1660296893.27713,12990.8890452,228
1660296893.27713,12990.8890518,184
1660296893.27713,12990.8890569,109
1660296893.27713,12990.8890637,37
1660296893.27713,12990.8890692,-14
1660296893.27713,12990.8890786,-49
1660296893.27713,12990.8890916,-65
1660296893.27713,12990.889101,-67
1660296893.27713,12990.8891034,-65
1660296893.27713,12990.8891095,-58
1660296893.27713,12990.8891231,-56
1660296893.27713,12990.8891354,-58
1660296893.27713,12990.8891483,-46
1660296893.27713,12990.889156,-30
1660296893.27713,12990.889161,-18
1660296893.27713,12990.8891709,-9
1660296893.27713,12990.889182,-2
1660296893.27713,12990.8891854,4
1660296893.27713,12990.8891895,18
1660296893.27713,12990.8891915,30
1660296893.27713,12990.8892004,39
1660296893.27713,12990.889211,46
1660296893.27713,12990.8892134,44
1660296893.27713,12990.8892156,39
1660296893.27713,12990.8892176,42
1660296893.27713,12990.8892223,46
1660296893.27713,12990.8892341,51
1660296893.27713,12990.8892393,53
1660296893.27713,12990.8892413,44
1660296893.27713,12990.8892434,35
1660296893.27713,12990.8892492,39
1660296893.27713,12990.8892603,44
1660296893.27713,12990.8892652,46
1660296893.27713,12990.8892673,46
1660296893.27713,12990.8892695,42
1660296893.27713,12990.8892789,39
1660296893.27713,12990.8892877,35
1660296893.27713,12990.8892903,25
1660296893.27713,12990.8892924,18
1660296893.27713,12990.8892946,23
1660296893.27713,12990.8893016,25
1660296893.27713,12990.8893105,21
1660296893.27713,12990.8893193,18
1660296893.27713,12990.8893306,23
1660296893.27713,12990.8893392,37
1660296893.27713,12990.8893477,51
1660296893.28961,12990.8893593,39
1660296893.28961,12990.8893729,28
1660296893.28961,12990.8893842,32
1660296893.28961,12990.8893966,23
1660296893.28961,12990.8894099,9
1660296893.28961,12990.8894232,18
1660296893.28961,12991.3762672,21
1660296893.28961,12991.3762894,18
1660296893.28961,12991.3763017,23
1660296893.28961,12991.3763143,18
1660296893.28961,12991.3763264,18
1660296893.28961,12991.3763405,23
1660296893.28961,12991.3763467,-4
1660296893.28961,12991.3763509,-18
1660296893.28961,12991.3763604,163
1660296893.28961,12991.3763692,602
1660296893.28961,12991.3763794,999
1660296893.28961,12991.3763873,934
1660296893.28961,12991.3763939,301
1660296893.28961,12991.3764015,-217
1660296893.28961,12991.3764071,-72
1660296893.28961,12991.3764205,116
1660296893.28961,12991.3764325,-23
1660296893.28961,12991.3764406,-63
1660296893.91178,12991.3764479,21
1660296893.91178,12991.3764552,16
1660296893.91178,12991.3765673,4
1660296893.91178,12991.3765781,39
1660296893.91178,12991.3765825,49
1660296893.91178,12991.3765859,49
1660296893.91178,12991.3765977,63
1660296893.91178,12991.376609,81
1660296893.91178,12991.3766125,102
1660296893.91178,12991.3766154,123
1660296893.91178,12991.3766192,135
1660296893.91178,12991.3766787,151
1660296893.91178,12991.3766842,175
1660296893.91178,12991.3766887,203
1660296893.91178,12991.3766908,235
1660296893.91178,12991.3766929,268
1660296893.91178,12991.3766951,289
1660296893.91178,12991.3767005,298
1660296893.91178,12991.3767133,310
1660296893.91178,12991.3767219,317
1660296893.91178,12991.3767338,312
1660296893.91178,12991.3767451,287
1660296893.91178,12991.3767501,231
1660296893.91178,12991.3767579,156
1660296893.91178,12991.3767704,86
1660296893.91178,12991.3767766,37
1660296893.91178,12991.3767796,9
1660296893.91178,12991.3767818,-2
1660296893.91178,12991.3767838,-11
1660296893.91178,12991.3767858,-18
1660296893.91178,12991.3767879,-23
1660296893.91178,12991.3767899,-21
1660296893.91178,12991.376792,-2
1660296893.91178,12991.376794,9
1660296893.91178,12991.3767961,11
1660296893.91178,12991.376798,16
1660296893.91178,12991.3768001,23
1660296893.91178,12991.3768021,32
1660296893.91178,12991.3768042,42
1660296893.91178,12991.3768063,53
1660296893.91178,12991.3768083,53
1660296893.91178,12991.3768104,42
1660296893.91178,12991.3768125,32
1660296893.91178,12991.3768145,37
1660296893.91178,12991.3768166,42
1660296893.91178,12991.3768319,42
1660296893.91178,12991.3768607,49
1660296893.91178,12991.376873,51
1660296893.91178,12991.3768788,42
1660296893.91178,12991.3768823,32
1660296893.92275,12991.3768855,30
1660296893.92275,12991.3768888,30
1660296893.92275,12991.3768922,21
1660296893.92275,12991.3768958,16
1660296893.92275,12991.3769021,11
1660296893.92275,12992.0109428,9
1660296893.92275,12992.0109647,11
1660296893.92275,12992.0109802,18
1660296893.92275,12992.0109928,23
1660296893.92275,12992.0110009,23
1660296893.92275,12992.0110056,14
1660296893.92275,12992.0110138,-2
1660296893.92275,12992.011025,-16
1660296893.92275,12992.0110379,11
1660296893.92275,12992.0110493,58
1660296893.92275,12992.0110545,56
1660296893.92275,12992.0110566,28
1660296893.92275,12992.0110587,16
1660296893.92275,12992.0110616,-2
1660296893.92275,12992.0110706,-23
1660296893.92275,12992.0110829,-7
1660296893.92275,12992.0110881,7
1660296893.92275,12992.011091,4
1660296893.92275,12992.0110948,11
1660296894.44463,12992.0111061,16
1660296894.44463,12992.0111139,18
1660296894.44463,12992.0111193,28
1660296894.44463,12992.0111227,11
1660296894.44463,12992.0111264,-11
1660296894.44463,12992.01113,102
1660296894.44463,12992.0111358,485
1660296894.44463,12992.0111405,964
1660296894.44463,12992.0111458,1081
1660296894.44463,12992.0111518,516
1660296894.44463,12992.0111565,-172
1660296894.44463,12992.0111609,-154
1660296894.44463,12992.0111663,135
1660296894.44463,12992.0111722,63
1660296894.44463,12992.011178,-9
1660296894.44463,12992.0111873,81
1660296894.44463,12992.0111967,93
1660296894.44463,12992.0112026,63
1660296894.44463,12992.0112067,93
1660296894.44463,12992.0112201,109
1660296894.44463,12992.0112305,109
1660296894.44463,12992.0112368,130
1660296894.44463,12992.011245,149
1660296894.44463,12992.0112513,158
1660296894.44463,12992.0112607,177
1660296894.44463,12992.0112685,198
1660296894.44463,12992.0112748,212
1660296894.44463,12992.0112884,235
1660296894.44463,12992.0113017,266
1660296894.44463,12992.0113159,296
1660296894.44463,12992.0113282,331
1660296894.44463,12992.0113345,359
1660296894.44463,12992.011343,369
1660296894.44463,12992.0113524,366
1660296894.44463,12992.0113604,364
1660296894.44463,12992.011367,357
1660296894.44463,12992.0113736,333
1660296894.44463,12992.0113785,287
1660296894.44463,12992.0113819,214
1660296894.44463,12992.0113957,133
1660296894.44463,12992.0114072,65
1660296894.44463,12992.0114203,30
1660296894.44463,12992.0114269,21
1660296894.44463,12992.0114291,7
1660296894.44463,12992.0114366,-4
1660296894.44463,12992.011451,-4
1660296894.44463,12992.0114896,-2
1660296894.44463,12992.0115258,2
1660296894.44463,12992.0115364,7
1660296894.44463,12992.0115415,11
1660296894.4556,12992.0115457,21
1660296894.4556,12992.0115494,30
1660296894.4556,12992.0115549,32
1660296894.4556,12992.0117581,44
1660296894.4556,12992.5462617,58
1660296894.4556,12992.5462782,63
1660296894.4556,12992.5462812,65
1660296894.4556,12992.5462835,63
1660296894.4556,12992.5462857,56
1660296894.4556,12992.5462879,60
1660296894.4556,12992.54629,79
1660296894.4556,12992.5462921,84
1660296894.4556,12992.5462942,65
1660296894.4556,12992.5462963,39
1660296894.4556,12992.5462983,11
1660296894.4556,12992.5463005,-4
1660296894.4556,12992.5463025,2
1660296894.4556,12992.5463045,4
1660296894.4556,12992.5463066,-4
1660296894.4556,12992.5463087,-2
1660296894.4556,12992.5463107,0
1660296894.4556,12992.5463127,-14
1660296894.4556,12992.5463169,-18
1660296894.4556,12992.5463191,-7
1660296894.98708,12992.5463258,0
1660296894.98708,12992.5463343,-7
1660296894.98708,12992.5463438,-7
1660296894.98708,12992.5463539,9
1660296894.98708,12992.5463607,14
1660296894.98708,12992.5463653,-2
1660296894.98708,12992.5463707,-4
1660296894.98708,12992.5463763,-4
1660296894.98708,12992.5463814,-16
1660296894.98708,12992.546388,-18
1660296894.98708,12992.5463927,-11
1660296894.98708,12992.5463971,0
1660296894.98708,12992.5464012,11
1660296894.98708,12992.5464053,11
1660296894.98708,12992.5464095,9
1660296894.98708,12992.5464132,9
1660296894.98708,12992.5464173,-11
1660296894.98708,12992.5464215,-30
1660296894.98708,12992.5464265,114
1660296894.98708,12992.5464309,560
1660296894.98708,12992.5464371,1079
1660296894.98708,12992.546442,1107
1660296894.98708,12992.5464474,366
1660296894.98708,12992.5464514,-310
1660296894.98708,12992.5464567,-140
1660296894.98708,12992.5464607,128
1660296894.98708,12992.5464663,-21
1660296894.98708,12992.5464699,-72
1660296894.98708,12992.5464738,30
1660296894.98708,12992.5464777,9
1660296894.98708,12992.5464814,-16
1660296894.98708,12992.5464852,32
1660296894.98708,12992.546489,42
1660296894.98708,12992.5464927,30
1660296894.98708,12992.5464964,60
1660296894.98708,12992.5465001,74
1660296894.98708,12992.546504,74
1660296894.98708,12992.546508,100
1660296894.98708,12992.546512,133
1660296894.98708,12992.5465161,151
1660296894.98708,12992.54652,175
1660296894.98708,12992.5465239,203
1660296894.98708,12992.5465278,233
1660296894.98708,12992.5465318,268
1660296894.98708,12992.5465357,291
1660296894.98708,12992.5465396,303
1660296894.98708,12992.5465437,312
1660296894.98708,12992.5465475,312
1660296894.98708,12992.5465516,301
1660296894.98708,12992.5465644,268
1660296894.99905,12992.5465679,205
1660296894.99905,12992.5465716,128
1660296894.99905,12992.5465753,58
1660296894.99905,12993.0823271,9
1660296894.99905,12993.0823479,-14
1660296894.99905,12993.0823615,-30
1660296894.99905,12993.0823645,-51
1660296894.99905,12993.0823673,-51
1660296894.99905,12993.0823711,-42
1660296894.99905,12993.0823757,-58
1660296894.99905,12993.0823778,-84
1660296894.99905,12993.0823873,-84
1660296894.99905,12993.0823962,-70
1660296894.99905,12993.0824048,-60
1660296894.99905,12993.082416,-53
1660296894.99905,12993.0824209,-56
1660296894.99905,12993.0824268,-77
1660296894.99905,12993.0824311,-81
1660296894.99905,12993.0824371,-60
1660296894.99905,12993.0824408,-46
1660296894.99905,12993.0824448,-46
1660296894.99905,12993.0824508,-39
1660296894.99905,12993.0824563,-35
1660296894.99905,12993.0824606,-39
1660296895.6191,12993.0824667,-44
1660296895.6191,12993.0824711,-44
1660296895.6191,12993.0824776,-42
1660296895.6191,12993.0824845,-44
1660296895.6191,12993.0824919,-49
1660296895.6191,12993.0824992,-49
1660296895.6191,12993.0825061,-49
1660296895.6191,12993.0825131,-49
1660296895.6191,12993.0825218,-42
1660296895.6191,12993.0825289,-32
1660296895.6191,12993.0825384,-39
1660296895.6191,12993.0825448,-49
1660296895.6191,12993.0825538,-39
1660296895.6191,12993.0825609,-25
1660296895.6191,12993.0825693,-9
1660296895.6191,12993.0825756,23
1660296895.6191,12993.0825842,37
1660296895.6191,12993.0825931,4
1660296895.6191,12993.0825998,-21
1660296895.6191,12993.0826082,-21
1660296895.6191,12993.0826144,-21
1660296895.6191,12993.0826229,-16
1660296895.6191,12993.0826292,-11
1660296895.6191,12993.0826377,-9
1660296895.6191,12993.0826463,-4
1660296895.6191,12993.082653,4
1660296895.6191,12993.0826616,16
1660296895.6191,12993.0826685,21
1660296895.6191,12993.082677,7
1660296895.6191,12993.0826856,-28
1660296895.6191,12993.0826922,-11
1660296895.6191,12993.0827007,252
1660296895.6191,12993.082707,773
1660296895.6191,12993.0827151,1142
1660296895.6191,12993.0827238,875
1660296895.6191,12993.0827304,107
1660296895.6191,12993.0827344,-254
1660296895.6191,12993.0827406,18
1660296895.6191,12993.0827472,133
1660296895.6191,12993.0827567,-7
1660296895.6191,12993.0827642,18
1660296895.6191,12993.0827678,84
1660296895.6191,12993.0827752,51
1660296895.6191,12993.0827855,49
1660296895.6191,12993.082792,79
1660296895.6191,12993.0827979,79
1660296895.6191,12993.0828041,91
1660296895.6191,12993.0828098,121
1660296895.6191,12993.082816,133
1660296895.6191,12993.082822,133
1660296895.63007,12993.0828292,133
1660296895.63007,12993.0828324,144
1660296895.63007,12993.7172164,172
1660296895.63007,12993.7172321,198
1660296895.63007,12993.7172374,214
1660296895.63007,12993.7172447,238
1660296895.63007,12993.7172485,277
1660296895.63007,12993.7172523,298
1660296895.63007,12993.7172559,296
1660296895.63007,12993.7172596,308
1660296895.63007,12993.7172632,315
1660296895.63007,12993.7172669,280
1660296895.63007,12993.7172705,224
1660296895.63007,12993.7172742,163
1660296895.63007,12993.7172778,91
1660296895.63007,12993.7172814,30
1660296895.63007,12993.7172851,-14
1660296895.63007,12993.7172894,-56
1660296895.63007,12993.7172931,-88
1660296895.63007,12993.7172969,-98
1660296895.63007,12993.7173027,-100
1660296895.63007,12993.7173075,-91
1660296895.63007,12993.7173108,-74
1660296895.63007,12993.717315,-70
1660296896.15701,12993.717318,-72
1660296896.15701,12993.717321,-65
1660296896.15701,12993.7173265,-53
1660296896.15701,12993.7173314,-44
1660296896.15701,12993.7173356,-35
1660296896.15701,12993.7173402,-28
1660296896.15701,12993.717347,-30
1660296896.15701,12993.7173539,-30
1660296896.15701,12993.717394,-35
1660296896.15701,12993.7174002,-49
1660296896.15701,12993.7174041,-58
1660296896.15701,12993.7174097,-60
1660296896.15701,12993.7174147,-58
1660296896.15701,12993.7174187,-67
1660296896.15701,12993.7174234,-63
1660296896.15701,12993.7174294,-56
1660296896.15701,12993.7174368,-63
1660296896.15701,12993.7174432,-63
1660296896.15701,12993.7174468,-58
1660296896.15701,12993.7174527,-56
1660296896.15701,12993.7174566,-56
1660296896.15701,12993.717461,-51
1660296896.15701,12993.7174659,-44
1660296896.15701,12993.7174695,-37
1660296896.15701,12993.7174725,-25
1660296896.15701,12993.7174755,-2
1660296896.15701,12993.7174785,23
1660296896.15701,12993.7174814,14
1660296896.15701,12993.7174843,-2
1660296896.15701,12993.7174872,9
1660296896.15701,12993.7174901,9
1660296896.15701,12993.7174929,-7
1660296896.15701,12993.7174959,-9
1660296896.15701,12993.7174988,9
1660296896.15701,12993.7175016,21
1660296896.15701,12993.7175044,14
1660296896.15701,12993.7175072,21
1660296896.15701,12993.7175101,32
1660296896.15701,12993.7175132,28
1660296896.15701,12993.7175161,7
1660296896.15701,12993.717519,-9
1660296896.15701,12993.717522,79
1660296896.15701,12993.7175249,404
1660296896.15701,12993.7175278,847
1660296896.15701,12993.7175308,980
1660296896.15701,12993.7175337,478
1660296896.15701,12993.7175367,-156
1660296896.15701,12993.7175395,-154
1660296896.15701,12993.7175426,119
1660296896.15701,12993.7175454,70
1660296896.16699,12993.7175484,-9
1660296896.16699,12994.2526342,60
1660296896.16699,12994.2526502,74
1660296896.16699,12994.2526553,46
1660296896.16699,12994.2526596,74
1660296896.16699,12994.2526633,100
1660296896.16699,12994.2526682,100
1660296896.16699,12994.252672,105
1660296896.16699,12994.2526781,116
1660296896.16699,12994.2526818,130
1660296896.16699,12994.2526857,144
1660296896.16699,12994.2526916,163
1660296896.16699,12994.2526955,186
1660296896.16699,12994.2527013,210
1660296896.16699,12994.252707,231
1660296896.16699,12994.2527399,254
1660296896.16699,12994.2527539,284
1660296896.16699,12994.252761,315
1660296896.16699,12994.2527646,336
1660296896.16699,12994.2527697,340
1660296896.16699,12994.2527732,322
1660296896.16699,12994.252778,298
1660296896.16699,12994.2527814,282
1660296896.16699,12994.2527863,231
1660296896.64633,12994.2527897,140
1660296896.64633,12994.252793,60
1660296896.64633,12994.2527963,-2
1660296896.64633,12994.2528001,-53
1660296896.64633,12994.2528034,-67
1660296896.64633,12994.2528066,-67
1660296896.64633,12994.2528098,-72
1660296896.64633,12994.252813,-72
1660296896.64633,12994.2528162,-77
1660296896.64633,12994.2528195,-81
1660296896.64633,12994.2528227,-67
1660296896.64633,12994.2528259,-53
1660296896.64633,12994.2528291,-49
1660296896.64633,12994.2528323,-37
1660296896.64633,12994.2528355,-30
1660296896.64633,12994.2528387,-35
1660296896.64633,12994.252842,-28
1660296896.64633,12994.2528452,-14
1660296896.64633,12994.2528484,-7
1660296896.64633,12994.2528517,0
1660296896.64633,12994.2528549,0
1660296896.64633,12994.2528581,-7
1660296896.64633,12994.2528614,-9
1660296896.64633,12994.2528646,-7
1660296896.64633,12994.2528679,-2
1660296896.64633,12994.2528712,-7
1660296896.64633,12994.2528746,-18
1660296896.64633,12994.2528778,-21
1660296896.64633,12994.252881,-16
1660296896.64633,12994.2528842,-16
1660296896.64633,12994.2528874,-18
1660296896.64633,12994.2528906,-30
1660296896.64633,12994.2528938,-42
1660296896.64633,12994.252897,-39
1660296896.64633,12994.2529002,-25
1660296896.64633,12994.2529035,0
1660296896.64633,12994.2529068,32
1660296896.64633,12994.2529255,30
1660296896.64633,12994.2529523,9
1660296896.64633,12994.2529629,14
1660296896.64633,12994.2529691,16
1660296896.64633,12994.2529789,0
1660296896.64633,12994.2529869,0
1660296896.64633,12994.2529927,9
1660296896.64633,12994.2530013,11
1660296896.64633,12994.2530094,16
1660296896.64633,12994.2530152,25
1660296896.64633,12994.2530209,35
1660296896.64633,12994.2530265,35
1660296896.64633,12994.2530323,16
1660296896.6563,12994.7396952,-11
1660296896.6563,12994.7397081,86
1660296896.6563,12994.739712,441
1660296896.6563,12994.7397175,899
1660296896.6563,12994.7397206,1037
1660296896.6563,12994.7397249,527
1660296896.6563,12994.7397301,-135
1660296896.6563,12994.7397342,-147
1660296896.6563,12994.739737,133
1660296896.6563,12994.7397396,74
1660296896.6563,12994.7397425,-14
1660296896.6563,12994.7397453,65
1660296896.6563,12994.739748,84
1660296896.6563,12994.7397509,42
1660296896.6563,12994.7397537,49
1660296896.6563,12994.7397565,46
1660296896.6563,12994.7397593,21
1660296896.6563,12994.7397621,28
1660296896.6563,12994.739765,58
1660296896.6563,12994.7397678,72
1660296896.6563,12994.7397706,88
1660296896.6563,12994.7397733,109
1660296896.6563,12994.7397761,112
1660296896.6563,12994.7397789,114
1660296897.27774,12994.7397817,147
1660296897.27774,12994.7397844,186
1660296897.27774,12994.739787,217
1660296897.27774,12994.7397895,247
1660296897.27774,12994.7397917,277
1660296897.27774,12994.7397947,291
1660296897.27774,12994.7397968,291
1660296897.27774,12994.7397988,291
1660296897.27774,12994.7398007,277
1660296897.27774,12994.7398027,226
1660296897.27774,12994.7398048,154
1660296897.27774,12994.739807,79
1660296897.27774,12994.7398092,23
1660296897.27774,12994.739815,-9
1660296897.27774,12994.7398256,-28
1660296897.27774,12994.7398323,-35
1660296897.27774,12994.7398347,-37
1660296897.27774,12994.7398367,-37
1660296897.27774,12994.7398389,-28
1660296897.27774,12994.739841,-14
1660296897.27774,12994.739843,-14
1660296897.27774,12994.7398451,-16
1660296897.27774,12994.7398471,-11
1660296897.27774,12994.7398492,-7
1660296897.27774,12994.7398513,-7
1660296897.27774,12994.7398533,2
1660296897.27774,12994.7398553,25
1660296897.27774,12994.7398573,44
1660296897.27774,12994.7398594,51
1660296897.27774,12994.7398614,53
1660296897.27774,12994.7398634,58
1660296897.27774,12994.7398654,63
1660296897.27774,12994.7398675,63
1660296897.27774,12994.7398696,70
1660296897.27774,12994.7398716,74
1660296897.27774,12994.7398735,67
1660296897.27774,12994.7398756,60
1660296897.27774,12994.7398777,60
1660296897.27774,12994.7398797,63
1660296897.27774,12994.7398818,60
1660296897.27774,12994.7398838,60
1660296897.27774,12994.7398858,56
1660296897.27774,12994.7398878,63
1660296897.27774,12994.7398897,79
1660296897.27774,12994.7398918,79
1660296897.27774,12994.7398938,65
1660296897.27774,12994.7398958,60
1660296897.27774,12994.7398978,56
1660296897.27774,12994.7398998,35
1660296897.27774,12995.3743355,28
1660296897.29007,12995.3743574,42
1660296897.29007,12995.3743736,49
1660296897.29007,12995.3743832,46
1660296897.29007,12995.3743905,39
1660296897.29007,12995.3743998,23
1660296897.29007,12995.3744056,4
1660296897.29007,12995.3744131,-39
1660296897.29007,12995.3744202,-88
1660296897.29007,12995.3744288,18
1660296897.29007,12995.3744362,436
1660296897.29007,12995.3744472,969
1660296897.29007,12995.374455,1079
1660296897.29007,12995.3744614,422
1660296897.29007,12995.3744669,-312
1660296897.29007,12995.3744711,-249
1660296897.29007,12995.374475,60
1660296897.29007,12995.3744786,-21
1660296897.29007,12995.3744827,-93
1660296897.29007,12995.3744866,0
1660296897.29007,12995.3744901,0
1660296897.29007,12995.3744937,-28
1660296897.29007,12995.3744984,16
1660296897.29007,12995.374505,44
1660296897.29007,12995.374509,35
1660296897.86301,12995.3745129,53
1660296897.86301,12995.3745168,81
1660296897.86301,12995.3745206,95
1660296897.86301,12995.3745246,112
1660296897.86301,12995.3745287,135
1660296897.86301,12995.3745328,161
1660296897.86301,12995.3745372,186
1660296897.86301,12995.3745411,214
1660296897.86301,12995.3745453,247
1660296897.86301,12995.3745494,284
1660296897.86301,12995.3745529,310
1660296897.86301,12995.3745565,326
1660296897.86301,12995.3745599,324
1660296897.86301,12995.3745636,322
1660296897.86301,12995.3745679,317
1660296897.86301,12995.3745716,280
1660296897.86301,12995.3745762,205
1660296897.86301,12995.3745798,130
1660296897.86301,12995.3745831,65
1660296897.86301,12995.3745865,4
1660296897.86301,12995.3745899,-30
1660296897.86301,12995.3745932,-46
1660296897.86301,12995.3745965,-51
1660296897.86301,12995.3745998,-51
1660296897.86301,12995.3746032,-42
1660296897.86301,12995.3746065,-35
1660296897.86301,12995.3746097,-32
1660296897.86301,12995.3746131,-32
1660296897.86301,12995.3746172,-28
1660296897.86301,12995.3746207,-23
1660296897.86301,12995.3746272,-14
1660296897.86301,12995.3746322,-9
1660296897.86301,12995.3746388,-2
1660296897.86301,12995.3746436,9
1660296897.86301,12995.374649,18
1660296897.86301,12995.3746526,23
1660296897.86301,12995.3746561,32
1660296897.86301,12995.3746612,49
1660296897.86301,12995.3746682,56
1660296897.86301,12995.3746743,53
1660296897.86301,12995.3746787,56
1660296897.86301,12995.3746848,63
1660296897.86301,12995.3746887,70
1660296897.86301,12995.3746924,67
1660296897.86301,12995.3746961,51
1660296897.86301,12995.3747016,42
1660296897.86301,12995.3747057,44
1660296897.86301,12995.3747114,46
1660296897.86301,12995.9592501,46
1660296897.86301,12995.9592714,53
1660296897.87199,12995.9592755,56
1660296897.87199,12995.9592789,35
1660296897.87199,12995.9592822,18
1660296897.87199,12995.9592851,18
1660296897.87199,12995.9592881,4
1660296897.87199,12995.9592924,-11
1660296897.87199,12995.9592957,-11
1660296897.87199,12995.9593014,-28
1660296897.87199,12995.9593044,-53
1660296897.87199,12995.9593074,-51
1660296897.87199,12995.9593106,-37
1660296897.87199,12995.9593145,-35
1660296897.87199,12995.959318,-51
1660296897.87199,12995.9593215,-91
1660296897.87199,12995.9593256,-23
1660296897.87199,12995.9593294,364
1660296897.87199,12995.9593337,920
1660296897.87199,12995.9593374,1135
1660296897.87199,12995.959341,642
1660296897.87199,12995.9593445,-135
1660296897.87199,12995.9593482,-291
1660296897.87199,12995.9593518,-4
1660296897.87199,12995.959357,-9
1660296897.87199,12995.9593609,-123
1660296898.54362,12995.959367,-56
1660296898.54362,12995.9593707,-21
1660296898.54362,12995.9593742,-65
1660296898.54362,12995.9593777,-51
1660296898.54362,12995.9593812,-14
1660296898.54362,12995.9593848,-7
1660296898.54362,12995.9593884,4
1660296898.54362,12995.9593921,28
1660296898.54362,12995.9593955,39
1660296898.54362,12995.959399,51
1660296898.54362,12995.9594024,77
1660296898.54362,12995.9594058,109
1660296898.54362,12995.9594093,140
1660296898.54362,12995.9594126,172
1660296898.54362,12995.9594159,205
1660296898.54362,12995.9594192,235
1660296898.54362,12995.9594225,268
1660296898.54362,12995.9594259,298
1660296898.54362,12995.95943,322
1660296898.54362,12995.9594336,331
1660296898.54362,12995.9594373,319
1660296898.54362,12995.9594413,280
1660296898.54362,12995.9594448,207
1660296898.54362,12995.9594486,133
1660296898.54362,12995.9594522,70
1660296898.54362,12995.9594558,18
1660296898.54362,12995.9594595,-21
1660296898.54362,12995.9594631,-42
1660296898.54362,12995.9594664,-51
1660296898.54362,12995.9594697,-51
1660296898.54362,12995.9594729,-44
1660296898.54362,12995.9594762,-39
1660296898.54362,12995.95948,-35
1660296898.54362,12995.9594834,-32
1660296898.54362,12995.9594866,-32
1660296898.54362,12995.9594899,-21
1660296898.54362,12995.9594932,-2
1660296898.54362,12995.9594972,4
1660296898.54362,12995.9595009,4
1660296898.54362,12995.9595047,11
1660296898.54362,12995.9595087,11
1660296898.54362,12995.9595123,2
1660296898.54362,12995.9595157,9
1660296898.54362,12995.9595192,21
1660296898.54362,12995.959523,21
1660296898.54362,12995.9595264,25
1660296898.54362,12995.9595298,32
1660296898.54362,12996.641767,30
1660296898.54362,12996.6417839,37
1660296898.54362,12996.6417895,44
1660296898.55359,12996.6417972,46
1660296898.55359,12996.6418028,51
1660296898.55359,12996.6418087,46
1660296898.55359,12996.6418141,25
1660296898.55359,12996.6418199,9
1660296898.55359,12996.6418239,14
1660296898.55359,12996.6418296,21
1660296898.55359,12996.6418351,32
1660296898.55359,12996.6418404,65
1660296898.55359,12996.6418449,67
1660296898.55359,12996.6418507,21
1660296898.55359,12996.6418549,4
1660296898.55359,12996.6418591,9
1660296898.55359,12996.6418632,-2
1660296898.55359,12996.6418672,-7
1660296898.55359,12996.6418711,0
1660296898.55359,12996.6418748,-7
1660296898.55359,12996.6418783,-11
1660296898.55359,12996.641882,-7
1660296898.55359,12996.6418872,-7
1660296898.55359,12996.6418921,-11
1660296898.55359,12996.6418955,-32
1660296898.55359,12996.641899,-74
1660296898.55359,12996.6419026,-49
1660296898.93064,12996.6419074,231
1660296898.93064,12996.641911,742

1660296898.93064,12996.6419146,1081
1660296898.93064,12996.6419181,812
1660296898.93064,12996.6419216,63
1660296898.93064,12996.6419252,-296
1660296898.93064,12996.6419286,-49
1660296898.93064,12996.6419323,49
1660296898.93064,12996.6419358,-81
1660296898.93064,12996.6419392,-51
1660296898.93064,12996.6419427,9
1660296898.93064,12996.6419461,-25
1660296898.93064,12996.6419496,-18
1660296898.93064,12996.641953,25
1660296898.93064,12996.6419574,28
1660296898.93064,12996.6419624,30
1660296898.93064,12996.6419659,56
1660296898.93064,12996.6419694,70
1660296898.93064,12996.6419728,77
1660296898.93064,12996.641976,98
1660296898.93064,12996.641981,126
1660296898.93064,12996.6419843,151
1660296898.93064,12996.6419876,184
1660296898.93064,12996.6419911,212
1660296898.93064,12996.6419944,238
1660296898.93064,12996.6419999,268
1660296898.93064,12996.6420032,303
1660296898.93064,12996.6420066,326
1660296898.93064,12996.6420116,338
1660296898.93064,12996.6420149,333
1660296898.93064,12996.6420184,310
1660296898.93064,12996.6420233,247
1660296898.93064,12996.6420281,149
1660296898.93064,12996.6420315,60
1660296898.93064,12996.642035,18
1660296898.93064,12996.64204,-25
1660296898.93064,12996.6420434,-72
1660296898.93064,12996.6420468,-81
1660296898.93064,12996.6420519,-74
1660296898.93064,12996.6420553,-70
1660296898.93064,12996.6420588,-63
1660296898.93064,12996.6420639,-56
1660296898.93064,12996.6420673,-56
1660296898.93064,12996.6420786,-56
1660296898.93064,12996.642082,-39
1660296898.93064,12996.6420853,-23
1660296898.93064,12997.0323319,-14
1660296898.93064,12997.0323574,-7
1660296898.93064,12997.0323653,-9
1660296898.93064,12997.0323725,-4
1660296898.94161,12997.0323786,7
1660296898.94161,12997.0323831,4
1660296898.94161,12997.0323871,2
1660296898.94161,12997.032391,23
1660296898.94161,12997.0323952,28
1660296898.94161,12997.032399,16
1660296898.94161,12997.0324026,16
1660296898.94161,12997.0324064,25
1660296898.94161,12997.0324114,32
1660296898.94161,12997.0324172,35
1660296898.94161,12997.0324211,37
1660296898.94161,12997.0324248,32
1660296898.94161,12997.0324286,16
1660296898.94161,12997.0324322,11
1660296898.94161,12997.0324362,32
1660296898.94161,12997.03244,42
1660296898.94161,12997.0324441,32
1660296898.94161,12997.0324482,25
1660296898.94161,12997.0324555,39
1660296898.94161,12997.0324595,58
1660296898.94161,12997.032464,56
1660296898.94161,12997.0324677,46
1660296898.94161,12997.0324736,49
1660296898.94161,12997.0324769,51
1660296899.52022,12997.0324806,35
1660296899.52022,12997.0324851,16
1660296899.52022,12997.0324896,21
1660296899.52022,12997.0324937,30
1660296899.52022,12997.032499,30
1660296899.52022,12997.0325029,28
1660296899.52022,12997.0325067,21
1660296899.52022,12997.0325103,18
1660296899.52022,12997.0325166,21
1660296899.52022,12997.0325213,32
1660296899.52022,12997.0325271,53
1660296899.52022,12997.0325312,65
1660296899.52022,12997.0325347,51
1660296899.52022,12997.0325382,35
1660296899.52022,12997.0325417,35
1660296899.52022,12997.0325455,28
1660296899.52022,12997.0325492,14
1660296899.52022,12997.0325526,21
1660296899.52022,12997.0325562,30
1660296899.52022,12997.0325596,25
1660296899.52022,12997.0325631,30
1660296899.52022,12997.032568,37
1660296899.52022,12997.0325746,39
1660296899.52022,12997.0325804,28
1660296899.52022,12997.0325852,-18
1660296899.52022,12997.0325899,-18
1660296899.52022,12997.0325944,242
1660296899.52022,12997.0325975,738
1660296899.52022,12997.0326006,1093
1660296899.52022,12997.0326036,899
1660296899.52022,12997.0326067,200
1660296899.52022,12997.0326097,-210
1660296899.52022,12997.0326127,-14
1660296899.52022,12997.0326157,105
1660296899.52022,12997.0326186,-18
1660296899.52022,12997.0326216,-11
1660296899.52022,12997.0326245,56
1660296899.52022,12997.0326273,39
1660296899.52022,12997.0326303,39
1660296899.52022,12997.0326332,65
1660296899.52022,12997.0326362,65
1660296899.52022,12997.032639,72
1660296899.52022,12997.032642,93
1660296899.52022,12997.0326449,105
1660296899.52022,12997.0326478,116
1660296899.52022,12997.617524,130
1660296899.52022,12997.6175433,142
1660296899.52022,12997.6175485,156
1660296899.52022,12997.6175526,186
1660296899.52022,12997.617558,214
1660296899.5312,12997.6175642,238
1660296899.5312,12997.6175679,268
1660296899.5312,12997.6175725,301
1660296899.5312,12997.6175765,322
1660296899.5312,12997.6175813,336
1660296899.5312,12997.6175869,350
1660296899.5312,12997.6175942,343
1660296899.5312,12997.6176012,291
1660296899.5312,12997.6176102,196
1660296899.5312,12997.6176165,107
1660296899.5312,12997.6176195,51
1660296899.5312,12997.6176216,11
1660296899.5312,12997.6176249,-25
1660296899.5312,12997.6176372,-58
1660296899.5312,12997.6176457,-93
1660296899.5312,12997.6176511,-105
1660296899.5312,12997.6176573,-91
1660296899.5312,12997.6176626,-81
1660296899.5312,12997.6176665,-74
1660296899.5312,12997.6176712,-60
1660296899.5312,12997.6176745,-51
1660296899.5312,12997.6176792,-51
1660296899.5312,12997.6176849,-42
1660296899.5312,12997.6176889,-30
1660296900.01012,12997.6176943,-21
1660296900.01012,12997.6176986,-14
1660296900.01012,12997.6177026,-14
1660296900.01012,12997.6177138,-16
1660296900.01012,12997.6177217,-11
1660296900.01012,12997.6177275,-4
1660296900.01012,12997.6177336,2
1660296900.01012,12997.617741,7
1660296900.01012,12997.6177491,9
1660296900.01012,12997.6177582,9
1660296900.01012,12997.6177685,9
1660296900.01012,12997.617779,9
1660296900.01012,12997.617787,16
1660296900.01012,12997.6177918,23
1660296900.01012,12997.6177978,25
1660296900.01012,12997.6178016,25
1660296900.01012,12997.6178053,11
1660296900.01012,12997.6178113,-7
1660296900.01012,12997.6178152,-11
1660296900.01012,12997.617819,-9
1660296900.01012,12997.6178236,-23
1660296900.01012,12997.6178274,-25
1660296900.01012,12997.6178332,-16
1660296900.01012,12997.6178373,-11
1660296900.01012,12997.617843,-9
1660296900.01012,12997.6178467,-2
1660296900.01012,12997.6178503,-2
1660296900.01012,12997.6178539,-4
1660296900.01012,12997.6178578,-2
1660296900.01012,12997.6178619,7
1660296900.01012,12997.6178676,14
1660296900.01012,12997.6178721,18
1660296900.01012,12997.6178756,14
1660296900.01012,12997.6178792,14
1660296900.01012,12997.6178852,23
1660296900.01012,12997.617889,35
1660296900.01012,12997.6178946,58
1660296900.01012,12997.6178981,70
1660296900.01012,12997.6179017,53
1660296900.01012,12997.6179052,44
1660296900.01012,12997.6179089,49
1660296900.01012,12997.6179158,39
1660296900.01012,12997.6179237,37
1660296900.01012,12997.6179276,51
1660296900.01012,12998.1041569,53
1660296900.01012,12998.1041709,53
1660296900.01012,12998.1041738,63
1660296900.01012,12998.1041763,67
1660296900.01012,12998.1041784,67
1660296900.01012,12998.1041805,60
1660296900.02109,12998.1041825,35
1660296900.02109,12998.1041845,37
1660296900.02109,12998.1041865,252
1660296900.02109,12998.1041886,728
1660296900.02109,12998.1041907,1139
1660296900.02109,12998.1041928,1020
1660296900.02109,12998.1041948,303
1660296900.02109,12998.104197,-212
1660296900.02109,12998.1041995,-30
1660296900.02109,12998.1042015,142
1660296900.02109,12998.1042042,7
1660296900.02109,12998.1042133,-2
1660296900.02109,12998.1042242,79
1660296900.02109,12998.1042278,56
1660296900.02109,12998.1042316,42
1660296900.02109,12998.1042343,77
1660296900.02109,12998.1042454,74
1660296900.02109,12998.1042531,58
1660296900.02109,12998.1042555,67
1660296900.02109,12998.1042577,86
1660296900.02109,12998.1042597,102
1660296900.02109,12998.1042618,114
1660296900.02109,12998.104264,121
1660296900.02109,12998.1042737,142
1660296900.59354,12998.1042827,168
1660296900.59354,12998.1042851,200
1660296900.59354,12998.104287,247
1660296900.59354,12998.104289,291
1660296900.59354,12998.104291,315
1660296900.59354,12998.1042929,333
1660296900.59354,12998.1042948,357
1660296900.59354,12998.1042967,362
1660296900.59354,12998.1042986,340
1660296900.59354,12998.1043005,294
1660296900.59354,12998.1043025,231
1660296900.59354,12998.1043046,149
1660296900.59354,12998.1043067,74
1660296900.59354,12998.1043087,30
1660296900.59354,12998.1043108,-2
1660296900.59354,12998.1043128,-28
1660296900.59354,12998.1043149,-28
1660296900.59354,12998.104317,-32
1660296900.59354,12998.104319,-35
1660296900.59354,12998.1043238,-23
1660296900.59354,12998.1043258,-25
1660296900.59354,12998.1043288,-30
1660296900.59354,12998.1043308,-18
1660296900.59354,12998.1043328,-11
1660296900.59354,12998.1043349,-18
1660296900.59354,12998.1043369,-18
1660296900.59354,12998.1043389,-18
1660296900.59354,12998.1043409,-25
1660296900.59354,12998.1043429,-21
1660296900.59354,12998.1043449,-11
1660296900.59354,12998.1043477,-21
1660296900.59354,12998.1043497,-18
1660296900.59354,12998.1043517,7
1660296900.59354,12998.1043538,18
1660296900.59354,12998.1043558,14
1660296900.59354,12998.1043578,16
1660296900.59354,12998.1043599,21
1660296900.59354,12998.1043619,21
1660296900.59354,12998.104364,25
1660296900.59354,12998.104366,35
1660296900.59354,12998.1043681,39
1660296900.59354,12998.10437,39
1660296900.59354,12998.1043729,35
1660296900.59354,12998.6890852,28
1660296900.59354,12998.6891042,37
1660296900.59354,12998.6891122,42
1660296900.59354,12998.6891189,42
1660296900.59354,12998.6891236,56
1660296900.59354,12998.6891298,53
1660296900.59354,12998.6891338,25
1660296900.60451,12998.689139,11
1660296900.60451,12998.689143,28
1660296900.60451,12998.6891469,37
1660296900.60451,12998.6891512,35
1660296900.60451,12998.689157,53
1660296900.60451,12998.6891606,67
1660296900.60451,12998.6891654,44
1660296900.60451,12998.6891707,25
1660296900.60451,12998.6891745,35
1660296900.60451,12998.6891803,30
1660296900.60451,12998.6891855,2
1660296900.60451,12998.6891902,-9
1660296900.60451,12998.6891952,2
1660296900.60451,12998.6891985,9
1660296900.60451,12998.6892018,18
1660296900.60451,12998.6892052,37
1660296900.60451,12998.6892104,30
1660296900.60451,12998.6892141,23
1660296900.60451,12998.6892193,28
1660296900.60451,12998.6892235,11
1660296900.60451,12998.68923,21
1660296900.60451,12998.6892332,231
1660296900.60451,12998.6892363,689
1660296900.60451,12998.6892421,1114
1660296901.41888,12998.6892454,973
1660296901.41888,12998.6892483,170
1660296901.41888,12998.689252,-329
1660296901.41888,12998.6892556,-46
1660296901.41888,12998.6892612,137
1660296901.41888,12998.6892639,-21
1660296901.41888,12998.6892683,-14
1660296901.41888,12998.6892714,79
1660296901.41888,12998.689275,51
1660296901.41888,12998.6892798,37
1660296901.41888,12998.689283,77
1660296901.41888,12998.6892863,91
1660296901.41888,12998.6892896,91
1660296901.41888,12998.6892927,105
1660296901.41888,12998.6892976,114
1660296901.41888,12998.6893006,128
1660296901.41888,12998.6893037,142
1660296901.41888,12998.6893068,154
1660296901.41888,12998.6893099,179
1660296901.41888,12998.6893128,207
1660296901.41888,12998.6893164,235
1660296901.41888,12998.6893199,275
1660296901.41888,12998.6893229,312
1660296901.41888,12998.6893259,340
1660296901.41888,12998.6893302,366
1660296901.41888,12998.6893334,376
1660296901.41888,12998.689337,373
1660296901.41888,12998.6893425,357
1660296901.41888,12998.6893462,308
1660296901.41888,12998.6893505,221
1660296901.41888,12998.6893541,133
1660296901.41888,12998.6893577,63
1660296901.41888,12998.6893614,14
1660296901.41888,12998.6893647,-23
1660296901.41888,12998.6893679,-56
1660296901.41888,12998.6893712,-77
1660296901.41888,12998.6893744,-81
1660296901.41888,12998.6893776,-81
1660296901.41888,12998.6893807,-77
1660296901.41888,12998.6893853,-72
1660296901.41888,12998.6893884,-79
1660296901.41888,12998.6893912,-79
1660296901.41888,12999.5187965,-60
1660296901.41888,12999.518819,-56
1660296901.41888,12999.5188261,-60
1660296901.41888,12999.5188351,-51
1660296901.41888,12999.5188414,-42
1660296901.41888,12999.5188479,-42
1660296901.41888,12999.518855,-42
1660296901.41888,12999.5188639,-32
1660296901.42885,12999.518873,-30
1660296901.42885,12999.5188821,-44
1660296901.42885,12999.5188885,-46
1660296901.42885,12999.5188951,-30
1660296901.42885,12999.5189,-25
1660296901.42885,12999.5189054,-18
1660296901.42885,12999.5189116,-7
1660296901.42885,12999.5189194,-23
1660296901.42885,12999.5189262,-51
1660296901.42885,12999.5189329,-42
1660296901.42885,12999.5189371,-23
1660296901.42885,12999.5189412,-21
1660296901.42885,12999.518946,-16
1660296901.42885,12999.5189552,-11
1660296901.42885,12999.5189622,-18
1660296901.42885,12999.518966,-30
1660296901.42885,12999.5189689,-35
1660296901.42885,12999.5189718,-23
1660296901.42885,12999.5189747,-11
1660296901.42885,12999.5189776,-11
1660296901.42885,12999.5189803,-11
1660296901.42885,12999.5189831,-7
1660296901.42885,12999.5189859,14
1660296901.42885,12999.5189887,56
1660296901.80828,12999.5189923,74
1660296901.80828,12999.5189989,51
1660296901.80828,12999.5190055,42
1660296901.80828,12999.5190124,44
1660296901.80828,12999.5190193,35
1660296901.80828,12999.5190265,32
1660296901.80828,12999.5190324,35
1660296901.80828,12999.5190365,35
1660296901.80828,12999.5190422,37
1660296901.80828,12999.5190489,35
1660296901.80828,12999.5190524,39
1660296901.80828,12999.5190567,49
1660296901.80828,12999.5190613,44
1660296901.80828,12999.5190651,16
1660296901.80828,12999.5190681,-4
1660296901.80828,12999.5190713,156
1660296901.80828,12999.5190768,609
1660296901.80828,12999.5190806,1069
1660296901.80828,12999.5190835,1067
1660296901.80828,12999.5190864,427
1660296901.80828,12999.5190895,-175
1660296901.80828,12999.5190925,-86
1660296901.80828,12999.5190953,142
1660296901.80828,12999.5190982,42
1660296901.80828,12999.5191011,-4
1660296901.80828,12999.5191039,79
1660296901.80828,12999.5191069,77
1660296901.80828,12999.5191096,49
1660296901.80828,12999.5191126,77
1660296901.80828,12999.5191154,98
1660296901.80828,12999.5191182,100
1660296901.80828,12999.5191213,112
1660296901.80828,12999.5191268,126
1660296901.80828,12999.5191298,123
1660296901.80828,12999.5191329,119
1660296901.80828,12999.5191372,140
1660296901.80828,12999.5191413,172
1660296901.80828,12999.5191444,191
1660296901.80828,12999.5191471,207
1660296901.80828,12999.5191497,224
1660296901.80828,12999.5191524,242
1660296901.80828,12999.9074241,268
1660296901.80828,12999.9074422,303
1660296901.80828,12999.9074515,317
1660296901.80828,12999.9074568,308
1660296901.80828,12999.9074638,294
1660296901.80828,12999.9074686,261
1660296901.80828,12999.9074738,189
1660296901.80828,12999.9074805,102
1660296901.80828,12999.9074855,28
1660296901.82025,12999.9074925,-23
1660296901.82025,12999.907498,-56
1660296901.82025,12999.9075052,-84
1660296901.82025,12999.9075119,-112
1660296901.82025,12999.9075187,-123
1660296901.82025,12999.9075228,-119
1660296901.82025,12999.9075282,-121
1660296901.82025,12999.9075335,-128
1660296901.82025,12999.9075398,-135
1660296901.82025,12999.9075434,-123
1660296901.82025,12999.907547,-102
1660296901.82025,12999.907552,-93
1660296901.82025,12999.9075554,-91
1660296901.82025,12999.9075589,-79
1660296901.82025,12999.9075638,-65
1660296901.82025,12999.9075672,-60
1660296901.82025,12999.9075707,-56
1660296901.82025,12999.907576,-44
1660296901.82025,12999.9075796,-37
1660296901.82025,12999.9075846,-35
1660296901.82025,12999.9075879,-37
1660296901.82025,12999.9075914,-39
1660296901.82025,12999.9075962,-51
1660296901.82025,12999.9076026,-65
1660296902.35229,12999.907608,-58
1660296902.35229,12999.9076144,-37
1660296902.35229,12999.9076197,-30
1660296902.35229,12999.9076296,-28
1660296902.35229,12999.9076355,-23
1660296902.35229,12999.90764,-23
1660296902.35229,12999.9076438,-23
1660296902.35229,12999.9076476,-16
1660296902.35229,12999.9076516,-9
1660296902.35229,12999.9076557,0
1660296902.35229,12999.9076595,7
1660296902.35229,12999.9076637,2
1660296902.35229,12999.9076678,-4
1660296902.35229,12999.9076743,0
1660296902.35229,12999.9076785,11
1660296902.35229,12999.9076841,18
1660296902.35229,12999.9076881,28
1660296902.35229,12999.907692,25
1660296902.35229,12999.907696,25
1660296902.35229,12999.9077017,60
1660296902.35229,12999.9077056,93
1660296902.35229,12999.9077112,79
1660296902.35229,12999.9077152,67
1660296902.35229,12999.9077192,70
1660296902.35229,12999.907723,44
1660296902.35229,12999.9077288,28
1660296902.35229,12999.9077329,42
1660296902.35229,12999.9077392,56
1660296902.35229,12999.9077434,51
1660296902.35229,12999.9077499,46
1660296902.35229,12999.9077542,49
1660296902.35229,12999.9077598,51
1660296902.35229,12999.9077647,46
1660296902.35229,12999.9077704,25
1660296902.35229,12999.9077745,14
1660296902.35229,12999.9077785,140
1660296902.35229,12999.9077844,523
1660296902.35229,12999.9077886,971
1660296902.35229,12999.9077943,1058
1660296902.35229,12999.907799,527
1660296902.35229,13000.4444755,-100
1660296902.35229,13000.4444972,-95
1660296902.35229,13000.4445366,149
1660296902.35229,13000.4445503,72
1660296902.35229,13000.4445647,-4
1660296902.35229,13000.4445789,72
1660296902.35229,13000.4445932,86
1660296902.35229,13000.4446072,65
1660296902.35229,13000.4446221,84
1660296902.35229,13000.4446364,77
1660296902.36426,13000.4446503,56
1660296902.36426,13000.444665,70
1660296902.36426,13000.444679,86
1660296902.36426,13000.4446926,84
1660296902.36426,13000.4447077,81
1660296902.36426,13000.4447217,86
1660296902.36426,13000.4447352,93
1660296902.36426,13000.4447503,116
1660296902.36426,13000.4447645,151
1660296902.36426,13000.4447785,184
1660296902.36426,13000.4447932,210
1660296902.36426,13000.4448071,224
1660296902.36426,13000.444821,226
1660296902.36426,13000.4448356,240
1660296902.36426,13000.4448463,266
1660296902.36426,13000.4448555,273
1660296902.36426,13000.4448667,245
1660296902.36426,13000.4448777,193
1660296902.36426,13000.444886,109
1660296902.36426,13000.4448976,21
1660296902.36426,13000.4449079,-25
1660296902.36426,13000.4449193,-56
1660296902.36426,13000.4449298,-88
1660296902.36426,13000.4449386,-100
1660296902.83676,13000.444951,-95
1660296902.83676,13000.4449602,-93
1660296902.83676,13000.4449677,-84
1660296902.83676,13000.4449736,-74
1660296902.83676,13000.444976,-67
1660296902.83676,13000.444978,-56
1660296902.83676,13000.4449801,-44
1660296902.83676,13000.4449867,-39
1660296902.83676,13000.4449985,-28
1660296902.83676,13000.4450072,-14
1660296902.83676,13000.4451,-11
1660296902.83676,13000.4451111,-4
1660296902.83676,13000.4451171,11
1660296902.83676,13000.4451234,18
1660296902.83676,13000.44513,21
1660296902.83676,13000.4451366,32
1660296902.83676,13000.4451434,42
1660296902.83676,13000.4451535,49
1660296902.83676,13000.4451604,51
1660296902.83676,13000.445167,42
1660296902.83676,13000.4451734,39
1660296902.83676,13000.4451802,49
1660296902.83676,13000.445189,56
1660296902.83676,13000.4451956,58
1660296902.83676,13000.4452028,65
1660296902.83676,13000.4452107,65
1660296902.83676,13000.4452178,65
1660296902.83676,13000.4452258,79
1660296902.83676,13000.4452316,86
1660296902.83676,13000.4452396,77
1660296902.83676,13000.4452476,79
1660296902.83676,13000.4452564,91
1660296902.83676,13000.4452722,91
1660296902.83676,13000.4452817,93
1660296902.83676,13000.4452907,98
1660296902.83676,13000.4452965,102
1660296902.83676,13000.4453049,102
1660296902.83676,13000.4453225,100
1660296902.83676,13000.4453296,100
1660296902.83676,13000.9318998,109
1660296902.83676,13000.931922,128
1660296902.83676,13000.9319322,137
1660296902.83676,13000.931941,121
1660296902.83676,13000.9319482,109
1660296902.83676,13000.9319574,112
1660296902.83676,13000.931962,100
1660296902.83676,13000.9319764,81
1660296902.83676,13000.9319874,86
1660296902.83676,13000.931995,91
1660296902.83676,13000.9320065,86
1660296902.84873,13000.932017,81
1660296902.84873,13000.9320259,60
1660296902.84873,13000.9320362,44
1660296902.84873,13000.9320468,53
1660296902.84873,13000.9320545,49
1660296902.84873,13000.9320655,14
1660296902.84873,13000.9320764,49
1660296902.84873,13000.9320842,312
1660296902.84873,13000.9320948,763
1660296902.84873,13000.9321053,1058
1660296902.84873,13000.9321145,791
1660296902.84873,13000.9321244,81
1660296902.84873,13000.932135,-224
1660296902.84873,13000.9321428,35
1660296902.84873,13000.9321542,100
1660296902.84873,13000.9321643,-44
1660296902.84873,13000.9321757,9
1660296902.84873,13000.932185,88
1660296902.84873,13000.932195,37
1660296902.84873,13000.9322079,18
1660296902.84873,13000.9322191,44
1660296902.84873,13000.9322281,39
1660296902.84873,13000.9322355,42
1660296902.84873,13000.9322478,67
1660296903.3718,13000.9322581,79
1660296903.3718,13000.932266,81
1660296903.3718,13000.9322719,91
1660296903.3718,13000.9322742,98
1660296903.3718,13000.9322803,100
1660296903.3718,13000.9322902,121
1660296903.3718,13000.932295,175
1660296903.3718,13000.9323035,214
1660296903.3718,13000.9323113,221
1660296903.3718,13000.932317,233
1660296903.3718,13000.9323259,266
1660296903.3718,13000.9323294,287
1660296903.3718,13000.9323379,291
1660296903.3718,13000.9323503,284
1660296903.3718,13000.9323622,245
1660296903.3718,13000.9323775,179
1660296903.3718,13000.9323896,105
1660296903.3718,13000.9324043,28
1660296903.3718,13000.9324161,-30
1660296903.3718,13000.9324301,-58
1660296903.3718,13000.9324379,-56
1660296903.3718,13000.9324433,-56
1660296903.3718,13000.9324498,-65
1660296903.3718,13000.9324566,-65
1660296903.3718,13000.9324593,-53
1660296903.3718,13000.9324614,-49
1660296903.3718,13000.9324632,-51
1660296903.3718,13000.9324652,-46
1660296903.3718,13000.9324672,-35
1660296903.3718,13000.9324691,-25
1660296903.3718,13000.9324714,-14
1660296903.3718,13000.932477,4
1660296903.3718,13000.9324857,4
1660296903.3718,13000.9324932,-21
1660296903.3718,13000.9324995,-23
1660296903.3718,13000.9325075,2
1660296903.3718,13000.9325177,18
1660296903.3718,13000.9325257,14
1660296903.3718,13001.4676392,11
1660296903.3718,13001.4676624,25
1660296903.3718,13001.4676785,35
1660296903.3718,13001.4676898,28
1660296903.3718,13001.467697,30
1660296903.3718,13001.4677047,37
1660296903.3718,13001.4677107,37
1660296903.3718,13001.4677142,37
1660296903.3718,13001.4677174,35
1660296903.3718,13001.4677202,18
1660296903.3718,13001.4677235,4
1660296903.3718,13001.4677279,9
1660296903.38039,13001.467731,30
1660296903.38039,13001.4677343,42
1660296903.38039,13001.4677377,28
1660296903.38039,13001.4677413,9
1660296903.38039,13001.4677445,7
1660296903.38039,13001.4677479,14
1660296903.38039,13001.4677512,18
1660296903.38039,13001.4677543,16
1660296903.38039,13001.4677575,23
1660296903.38039,13001.4677606,25
1660296903.38039,13001.4677638,28
1660296903.38039,13001.4677689,65
1660296903.38039,13001.4677736,102
1660296903.38039,13001.4677846,84
1660296903.38039,13001.4677913,67
1660296903.38039,13001.4677989,74
1660296903.38039,13001.4678035,67
1660296903.38039,13001.4678075,56
1660296903.38039,13001.4678114,56
1660296903.38039,13001.4678153,49
1660296903.38039,13001.4678189,46
1660296903.38039,13001.4678226,72
1660296903.38039,13001.4678264,95
1660296903.38039,13001.4678302,79
1660296903.95831,13001.467834,60
1660296903.95831,13001.4678374,39
1660296903.95831,13001.4678411,30
1660296903.95831,13001.4678446,217
1660296903.95831,13001.4678482,667
1660296903.95831,13001.4678519,1086
1660296903.95831,13001.4678601,1018
1660296903.95831,13001.4678636,317
1660296903.95831,13001.4678672,-238
1660296903.95831,13001.4678719,-32
1660296903.95831,13001.4678755,196
1660296903.95831,13001.4678793,49
1660296903.95831,13001.467883,21
1660296903.95831,13001.4678865,126
1660296903.95831,13001.4678908,107
1660296903.95831,13001.4678951,74
1660296903.95831,13001.4678986,109
1660296903.95831,13001.4679023,123
1660296903.95831,13001.467906,114
1660296903.95831,13001.4679099,128
1660296903.95831,13001.4679137,147
1660296903.95831,13001.4679195,151
1660296903.95831,13001.4679248,156
1660296903.95831,13001.4679308,170
1660296903.95831,13001.4679364,182
1660296903.95831,13001.4679401,184
1660296903.95831,13001.4679439,207
1660296903.95831,13001.4679495,247
1660296903.95831,13001.4679533,275
1660296903.95831,13001.4679571,298
1660296903.95831,13001.4679623,308
1660296903.95831,13001.4679674,298
1660296903.95831,13001.467971,296
1660296903.95831,13001.4679749,301
1660296903.95831,13001.46798,277
1660296903.95831,13001.4679852,205
1660296903.95831,13001.4679889,116
1660296903.95831,13002.0529305,44
1660296903.95831,13002.0529444,-9
1660296903.95831,13002.0529473,-39
1660296903.95831,13002.0529495,-58
1660296903.95831,13002.0529516,-79
1660296903.95831,13002.0529536,-107
1660296903.95831,13002.0529558,-123
1660296903.95831,13002.0529579,-114
1660296903.95831,13002.0529599,-93
1660296903.95831,13002.0529619,-84
1660296903.95831,13002.052964,-81
1660296903.95831,13002.052966,-86
1660296903.95831,13002.052968,-100
1660296903.96928,13002.0529701,-109
1660296903.96928,13002.0529722,-81
1660296903.96928,13002.0529742,-46
1660296903.96928,13002.0529762,-46
1660296903.96928,13002.0529782,-53
1660296903.96928,13002.0529803,-44
1660296903.96928,13002.0529823,-32
1660296903.96928,13002.0529843,-23
1660296903.96928,13002.0529863,-11
1660296903.96928,13002.0529884,0
1660296903.96928,13002.0529905,2
1660296903.96928,13002.0529927,4
1660296903.96928,13002.0529947,9
1660296903.96928,13002.0529967,7
1660296903.96928,13002.0529988,11
1660296903.96928,13002.0530009,23
1660296903.96928,13002.0530029,25
1660296903.96928,13002.0530049,23
1660296903.96928,13002.0530068,28
1660296903.96928,13002.0530112,30
1660296903.96928,13002.0530133,23
1660296903.96928,13002.0530153,28
1660296903.96928,13002.0530187,51
1660296903.96928,13002.0530325,58
1660296904.63892,13002.0530398,42
1660296904.63892,13002.0530453,35
1660296904.63892,13002.0530512,56
1660296904.63892,13002.0530576,81
1660296904.63892,13002.0530629,105
1660296904.63892,13002.0530698,107
1660296904.63892,13002.0530768,91
1660296904.63892,13002.053084,91
1660296904.63892,13002.0530884,88
1660296904.63892,13002.0530929,77
1660296904.63892,13002.0530965,79
1660296904.63892,13002.0530997,86
1660296904.63892,13002.0531036,81
1660296904.63892,13002.0531084,81
1660296904.63892,13002.0531122,93
1660296904.63892,13002.0531167,88
1660296904.63892,13002.0531203,65
1660296904.63892,13002.0531241,42
1660296904.63892,13002.053128,23
1660296904.63892,13002.0531317,65
1660296904.63892,13002.0531354,333
1660296904.63892,13002.0531391,789
1660296904.63892,13002.0531427,1062
1660296904.63892,13002.0531475,754
1660296904.63892,13002.0531535,28
1660296904.63892,13002.0531569,-238
1660296904.63892,13002.0531605,60
1660296904.63892,13002.0531656,144
1660296904.63892,13002.0531704,4
1660296904.63892,13002.0531761,28
1660296904.63892,13002.0531804,88
1660296904.63892,13002.053186,77
1660296904.63892,13002.05319,81
1660296904.63892,13002.0531963,102
1660296904.63892,13002.0532076,98
1660296904.63892,13002.0532179,98
1660296904.63892,13002.7360488,119
1660296904.63892,13002.736061,137
1660296904.63892,13002.7360637,149
1660296904.63892,13002.736066,161
1660296904.63892,13002.736068,165
1660296904.63892,13002.7360701,179
1660296904.63892,13002.7360721,205
1660296904.63892,13002.7360741,238
1660296904.63892,13002.7360763,270
1660296904.63892,13002.7360783,273
1660296904.63892,13002.7360803,263
1660296904.63892,13002.7360826,287
1660296904.63892,13002.7360892,312
1660296904.63892,13002.7360983,312
1660296904.65188,13002.7361037,294
1660296904.65188,13002.7361127,231
1660296904.65188,13002.7361192,126
1660296904.65188,13002.7361235,32
1660296904.65188,13002.7361256,-23
1660296904.65188,13002.7361285,-63
1660296904.65188,13002.7361305,-91
1660296904.65188,13002.7361325,-112
1660296904.65188,13002.7361346,-123
1660296904.65188,13002.7361365,-126
1660296904.65188,13002.7361386,-109
1660296904.65188,13002.7361405,-86
1660296904.65188,13002.7361425,-79
1660296904.65188,13002.7361445,-88
1660296904.65188,13002.7361471,-77
1660296904.65188,13002.7361491,-51
1660296904.65188,13002.7361511,-42
1660296904.65188,13002.7361531,-37
1660296904.65188,13002.7361551,-21
1660296904.65188,13002.7361571,-18
1660296904.65188,13002.7361591,-14
1660296904.65188,13002.7361611,2
1660296904.65188,13002.7361631,7
1660296904.65188,13002.7361651,9
1660296905.12781,13002.7361671,25
1660296905.12781,13002.7361692,39
1660296905.12781,13002.7361711,37
1660296905.12781,13002.736173,35
1660296905.12781,13002.736175,37
1660296905.12781,13002.7361769,39
1660296905.12781,13002.7361787,44
1660296905.12781,13002.7361806,42
1660296905.12781,13002.7361825,18
1660296905.12781,13002.7361844,7
1660296905.12781,13002.7361867,16
1660296905.12781,13002.7361934,11
1660296905.12781,13002.7362001,4
1660296905.12781,13002.7362065,4
1660296905.12781,13002.7362113,11
1660296905.12781,13002.7362179,23
1660296905.12781,13002.7362232,35
1660296905.12781,13002.736234,37
1660296905.12781,13002.7362387,35
1660296905.12781,13002.7362408,44
1660296905.12781,13002.7362429,63
1660296905.12781,13002.7362449,84
1660296905.12781,13002.736247,86
1660296905.12781,13002.7362491,77
1660296905.12781,13002.7362511,77
1660296905.12781,13002.736253,77
1660296905.12781,13002.7362551,63
1660296905.12781,13002.7362571,53
1660296905.12781,13002.7362591,58
1660296905.12781,13002.7362611,63
1660296905.12781,13002.7362631,60
1660296905.12781,13002.7362651,63
1660296905.12781,13002.7362672,70
1660296905.12781,13002.7362692,77
1660296905.12781,13002.7362712,72
1660296905.12781,13003.2241703,35
1660296905.12781,13003.2241901,28
1660296905.12781,13003.2242052,252
1660296905.12781,13003.2242172,726
1660296905.12781,13003.22422,1111
1660296905.12781,13003.2242221,973
1660296905.12781,13003.2242243,277
1660296905.12781,13003.2242265,-189
1660296905.12781,13003.2242287,-11
1660296905.12781,13003.2242308,137
1660296905.12781,13003.224233,21
1660296905.12781,13003.2242351,14
1660296905.12781,13003.2242371,67
1660296905.12781,13003.2242392,44
1660296905.12781,13003.2242413,42
1660296905.13878,13003.2242434,86
1660296905.13878,13003.2242456,93
1660296905.13878,13003.2242512,84
1660296905.13878,13003.2242633,100
1660296905.13878,13003.2242748,119
1660296905.13878,13003.2242816,126
1660296905.13878,13003.2242902,140
1660296905.13878,13003.2242968,149
1660296905.13878,13003.2243096,165
1660296905.13878,13003.2243151,182
1660296905.13878,13003.2243174,179
1660296905.13878,13003.2243203,193
1660296905.13878,13003.2243313,235
1660296905.13878,13003.224339,266
1660296905.13878,13003.2243415,287
1660296905.13878,13003.2243436,308
1660296905.13878,13003.2243458,298
1660296905.13878,13003.2243479,263
1660296905.13878,13003.224356,219
1660296905.13878,13003.2243665,158
1660296905.13878,13003.2243691,93
1660296905.13878,13003.2243712,30
1660296905.13878,13003.2243732,-37
1660296905.13878,13003.2243756,-102
1660296905.71726,13003.2243857,-144
1660296905.71726,13003.2243926,-156
1660296905.71726,13003.224403,-147
1660296905.71726,13003.2244095,-147
1660296905.71726,13003.2244195,-161
1660296905.71726,13003.2244275,-161
1660296905.71726,13003.2244337,-142
1660296905.71726,13003.2244398,-126
1660296905.71726,13003.2244477,-98
1660296905.71726,13003.224451,-65
1660296905.71726,13003.224454,-67
1660296905.71726,13003.2244572,-79
1660296905.71726,13003.2244656,-72
1660296905.71726,13003.2244747,-49
1660296905.71726,13003.2244877,-35
1660296905.71726,13003.2245012,-39
1660296905.71726,13003.2245162,-42
1660296905.71726,13003.2245297,-37
1660296905.71726,13003.2245364,-23
1660296905.71726,13003.2245409,-14
1660296905.71726,13003.2245461,-7
1660296905.71726,13003.2245529,9
1660296905.71726,13003.2245593,11
1660296905.71726,13003.2245656,2
1660296905.71726,13003.2245734,2
1660296905.71726,13003.224578,4
1660296905.71726,13003.2245824,9
1660296905.71726,13003.2245866,28
1660296905.71726,13003.2245953,39
1660296905.71726,13003.2245995,32
1660296905.71726,13003.2246057,23
1660296905.71726,13003.224612,25
1660296905.71726,13003.224619,35
1660296905.71726,13003.2246249,35
1660296905.71726,13003.8095362,44
1660296905.71726,13003.8095508,79
1660296905.71726,13003.8095545,91
1660296905.71726,13003.809559,74
1660296905.71726,13003.8095617,65
1660296905.71726,13003.8095645,58
1660296905.71726,13003.8095672,49
1660296905.71726,13003.8095698,51
1660296905.71726,13003.8095726,51
1660296905.71726,13003.8095753,49
1660296905.71726,13003.809578,56
1660296905.71726,13003.8095806,63
1660296905.71726,13003.8095833,60
1660296905.71726,13003.8095859,53
1660296905.71726,13003.8095891,30
1660296905.71726,13003.8095978,0
1660296905.72823,13003.8096101,126
1660296905.72823,13003.8096156,555
1660296905.72823,13003.8096178,1097
1660296905.72823,13003.8096199,1233
1660296905.72823,13003.809622,551
1660296905.72823,13003.8096242,-261
1660296905.72823,13003.8096263,-207
1660296905.72823,13003.8096326,128
1660296905.72823,13003.809645,30
1660296905.72823,13003.8096504,-49
1660296905.72823,13003.8096549,49
1660296905.72823,13003.809663,32
1660296905.72823,13003.8096748,-9
1660296905.72823,13003.8096845,42
1660296905.72823,13003.8096921,70
1660296905.72823,13003.8096991,44
1660296905.72823,13003.8097052,35
1660296905.72823,13003.8097147,49
1660296905.72823,13003.8097185,63
1660296905.72823,13003.8097226,79
1660296905.72823,13003.8097248,107
1660296905.72823,13003.8097278,137
1660296905.72823,13003.80973,163
1660296905.72823,13003.8097366,189
1660296906.30315,13003.8097469,214
1660296906.30315,13003.8097533,245
1660296906.30315,13003.8097586,282
1660296906.30315,13003.8097676,324
1660296906.30315,13003.8097773,340
1660296906.30315,13003.8097826,340
1660296906.30315,13003.8097878,329
1660296906.30315,13003.8097933,291
1660296906.30315,13003.8098003,228
1660296906.30315,13003.809808,156
1660296906.30315,13003.8098177,86
1660296906.30315,13003.809823,25
1660296906.30315,13003.8098253,-23
1660296906.30315,13003.8098273,-56
1660296906.30315,13003.8098294,-70
1660296906.30315,13003.8098315,-70
1660296906.30315,13003.8098335,-65
1660296906.30315,13003.8098356,-60
1660296906.30315,13003.8098377,-58
1660296906.30315,13003.8098398,-58
1660296906.30315,13003.8098419,-46
1660296906.30315,13003.8098447,-37
1660296906.30315,13003.8098468,-37
1660296906.30315,13003.8098489,-28
1660296906.30315,13003.809851,-25
1660296906.30315,13003.8098531,-18
1660296906.30315,13003.8098551,-2
1660296906.30315,13003.8098571,4
1660296906.30315,13003.8098592,4
1660296906.30315,13003.8098612,16
1660296906.30315,13003.8098632,30
1660296906.30315,13003.8098652,37
1660296906.30315,13003.8098673,39
1660296906.30315,13004.3932636,44
1660296906.30315,13004.3932796,46
1660296906.30315,13004.3932838,46
1660296906.30315,13004.3932874,51
1660296906.30315,13004.3932909,65
1660296906.30315,13004.3932943,60
1660296906.30315,13004.3932977,39

1660296906.30315,13004.3933019,39
1660296906.30315,13004.393306,49
1660296906.30315,13004.3933099,49
1660296906.30315,13004.3933126,67
1660296906.30315,13004.3933156,95
1660296906.30315,13004.3933195,93
1660296906.30315,13004.3933249,67
1660296906.30315,13004.3933299,63
1660296906.30315,13004.3933333,72
1660296906.30315,13004.3933363,63
1660296906.3201,13004.3933392,44
1660296906.3201,13004.3933421,28
1660296906.3201,13004.393345,14
1660296906.3201,13004.3933478,16
1660296906.3201,13004.3933507,28
1660296906.3201,13004.3933537,25
1660296906.3201,13004.3933593,23
1660296906.3201,13004.3933657,2
1660296906.3201,13004.3933723,-58
1660296906.3201,13004.3933787,-28
1660296906.3201,13004.3933853,308
1660296906.3201,13004.3933921,894
1660296906.3201,13004.3933956,1265
1660296906.3201,13004.3933986,864
1660296906.3201,13004.3934014,-74
1660296906.3201,13004.3934042,-387
1660296906.3201,13004.3934071,-2
1660296906.3201,13004.3934099,70
1660296906.3201,13004.3934128,-100
1660296906.3201,13004.3934157,-39
1660296906.3201,13004.3934185,21
1660296906.3201,13004.3934214,-18
1660296906.3201,13004.3934243,0
1660296906.3201,13004.3934271,42
1660296906.73479,13004.3934303,39
1660296906.73479,13004.3934369,39
1660296906.73479,13004.3934438,60
1660296906.73479,13004.3934506,77
1660296906.73479,13004.3934576,93
1660296906.73479,13004.3934618,116
1660296906.73479,13004.3934656,144
1660296906.73479,13004.3934684,163
1660296906.73479,13004.3934717,182
1660296906.73479,13004.393475,212
1660296906.73479,13004.3934791,249
1660296906.73479,13004.3934841,282
1660296906.73479,13004.3934879,298
1660296906.73479,13004.3934946,303
1660296906.73479,13004.3934981,312
1660296906.73479,13004.3935023,312
1660296906.73479,13004.3935058,282
1660296906.73479,13004.3935093,231
1660296906.73479,13004.3935128,163
1660296906.73479,13004.3935162,86
1660296906.73479,13004.3935194,35
1660296906.73479,13004.3935238,-4
1660296906.73479,13004.3935276,-39
1660296906.73479,13004.3935322,-53
1660296906.73479,13004.3935377,-49
1660296906.73479,13004.3935427,-46
1660296906.73479,13004.393547,-46
1660296906.73479,13004.3935502,-44
1660296906.73479,13004.3935532,-42
1660296906.73479,13004.3935561,-39
1660296906.73479,13004.393559,-32
1660296906.73479,13004.3935692,-23
1660296906.73479,13004.831941,-18
1660296906.73479,13004.8319625,-14
1660296906.73479,13004.8319771,-18
1660296906.73479,13004.831992,-23
1660296906.73479,13004.8320058,-14
1660296906.73479,13004.8320196,-4
1660296906.73479,13004.8320337,-4
1660296906.73479,13004.8320478,-2
1660296906.73479,13004.8320615,-4
1660296906.73479,13004.8320735,-2
1660296906.73479,13004.8320868,14
1660296906.73479,13004.8320999,16
1660296906.73479,13004.8321167,0
1660296906.73479,13004.83213,-4
1660296906.73479,13004.8321435,-4
1660296906.73479,13004.8321582,-23
1660296906.73479,13004.8321717,-46
1660296906.73479,13004.832185,-51
1660296906.74576,13004.8321998,-56
1660296906.74576,13004.8322133,-53
1660296906.74576,13004.8322225,-18
1660296906.74576,13004.8322277,2
1660296906.74576,13004.8322298,-23
1660296906.74576,13004.8322319,-30
1660296906.74576,13004.8322339,-18
1660296906.74576,13004.8322359,-30
1660296906.74576,13004.8322379,-35
1660296906.74576,13004.8322402,-35
1660296906.74576,13004.8322422,-56
1660296906.74576,13004.8322442,-60
1660296906.74576,13004.8322462,-37
1660296906.74576,13004.8322497,-32
1660296906.74576,13004.8322628,-32
1660296906.74576,13004.8322684,-32
1660296906.74576,13004.8322711,-72
1660296906.74576,13004.8322732,-81
1660296906.74576,13004.8322753,186
1660296906.74576,13004.832281,770
1660296906.74576,13004.8322925,1237
1660296906.74576,13004.8322978,1034
1660296906.74576,13004.8323,179
1660296906.74576,13004.832302,-336
1660296907.41769,13004.8323041,-63
1660296907.41769,13004.8323062,114
1660296907.41769,13004.8323125,-53
1660296907.41769,13004.832322,-53
1660296907.41769,13004.8323289,25
1660296907.41769,13004.832342,-16
1660296907.41769,13004.8323545,-23
1660296907.41769,13004.8323647,28
1660296907.41769,13004.832368,42
1660296907.41769,13004.8323716,46
1660296907.41769,13004.8323737,72
1660296907.41769,13004.8323757,86
1660296907.41769,13004.8323778,86
1660296907.41769,13004.8323799,107
1660296907.41769,13004.8323819,137
1660296907.41769,13004.832384,165
1660296907.41769,13004.8323861,191
1660296907.41769,13004.8323882,210
1660296907.41769,13004.8323902,235
1660296907.41769,13004.8323922,275
1660296907.41769,13004.8323944,310
1660296907.41769,13004.8323965,324
1660296907.41769,13004.8323986,338
1660296907.41769,13004.8324007,343
1660296907.41769,13004.8324029,319
1660296907.41769,13004.8324049,273
1660296907.41769,13004.832407,210
1660296907.41769,13004.832409,135
1660296907.41769,13004.832411,72
1660296907.41769,13004.832413,30
1660296907.41769,13004.832415,-7
1660296907.41769,13005.5147985,-28
1660296907.41769,13005.5148184,-25
1660296907.41769,13005.5148319,-11
1660296907.41769,13005.5148374,0
1660296907.41769,13005.5148414,-4
1660296907.41769,13005.5148452,-25
1660296907.41769,13005.5148512,-42
1660296907.41769,13005.5148551,-35
1660296907.41769,13005.5148588,-18
1660296907.41769,13005.5148646,-9
1660296907.41769,13005.5148693,-14
1660296907.41769,13005.5148742,-39
1660296907.41769,13005.5148779,-65
1660296907.41769,13005.5148814,-56
1660296907.41769,13005.5148851,-30
1660296907.41769,13005.5148892,-28
1660296907.41769,13005.5148926,-39
1660296907.41769,13005.5148958,-35
1660296907.41769,13005.5148995,-37
1660296907.42667,13005.5149038,-42
1660296907.42667,13005.5149071,-30
1660296907.42667,13005.5149106,-28
1660296907.42667,13005.5149141,-42
1660296907.42667,13005.5149172,-42
1660296907.42667,13005.5149202,-39
1660296907.42667,13005.5149236,-37
1660296907.42667,13005.5149268,-32
1660296907.42667,13005.51493,-35
1660296907.42667,13005.5149333,-39
1660296907.42667,13005.5149376,-28
1660296907.42667,13005.5149437,4
1660296907.42667,13005.5149472,23
1660296907.42667,13005.5149507,11
1660296907.42667,13005.5149558,9
1660296907.42667,13005.5149607,16
1660296907.42667,13005.5149645,2
1660296907.42667,13005.5149697,-11
1660296907.42667,13005.5149742,-11
1660296907.42667,13005.5149789,-14
1660296907.42667,13005.5149843,-7
1660296907.42667,13005.514989,7
1660296907.42667,13005.5149938,11
1660296907.42667,13005.515,16
1660296907.94932,13005.5150047,4
1660296907.94932,13005.5150086,-56
1660296907.94932,13005.5150123,-25
1660296907.94932,13005.5150159,340
1660296907.94932,13005.5150198,959
1660296907.94932,13005.5150248,1317
1660296907.94932,13005.5150288,931
1660296907.94932,13005.5150322,67
1660296907.94932,13005.5150359,-259
1660296907.94932,13005.51504,39
1660296907.94932,13005.5150443,95
1660296907.94932,13005.5150485,-51
1660296907.94932,13005.5150531,7
1660296907.94932,13005.5150566,74
1660296907.94932,13005.51506,37
1660296907.94932,13005.5150633,42
1660296907.94932,13005.5150667,77
1660296907.94932,13005.51507,79
1660296907.94932,13005.5150733,91
1660296907.94932,13005.5150766,112
1660296907.94932,13005.5150801,116
1660296907.94932,13005.5150834,126
1660296907.94932,13005.5150867,149
1660296907.94932,13005.5150901,170
1660296907.94932,13005.5150934,191
1660296907.94932,13005.5150967,212
1660296907.94932,13005.5151,235
1660296907.94932,13005.5151035,266
1660296907.94932,13005.5151069,291
1660296907.94932,13005.5151103,317
1660296907.94932,13006.051086,338
1660296907.94932,13006.0511017,350
1660296907.94932,13006.0511057,340
1660296907.94932,13006.051109,310
1660296907.94932,13006.0511123,254
1660296907.94932,13006.0511155,182
1660296907.94932,13006.0511186,112
1660296907.94932,13006.0511217,58
1660296907.94932,13006.051125,14
1660296907.94932,13006.0511302,-25
1660296907.94932,13006.0511356,-49
1660296907.94932,13006.0511397,-44
1660296907.94932,13006.0511428,-32
1660296907.94932,13006.051146,-21
1660296907.94932,13006.0511489,-9
1660296907.94932,13006.0511532,-11
1660296907.94932,13006.0511575,-16
1660296907.94932,13006.051163,2
1660296907.94932,13006.0511663,23
1660296907.94932,13006.0511718,30
1660296907.95929,13006.0511786,30
1660296907.95929,13006.0511852,14
1660296907.95929,13006.0511941,-4
1660296907.95929,13006.051201,9
1660296907.95929,13006.0512044,25
1660296907.95929,13006.0512073,28
1660296907.95929,13006.0512116,32
1660296907.95929,13006.0512169,30
1660296907.95929,13006.0512223,23
1660296907.95929,13006.0512286,32
1660296907.95929,13006.0512342,51
1660296907.95929,13006.0512396,53
1660296907.95929,13006.0512537,46
1660296907.95929,13006.0512676,30
1660296907.95929,13006.051278,11
1660296907.95929,13006.0512906,14
1660296907.95929,13006.0513004,25
1660296907.95929,13006.051305,30
1660296907.95929,13006.0513082,30
1660296907.95929,13006.0513112,37
1660296907.95929,13006.0513141,51
1660296907.95929,13006.0513171,60
1660296907.95929,13006.05132,51
1660296907.95929,13006.0513229,25
1660296908.43774,13006.051328,21
1660296908.43774,13006.0513336,23
1660296908.43774,13006.0513403,2
1660296908.43774,13006.0513459,-2
1660296908.43774,13006.0513543,9
1660296908.43774,13006.0513928,9
1660296908.43774,13006.0514062,14
1660296908.43774,13006.0514195,21
1660296908.43774,13006.0514328,21
1660296908.43774,13006.051446,21
1660296908.43774,13006.0514604,9
1660296908.43774,13006.0514736,-18
1660296908.43774,13006.0515287,88
1660296908.43774,13006.0515502,462
1660296908.43774,13006.051565,910
1660296908.43774,13006.0515757,999
1660296908.43774,13006.0515859,446
1660296908.43774,13006.0515923,-198
1660296908.43774,13006.0515987,-158
1660296908.43774,13006.0516078,121
1660296908.43774,13006.0516142,58
1660296908.43774,13006.051623,-9
1660296908.43774,13006.0516298,65
1660296908.43774,13006.0516385,65
1660296908.43774,13006.0516438,35
1660296908.43774,13006.0516488,53
1660296908.43774,13006.0516524,60
1660296908.43774,13006.0516571,58
1660296908.43774,13006.051664,77
1660296908.43774,13006.5383856,95
1660296908.43774,13006.5384052,107
1660296908.43774,13006.5384174,128
1660296908.43774,13006.5384296,147
1660296908.43774,13006.5384364,154
1660296908.43774,13006.5384427,165
1660296908.43774,13006.5384491,177
1660296908.43774,13006.5384558,193
1660296908.43774,13006.53846,228
1660296908.43774,13006.5385136,261
1660296908.43774,13006.5385313,289
1660296908.43774,13006.5385601,305
1660296908.43774,13006.5385701,280
1660296908.43774,13006.5385791,249
1660296908.43774,13006.5385829,247
1660296908.43774,13006.5385872,219
1660296908.43774,13006.5385903,144
1660296908.43774,13006.5385934,81
1660296908.43774,13006.5385965,42
1660296908.43774,13006.5385999,0
1660296908.43774,13006.538603,-35
1660296908.4497,13006.5386073,-49
1660296908.4497,13006.5386104,-44
1660296908.4497,13006.5386136,-23
1660296908.4497,13006.5386194,-4
1660296908.4497,13006.5386226,-16
1660296908.4497,13006.5386278,-18
1660296908.4497,13006.5386311,0
1660296908.4497,13006.5386365,-2
1660296908.4497,13006.5386404,0
1660296908.4497,13006.5386482,28
1660296908.4497,13006.5386538,46
1660296908.4497,13006.5386576,46
1660296908.4497,13006.5386614,60
1660296908.4497,13006.538665,74
1660296908.4497,13006.538668,77
1660296908.4497,13006.5386713,77
1660296908.4497,13006.5386744,67
1660296908.4497,13006.5386779,58
1660296908.4497,13006.5386821,60
1660296908.4497,13006.5386879,67
1660296908.4497,13006.5386935,91
1660296908.4497,13006.538699,109
1660296908.4497,13006.5387066,88
1660296908.4497,13006.5387137,72
1660296909.07117,13006.5387189,84
1660296909.07117,13006.5387246,86
1660296909.07117,13006.538731,84
1660296909.07117,13006.5387367,100
1660296909.07117,13006.5387409,121
1660296909.07117,13006.5387442,140
1660296909.07117,13006.5387474,137
1660296909.07117,13006.5387506,107
1660296909.07117,13006.5387557,95
1660296909.07117,13006.5387588,100
1660296909.07117,13006.5387619,84
1660296909.07117,13006.5387645,63
1660296909.07117,13006.5387672,53
1660296909.07117,13006.5387698,46
1660296909.07117,13006.5387724,53
1660296909.07117,13006.5387752,67
1660296909.07117,13006.5387777,63
1660296909.07117,13006.5387803,23
1660296909.07117,13006.5387829,-11
1660296909.07117,13006.5387855,-18
1660296909.07117,13006.5387881,-4
1660296909.07117,13006.5387907,142
1660296909.07117,13006.5387934,534
1660296909.07117,13006.538796,943
1660296909.07117,13006.5387986,873
1660296909.07117,13006.5388012,217
1660296909.07117,13006.5388039,-247
1660296909.07117,13006.5388065,-56
1660296909.07117,13007.1721328,123
1660296909.07117,13007.1721533,14
1660296909.07117,13007.172159,-2
1660296909.07117,13007.1721639,58
1660296909.07117,13007.1721681,49
1660296909.07117,13007.1721724,37
1660296909.07117,13007.1721768,65
1660296909.07117,13007.1721806,74
1660296909.07117,13007.172189,65
1660296909.07117,13007.1721955,67
1660296909.07117,13007.1721999,72
1660296909.07117,13007.1722037,65
1660296909.07117,13007.1722083,77
1660296909.07117,13007.1722132,119
1660296909.07117,13007.1722202,135
1660296909.07117,13007.1722267,114
1660296909.07117,13007.1722342,119
1660296909.07117,13007.1722461,170
1660296909.07117,13007.1722564,226
1660296909.07117,13007.1722634,245
1660296909.07117,13007.1722695,242
1660296909.07117,13007.1722771,247
1660296909.08314,13007.1722859,259
1660296909.08314,13007.172292,266
1660296909.08314,13007.1722979,245
1660296909.08314,13007.1723039,177
1660296909.08314,13007.17231,116
1660296909.08314,13007.172316,79
1660296909.08314,13007.1723219,37
1660296909.08314,13007.1723279,-9
1660296909.08314,13007.172334,-25
1660296909.08314,13007.1723399,-23
1660296909.08314,13007.1723461,-16
1660296909.08314,13007.172352,-4
1660296909.08314,13007.1723931,-4
1660296909.08314,13007.1724046,-16
1660296909.08314,13007.1724207,2
1660296909.08314,13007.1724313,28
1660296909.08314,13007.1724379,25
1660296909.08314,13007.1724464,28
1660296909.08314,13007.1724536,39
1660296909.08314,13007.1724623,44
1660296909.08314,13007.1724695,39
1660296909.08314,13007.1724766,44
1660296909.08314,13007.1725193,70
1660296909.08314,13007.1725256,77
1660296909.55831,13007.1725287,60
1660296909.55831,13007.1725308,58
1660296909.55831,13007.1725329,74
1660296909.55831,13007.17254,77
1660296909.55831,13007.1725497,70
1660296909.55831,13007.1725565,77
1660296909.55831,13007.1725664,84
1660296909.55831,13007.172574,74
1660296909.55831,13007.1725867,70
1660296909.55831,13007.1725999,65
1660296909.55831,13007.1726129,42
1660296909.55831,13007.1726235,35
1660296909.55831,13007.1726365,49
1660296909.55831,13007.1726499,58
1660296909.55831,13007.1726586,88
1660296909.55831,13007.1726611,128
1660296909.55831,13007.1726631,116
1660296909.55831,13007.1726651,79
1660296909.55831,13007.1726672,70
1660296909.55831,13007.1726691,70
1660296909.55831,13007.1726711,63
1660296909.55831,13007.1726731,51
1660296909.55831,13007.1726752,39
1660296909.55831,13007.1726772,44
1660296909.55831,13007.1726793,58
1660296909.55831,13007.1726814,58
1660296909.55831,13007.1726834,49
1660296909.55831,13007.659239,30
1660296909.55831,13007.6592588,-21
1660296909.55831,13007.6592642,-30
1660296909.55831,13007.6592682,172
1660296909.55831,13007.6592719,609
1660296909.55831,13007.659276,976
1660296909.55831,13007.6592803,812
1660296909.55831,13007.6592844,107
1660296909.55831,13007.6592881,-303
1660296909.55831,13007.6592914,-60
1660296909.55831,13007.6592947,79
1660296909.55831,13007.659298,-58
1660296909.55831,13007.6593012,-63
1660296909.55831,13007.6593045,-7
1660296909.55831,13007.6593079,-30
1660296909.55831,13007.6593113,-28
1660296909.55831,13007.6593145,18
1660296909.55831,13007.6593179,23
1660296909.55831,13007.6593234,11
1660296909.55831,13007.6593275,25
1660296909.55831,13007.6593321,39
1660296909.55831,13007.6593364,53
1660296909.55831,13007.6593405,95
1660296909.56928,13007.6593445,123
1660296909.56928,13007.659348,107
1660296909.56928,13007.6593542,100
1660296909.56928,13007.6593841,137
1660296909.56928,13007.6593901,170
1660296909.56928,13007.659393,182
1660296909.56928,13007.6593957,207
1660296909.56928,13007.6593984,247
1660296909.56928,13007.659401,254
1660296909.56928,13007.6594036,240
1660296909.56928,13007.6594062,231
1660296909.56928,13007.6594088,207
1660296909.56928,13007.6594114,144
1660296909.56928,13007.659414,58
1660296909.56928,13007.6594166,-14
1660296909.56928,13007.6594192,-58
1660296909.56928,13007.6594219,-67
1660296909.56928,13007.6594245,-63
1660296909.56928,13007.6594272,-74
1660296909.56928,13007.6594298,-91
1660296909.56928,13007.6594324,-88
1660296909.56928,13007.6594351,-81
1660296909.56928,13007.6594393,-65
1660296909.56928,13007.6594426,-53
1660296910.14944,13007.6594469,-70
1660296910.14944,13007.6594539,-72
1660296910.14944,13007.659461,-53
1660296910.14944,13007.6594696,-56
1660296910.14944,13007.6594769,-56
1660296910.14944,13007.6594817,-25
1660296910.14944,13007.6594844,-2
1660296910.14944,13007.6594871,2
1660296910.14944,13007.6594898,-7
1660296910.14944,13007.6594924,-16
1660296910.14944,13007.6594951,2
1660296910.14944,13007.6594983,25
1660296910.14944,13007.6595009,21
1660296910.14944,13007.6595036,14
1660296910.14944,13007.6595062,11
1660296910.14944,13007.6595088,14
1660296910.14944,13007.6595115,23
1660296910.14944,13007.6595142,16
1660296910.14944,13007.6595168,14
1660296910.14944,13007.6595194,35
1660296910.14944,13007.659522,58
1660296910.14944,13007.6595249,60
1660296910.14944,13007.6595276,46
1660296910.14944,13007.6595302,37
