Time,TimeLsl,Value
1660298678.41815,14775.0957769,4
1660298678.41815,14775.0957986,30
1660298678.41815,14775.0958135,32
1660298678.41815,14775.095829,49
1660298678.41815,14775.0958425,65
1660298678.41815,14775.0958507,70
1660298678.41815,14775.0958548,84
1660298678.41815,14775.0958584,109
1660298678.41815,14775.0958635,128
1660298678.41815,14775.0958672,151
1660298678.41815,14775.0958732,168
1660298678.41815,14775.0958772,170
1660298678.41815,14775.0959055,186
1660298678.41815,14775.0959161,226
1660298678.41815,14775.0959238,252
1660298678.41815,14775.0959287,249
1660298678.41815,14775.0959343,242
1660298678.41815,14775.0959416,224
1660298678.41815,14775.0959466,193
1660298678.41815,14775.0959565,156
1660298678.41815,14775.0959647,109
1660298678.41815,14775.0959702,49
1660298678.41815,14775.0959749,-7
1660298678.41815,14775.0959819,-46
1660298678.41815,14775.0959883,-72
1660298678.41815,14775.0959933,-81
1660298678.41815,14775.095998,-79
1660298678.41815,14775.0960037,-77
1660298678.41815,14775.0960087,-72
1660298678.41815,14775.0960136,-74
1660298678.41815,14775.0960182,-81
1660298678.41815,14775.0960246,-67
1660298678.41815,14775.0960295,-42
1660298678.41815,14775.096034,-28
1660298678.41815,14775.0960391,-23
1660298678.41815,14775.0960442,-14
1660298678.41815,14775.0960491,-2
1660298678.41815,14775.0960547,4
1660298678.41815,14775.0960609,11
1660298678.41815,14775.0960661,18
1660298678.41815,14775.0960718,32
1660298678.41815,14775.0960791,39
1660298678.41815,14775.0960844,32
1660298678.41815,14775.0960899,30
1660298678.41815,14775.0960959,37
1660298678.41815,14775.0961039,49
1660298678.41815,14775.0961097,53
1660298678.41815,14775.0961201,51
1660298678.41815,14775.0961264,49
1660298678.41815,14775.09613,46
1660298678.56396,14775.0961333,56
1660298678.56396,14775.0961379,63
1660298678.56396,14775.096142,67
1660298678.56396,14775.0961473,70
1660298678.56396,14775.0961516,72
1660298678.56396,14775.0961615,60
1660298678.56396,14775.0961687,58
1660298678.56396,14775.0961764,74
1660298678.56396,14775.0961836,102
1660298678.56396,14775.0961902,128
1660298678.56396,14775.0961976,121
1660298678.56396,14775.0962026,88
1660298678.56396,14775.0962081,74
1660298678.56396,14775.0962155,74
1660298678.56396,14775.0962206,60
1660298678.56396,14775.0962263,53
1660298678.56396,14775.0962336,63
1660298678.56396,14775.0962381,65
1660298678.56396,14775.0962433,53
1660298678.56396,14775.0962529,53
1660298678.56396,14775.0962603,58
1660298678.56396,14775.0962648,42
1660298678.56396,14775.0962727,2
1660298678.56396,14775.5346313,-18
1660298678.56396,14775.5346512,144
1660298678.56396,14775.5346567,588
1660298678.56396,14775.5346633,1022
1660298678.56396,14775.5346702,990
1660298678.56396,14775.5346767,369
1660298678.56396,14775.5346832,-196
1660298678.56396,14775.5346898,-107
1660298678.56396,14775.5346962,100
1660298678.56396,14775.5347028,-2
1660298678.56396,14775.5347083,-51
1660298678.56396,14775.5347149,25
1660298678.56396,14775.5347216,21
1660298678.56396,14775.534728,-4
1660298678.56396,14775.5347334,11
1660298678.56396,14775.5347403,21
1660298678.56396,14775.5347473,28
1660298678.56396,14775.5347529,44
1660298678.56396,14775.5347583,53
1660298678.56396,14775.5347651,65
1660298678.56396,14775.5347705,77
1660298678.56396,14775.5347742,91
1660298678.56396,14775.5347775,119
1660298678.56396,14775.5347824,142
1660298678.56396,14775.534786,156
1660298678.56396,14775.5347889,186
1660298678.56396,14775.5347919,217
1660298678.62248,14775.5347955,233
1660298678.62248,14775.5348004,249
1660298678.62248,14775.5348064,263
1660298678.62248,14775.5348096,268
1660298678.62248,14775.5348141,273
1660298678.62248,14775.5348184,254
1660298678.62248,14775.5348251,191
1660298678.62248,14775.5348319,119
1660298678.62248,14775.5348388,65
1660298678.62248,14775.5348457,18
1660298678.62248,14775.5348525,-16
1660298678.62248,14775.5348597,-35
1660298678.62248,14775.5348668,-70
1660298678.62248,14775.5348736,-98
1660298678.62248,14775.5348796,-81
1660298678.62248,14775.5348854,-70
1660298678.62248,14775.5348885,-81
1660298678.62248,14775.5348915,-72
1660298678.62248,14775.5348946,-49
1660298678.62248,14775.5348981,-42
1660298678.62248,14775.5349011,-42
1660298678.62248,14775.5349042,-30
1660298678.62248,14775.5349082,-14
1660298678.62248,14775.5349134,-7
1660298678.62248,14775.53492,-2
1660298678.62248,14775.5349271,0
1660298678.62248,14775.5349339,-4
1660298678.62248,14775.5349407,0
1660298678.62248,14775.5349474,7
1660298678.62248,14775.5349542,9
1660298678.62248,14775.5349579,16
1660298678.62248,14775.5349613,21
1660298678.62248,14775.5349648,14
1660298678.62248,14775.5349679,14
1660298678.62248,14775.5349708,23
1660298678.62248,14775.5349759,30
1660298678.62248,14775.5349828,30
1660298678.62248,14775.5349893,28
1660298678.62248,14775.5349957,30
1660298678.62248,14775.5350024,35
1660298678.62248,14775.5350088,37
1660298678.62248,14775.5350155,44
1660298678.62248,14775.535023,46
1660298678.62248,14775.5350299,39
1660298678.62248,14775.5350385,39
1660298678.62248,14775.5350803,49
1660298678.62248,14776.1192531,60
1660298678.62248,14776.1192721,60
1660298678.62248,14776.1192788,46
1660298678.62248,14776.1192828,35
1660298678.64044,14776.119287,9
1660298678.64044,14776.1192907,-25
1660298678.64044,14776.1192942,-39
1660298678.64044,14776.1192989,-30
1660298678.64044,14776.1193043,-30
1660298678.64044,14776.1193086,-42
1660298678.64044,14776.1193138,-37
1660298678.64044,14776.1193193,-32
1660298678.64044,14776.1193229,-42
1660298678.64044,14776.1193298,-49
1660298678.64044,14776.1193354,-67
1660298678.64044,14776.1193399,-16
1660298678.64044,14776.1193466,268
1660298678.64044,14776.1193521,696
1660298678.64044,14776.1193571,882
1660298678.64044,14776.1193624,516
1660298678.64044,14776.1193665,-126
1660298678.64044,14776.11937,-275
1660298678.64044,14776.1193733,-2
1660298678.64044,14776.1193783,21
1660298678.64044,14776.1193814,-86
1660298678.64044,14776.1193847,-28
1660298678.64044,14776.1193897,14
1660298678.64044,14776.1193928,-16
1660298678.64044,14776.1193967,0
1660298678.64044,14776.1194015,30
1660298678.64044,14776.119407,28
1660298678.64044,14776.1194118,39
1660298678.64044,14776.1194149,65
1660298678.64044,14776.1194182,77
1660298678.64044,14776.1194234,88
1660298678.64044,14776.1194279,112
1660298678.64044,14776.119431,128
1660298678.64044,14776.1194343,147
1660298678.64044,14776.1194391,172
1660298678.64044,14776.1194446,198
1660298678.64044,14776.1194493,221
1660298678.64044,14776.1194548,252
1660298678.64044,14776.1194589,277
1660298678.64044,14776.1194621,284
1660298678.64044,14776.1194671,284
1660298678.64044,14776.1194705,287
1660298678.64044,14776.119474,280
1660298678.64044,14776.1194795,252
1660298678.64044,14776.1194829,217
1660298678.64044,14776.1194887,165
1660298678.64044,14776.1194946,105
1660298678.64044,14776.119501,60
1660298678.64044,14776.1195046,35
1660298678.64044,14776.1195103,23
1660298678.65207,14776.119517,14
1660298678.65207,14776.1195238,4
1660298678.65207,14776.1195298,7
1660298678.65207,14776.1195354,16
1660298678.65207,14776.1195414,21
1660298678.65207,14776.1195466,28
1660298678.65207,14776.1195501,39
1660298678.65207,14776.1195533,53
1660298678.65207,14776.1195567,60
1660298678.65207,14776.1195626,74
1660298678.65207,14776.1195685,81
1660298678.65207,14776.1195723,74
1660298678.65207,14776.1195789,65
1660298678.65207,14776.1195831,70
1660298678.65207,14776.1195912,72
1660298678.65207,14776.119598,67
1660298678.65207,14776.119607,70
1660298678.65207,14776.1196124,81
1660298678.65207,14776.1196198,88
1660298678.65207,14776.6564785,91
1660298678.65207,14776.6564974,88
1660298678.65207,14776.6565097,84
1660298679.09525,14776.6565372,79
1660298679.09525,14776.656543,79
1660298679.09525,14776.6565489,86
1660298679.09525,14776.6565552,88
1660298679.09525,14776.6565586,72
1660298679.09525,14776.6565617,51
1660298679.09525,14776.6565651,49
1660298679.09525,14776.656568,51
1660298679.09525,14776.6565712,58
1660298679.09525,14776.6565744,91
1660298679.09525,14776.6565776,105
1660298679.09525,14776.6565809,77
1660298679.09525,14776.6565845,63
1660298679.09525,14776.6565899,63
1660298679.09525,14776.6565958,46
1660298679.09525,14776.6566031,39
1660298679.09525,14776.6566073,32
1660298679.09525,14776.6566108,4
1660298679.09525,14776.6566142,-11
1660298679.09525,14776.6566177,0
1660298679.09525,14776.6566213,11
1660298679.09525,14776.6566247,11
1660298679.09525,14776.656628,-4
1660298679.09525,14776.6566313,-39
1660298679.09525,14776.6566365,51
1660298679.09525,14776.6566398,457
1660298679.09525,14776.6566462,969
1660298679.09525,14776.6566518,1069
1660298679.09525,14776.6566557,485
1660298679.09525,14776.6566609,-189
1660298679.09525,14776.6566985,-177
1660298679.09525,14776.6567082,93
1660298679.09525,14776.6567163,16
1660298679.09525,14776.6567255,-65
1660298679.09525,14776.6567334,28
1660298679.09525,14776.6567392,42
1660298679.09525,14776.6567447,4
1660298679.09525,14776.6567533,35
1660298679.09525,14776.6567617,70
1660298679.09525,14776.6567694,67
1660298679.09525,14776.656777,77
1660298679.09525,14776.6567851,105
1660298679.09525,14776.6568206,119
1660298679.09525,14776.65683,123
1660298679.09525,14776.6568378,137
1660298679.09525,14776.6568448,163
1660298679.09525,14776.6568529,193
1660298679.09525,14776.6568607,217
1660298679.09525,14776.6568691,240
1660298679.09525,14776.6568763,268
1660298679.10721,14776.6568837,291
1660298679.10721,14776.6568919,312
1660298679.10721,14776.6568988,329
1660298679.10721,14776.6569076,333
1660298679.10721,14776.6569143,326
1660298679.10721,14776.6569198,305
1660298679.10721,14776.656929,263
1660298679.10721,14776.6569342,193
1660298679.10721,14776.6569413,128
1660298679.10721,14776.6569505,84
1660298679.10721,14776.6569577,44
1660298679.10721,14776.6569639,9
1660298679.10721,14776.6569712,-11
1660298679.10721,14776.6569801,-21
1660298679.10721,14776.6569873,-23
1660298679.10721,14776.6569946,-16
1660298679.10721,14776.6570012,-14
1660298679.10721,14776.6570062,-14
1660298679.10721,14776.6570153,-9
1660298679.10721,14776.6570199,2
1660298679.10721,14777.1919563,14
1660298679.10721,14777.1919814,25
1660298679.10721,14777.1919916,30
1660298679.10721,14777.1920584,39
1660298679.68618,14777.1920653,51
1660298679.68618,14777.1920702,58
1660298679.68618,14777.1920768,58
1660298679.68618,14777.1920861,60
1660298679.68618,14777.1920925,67
1660298679.68618,14777.1920996,70
1660298679.68618,14777.1921056,53
1660298679.68618,14777.1921097,30
1660298679.68618,14777.1921139,30
1660298679.68618,14777.1921177,39
1660298679.68618,14777.1921221,35
1660298679.68618,14777.1921262,35
1660298679.68618,14777.1921303,32
1660298679.68618,14777.1921346,7
1660298679.68618,14777.1921395,0
1660298679.68618,14777.1921462,14
1660298679.68618,14777.1921553,25
1660298679.68618,14777.1921596,42
1660298679.68618,14777.1921634,44
1660298679.68618,14777.1921672,18
1660298679.68618,14777.1921711,0
1660298679.68618,14777.1921751,-14
1660298679.68618,14777.1921796,-37
1660298679.68618,14777.1921834,-46
1660298679.68618,14777.1921872,-42
1660298679.68618,14777.1921916,-42
1660298679.68618,14777.1921962,-44
1660298679.68618,14777.1922003,-42
1660298679.68618,14777.1922047,-39
1660298679.68618,14777.19221,-37
1660298679.68618,14777.1922152,-60
1660298679.68618,14777.1922197,-91
1660298679.68618,14777.1922245,49
1660298679.68618,14777.1922309,497
1660298679.68618,14777.1922355,994
1660298679.68618,14777.1922397,1001
1660298679.68618,14777.1922447,322
1660298679.68618,14777.192249,-301
1660298679.68618,14777.1922535,-168
1660298679.68618,14777.1922583,88
1660298679.68618,14777.1922652,-28
1660298679.68618,14777.1922709,-77
1660298679.68618,14777.1922765,16
1660298679.68618,14777.1922831,11
1660298679.68618,14777.1922899,-9
1660298679.68618,14777.1922969,23
1660298679.68618,14777.1923028,32
1660298679.68618,14777.1923074,21
1660298679.68618,14777.1923113,28
1660298679.68618,14777.192316,46
1660298679.7054,14777.1923223,63
1660298679.7054,14777.1923274,77
1660298679.7054,14777.1923323,88
1660298679.7054,14777.1923377,98
1660298679.7054,14777.1923424,121
1660298679.7054,14777.1923477,154
1660298679.7054,14777.192353,179
1660298679.7054,14777.1923578,198
1660298679.7054,14777.1923632,219
1660298679.7054,14777.1923686,233
1660298679.7054,14777.1923742,245
1660298679.7054,14777.1923788,256
1660298679.7054,14777.1923843,254
1660298679.7054,14777.1923896,226
1660298679.7054,14777.1923954,186
1660298679.7054,14777.1924006,133
1660298679.7054,14777.1924061,77
1660298679.7054,14777.1924116,30
1660298679.7054,14777.1924166,-2
1660298679.7054,14777.7763574,-23
1660298679.7054,14777.7763774,-39
1660298679.7054,14777.7763931,-44
1660298679.7054,14777.776408,-35
1660298679.7054,14777.7764206,-23
1660298680.21343,14777.7764296,-18
1660298680.21343,14777.7764341,-16
1660298680.21343,14777.7764377,-28
1660298680.21343,14777.7764411,-42
1660298680.21343,14777.7764444,-25
1660298680.21343,14777.7764479,-4
1660298680.21343,14777.7764513,-2
1660298680.21343,14777.7764555,4
1660298680.21343,14777.7764593,2
1660298680.21343,14777.7764632,-18
1660298680.21343,14777.7764675,-23
1660298680.21343,14777.7764711,-14
1660298680.21343,14777.7764746,-16
1660298680.21343,14777.7764781,-18
1660298680.21343,14777.7764816,-11
1660298680.21343,14777.7764851,-11
1660298680.21343,14777.7764886,-14
1660298680.21343,14777.7764921,-9
1660298680.21343,14777.776496,-2
1660298680.21343,14777.7765083,4
1660298680.21343,14777.7765169,4
1660298680.21343,14777.7765212,-4
1660298680.21343,14777.7765268,-9
1660298680.21343,14777.7765307,-7
1660298680.21343,14777.7765343,0
1660298680.21343,14777.7765414,16
1660298680.21343,14777.7765447,58
1660298680.21343,14777.7765547,74
1660298680.21343,14777.7765665,37
1660298680.21343,14777.7765735,16
1660298680.21343,14777.7765777,18
1660298680.21343,14777.7765827,0
1660298680.21343,14777.7765866,-14
1660298680.21343,14777.7765899,-9
1660298680.21343,14777.7765933,-4
1660298680.21343,14777.7765966,-2
1660298680.21343,14777.7766008,2
1660298680.21343,14777.7766062,9
1660298680.21343,14777.7766106,4
1660298680.21343,14777.776614,-30
1660298680.21343,14777.7766173,-74
1660298680.21343,14777.7766206,35
1660298680.21343,14777.7766256,439
1660298680.21343,14777.7766291,922
1660298680.21343,14777.7766324,1011
1660298680.21343,14777.7766358,460
1660298680.21343,14777.7766399,-203
1660298680.21343,14777.7766455,-217
1660298680.21343,14777.7766493,58
1660298680.21343,14777.7766551,7
1660298680.2264,14777.7766587,-77
1660298680.2264,14777.776662,-2
1660298680.2264,14777.7766653,14
1660298680.2264,14777.7766687,-16
1660298680.2264,14777.7766721,14
1660298680.2264,14777.7766754,46
1660298680.2264,14777.7766805,46
1660298680.2264,14777.7766838,51
1660298680.2264,14777.7766871,77
1660298680.2264,14777.7766904,88
1660298680.2264,14777.7766937,98
1660298680.2264,14777.776699,119
1660298680.2264,14777.7767041,144
1660298680.2264,14777.7767089,163
1660298680.2264,14777.7767143,184
1660298680.2264,14777.7767177,205
1660298680.2264,14777.7767212,235
1660298680.2264,14777.7767306,261
1660298680.2264,14778.312284,268
1660298680.2264,14778.3122993,275
1660298680.2264,14778.3123037,291
1660298680.2264,14778.3123093,287
1660298680.2264,14778.312313,261
1660298680.2264,14778.3123182,235
1660298680.7583,14778.3123219,196
1660298680.7583,14778.3123254,126
1660298680.7583,14778.3123289,63
1660298680.7583,14778.3123323,35
1660298680.7583,14778.3123358,4
1660298680.7583,14778.3123393,-44
1660298680.7583,14778.3123427,-63
1660298680.7583,14778.3123461,-42
1660298680.7583,14778.3123495,-32
1660298680.7583,14778.3123529,-32
1660298680.7583,14778.3123563,-30
1660298680.7583,14778.3123598,-39
1660298680.7583,14778.3123633,-51
1660298680.7583,14778.3123666,-32
1660298680.7583,14778.31237,-9
1660298680.7583,14778.3123734,-4
1660298680.7583,14778.3123768,-2
1660298680.7583,14778.3123802,2
1660298680.7583,14778.3123835,2
1660298680.7583,14778.3123868,9
1660298680.7583,14778.3123902,21
1660298680.7583,14778.3123934,21
1660298680.7583,14778.3123968,25
1660298680.7583,14778.3124001,32
1660298680.7583,14778.3124034,25
1660298680.7583,14778.3124067,21
1660298680.7583,14778.31241,32
1660298680.7583,14778.3124135,42
1660298680.7583,14778.3124168,42
1660298680.7583,14778.3124201,44
1660298680.7583,14778.3124234,30
1660298680.7583,14778.3124267,9
1660298680.7583,14778.3124302,9
1660298680.7583,14778.3124337,23
1660298680.7583,14778.3124377,46
1660298680.7583,14778.3124413,60
1660298680.7583,14778.3124447,37
1660298680.7583,14778.3124498,14
1660298680.7583,14778.3124533,16
1660298680.7583,14778.3124586,2
1660298680.7583,14778.3124625,-14
1660298680.7583,14778.3124678,-11
1660298680.7583,14778.3124712,-9
1660298680.7583,14778.3124763,-14
1660298680.7583,14778.3124797,-11
1660298680.7583,14778.3124846,0
1660298680.7583,14778.3124882,4
1660298680.7583,14778.3124936,-18
1660298680.7583,14778.3124969,-51
1660298680.7583,14778.3125003,49
1660298680.77463,14778.3125053,427
1660298680.77463,14778.3125087,910
1660298680.77463,14778.3125139,1037
1660298680.77463,14778.3125172,511
1660298680.77463,14778.3125208,-149
1660298680.77463,14778.3125243,-175
1660298680.77463,14778.3125296,81
1660298680.77463,14778.3125331,32
1660298680.77463,14778.3125382,-49
1660298680.77463,14778.3125416,25
1660298680.77463,14778.3125451,46
1660298680.77463,14778.3125501,18
1660298680.77463,14778.3125536,35
1660298680.77463,14778.312557,58
1660298680.77463,14778.312562,63
1660298680.77463,14778.3125732,72
1660298680.77463,14778.3125764,84
1660298680.77463,14778.8513081,88
1660298680.77463,14778.8513293,105
1660298680.77463,14778.8513375,123
1660298680.77463,14778.8513428,140
1660298680.77463,14778.8513509,165
1660298680.77463,14778.8513586,189
1660298680.77463,14778.8513666,207
1660298681.34002,14778.8513749,212
1660298681.34002,14778.8513813,217
1660298681.34002,14778.8513869,235
1660298681.34002,14778.8513909,256
1660298681.34002,14778.8513954,249
1660298681.34002,14778.8513986,242
1660298681.34002,14778.8514017,235
1660298681.34002,14778.8514052,184
1660298681.34002,14778.8514093,121
1660298681.34002,14778.8514128,74
1660298681.34002,14778.8514162,18
1660298681.34002,14778.8514201,-14
1660298681.34002,14778.8514236,-23
1660298681.34002,14778.8514271,-39
1660298681.34002,14778.8514306,-51
1660298681.34002,14778.8514341,-42
1660298681.34002,14778.8514375,-37
1660298681.34002,14778.851441,-30
1660298681.34002,14778.8514444,-11
1660298681.34002,14778.851448,-4
1660298681.34002,14778.8514515,-4
1660298681.34002,14778.8514551,9
1660298681.34002,14778.8514585,9
1660298681.34002,14778.851462,-11
1660298681.34002,14778.8514656,-14
1660298681.34002,14778.851469,-2
1660298681.34002,14778.8514725,0
1660298681.34002,14778.8514762,0
1660298681.34002,14778.8514818,16
1660298681.34002,14778.8514862,32
1660298681.34002,14778.8514945,35
1660298681.34002,14778.8515018,37
1660298681.34002,14778.8515094,46
1660298681.34002,14778.8515168,49
1660298681.34002,14778.8515237,39
1660298681.34002,14778.8515306,42
1660298681.34002,14778.8515357,58
1660298681.34002,14778.8515393,60
1660298681.34002,14778.851546,49
1660298681.34002,14778.8515542,51
1660298681.34002,14778.8515617,65
1660298681.34002,14778.8515691,95
1660298681.34002,14778.8515754,119
1660298681.34002,14778.8515814,109
1660298681.34002,14778.8515863,91
1660298681.34002,14778.8515902,74
1660298681.34002,14778.8515937,60
1660298681.34002,14778.8515978,53
1660298681.34002,14778.851602,63
1660298681.34002,14778.8516084,74
1660298681.35299,14778.8516164,70
1660298681.35299,14778.8516307,53
1660298681.35299,14778.8516396,49
1660298681.35299,14778.8516471,53
1660298681.35299,14778.8516527,39
1660298681.35299,14778.8516563,-9
1660298681.35299,14778.8516598,4
1660298681.35299,14778.8516633,301
1660298681.35299,14778.8516667,845
1660298681.35299,14778.8516718,1165
1660298681.35299,14778.8516793,768
1660298681.35299,14778.851685,-35
1660298681.35299,14778.8516906,-252
1660298681.35299,14778.8516966,67
1660298681.35299,14778.8517018,91
1660298681.35299,14778.8517082,-51
1660298681.35299,14779.4336753,14
1660298681.35299,14779.4336966,67
1660298681.35299,14779.433706,28
1660298681.35299,14779.4337103,39
1660298681.35299,14779.433717,51
1660298681.35299,14779.4337227,25
1660298681.35299,14779.4337288,37
1660298681.35299,14779.4337327,70
1660298681.96806,14779.4337372,86
1660298681.96806,14779.4337416,100
1660298681.96806,14779.4337456,107
1660298681.96806,14779.4337497,114
1660298681.96806,14779.4337541,135
1660298681.96806,14779.4337583,170
1660298681.96806,14779.433762,198
1660298681.96806,14779.4337663,221
1660298681.96806,14779.4337703,240
1660298681.96806,14779.4337744,233
1660298681.96806,14779.433779,221
1660298681.96806,14779.4337852,233
1660298681.96806,14779.4337891,242
1660298681.96806,14779.4337952,224
1660298681.96806,14779.4337996,170
1660298681.96806,14779.4338033,105
1660298681.96806,14779.4338097,58
1660298681.96806,14779.4338168,21
1660298681.96806,14779.4338221,-23
1660298681.96806,14779.4338281,-49
1660298681.96806,14779.4338325,-60
1660298681.96806,14779.4338361,-72
1660298681.96806,14779.4338395,-70
1660298681.96806,14779.4338446,-56
1660298681.96806,14779.4338481,-49
1660298681.96806,14779.4338532,-49
1660298681.96806,14779.4338568,-39
1660298681.96806,14779.433861,-28
1660298681.96806,14779.4338668,-21
1660298681.96806,14779.4338747,-9
1660298681.96806,14779.4338786,7
1660298681.96806,14779.4338832,7
1660298681.96806,14779.4338863,9
1660298681.96806,14779.4338896,25
1660298681.96806,14779.4338929,35
1660298681.96806,14779.4338981,39
1660298681.96806,14779.4339028,42
1660298681.96806,14779.4339116,39
1660298681.96806,14779.4339171,42
1660298681.96806,14779.4339192,49
1660298681.96806,14779.4339212,44
1660298681.96806,14779.4339232,46
1660298681.96806,14779.4339252,58
1660298681.96806,14779.4339272,58
1660298681.96806,14779.43393,44
1660298681.96806,14779.4339319,35
1660298681.96806,14779.4339344,37
1660298681.96806,14779.4339365,37
1660298681.96806,14779.4339384,56
1660298681.96806,14779.4339404,86
1660298681.98002,14779.4339424,84
1660298681.98002,14779.4339444,70
1660298681.98002,14779.4339464,72
1660298681.98002,14779.4339484,65
1660298681.98002,14779.4339504,51
1660298681.98002,14779.4339524,53
1660298681.98002,14779.4339544,53
1660298681.98002,14779.4339571,39
1660298681.98002,14779.4339592,39
1660298681.98002,14779.4339612,49
1660298681.98002,14779.4339632,46
1660298681.98002,14779.4339652,35
1660298681.98002,14779.4339673,2
1660298681.98002,14779.4339693,-21
1660298681.98002,14779.4339713,163
1660298681.98002,14780.0674371,674
1660298681.98002,14780.0674575,1144
1660298681.98002,14780.067462,1015
1660298681.98002,14780.0674654,261
1660298681.98002,14780.0674699,-273
1660298681.98002,14780.0674749,-91
1660298681.98002,14780.0674785,88
1660298681.98002,14780.0674817,-60
1660298681.98002,14780.0674848,-95
1660298682.56217,14780.067489,-4
1660298682.56217,14780.0674949,-7
1660298682.56217,14780.0674983,-30
1660298682.56217,14780.0675032,-18
1660298682.56217,14780.0675063,-35
1660298682.56217,14780.0675095,-65
1660298682.56217,14780.0675127,-58
1660298682.56217,14780.0675167,-42
1660298682.56217,14780.0675211,-21
1660298682.56217,14780.0675251,14
1660298682.56217,14780.0675282,37
1660298682.56217,14780.0675319,37
1660298682.56217,14780.0675353,51
1660298682.56217,14780.0675405,88
1660298682.56217,14780.0675452,121
1660298682.56217,14780.06755,142
1660298682.56217,14780.0675605,163
1660298682.56217,14780.0675723,179
1660298682.56217,14780.0675859,184
1660298682.56217,14780.0675996,198
1660298682.56217,14780.0676168,207
1660298682.56217,14780.0676316,165
1660298682.56217,14780.0676392,93
1660298682.56217,14780.0676446,56
1660298682.56217,14780.0676492,30
1660298682.56217,14780.0676539,-11
1660298682.56217,14780.0676583,-37
1660298682.56217,14780.0676625,-30
1660298682.56217,14780.0676673,-23
1660298682.56217,14780.0676719,-49
1660298682.56217,14780.0676765,-81
1660298682.56217,14780.067681,-67
1660298682.56217,14780.0676855,-35
1660298682.56217,14780.06769,-23
1660298682.56217,14780.0676947,-4
1660298682.56217,14780.0676991,11
1660298682.56217,14780.0677036,2
1660298682.56217,14780.0677084,-2
1660298682.56217,14780.0677131,7
1660298682.56217,14780.0677193,14
1660298682.56217,14780.0677232,14
1660298682.56217,14780.0677267,35
1660298682.56217,14780.0677304,67
1660298682.56217,14780.0677351,67
1660298682.56217,14780.0677398,51
1660298682.56217,14780.0677444,51
1660298682.56217,14780.0677502,53
1660298682.56217,14780.067754,49
1660298682.56217,14780.0677597,53
1660298682.56217,14780.0677675,56
1660298682.57469,14780.0677754,65
1660298682.57469,14780.0677811,72
1660298682.57469,14780.0677852,70
1660298682.57469,14780.0677914,77
1660298682.57469,14780.0677955,84
1660298682.57469,14780.067801,70
1660298682.57469,14780.0678049,86
1660298682.57469,14780.0678104,123
1660298682.57469,14780.0678142,121
1660298682.57469,14780.0678197,105
1660298682.57469,14780.0678236,100
1660298682.57469,14780.0678294,84
1660298682.57469,14780.0678336,72
1660298682.57469,14780.0678398,93
1660298682.57469,14780.6524934,112
1660298682.57469,14780.6525123,91
1660298682.57469,14780.6525215,79
1660298682.57469,14780.652529,88
1660298682.57469,14780.6525381,84
1660298682.57469,14780.6525405,63
1660298682.57469,14780.6525425,21
1660298682.57469,14780.6525445,63
1660298682.57469,14780.6525466,432
1660298682.57469,14780.652552,1004
1660298683.04799,14780.6525626,1179
1660298683.04799,14780.6525676,597
1660298683.04799,14780.652572,-137
1660298683.04799,14780.6525779,-182
1660298683.04799,14780.6525822,84
1660298683.04799,14780.6525858,9
1660298683.04799,14780.6525898,-107
1660298683.04799,14780.6525933,-32
1660298683.04799,14780.652599,-2
1660298683.04799,14780.6526041,-32
1660298683.04799,14780.6526087,-11
1660298683.04799,14780.652616,9
1660298683.04799,14780.6526249,2
1660298683.04799,14780.6526335,-2
1660298683.04799,14780.6526452,7
1660298683.04799,14780.6526537,23
1660298683.04799,14780.652663,30
1660298683.04799,14780.652671,53
1660298683.04799,14780.6526788,86
1660298683.04799,14780.6526823,105
1660298683.04799,14780.6526959,119
1660298683.04799,14780.6527093,144
1660298683.04799,14780.6527209,170
1660298683.04799,14780.6527306,200
1660298683.04799,14780.652734,228
1660298683.04799,14780.6527378,233
1660298683.04799,14780.6527418,224
1660298683.04799,14780.6527448,219
1660298683.04799,14780.6527478,205
1660298683.04799,14780.6527509,168
1660298683.04799,14780.6527539,119
1660298683.04799,14780.6527576,67
1660298683.04799,14780.6527632,18
1660298683.04799,14780.6527665,-14
1660298683.04799,14780.6527718,-30
1660298683.04799,14780.6527752,-51
1660298683.04799,14780.6527785,-67
1660298683.04799,14780.6527822,-58
1660298683.04799,14780.6527858,-35
1660298683.04799,14780.6527889,-32
1660298683.04799,14780.6527922,-37
1660298683.04799,14780.652796,-23
1660298683.04799,14780.6527997,-11
1660298683.04799,14780.6528033,0
1660298683.04799,14780.6528067,14
1660298683.04799,14780.6528102,14
1660298683.04799,14780.6528138,23
1660298683.04799,14780.6528173,44
1660298683.04799,14780.6528211,49
1660298683.04799,14780.6528265,46
1660298683.06295,14780.6528301,44
1660298683.06295,14780.6528335,44
1660298683.06295,14780.652838,49
1660298683.06295,14780.6528437,42
1660298683.06295,14780.6528471,51
1660298683.06295,14780.6528506,70
1660298683.06295,14780.652854,70
1660298683.06295,14780.6528593,67
1660298683.06295,14780.6528628,72
1660298683.06295,14780.6528661,77
1660298683.06295,14780.6528697,86
1660298683.06295,14780.6528744,56
1660298683.06295,14780.6528781,32
1660298683.06295,14781.1405631,84
1660298683.06295,14781.1405828,100
1660298683.06295,14781.1405878,84
1660298683.06295,14781.1405914,109
1660298683.06295,14781.1405947,86
1660298683.06295,14781.1406002,39
1660298683.06295,14781.1406059,46
1660298683.06295,14781.1406095,39
1660298683.06295,14781.1406133,25
1660298683.06295,14781.1406189,53
1660298683.06295,14781.1406246,74
1660298683.57694,14781.1406292,67
1660298683.57694,14781.1406359,60
1660298683.57694,14781.1406426,7
1660298683.57694,14781.1406493,-44
1660298683.57694,14781.1406561,142
1660298683.57694,14781.1406631,593
1660298683.57694,14781.140672,959
1660298683.57694,14781.1406784,822
1660298683.57694,14781.1406847,189
1660298683.57694,14781.1406911,-217
1660298683.57694,14781.1406976,-28
1660298683.57694,14781.1407038,105
1660298683.57694,14781.1407097,-23
1660298683.57694,14781.1407136,-32
1660298683.57694,14781.1407195,16
1660298683.57694,14781.1407276,11
1660298683.57694,14781.1407377,30
1660298683.57694,14781.1407507,37
1660298683.57694,14781.1407627,25
1660298683.57694,14781.1407705,42
1660298683.57694,14781.1407798,60
1660298683.57694,14781.1407936,72
1660298683.57694,14781.1408007,70
1660298683.57694,14781.1408067,58
1660298683.57694,14781.140813,74
1660298683.57694,14781.1408221,121
1660298683.57694,14781.1408332,140
1660298683.57694,14781.1408412,135
1660298683.57694,14781.1408446,163
1660298683.57694,14781.1408583,200
1660298683.57694,14781.1408702,219
1660298683.57694,14781.140879,235
1660298683.57694,14781.1408854,235
1660298683.57694,14781.1408949,226
1660298683.57694,14781.1409001,219
1660298683.57694,14781.1409078,212
1660298683.57694,14781.1409167,172
1660298683.57694,14781.1409287,102
1660298683.57694,14781.1409383,49
1660298683.57694,14781.1409457,18
1660298683.57694,14781.1409537,-16
1660298683.57694,14781.1409628,-25
1660298683.57694,14781.1409736,-9
1660298683.57694,14781.1409812,0
1660298683.57694,14781.1409868,28
1660298683.57694,14781.140998,16
1660298683.57694,14781.1410108,-42
1660298683.57694,14781.1410219,-35
1660298683.57694,14781.1410337,-9
1660298683.57694,14781.1410493,-14
1660298683.59689,14781.1410628,16
1660298683.59689,14781.1410752,21
1660298683.59689,14781.1410867,7
1660298683.59689,14781.1410981,25
1660298683.59689,14781.141111,25
1660298683.59689,14781.141125,23
1660298683.59689,14781.14114,58
1660298683.59689,14781.1411526,67
1660298683.59689,14781.1411678,37
1660298683.59689,14781.1411805,37
1660298683.59689,14781.1411876,60
1660298683.59689,14781.1411957,81
1660298683.59689,14781.6780189,67
1660298683.59689,14781.6780393,35
1660298683.59689,14781.678049,51
1660298683.59689,14781.6780523,86
1660298683.59689,14781.6780614,74
1660298683.59689,14781.6780717,65
1660298683.59689,14781.6780778,93
1660298683.59689,14781.6780824,128
1660298683.59689,14781.6780868,130
1660298683.59689,14781.6780915,102
1660298683.59689,14781.6781045,84
1660298683.59689,14781.678113,74
1660298684.12372,14781.6781191,58
1660298684.12372,14781.6781267,42
1660298684.12372,14781.6781376,39
1660298684.12372,14781.6781513,56
1660298684.12372,14781.6781607,44
1660298684.12372,14781.6781721,18
1660298684.12372,14781.6781812,32
1660298684.12372,14781.6781943,44
1660298684.12372,14781.6782077,25
1660298684.12372,14781.678221,16
1660298684.12372,14781.6782341,9
1660298684.12372,14781.6782473,37
1660298684.12372,14781.6782605,226
1660298684.12372,14781.6782736,560
1660298684.12372,14781.6782867,714
1660298684.12372,14781.6782998,387
1660298684.12372,14781.678313,-93
1660298684.12372,14781.6783263,-135
1660298684.12372,14781.6783395,44
1660298684.12372,14781.6783525,18
1660298684.12372,14781.6783655,-18
1660298684.12372,14781.6783786,39
1660298684.12372,14781.6783919,44
1660298684.12372,14781.6784051,21
1660298684.12372,14781.6784149,35
1660298684.12372,14781.6784173,49
1660298684.12372,14781.6784194,60
1660298684.12372,14781.6784215,67
1660298684.12372,14781.6784235,74
1660298684.12372,14781.6784256,81
1660298684.12372,14781.6784276,95
1660298684.12372,14781.6784334,109
1660298684.12372,14781.6784446,133
1660298684.12372,14781.6784481,151
1660298684.12372,14781.6784501,161
1660298684.12372,14781.6784522,182
1660298684.12372,14781.6784542,205
1660298684.12372,14781.6784591,219
1660298684.12372,14781.6784712,217
1660298684.12372,14781.6784836,210
1660298684.12372,14781.6784906,231
1660298684.12372,14781.6784957,245
1660298684.12372,14781.6784988,219
1660298684.12372,14781.6785017,191
1660298684.12372,14781.6785048,175
1660298684.12372,14781.6785089,130
1660298684.12372,14781.6785121,60
1660298684.12372,14781.678515,18
1660298684.12372,14781.6785191,14
1660298684.12372,14781.6785249,2
1660298684.13669,14781.6785289,-16
1660298684.13669,14781.6785325,-18
1660298684.13669,14781.6785357,-9
1660298684.13669,14781.6785389,-7
1660298684.13669,14781.6785447,-9
1660298684.13669,14781.6785484,-7
1660298684.13669,14781.6785539,7
1660298684.13669,14781.6785575,21
1660298684.13669,14781.678561,25
1660298684.13669,14781.6785663,21
1660298684.13669,14781.67857,18
1660298684.13669,14782.2150015,30
1660298684.13669,14782.2150223,42
1660298684.13669,14782.2150363,44
1660298684.13669,14782.2150461,42
1660298684.13669,14782.2150553,42
1660298684.13669,14782.2150636,49
1660298684.13669,14782.2150737,53
1660298684.13669,14782.2150843,44
1660298684.13669,14782.2150917,32
1660298684.13669,14782.2151025,35
1660298684.13669,14782.2151134,32
1660298684.13669,14782.2151215,25
1660298684.13669,14782.2151322,28
1660298684.70345,14782.2151431,21
1660298684.70345,14782.2151488,-9
1660298684.70345,14782.2151575,-7
1660298684.70345,14782.2151607,37
1660298684.70345,14782.2151628,63
1660298684.70345,14782.2151649,46
1660298684.70345,14782.2151667,23
1660298684.70345,14782.2151686,7
1660298684.70345,14782.2151706,-16
1660298684.70345,14782.2151726,-23
1660298684.70345,14782.2151796,-11
1660298684.70345,14782.2151879,-2
1660298684.70345,14782.2151965,-2
1660298684.70345,14782.215203,2
1660298684.70345,14782.2152061,14
1660298684.70345,14782.2152081,14
1660298684.70345,14782.2152102,-9
1660298684.70345,14782.2152123,-30
1660298684.70345,14782.2152144,70
1660298684.70345,14782.2152165,415
1660298684.70345,14782.2152186,875
1660298684.70345,14782.2152206,1004
1660298684.70345,14782.2152225,448
1660298684.70345,14782.2152246,-245
1660298684.70345,14782.2152266,-221
1660298684.70345,14782.2152286,88
1660298684.70345,14782.2152307,30
1660298684.70345,14782.2152327,-58
1660298684.70345,14782.2152347,7
1660298684.70345,14782.2152367,-2
1660298684.70345,14782.2152387,-23
1660298684.70345,14782.2152407,21
1660298684.70345,14782.2152427,30
1660298684.70345,14782.2152447,18
1660298684.70345,14782.2152466,35
1660298684.70345,14782.2152486,56
1660298684.70345,14782.2152507,72
1660298684.70345,14782.2152527,84

1660298684.70345,14782.2152547,86
1660298684.70345,14782.2152568,84
1660298684.70345,14782.2152588,105
1660298684.70345,14782.2152608,149
1660298684.70345,14782.2152632,189
1660298684.70345,14782.2152746,210
1660298684.70345,14782.2152879,228
1660298684.70345,14782.2152963,249
1660298684.70345,14782.2153031,261
1660298684.70345,14782.2153063,266
1660298684.70345,14782.2153141,263
1660298684.70345,14782.215321,238
1660298684.71713,14782.2153241,191
1660298684.71713,14782.2153319,133
1660298684.71713,14782.2153386,67
1660298684.71713,14782.2153473,18
1660298684.71713,14782.2153538,-7
1660298684.71713,14782.2153602,-25
1660298684.71713,14782.2153632,-39
1660298684.71713,14782.2153661,-42
1660298684.71713,14782.215369,-35
1660298684.71713,14782.215389,-35
1660298684.71713,14782.7978642,-44
1660298684.71713,14782.7978772,-35
1660298684.71713,14782.7978808,-9
1660298684.71713,14782.7978838,-7
1660298684.71713,14782.7978867,-42
1660298684.71713,14782.7978896,-63
1660298684.71713,14782.7978925,-39
1660298684.71713,14782.7978953,-11
1660298684.71713,14782.7978981,2
1660298684.71713,14782.7979008,2
1660298684.71713,14782.7979037,-4
1660298684.71713,14782.7979064,9
1660298684.71713,14782.7979091,39
1660298684.71713,14782.7979116,44
1660298685.38227,14782.7979143,37
1660298685.38227,14782.797917,39
1660298685.38227,14782.7979199,21
1660298685.38227,14782.7979233,-9
1660298685.38227,14782.797926,-2
1660298685.38227,14782.7979285,14
1660298685.38227,14782.797931,21
1660298685.38227,14782.7979335,46
1660298685.38227,14782.797936,70
1660298685.38227,14782.7979384,53
1660298685.38227,14782.797941,28
1660298685.38227,14782.7979484,30
1660298685.38227,14782.7979573,42
1660298685.38227,14782.7979652,37
1660298685.38227,14782.7979718,25
1660298685.38227,14782.7979848,16
1660298685.38227,14782.7979951,30
1660298685.38227,14782.7980489,58
1660298685.38227,14782.798056,51
1660298685.38227,14782.7980595,28
1660298685.38227,14782.7980628,2
1660298685.38227,14782.7980662,-30
1660298685.38227,14782.7980696,79
1660298685.38227,14782.7980741,509
1660298685.38227,14782.7980791,1006
1660298685.38227,14782.7980824,1069
1660298685.38227,14782.7980856,469
1660298685.38227,14782.7980888,-186
1660298685.38227,14782.7980931,-142
1660298685.38227,14782.7980966,114
1660298685.38227,14782.7981016,9
1660298685.38227,14782.7981049,-70
1660298685.38227,14782.7981092,9
1660298685.38227,14782.7981126,4
1660298685.38227,14782.7981182,-23
1660298685.38227,14782.798123,14
1660298685.38227,14782.7981278,35
1660298685.38227,14782.798131,30
1660298685.38227,14782.7981364,42
1660298685.38227,14782.7981398,51
1660298685.38227,14782.7981432,58
1660298685.38227,14782.7981466,74
1660298685.38227,14782.798151,98
1660298685.38227,14782.7981544,102
1660298685.38227,14782.7981578,116
1660298685.38227,14782.7981611,158
1660298685.38227,14782.7981645,191
1660298685.38227,14782.7981679,207
1660298685.38227,14782.7981713,233
1660298685.38227,14782.7981746,261
1660298685.39524,14782.798178,263
1660298685.39524,14782.7981813,261
1660298685.39524,14782.7981846,252
1660298685.39524,14782.798188,214
1660298685.39524,14782.7981926,161
1660298685.39524,14782.7981976,102
1660298685.39524,14782.798201,39
1660298685.39524,14782.7982043,9
1660298685.39524,14782.7982092,-2
1660298685.39524,14783.4799355,-39
1660298685.39524,14783.4799545,-53
1660298685.39524,14783.4799641,-35
1660298685.39524,14783.4799695,-42
1660298685.39524,14783.4799785,-56
1660298685.39524,14783.479985,-37
1660298685.39524,14783.4799964,-23
1660298685.39524,14783.4800048,-44
1660298685.39524,14783.4800163,-63
1660298685.39524,14783.4800257,-49
1660298685.39524,14783.4800281,-32
1660298685.39524,14783.4800301,-28
1660298685.39524,14783.4800321,-16
1660298685.39524,14783.4800341,-14
1660298685.39524,14783.4800361,-32
1660298685.87456,14783.4800382,-37
1660298685.87456,14783.4800443,-18
1660298685.87456,14783.4800522,-11
1660298685.87456,14783.4800574,-7
1660298685.87456,14783.4800617,9
1660298685.87456,14783.4800666,7
1660298685.87456,14783.4800738,-2
1660298685.87456,14783.4800784,7
1660298685.87456,14783.4800855,11
1660298685.87456,14783.4800926,4
1660298685.87456,14783.4801018,16
1660298685.87456,14783.4801075,44
1660298685.87456,14783.4801139,56
1660298685.87456,14783.4801187,44
1660298685.87456,14783.4801244,32
1660298685.87456,14783.4801291,37
1660298685.87456,14783.4801352,30
1660298685.87456,14783.4801399,14
1660298685.87456,14783.4801459,18
1660298685.87456,14783.4801496,32
1660298685.87456,14783.480155,28
1660298685.87456,14783.4801591,21
1660298685.87456,14783.4801652,23
1660298685.87456,14783.4801691,35
1660298685.87456,14783.4801753,23
1660298685.87456,14783.480182,-14
1660298685.87456,14783.4801899,28
1660298685.87456,14783.4801955,277
1660298685.87456,14783.4802055,696
1660298685.87456,14783.480217,966
1660298685.87456,14783.4802303,705
1660298685.87456,14783.4802443,56
1660298685.87456,14783.4802548,-189
1660298685.87456,14783.4802629,46
1660298685.87456,14783.4802719,100
1660298685.87456,14783.4802825,-9
1660298685.87456,14783.4802901,23
1660298685.87456,14783.4803001,56
1660298685.87456,14783.4803103,28
1660298685.87456,14783.480318,46
1660298685.87456,14783.4803288,65
1660298685.87456,14783.4803394,44
1660298685.87456,14783.480347,39
1660298685.87456,14783.4803542,46
1660298685.87456,14783.4803672,51
1660298685.87456,14783.4803797,72
1660298685.87456,14783.4803908,95
1660298685.87456,14783.4804023,112
1660298685.87456,14783.4804164,135
1660298685.87456,14783.4804295,149
1660298685.88952,14783.4804425,161
1660298685.88952,14783.4804559,196
1660298685.88952,14783.4804689,238
1660298685.88952,14783.4804819,259
1660298685.88952,14783.4804933,270
1660298685.88952,14783.4805076,277
1660298685.88952,14783.4805205,273
1660298685.88952,14783.4805337,256
1660298685.88952,14783.9693585,224
1660298685.88952,14783.969375,163
1660298685.88952,14783.9693818,105
1660298685.88952,14783.9693861,63
1660298685.88952,14783.9693901,25
1660298685.88952,14783.969394,-9
1660298685.88952,14783.9693979,-23
1660298685.88952,14783.9694017,-18
1660298685.88952,14783.9694055,-14
1660298685.88952,14783.9694091,-11
1660298685.88952,14783.9694128,-14
1660298685.88952,14783.9694167,-21
1660298685.88952,14783.9694205,-11
1660298685.88952,14783.9694243,2
1660298685.88952,14783.9694281,0
1660298685.88952,14783.9694317,-2
1660298686.50401,14783.9694353,-7
1660298686.50401,14783.9694396,-18
1660298686.50401,14783.9694434,-14
1660298686.50401,14783.969447,2
1660298686.50401,14783.9694506,7
1660298686.50401,14783.9694554,14
1660298686.50401,14783.9694588,23
1660298686.50401,14783.9694647,16
1660298686.50401,14783.9694716,14
1660298686.50401,14783.9694784,23
1660298686.50401,14783.9694853,25
1660298686.50401,14783.9694907,25
1660298686.50401,14783.9694948,32
1660298686.50401,14783.9694984,25
1660298686.50401,14783.9695019,14
1660298686.50401,14783.9695055,21
1660298686.50401,14783.9695094,30
1660298686.50401,14783.9695131,35
1660298686.50401,14783.9695167,39
1660298686.50401,14783.9695204,42
1660298686.50401,14783.9695242,39
1660298686.50401,14783.9695306,63
1660298686.50401,14783.9695342,95
1660298686.50401,14783.9695378,98
1660298686.50401,14783.9695434,86
1660298686.50401,14783.9695472,84
1660298686.50401,14783.9695529,74
1660298686.50401,14783.9695567,63
1660298686.50401,14783.9695606,65
1660298686.50401,14783.9695659,70
1660298686.50401,14783.969569,74
1660298686.50401,14783.9695729,77
1660298686.50401,14783.9695784,70
1660298686.50401,14783.9695822,77
1660298686.50401,14783.9695872,67
1660298686.50401,14783.9695914,28
1660298686.50401,14783.969595,44
1660298686.50401,14783.9695983,273
1660298686.50401,14783.9696033,705
1660298686.50401,14783.9696161,1051
1660298686.50401,14783.9696249,901
1660298686.50401,14783.9696283,228
1660298686.50401,14783.9696342,-196
1660298686.50401,14783.9696393,11
1660298686.50401,14783.969645,158
1660298686.50401,14783.9696486,28
1660298686.50401,14783.9696522,28
1660298686.50401,14783.9696559,98
1660298686.50401,14783.9696596,65
1660298686.50401,14783.9696631,53
1660298686.51759,14783.9696675,81
1660298686.51759,14783.9696713,84
1660298686.51759,14783.9696754,84
1660298686.51759,14783.9696793,98
1660298686.51759,14783.9696871,105
1660298686.51759,14783.9696936,116
1660298686.51759,14783.9696968,142
1660298686.51759,14784.6022521,161
1660298686.51759,14784.6022743,172
1660298686.51759,14784.6022847,186
1660298686.51759,14784.6022912,214
1660298686.51759,14784.6022953,254
1660298686.51759,14784.6023029,287
1660298686.51759,14784.6023091,298
1660298686.51759,14784.6023133,287
1660298686.51759,14784.6023203,277
1660298686.51759,14784.6023272,291
1660298686.51759,14784.6023341,298
1660298686.51759,14784.6023424,270
1660298686.51759,14784.6023495,214
1660298686.51759,14784.6023565,137
1660298686.51759,14784.6023656,65
1660298686.51759,14784.6023709,25
1660298686.51759,14784.6023732,-4
1660298687.14488,14784.6023752,-25
1660298687.14488,14784.6023811,-28
1660298687.14488,14784.6023909,-39
1660298687.14488,14784.6023952,-67
1660298687.14488,14784.6023975,-72
1660298687.14488,14784.6023995,-63
1660298687.14488,14784.6024014,-56
1660298687.14488,14784.6024042,-44
1660298687.14488,14784.6024135,-39
1660298687.14488,14784.6024213,-49
1660298687.14488,14784.6024313,-46
1660298687.14488,14784.6024438,-32
1660298687.14488,14784.6024553,-21
1660298687.14488,14784.6024613,-7
1660298687.14488,14784.6024709,-2
1660298687.14488,14784.6024828,0
1660298687.14488,14784.602487,11
1660298687.14488,14784.6024924,21
1660298687.14488,14784.6025037,32
1660298687.14488,14784.6025103,44
1660298687.14488,14784.602521,39
1660298687.14488,14784.6025323,32
1660298687.14488,14784.6025463,35
1660298687.14488,14784.6025561,39
1660298687.14488,14784.6025629,46
1660298687.14488,14784.6025679,58
1660298687.14488,14784.6025736,60
1660298687.14488,14784.6025769,51
1660298687.14488,14784.6025821,51
1660298687.14488,14784.6025865,63
1660298687.14488,14784.6025942,77
1660298687.14488,14784.6026012,102
1660298687.14488,14784.6026043,123
1660298687.14488,14784.6026077,116
1660298687.14488,14784.6026133,109
1660298687.14488,14784.6026173,107
1660298687.14488,14784.6026233,98
1660298687.14488,14784.6026284,95
1660298687.14488,14784.6026318,98
1660298687.14488,14784.6026356,100
1660298687.14488,14784.6026394,98
1660298687.14488,14784.6026457,102
1660298687.14488,14784.6026502,112
1660298687.14488,14784.6026542,112
1660298687.14488,14784.6026598,95
1660298687.14488,14784.6026645,56
1660298687.14488,14784.6026683,79
1660298687.14488,14784.6026721,383
1660298687.14488,14784.6026755,927
1660298687.14488,14784.6026788,1258
1660298687.15984,14784.6026829,906
1660298687.15984,14784.6026863,105
1660298687.15984,14784.6026895,-196
1660298687.15984,14784.602694,67
1660298687.15984,14784.6026978,112
1660298687.15984,14784.6027033,-23
1660298687.15984,14785.2353589,16
1660298687.15984,14785.2353717,60
1660298687.15984,14785.2353753,25
1660298687.15984,14785.2353795,35
1660298687.15984,14785.2353822,63
1660298687.15984,14785.2353849,58
1660298687.15984,14785.2353876,65
1660298687.15984,14785.2353902,84
1660298687.15984,14785.2353929,91
1660298687.15984,14785.2353954,100
1660298687.15984,14785.2353979,112
1660298687.15984,14785.2354008,119
1660298687.15984,14785.2354044,135
1660298687.15984,14785.2354107,154
1660298687.15984,14785.2354171,172
1660298687.15984,14785.235421,198
1660298687.15984,14785.2354246,226
1660298687.15984,14785.2354284,249
1660298687.63124,14785.2354307,268
1660298687.63124,14785.2354354,280
1660298687.63124,14785.235444,277
1660298687.63124,14785.2354522,263
1660298687.63124,14785.235458,221
1660298687.63124,14785.2354601,128
1660298687.63124,14785.2354652,44
1660298687.63124,14785.2354754,4
1660298687.63124,14785.2354867,-30
1660298687.63124,14785.2354942,-58
1660298687.63124,14785.2355072,-63
1660298687.63124,14785.2355172,-77
1660298687.63124,14785.2355274,-91
1660298687.63124,14785.2355346,-74
1660298687.63124,14785.2355409,-53
1660298687.63124,14785.2355537,-46
1660298687.63124,14785.2355654,-39
1660298687.63124,14785.2355711,-37
1660298687.63124,14785.2355745,-39
1660298687.63124,14785.2355767,-28
1660298687.63124,14785.2355789,-9
1660298687.63124,14785.2355852,-4
1660298687.63124,14785.2355964,2
1660298687.63124,14785.2356018,14
1660298687.63124,14785.2356039,16
1660298687.63124,14785.2356072,21
1660298687.63124,14785.2356094,32
1660298687.63124,14785.2356165,42
1660298687.63124,14785.2356275,53
1660298687.63124,14785.2356309,56
1660298687.63124,14785.2356338,51
1660298687.63124,14785.2356366,53
1660298687.63124,14785.2356395,60
1660298687.63124,14785.2356424,67
1660298687.63124,14785.2356453,70
1660298687.63124,14785.2356482,70
1660298687.63124,14785.2356625,67
1660298687.63124,14785.2356732,63
1660298687.63124,14785.23568,65
1660298687.63124,14785.2356872,77
1660298687.63124,14785.2356924,100
1660298687.63124,14785.2356967,128
1660298687.63124,14785.235703,126
1660298687.63124,14785.2357078,95
1660298687.63124,14785.2357147,88
1660298687.63124,14785.2357199,95
1660298687.63124,14785.2357272,84
1660298687.63124,14785.2357333,79
1660298687.63124,14785.2357454,88
1660298687.63124,14785.2357541,88
1660298687.6462,14785.2357659,84
1660298687.6462,14785.2357816,91
1660298687.6462,14785.2357957,93
1660298687.6462,14785.2358093,86
1660298687.6462,14785.235823,53
1660298687.6462,14785.7240409,42
1660298687.6462,14785.7240624,240
1660298687.6462,14785.7240718,721
1660298687.6462,14785.7240745,1130
1660298687.6462,14785.7240766,1013
1660298687.6462,14785.7240787,333
1660298687.6462,14785.7240807,-177
1660298687.6462,14785.7240827,-53
1660298687.6462,14785.7240847,105
1660298687.6462,14785.7240868,-16
1660298687.6462,14785.7240889,-44
1660298687.6462,14785.7240909,25
1660298687.6462,14785.7240938,16
1660298687.6462,14785.7241015,-2
1660298687.6462,14785.7241104,21
1660298687.6462,14785.7241168,32
1660298687.6462,14785.7241273,35
1660298687.6462,14785.7241327,49
1660298687.6462,14785.7241356,60
1660298688.06385,14785.7241458,72
1660298688.06385,14785.7241555,91
1660298688.06385,14785.7241652,102
1660298688.06385,14785.724171,121
1660298688.06385,14785.7241751,147
1660298688.06385,14785.7241803,170
1660298688.06385,14785.7241854,200
1660298688.06385,14785.7241901,231
1660298688.06385,14785.7241971,259
1660298688.06385,14785.7242081,287
1660298688.06385,14785.7242128,305
1660298688.06385,14785.7242238,305
1660298688.06385,14785.7242315,294
1660298688.06385,14785.7242382,249
1660298688.06385,14785.7242425,168
1660298688.06385,14785.7242475,91
1660298688.06385,14785.7242592,35
1660298688.06385,14785.7242696,-14
1660298688.06385,14785.7242729,-42
1660298688.06385,14785.7242789,-60
1660298688.06385,14785.7242892,-86
1660298688.06385,14785.7242938,-102
1660298688.06385,14785.7242993,-102
1660298688.06385,14785.724303,-93
1660298688.06385,14785.7243084,-79
1660298688.06385,14785.7243121,-70
1660298688.06385,14785.7243175,-67
1660298688.06385,14785.7243212,-60
1660298688.06385,14785.7243268,-44
1660298688.06385,14785.7243306,-23
1660298688.06385,14785.724336,-18
1660298688.06385,14785.7243399,-18
1660298688.06385,14785.7243451,-2
1660298688.06385,14785.724349,11
1660298688.06385,14785.7243544,4
1660298688.06385,14785.7243583,2
1660298688.06385,14785.7243636,14
1660298688.06385,14785.7243674,21
1660298688.06385,14785.7243727,16
1660298688.06385,14785.7243766,14
1660298688.06385,14785.7243817,28
1660298688.06385,14785.7243863,42
1660298688.06385,14785.7243917,42
1660298688.06385,14785.724395,37
1660298688.06385,14785.7243985,35
1660298688.06385,14785.7244018,32
1660298688.06385,14785.7244072,49
1660298688.06385,14785.7244115,65
1660298688.06385,14785.7244166,60
1660298688.06385,14785.7244223,58
1660298688.07981,14785.7244258,79
1660298688.07981,14785.7244293,81
1660298688.07981,14785.7244346,84
1660298688.07981,14785.724439,95
1660298688.07981,14786.1615037,77
1660298688.07981,14786.1615248,79
1660298688.07981,14786.1615323,107
1660298688.07981,14786.1615366,81
1660298688.07981,14786.1615407,46
1660298688.07981,14786.1615446,51
1660298688.07981,14786.1615484,60
1660298688.07981,14786.1615561,60
1660298688.07981,14786.1615605,65
1660298688.07981,14786.1615645,60
1660298688.07981,14786.1615684,51
1660298688.07981,14786.1615722,39
1660298688.07981,14786.161576,11
1660298688.07981,14786.1615801,23
1660298688.07981,14786.161584,249
1660298688.07981,14786.16159,714
1660298688.07981,14786.1615937,1072
1660298688.07981,14786.1615975,864
1660298688.07981,14786.1616011,149
1660298688.07981,14786.1616047,-252
1660298688.70183,14786.1616083,-51
1660298688.70183,14786.1616121,58
1660298688.70183,14786.1616156,-70
1660298688.70183,14786.1616191,-65
1660298688.70183,14786.161623,-4
1660298688.70183,14786.1616267,-21
1660298688.70183,14786.1616305,-28
1660298688.70183,14786.161634,-7
1660298688.70183,14786.1616375,7
1660298688.70183,14786.1616448,16
1660298688.70183,14786.1616482,11
1660298688.70183,14786.1616519,11
1660298688.70183,14786.1616556,28
1660298688.70183,14786.1616592,42
1660298688.70183,14786.1616631,60
1660298688.70183,14786.1616671,95
1660298688.70183,14786.1616708,119
1660298688.70183,14786.1616743,130
1660298688.70183,14786.1616779,161
1660298688.70183,14786.1616816,196
1660298688.70183,14786.1616854,217
1660298688.70183,14786.161689,228
1660298688.70183,14786.1616928,240
1660298688.70183,14786.1616971,249
1660298688.70183,14786.1617007,238
1660298688.70183,14786.1617044,205
1660298688.70183,14786.1617078,158
1660298688.70183,14786.161711,95
1660298688.70183,14786.1617155,35
1660298688.70183,14786.1617187,-4
1660298688.70183,14786.1617229,-37
1660298688.70183,14786.1617261,-67
1660298688.70183,14786.1617294,-65
1660298688.70183,14786.1617333,-46
1660298688.70183,14786.1617371,-46
1660298688.70183,14786.1617408,-49
1660298688.70183,14786.1617447,-46
1660298688.70183,14786.1617484,-42
1660298688.70183,14786.1617521,-30
1660298688.70183,14786.1617556,-18
1660298688.70183,14786.1617592,-7
1660298688.70183,14786.1617629,4
1660298688.70183,14786.1617664,14
1660298688.70183,14786.16177,23
1660298688.70183,14786.1617735,23
1660298688.70183,14786.1617769,14
1660298688.70183,14786.1617804,2
1660298688.70183,14786.161784,-4
1660298688.70183,14786.1617876,-2
1660298688.70183,14786.1617914,25
1660298688.71679,14786.1617951,37
1660298688.71679,14786.1617986,18
1660298688.71679,14786.1618024,18
1660298688.71679,14786.7958801,35
1660298688.71679,14786.7958969,30
1660298688.71679,14786.7959045,25
1660298688.71679,14786.7959089,28
1660298688.71679,14786.7959143,21
1660298688.71679,14786.7959182,21
1660298688.71679,14786.7959235,14
1660298688.71679,14786.7959275,2
1660298688.71679,14786.7959332,21
1660298688.71679,14786.7959369,25
1660298688.71679,14786.7959406,-11
1660298688.71679,14786.7959442,-11
1660298688.71679,14786.7959478,16
1660298688.71679,14786.7959514,4
1660298688.71679,14786.7959549,4
1660298688.71679,14786.7959583,35
1660298688.71679,14786.7959618,30
1660298688.71679,14786.7959653,16
1660298688.71679,14786.795969,28
1660298688.71679,14786.7959732,9
1660298688.71679,14786.7959784,-28
1660298689.23459,14786.7959823,-23
1660298689.23459,14786.7959859,-11
1660298689.23459,14786.7959895,-28
1660298689.23459,14786.7959942,-35
1660298689.23459,14786.7959979,-14
1660298689.23459,14786.7960015,2
1660298689.23459,14786.7960046,-9
1660298689.23459,14786.7960082,-35
1660298689.23459,14786.7960132,-23
1660298689.23459,14786.796018,168
1660298689.23459,14786.7960235,600
1660298689.23459,14786.7960282,985
1660298689.23459,14786.7960341,822
1660298689.23459,14786.7960395,128
1660298689.23459,14786.7960433,-256
1660298689.23459,14786.7960464,-32
1660298689.23459,14786.7960494,86
1660298689.23459,14786.7960523,-49
1660298689.23459,14786.7960552,-44
1660298689.23459,14786.7960581,28
1660298689.23459,14786.796061,21
1660298689.23459,14786.7960639,23
1660298689.23459,14786.7960669,49
1660298689.23459,14786.7960697,49
1660298689.23459,14786.7960725,46
1660298689.23459,14786.7960753,63
1660298689.23459,14786.7960781,81
1660298689.23459,14786.7960809,112
1660298689.23459,14786.7960837,140
1660298689.23459,14786.7960864,144
1660298689.23459,14786.7960893,144
1660298689.23459,14786.7960921,175
1660298689.23459,14786.7960949,207
1660298689.23459,14786.7960978,226
1660298689.23459,14786.7961008,256
1660298689.23459,14786.7961038,291
1660298689.23459,14786.7961066,282
1660298689.23459,14786.7961095,270
1660298689.23459,14786.7961123,289
1660298689.23459,14786.7961153,287
1660298689.23459,14786.7961184,261
1660298689.23459,14786.7961213,228
1660298689.23459,14786.7961242,177
1660298689.23459,14786.796127,109
1660298689.23459,14786.7961299,56
1660298689.23459,14786.7961328,23
1660298689.23459,14786.7961357,7
1660298689.23459,14786.7961387,-4
1660298689.23459,14786.7961415,-21
1660298689.23459,14786.7961445,-25
1660298689.24955,14786.7961473,-14
1660298689.24955,14786.7961503,-2
1660298689.24955,14787.3320917,7
1660298689.24955,14787.3321077,16
1660298689.24955,14787.3321282,23
1660298689.24955,14787.3321323,25
1660298689.24955,14787.332136,35
1660298689.24955,14787.3321398,49
1660298689.24955,14787.3321434,53
1660298689.24955,14787.3321468,53
1660298689.24955,14787.3321503,58
1660298689.24955,14787.3321538,56
1660298689.24955,14787.3321572,53
1660298689.24955,14787.3321606,58
1660298689.24955,14787.332164,65
1660298689.24955,14787.3321675,67
1660298689.24955,14787.3321709,67
1660298689.24955,14787.3321745,60
1660298689.24955,14787.332178,44
1660298689.24955,14787.3321814,35
1660298689.24955,14787.3321849,32
1660298689.24955,14787.3321883,16
1660298689.24955,14787.3321918,4
1660298689.24955,14787.3321952,18
1660298689.77456,14787.3321986,18
1660298689.77456,14787.3322022,-14
1660298689.77456,14787.3322057,-32
1660298689.77456,14787.3322091,-28
1660298689.77456,14787.3322126,-37
1660298689.77456,14787.332216,-56
1660298689.77456,14787.3322194,-51
1660298689.77456,14787.3322228,-28
1660298689.77456,14787.3322262,-9
1660298689.77456,14787.3322298,-4
1660298689.77456,14787.3322332,-14
1660298689.77456,14787.3322366,-18
1660298689.77456,14787.3322401,-18
1660298689.77456,14787.332244,-28
1660298689.77456,14787.3322479,-32
1660298689.77456,14787.3322514,-25
1660298689.77456,14787.3322548,-16
1660298689.77456,14787.3322583,-11
1660298689.77456,14787.3322618,0
1660298689.77456,14787.3322654,16
1660298689.77456,14787.332269,11
1660298689.77456,14787.3322724,-18
1660298689.77456,14787.3322758,-49
1660298689.77456,14787.3322793,63
1660298689.77456,14787.3322827,455
1660298689.77456,14787.3322863,945
1660298689.77456,14787.3322897,1053
1660298689.77456,14787.3322931,488
1660298689.77456,14787.3322965,-182
1660298689.77456,14787.3322999,-177
1660298689.77456,14787.3323034,84
1660298689.77456,14787.3323068,18
1660298689.77456,14787.3323102,-51
1660298689.77456,14787.3323136,18
1660298689.77456,14787.3323171,28
1660298689.77456,14787.3323205,16
1660298689.77456,14787.3323242,39
1660298689.77456,14787.3323278,46
1660298689.77456,14787.3323314,51
1660298689.77456,14787.3323362,70
1660298689.77456,14787.3323397,79
1660298689.77456,14787.3323453,88
1660298689.77456,14787.3323489,112
1660298689.77456,14787.3323531,140
1660298689.77456,14787.3323584,158
1660298689.77456,14787.3323619,172
1660298689.77456,14787.3323655,193
1660298689.77456,14787.3323707,228
1660298689.77456,14787.3323741,263
1660298689.77456,14787.3323777,284
1660298689.79052,14787.3323828,308
1660298689.79052,14787.8689555,324
1660298689.79052,14787.8689755,317
1660298689.79052,14787.8689892,301
1660298689.79052,14787.8690026,291
1660298689.79052,14787.8690158,263
1660298689.79052,14787.8690245,207
1660298689.79052,14787.8690269,140
1660298689.79052,14787.869033,79
1660298689.79052,14787.8690437,39
1660298689.79052,14787.8690498,25
1660298689.79052,14787.8690534,21
1660298689.79052,14787.8690602,11
1660298689.79052,14787.8690636,2
1660298689.79052,14787.8690693,-9
1660298689.79052,14787.8690732,-35
1660298689.79052,14787.8690775,-44
1660298689.79052,14787.8690813,-35
1660298689.79052,14787.8690851,-32
1660298689.79052,14787.8690906,-25
1660298689.79052,14787.869094,-28
1660298689.79052,14787.8690976,-51
1660298689.79052,14787.8691038,-44
1660298689.79052,14787.8691076,-11
1660298690.30489,14787.8691111,4
1660298690.30489,14787.8691146,25
1660298690.30489,14787.869118,46
1660298690.30489,14787.8691215,35
1660298690.30489,14787.869125,4
1660298690.30489,14787.8691285,-2
1660298690.30489,14787.8691326,7
1660298690.30489,14787.8691362,11
1660298690.30489,14787.8691397,18
1660298690.30489,14787.8691432,18
1660298690.30489,14787.8691468,11
1660298690.30489,14787.8691503,14
1660298690.30489,14787.8691537,14
1660298690.30489,14787.8691572,7
1660298690.30489,14787.8691608,2
1660298690.30489,14787.8691643,-9
1660298690.30489,14787.8691677,-16
1660298690.30489,14787.8691712,4
1660298690.30489,14787.8691746,35
1660298690.30489,14787.8691781,23
1660298690.30489,14787.8691816,-9
1660298690.30489,14787.8691852,-14
1660298690.30489,14787.8691887,-4
1660298690.30489,14787.8691922,-14
1660298690.30489,14787.8691957,-23
1660298690.30489,14787.8691992,-18
1660298690.30489,14787.8692027,-16
1660298690.30489,14787.8692061,-21
1660298690.30489,14787.8692095,-14
1660298690.30489,14787.8692132,0
1660298690.30489,14787.8692167,0
1660298690.30489,14787.8692202,-21
1660298690.30489,14787.8692237,-56
1660298690.30489,14787.8692272,-14
1660298690.30489,14787.8692307,282
1660298690.30489,14787.8692343,789
1660298690.30489,14787.8692377,1095
1660298690.30489,14787.8692412,731
1660298690.30489,14787.8692446,-53
1660298690.30489,14787.8692481,-280
1660298690.30489,14787.8692518,51
1660298690.30489,14787.8692552,100
1660298690.30489,14787.8692586,-39
1660298690.30489,14787.8692625,21
1660298690.30489,14787.8692659,77
1660298690.30489,14787.8692694,37
1660298690.30489,14787.8692728,51
1660298690.30489,14787.8692763,88
1660298690.30489,14787.8692797,86
1660298690.30489,14787.8692832,91
1660298690.31976,14788.4050543,107
1660298690.31976,14788.4050774,119
1660298690.31976,14788.4050872,137
1660298690.31976,14788.4050906,151
1660298690.31976,14788.4050968,165
1660298690.31976,14788.4051038,189
1660298690.31976,14788.4051092,212
1660298690.31976,14788.405112,235
1660298690.31976,14788.4051147,261
1660298690.31976,14788.4051173,282
1660298690.31976,14788.40512,291
1660298690.31976,14788.4051227,296
1660298690.31976,14788.4051254,294
1660298690.31976,14788.4051284,287
1660298690.31976,14788.4051309,280
1660298690.31976,14788.4051335,252
1660298690.31976,14788.405136,186
1660298690.31976,14788.4051388,102
1660298690.31976,14788.4051416,39
1660298690.31976,14788.4051443,9
1660298690.31976,14788.4051469,-16
1660298690.31976,14788.4051496,-32
1660298690.31976,14788.4051522,-44
1660298690.31976,14788.405155,-58
1660298690.89533,14788.4051577,-63
1660298690.89533,14788.4051604,-49
1660298690.89533,14788.405163,-37
1660298690.89533,14788.4051657,-32
1660298690.89533,14788.4051683,-16
1660298690.89533,14788.4051709,-4
1660298690.89533,14788.4051735,-2
1660298690.89533,14788.4051761,4
1660298690.89533,14788.4051787,16
1660298690.89533,14788.4051814,16
1660298690.89533,14788.4051841,11
1660298690.89533,14788.4051876,4
1660298690.89533,14788.4051914,2
1660298690.89533,14788.4051956,14
1660298690.89533,14788.4052022,21
1660298690.89533,14788.4052089,11
1660298690.89533,14788.4052156,7
1660298690.89533,14788.4052224,18
1660298690.89533,14788.4052287,21
1660298690.89533,14788.4052326,11
1660298690.89533,14788.4052357,7
1660298690.89533,14788.4052391,4
1660298690.89533,14788.4052426,2
1660298690.89533,14788.4052479,-4
1660298690.89533,14788.4052546,-4
1660298690.89533,14788.4052634,2
1660298690.89533,14788.4052728,11
1660298690.89533,14788.4052838,42
1660298690.89533,14788.4052922,60
1660298690.89533,14788.405295,39
1660298690.89533,14788.4052971,16
1660298690.89533,14788.4052992,11
1660298690.89533,14788.4053066,4
1660298690.89533,14788.4053179,2
1660298690.89533,14788.4053212,9
1660298690.89533,14788.4053241,14
1660298690.89533,14788.405327,11
1660298690.89533,14788.405334,18
1660298690.89533,14788.4053471,23
1660298690.89533,14788.4053545,18
1660298690.89533,14788.4053614,11
1660298690.89533,14788.4053652,-2
1660298690.89533,14788.4053686,63
1660298690.89533,14788.4053722,364
1660298690.89533,14788.4053761,838
1660298690.89533,14788.4053811,1067
1660298690.89533,14788.4053857,649
1660298690.89533,14788.4053926,-65
1660298690.89533,14788.4053994,-212
1660298690.89533,14788.9889486,70
1660298690.90929,14788.9889669,70
1660298690.90929,14788.988971,-39
1660298690.90929,14788.9889743,28
1660298690.90929,14788.9889776,67
1660298690.90929,14788.9889807,30
1660298690.90929,14788.9889839,32
1660298690.90929,14788.9889871,35
1660298690.90929,14788.9889907,23
1660298690.90929,14788.9889955,44
1660298690.90929,14788.9889988,72
1660298690.90929,14788.9890093,77
1660298690.90929,14788.9890144,98
1660298690.90929,14788.9890165,105
1660298690.90929,14788.9890197,86
1660298690.90929,14788.9890261,105
1660298690.90929,14788.9890366,156
1660298690.90929,14788.9890434,179
1660298690.90929,14788.9890494,198
1660298690.90929,14788.9890554,228
1660298690.90929,14788.9890587,242
1660298690.90929,14788.9890708,245
1660298690.90929,14788.989083,247
1660298690.90929,14788.9890946,242
1660298690.90929,14788.9891073,233
1660298691.47643,14788.9891136,207
1660298691.47643,14788.9891173,154
1660298691.47643,14788.9891258,79
1660298691.47643,14788.989136,18
1660298691.47643,14788.9891425,-16
1660298691.47643,14788.9891515,-49
1660298691.47643,14788.989158,-77
1660298691.47643,14788.9891652,-81
1660298691.47643,14788.9891715,-70
1660298691.47643,14788.9891839,-60
1660298691.47643,14788.9891946,-58
1660298691.47643,14788.9892024,-63
1660298691.47643,14788.989208,-51
1660298691.47643,14788.9892184,-37
1660298691.47643,14788.9892218,-37
1660298691.47643,14788.9892247,-39
1660298691.47643,14788.9892276,-18
1660298691.47643,14788.9892305,9
1660298691.47643,14788.9892365,23
1660298691.47643,14788.9892461,18
1660298691.47643,14788.9892502,18
1660298691.47643,14788.9892536,37
1660298691.47643,14788.9892592,44
1660298691.47643,14788.9892626,32
1660298691.47643,14788.9892677,28
1660298691.47643,14788.9892713,32
1660298691.47643,14788.9892747,32
1660298691.47643,14788.9892798,30
1660298691.47643,14788.9892849,25
1660298691.47643,14788.9892884,30
1660298691.47643,14788.9892937,30
1660298691.47643,14788.9893001,16
1660298691.47643,14788.9893046,7
1660298691.47643,14788.9893112,25
1660298691.47643,14788.9893186,58
1660298691.47643,14788.9893231,56
1660298691.47643,14788.9893295,28
1660298691.47643,14788.989335,16
1660298691.47643,14788.9893387,7
1660298691.47643,14788.9893441,-18
1660298691.47643,14788.9893478,-28
1660298691.47643,14788.9893529,-18
1660298691.47643,14788.9893566,-18
1660298691.47643,14788.9893618,-21
1660298691.47643,14788.9893654,-9
1660298691.47643,14788.9893691,-7
1660298691.47643,14788.9893726,-21
1660298691.47643,14788.9893762,-35
1660298691.47643,14789.5741467,-37
1660298691.47643,14789.5741636,63
1660298691.49139,14789.5741718,406
1660298691.49139,14789.5741787,843
1660298691.49139,14789.5741857,955
1660298691.49139,14789.5741912,441
1660298691.49139,14789.5742001,-200
1660298691.49139,14789.5742074,-189
1660298691.49139,14789.5742188,93
1660298691.49139,14789.5742293,25
1660298691.49139,14789.574237,-74
1660298691.49139,14789.5742436,14
1660298691.49139,14789.5742546,42
1660298691.49139,14789.5742679,-2
1660298691.49139,14789.5742787,18
1660298691.49139,14789.5742881,44
1660298691.49139,14789.5742977,14
1660298691.49139,14789.5743104,-7
1660298691.49139,14789.5743231,35
1660298691.49139,14789.5743332,72
1660298691.49139,14789.5743438,70
1660298691.49139,14789.5743527,65
1660298691.49139,14789.5743628,67
1660298691.49139,14789.5743737,81
1660298691.49139,14789.5743848,119
1660298691.49139,14789.5743897,151
1660298692.20668,14789.5743926,172
1660298692.20668,14789.5743997,210
1660298692.20668,14789.5744102,240
1660298692.20668,14789.5744203,242
1660298692.20668,14789.5744261,247
1660298692.20668,14789.5744302,249
1660298692.20668,14789.5744359,221
1660298692.20668,14789.5744408,193
1660298692.20668,14789.5744461,151
1660298692.20668,14789.5744546,88
1660298692.20668,14789.5744615,25
1660298692.20668,14789.5744713,-16
1660298692.20668,14789.5744784,-16
1660298692.20668,14789.5744902,-14
1660298692.20668,14789.5745025,-30
1660298692.20668,14789.5745135,-32
1660298692.20668,14789.5745226,-23
1660298692.20668,14789.5745282,-18
1660298692.20668,14789.5745348,-9
1660298692.20668,14789.5745482,-2
1660298692.20668,14789.5745608,7
1660298692.20668,14789.5745708,25
1660298692.20668,14789.5745781,30
1660298692.20668,14789.5745878,23
1660298692.20668,14789.5745928,39
1660298692.20668,14789.5746026,63
1660298692.20668,14789.5746094,53
1660298692.20668,14789.5746241,46
1660298692.20668,14789.5746376,53
1660298692.20668,14789.5746505,46
1660298692.20668,14789.5746638,51
1660298692.20668,14789.5746767,77
1660298692.20668,14789.5746894,74
1660298692.20668,14789.5746997,58
1660298692.20668,14789.5747087,72
1660298692.20668,14789.574721,81
1660298692.20668,14789.5747316,67
1660298692.20668,14789.5747386,60
1660298692.20668,14789.5747509,81
1660298692.20668,14789.5747611,102
1660298692.20668,14789.5747681,98
1660298692.20668,14789.5747807,84
1660298692.20668,14789.5747911,81
1660298692.20668,14789.5747977,70
1660298692.20668,14789.5748099,46
1660298692.20668,14789.5748203,28
1660298692.20668,14789.574833,28
1660298692.20668,14790.3057092,37
1660298692.20668,14790.3057225,39
1660298692.20668,14790.3057256,37
1660298692.21965,14790.3057282,35
1660298692.21965,14790.3057305,21
1660298692.21965,14790.3057328,-9
1660298692.21965,14790.305735,-2
1660298692.21965,14790.3057373,203
1660298692.21965,14790.3057395,632
1660298692.21965,14790.3057417,952
1660298692.21965,14790.3057438,710
1660298692.21965,14790.3057461,18
1660298692.21965,14790.3057488,-280
1660298692.21965,14790.3057543,-25
1660298692.21965,14790.3057637,53
1660298692.21965,14790.3057677,-72
1660298692.21965,14790.3057741,-30
1660298692.21965,14790.3057845,35
1660298692.21965,14790.3057904,7
1660298692.21965,14790.3057926,-2
1660298692.21965,14790.3057954,7
1660298692.21965,14790.3057975,9
1660298692.21965,14790.3057995,16
1660298692.21965,14790.3058015,32
1660298692.21965,14790.3058036,60
1660298692.21965,14790.3058056,74
1660298692.21965,14790.3058075,67
1660298692.59926,14790.3058096,81
1660298692.59926,14790.3058115,126

1660298692.59926,14790.3058134,158
1660298692.59926,14790.3058153,182
1660298692.59926,14790.3058173,214
1660298692.59926,14790.3058191,238
1660298692.59926,14790.305821,252
1660298692.59926,14790.3058232,266
1660298692.59926,14790.3058294,284
1660298692.59926,14790.3058361,294
1660298692.59926,14790.3058403,268
1660298692.59926,14790.3058442,235
1660298692.59926,14790.3058521,198
1660298692.59926,14790.3058566,128
1660298692.59926,14790.3058672,65
1660298692.59926,14790.3058734,35
1660298692.59926,14790.3058757,14
1660298692.59926,14790.3058777,-9
1660298692.59926,14790.3058798,-9
1660298692.59926,14790.3058819,14
1660298692.59926,14790.305884,4
1660298692.59926,14790.3058859,-23
1660298692.59926,14790.3058879,-9
1660298692.59926,14790.3058899,18
1660298692.59926,14790.3058919,11
1660298692.59926,14790.3058939,4
1660298692.59926,14790.3058967,18
1660298692.59926,14790.3058988,25
1660298692.59926,14790.3059009,28
1660298692.59926,14790.3059029,28
1660298692.59926,14790.3059049,28
1660298692.59926,14790.3059069,58
1660298692.59926,14790.3059089,72
1660298692.59926,14790.305911,51
1660298692.59926,14790.305913,51
1660298692.59926,14790.305915,56
1660298692.59926,14790.3059171,28
1660298692.59926,14790.3059193,0
1660298692.59926,14790.3059212,18
1660298692.59926,14790.3059232,72
1660298692.59926,14790.3059252,60
1660298692.59926,14790.3059273,11
1660298692.59926,14790.3059296,53
1660298692.59926,14790.3059316,70
1660298692.59926,14790.3059336,-14
1660298692.59926,14790.3059357,-11
1660298692.59926,14790.6964455,63
1660298692.59926,14790.6964711,37
1660298692.59926,14790.6964768,-30
1660298692.59926,14790.6964815,-28
1660298692.61323,14790.6964862,-25
1660298692.61323,14790.6964909,-70
1660298692.61323,14790.6964957,-65
1660298692.61323,14790.6965024,-44
1660298692.61323,14790.6965071,-88
1660298692.61323,14790.6965117,-109
1660298692.61323,14790.6965163,-114
1660298692.61323,14790.696521,-121
1660298692.61323,14790.6965257,65
1660298692.61323,14790.6965303,460
1660298692.61323,14790.6965363,696
1660298692.61323,14790.6965426,392
1660298692.61323,14790.6965485,-233
1660298692.61323,14790.6965545,-439
1660298692.61323,14790.6965589,-196
1660298692.61323,14790.6965645,-135
1660298692.61323,14790.6965704,-221
1660298692.61323,14790.6965763,-179
1660298692.61323,14790.6965812,-140
1660298692.61323,14790.6965873,-163
1660298692.61323,14790.6965933,-151
1660298692.61323,14790.6965994,-116
1660298692.61323,14790.6966041,-100
1660298692.61323,14790.6966099,-107
1660298693.13109,14790.6966139,-91
1660298693.13109,14790.696618,-35
1660298693.13109,14790.6966223,-7
1660298693.13109,14790.6966261,-23
1660298693.13109,14790.6966299,-4
1660298693.13109,14790.6966338,49
1660298693.13109,14790.6966376,79
1660298693.13109,14790.6966416,98
1660298693.13109,14790.6966465,135
1660298693.13109,14790.6966511,170
1660298693.13109,14790.6966557,179
1660298693.13109,14790.6966603,191
1660298693.13109,14790.6967139,207
1660298693.13109,14790.6967211,196
1660298693.13109,14790.6967255,179
1660298693.13109,14790.6967304,161
1660298693.13109,14790.6967368,105
1660298693.13109,14790.6967424,44
1660298693.13109,14790.696748,28
1660298693.13109,14790.6967537,23
1660298693.13109,14790.696759,-14
1660298693.13109,14790.6967634,-51
1660298693.13109,14790.6967699,-60
1660298693.13109,14790.6967754,-58
1660298693.13109,14790.6967814,-46
1660298693.13109,14790.6967869,-28
1660298693.13109,14790.6968816,-11
1660298693.13109,14790.6968942,2
1660298693.13109,14790.6968995,2
1660298693.13109,14790.6969033,-9
1660298693.13109,14790.696907,-2
1660298693.13109,14790.6969104,28
1660298693.13109,14790.6969139,46
1660298693.13109,14790.6969173,42
1660298693.13109,14790.6969207,37
1660298693.13109,14790.6969241,44
1660298693.13109,14790.696928,63
1660298693.13109,14790.6969314,86
1660298693.13109,14790.6969347,95
1660298693.13109,14790.6969382,74
1660298693.13109,14790.6969416,44
1660298693.13109,14790.6969451,37
1660298693.13109,14790.6969484,44
1660298693.13109,14790.6969519,30
1660298693.13109,14790.6969551,25
1660298693.13109,14791.2320829,32
1660298693.13109,14791.2320975,21
1660298693.13109,14791.2321014,37
1660298693.13109,14791.2321046,81
1660298693.13109,14791.2321076,95
1660298693.15003,14791.2321103,84
1660298693.15003,14791.2321133,63
1660298693.15003,14791.2321161,46
1660298693.15003,14791.2321204,51
1660298693.15003,14791.2321236,58
1660298693.15003,14791.2321277,58
1660298693.15003,14791.2321319,51
1660298693.15003,14791.2321451,35
1660298693.15003,14791.2321558,4
1660298693.15003,14791.2321593,-11
1660298693.15003,14791.2321632,21
1660298693.15003,14791.2321659,30
1660298693.15003,14791.2321756,-7
1660298693.15003,14791.2321841,-11
1660298693.15003,14791.2321923,32
1660298693.15003,14791.2321955,235
1660298693.15003,14791.2322061,642
1660298693.15003,14791.2322134,868
1660298693.15003,14791.2322157,490
1660298693.15003,14791.2322179,-151
1660298693.15003,14791.23222,-261
1660298693.15003,14791.232225,4
1660298693.15003,14791.2322362,21
1660298693.15003,14791.2322468,-88
1660298693.66565,14791.2322532,-65
1660298693.66565,14791.2322633,-28
1660298693.66565,14791.2322717,-35
1660298693.66565,14791.232279,-32
1660298693.66565,14791.2322862,-16
1660298693.66565,14791.2322914,2
1660298693.66565,14791.2322961,14
1660298693.66565,14791.2323015,16
1660298693.66565,14791.2323046,23
1660298693.66565,14791.2323127,35
1660298693.66565,14791.2323209,53
1660298693.66565,14791.2323277,77
1660298693.66565,14791.2323325,109
1660298693.66565,14791.2323371,158
1660298693.66565,14791.2323419,177
1660298693.66565,14791.2323482,175
1660298693.66565,14791.2323512,210
1660298693.66565,14791.2323541,247
1660298693.66565,14791.2323571,254
1660298693.66565,14791.23236,261
1660298693.66565,14791.2323628,268
1660298693.66565,14791.2323657,235
1660298693.66565,14791.2323685,184
1660298693.66565,14791.2323713,147
1660298693.66565,14791.2323741,123
1660298693.66565,14791.2323769,88
1660298693.66565,14791.2323798,35
1660298693.66565,14791.2323827,-14
1660298693.66565,14791.2323855,-44
1660298693.66565,14791.2323884,-49
1660298693.66565,14791.2323912,-28
1660298693.66565,14791.2323941,-23
1660298693.66565,14791.2323969,-37
1660298693.66565,14791.2323997,-30
1660298693.66565,14791.2324026,-23
1660298693.66565,14791.2324054,-37
1660298693.66565,14791.2324082,-28
1660298693.66565,14791.232411,-7
1660298693.66565,14791.2324139,-4
1660298693.66565,14791.2324201,-4
1660298693.66565,14791.2324281,-11
1660298693.66565,14791.2324345,-7
1660298693.66565,14791.2324435,18
1660298693.66565,14791.2324483,16
1660298693.66565,14791.7679934,28
1660298693.66565,14791.7680087,53
1660298693.66565,14791.7680145,49
1660298693.66565,14791.7680195,42
1660298693.66565,14791.768027,42
1660298693.66565,14791.7680339,35
1660298693.68564,14791.7680394,30
1660298693.68564,14791.7680462,37
1660298693.68564,14791.7680574,46
1660298693.68564,14791.7680716,39
1660298693.68564,14791.7680858,23
1660298693.68564,14791.7680992,32
1660298693.68564,14791.7681126,35
1660298693.68564,14791.7681286,4
1660298693.68564,14791.7681357,9
1660298693.68564,14791.7681382,56
1660298693.68564,14791.7681403,65
1660298693.68564,14791.7681431,39
1660298693.68564,14791.7681537,25
1660298693.68564,14791.768161,23
1660298693.68564,14791.7681633,9
1660298693.68564,14791.7681654,0
1660298693.68564,14791.7681674,9
1660298693.68564,14791.7681715,11
1660298693.68564,14791.7681735,4
1660298693.68564,14791.7681758,11
1660298693.68564,14791.7682022,23
1660298693.68564,14791.7682132,28
1660298693.68564,14791.7682205,32
1660298693.68564,14791.7682257,11
1660298694.26252,14791.7682306,-2
1660298694.26252,14791.7682393,147
1660298694.26252,14791.7682435,516
1660298694.26252,14791.7682456,910
1660298694.26252,14791.7682476,922
1660298694.26252,14791.7682495,301
1660298694.26252,14791.7682523,-294
1660298694.26252,14791.7682609,-161
1660298694.26252,14791.7682661,116
1660298694.26252,14791.768271,32
1660298694.26252,14791.7682751,-28
1660298694.26252,14791.7682831,46
1660298694.26252,14791.7682906,39
1660298694.26252,14791.7682978,4
1660298694.26252,14791.7683001,42
1660298694.26252,14791.7683021,58
1660298694.26252,14791.768307,30
1660298694.26252,14791.7683183,49
1660298694.26252,14791.7683236,91
1660298694.26252,14791.7683365,88
1660298694.26252,14791.7683424,88
1660298694.26252,14791.7683457,121
1660298694.26252,14791.7683478,137
1660298694.26252,14791.7683535,147
1660298694.26252,14791.7683644,161
1660298694.26252,14791.7683697,175
1660298694.26252,14791.7683718,205
1660298694.26252,14791.7683738,245
1660298694.26252,14791.7683765,261
1660298694.26252,14791.7683865,259
1660298694.26252,14791.7683944,268
1660298694.26252,14791.7683969,280
1660298694.26252,14791.7683991,245
1660298694.26252,14791.7684011,184
1660298694.26252,14791.7684087,133
1660298694.26252,14791.7684191,72
1660298694.26252,14791.7684225,9
1660298694.26252,14791.7684263,-25
1660298694.26252,14791.7684313,-37
1660298694.26252,14791.7684425,-42
1660298694.26252,14791.7684477,-46
1660298694.26252,14791.7684499,-44
1660298694.26252,14791.768452,-18
1660298694.26252,14792.3534796,2
1660298694.26252,14792.353501,-4
1660298694.26252,14792.3535156,-9
1660298694.26252,14792.3535267,2
1660298694.26252,14792.3535366,9
1660298694.26252,14792.3535451,9
1660298694.26252,14792.3535561,7
1660298694.27461,14792.3535677,2
1660298694.27461,14792.353577,-7
1660298694.27461,14792.3535875,-11
1660298694.27461,14792.3535994,2
1660298694.27461,14792.3536087,16
1660298694.27461,14792.3536198,0
1660298694.27461,14792.3536312,-23
1660298694.27461,14792.3536428,-11
1660298694.27461,14792.3536544,16
1660298694.27461,14792.3536634,18
1660298694.27461,14792.3537116,4
1660298694.27461,14792.3537192,2
1660298694.27461,14792.3537217,11
1660298694.27461,14792.353724,9
1660298694.27461,14792.353726,4
1660298694.27461,14792.3537281,23
1660298694.27461,14792.3537301,39
1660298694.27461,14792.3537321,49
1660298694.27461,14792.3537341,60
1660298694.27461,14792.3537361,53
1660298694.27461,14792.3537382,49
1660298694.27461,14792.3537402,60
1660298694.27461,14792.3537422,51
1660298694.27461,14792.3537478,44
1660298694.79807,14792.3537552,51
1660298694.79807,14792.3537601,49
1660298694.79807,14792.3537653,46
1660298694.79807,14792.3537706,65
1660298694.79807,14792.3537754,79
1660298694.79807,14792.35378,60
1660298694.79807,14792.3537847,56
1660298694.79807,14792.353789,67
1660298694.79807,14792.3537975,37
1660298694.79807,14792.3538038,151
1660298694.79807,14792.3538088,560
1660298694.79807,14792.3538158,987
1660298694.79807,14792.3538218,966
1660298694.79807,14792.353833,345
1660298694.79807,14792.3538453,-207
1660298694.79807,14792.3538583,-93
1660298694.79807,14792.3538679,114
1660298694.79807,14792.3538748,0
1660298694.79807,14792.35388,-30
1660298694.79807,14792.3538843,39
1660298694.79807,14792.3538886,7
1660298694.79807,14792.3538931,-11
1660298694.79807,14792.3538976,25
1660298694.79807,14792.3539021,28
1660298694.79807,14792.3539081,21
1660298694.79807,14792.3539152,42
1660298694.79807,14792.3539198,49
1660298694.79807,14792.3539263,49
1660298694.79807,14792.3539324,84
1660298694.79807,14792.3539373,128
1660298694.79807,14792.3539438,137
1660298694.79807,14792.3539482,149
1660298694.79807,14792.3539566,189
1660298694.79807,14792.3539615,210
1660298694.79807,14792.3539661,221
1660298694.79807,14792.3539733,256
1660298694.79807,14792.3539782,296
1660298694.79807,14792.3539849,319
1660298694.79807,14792.3539905,324
1660298694.79807,14792.3539972,303
1660298694.79807,14792.3540034,254
1660298694.79807,14792.3540083,196
1660298694.79807,14792.8901461,140
1660298694.79807,14792.8901671,67
1660298694.79807,14792.8901782,9
1660298694.79807,14792.8901878,-4
1660298694.79807,14792.8901997,-30
1660298694.79807,14792.8902113,-58
1660298694.79807,14792.8902166,-44
1660298694.79807,14792.8902187,-11
1660298694.81003,14792.8902219,-4
1660298694.81003,14792.890224,-16
1660298694.81003,14792.890226,-37
1660298694.81003,14792.890228,-35
1660298694.81003,14792.8902334,-7
1660298694.81003,14792.8902448,-7
1660298694.81003,14792.8902502,-9
1660298694.81003,14792.8902536,14
1660298694.81003,14792.8902557,4
1660298694.81003,14792.8902635,-21
1660298694.81003,14792.890274,2
1660298694.81003,14792.8902783,25
1660298694.81003,14792.8902804,9
1660298694.81003,14792.8902824,4
1660298694.81003,14792.8902845,25
1660298694.81003,14792.8902866,28
1660298694.81003,14792.8902887,21
1660298694.81003,14792.8902944,28
1660298694.81003,14792.8903056,51
1660298694.81003,14792.890311,56
1660298694.81003,14792.8903132,42
1660298694.81003,14792.8903163,30
1660298694.81003,14792.8903183,32
1660298694.81003,14792.8903203,42
1660298695.37203,14792.8903223,56
1660298695.37203,14792.8903309,58
1660298695.37203,14792.890338,37
1660298695.37203,14792.8903404,32
1660298695.37203,14792.8903432,53
1660298695.37203,14792.8903544,72
1660298695.37203,14792.8903622,70
1660298695.37203,14792.8903645,60
1660298695.37203,14792.8903666,53
1660298695.37203,14792.8903686,70
1660298695.37203,14792.8903707,95
1660298695.37203,14792.8903726,84
1660298695.37203,14792.8903746,60
1660298695.37203,14792.8903766,60
1660298695.37203,14792.8903786,70
1660298695.37203,14792.8903805,77
1660298695.37203,14792.8903825,81
1660298695.37203,14792.8903845,77
1660298695.37203,14792.8903865,63
1660298695.37203,14792.8903885,60
1660298695.37203,14792.8903904,63
1660298695.37203,14792.8903924,65
1660298695.37203,14792.8903944,60
1660298695.37203,14792.8903963,25
1660298695.37203,14792.8903984,18
1660298695.37203,14792.8904003,196
1660298695.37203,14792.8904024,588
1660298695.37203,14792.8904043,917
1660298695.37203,14792.8904063,812
1660298695.37203,14792.8904083,235
1660298695.37203,14792.8904103,-184
1660298695.37203,14792.8904124,-46
1660298695.37203,14792.8904144,86
1660298695.37203,14792.8904163,-28
1660298695.37203,14792.8904184,-32
1660298695.37203,14792.8904203,37
1660298695.37203,14792.8904223,14
1660298695.37203,14792.8904243,-4
1660298695.37203,14792.8904263,46
1660298695.37203,14792.8904283,84
1660298695.37203,14792.8904303,72
1660298695.37203,14793.4745395,60
1660298695.37203,14793.4745823,72
1660298695.37203,14793.4745961,91
1660298695.37203,14793.4746025,109
1660298695.37203,14793.4746059,123
1660298695.37203,14793.4746093,142
1660298695.37203,14793.4746142,170
1660298695.37203,14793.4746177,189
1660298695.37203,14793.4746228,196
1660298695.39233,14793.4746261,219
1660298695.39233,14793.4746294,252
1660298695.39233,14793.4746327,277
1660298695.39233,14793.474636,289
1660298695.39233,14793.4746392,275
1660298695.39233,14793.4746424,259
1660298695.39233,14793.4746456,238
1660298695.39233,14793.4746487,184
1660298695.39233,14793.4746517,123
1660298695.39233,14793.4746551,81
1660298695.39233,14793.4746584,28
1660298695.39233,14793.4746628,-30
1660298695.39233,14793.4746676,-46
1660298695.39233,14793.474674,-46
1660298695.39233,14793.4746807,-58
1660298695.39233,14793.47469,-53
1660298695.39233,14793.4746965,-44
1660298695.39233,14793.4747033,-56
1660298695.39233,14793.4747101,-58
1660298695.39233,14793.474715,-32
1660298695.39233,14793.4747228,-16
1660298695.39233,14793.4747317,-21
1660298695.39233,14793.4747377,2
1660298695.39233,14793.474744,21
1660298695.95741,14793.4747506,-9
1660298695.95741,14793.4747542,-21
1660298695.95741,14793.4747591,16
1660298695.95741,14793.4747635,18
1660298695.95741,14793.4747667,-11
1660298695.95741,14793.4747713,7
1660298695.95741,14793.4747758,49
1660298695.95741,14793.4747798,46
1660298695.95741,14793.4747847,30
1660298695.95741,14793.4747885,32
1660298695.95741,14793.4747916,46
1660298695.95741,14793.4747949,51
1660298695.95741,14793.4747981,49
1660298695.95741,14793.4748022,51
1660298695.95741,14793.4748061,60
1660298695.95741,14793.4748112,58
1660298695.95741,14793.4748166,53
1660298695.95741,14793.4748211,67
1660298695.95741,14793.4748264,77
1660298695.95741,14793.4748316,74
1660298695.95741,14793.4748354,79
1660298695.95741,14793.4748388,79
1660298695.95741,14793.4748441,65
1660298695.95741,14793.4748487,49
1660298695.95741,14793.4748547,37
1660298695.95741,14793.4748589,44
1660298695.95741,14793.4748635,58
1660298695.95741,14793.4748707,58
1660298695.95741,14793.4748742,67
1660298695.95741,14793.4748776,74
1660298695.95741,14793.4748809,60
1660298695.95741,14793.4748846,35
1660298695.95741,14793.4748898,30
1660298695.95741,14793.4748932,30
1660298695.95741,14793.4748966,25
1660298695.95741,14793.4748998,49
1660298695.95741,14793.4749056,79
1660298695.95741,14793.4749123,88
1660298695.95741,14793.4749194,72
1660298695.95741,14793.4749264,46
1660298695.95741,14794.0595367,65
1660298695.95741,14794.0595566,81
1660298695.95741,14794.0595713,42
1660298695.95741,14794.0595848,28
1660298695.95741,14794.0595981,63
1660298695.95741,14794.0596115,65
1660298695.95741,14794.0596248,32
1660298695.95741,14794.0596336,28
1660298695.95741,14794.0596376,37
1660298695.95741,14794.0596397,32
1660298695.97038,14794.0596418,25
1660298695.97038,14794.059644,-2
1660298695.97038,14794.059646,7
1660298695.97038,14794.0596481,217
1660298695.97038,14794.0596501,600
1660298695.97038,14794.0596522,854
1660298695.97038,14794.0596543,621
1660298695.97038,14794.0596563,-2
1660298695.97038,14794.0596583,-259
1660298695.97038,14794.0596604,-7
1660298695.97038,14794.0596625,67
1660298695.97038,14794.0596645,-53
1660298695.97038,14794.0596666,-25
1660298695.97038,14794.0596686,23
1660298695.97038,14794.0596707,7
1660298695.97038,14794.0596727,16
1660298695.97038,14794.0596747,35
1660298695.97038,14794.0596768,16
1660298695.97038,14794.0596788,4
1660298695.97038,14794.0596808,21
1660298695.97038,14794.0596829,49
1660298695.97038,14794.0596854,77
1660298695.97038,14794.0596875,95
1660298695.97038,14794.0596895,112
1660298696.51165,14794.0596914,135
1660298696.51165,14794.0596934,149
1660298696.51165,14794.0596953,163
1660298696.51165,14794.0596972,196
1660298696.51165,14794.0596993,233
1660298696.51165,14794.0597012,261
1660298696.51165,14794.0597031,275
1660298696.51165,14794.0597051,277
1660298696.51165,14794.0597069,282
1660298696.51165,14794.0597088,291
1660298696.51165,14794.0597108,275
1660298696.51165,14794.0597179,226
1660298696.51165,14794.0597279,175
1660298696.51165,14794.0597395,109
1660298696.51165,14794.0597534,39
1660298696.51165,14794.0597647,7
1660298696.51165,14794.0597777,4
1660298696.51165,14794.0597918,0
1660298696.51165,14794.0598006,-7
1660298696.51165,14794.059803,-14
1660298696.51165,14794.0598051,-18
1660298696.51165,14794.0598071,-16
1660298696.51165,14794.0598092,-2
1660298696.51165,14794.0598113,9
1660298696.51165,14794.0598134,18
1660298696.51165,14794.0598154,21
1660298696.51165,14794.0598194,16
1660298696.51165,14794.0598214,7
1660298696.51165,14794.0598233,14
1660298696.51165,14794.0598254,30
1660298696.51165,14794.0598274,37
1660298696.51165,14794.0598294,35
1660298696.51165,14794.0598314,25
1660298696.51165,14794.0598334,11
1660298696.51165,14794.0598354,11
1660298696.51165,14794.0598374,23
1660298696.51165,14794.0598394,21
1660298696.51165,14794.0598414,23
1660298696.51165,14794.0598435,32
1660298696.51165,14794.5960508,16
1660298696.51165,14794.5960639,-16
1660298696.51165,14794.5960718,-18
1660298696.51165,14794.596074,9
1660298696.51165,14794.596076,23
1660298696.51165,14794.596078,9
1660298696.51165,14794.59608,-7
1660298696.51165,14794.596082,-14
1660298696.51165,14794.5960841,0
1660298696.51165,14794.5960862,18
1660298696.51165,14794.5960882,21
1660298696.52661,14794.5960902,11
1660298696.52661,14794.5960922,4
1660298696.52661,14794.5960942,-21
1660298696.52661,14794.5960963,-35
1660298696.52661,14794.5960983,-7
1660298696.52661,14794.5961003,25
1660298696.52661,14794.5961023,28
1660298696.52661,14794.5961043,7
1660298696.52661,14794.5961063,-28
1660298696.52661,14794.5961083,-51
1660298696.52661,14794.5961103,-53
1660298696.52661,14794.5961123,-35
1660298696.52661,14794.5961144,-11
1660298696.52661,14794.5961164,9
1660298696.52661,14794.5961184,28
1660298696.52661,14794.5961204,42
1660298696.52661,14794.5961224,32
1660298696.52661,14794.5961243,21
1660298696.52661,14794.5961264,23
1660298696.52661,14794.5961284,23
1660298696.52661,14794.5961304,18
1660298696.52661,14794.5961324,21
1660298696.52661,14794.5961343,28
1660298696.52661,14794.5961364,35
1660298697.09015,14794.5961385,42
1660298697.09015,14794.5961405,51
1660298697.09015,14794.5961424,58
1660298697.09015,14794.5961444,39
1660298697.09015,14794.5961463,2
1660298697.09015,14794.5961482,46
1660298697.09015,14794.5961501,324
1660298697.09015,14794.596152,798
1660298697.09015,14794.596154,1118
1660298697.09015,14794.5961559,840
1660298697.09015,14794.5961578,109
1660298697.09015,14794.5961597,-184
1660298697.09015,14794.5961616,65
1660298697.09015,14794.5961634,130
1660298697.09015,14794.5961654,7
1660298697.09015,14794.5961673,49
1660298697.09015,14794.5961692,102
1660298697.09015,14794.5961711,63
1660298697.09015,14794.5961731,74
1660298697.09015,14794.596175,116
1660298697.09015,14794.5961768,109
1660298697.09015,14794.5961787,109
1660298697.09015,14794.5961806,133
1660298697.09015,14794.5961835,142
1660298697.09015,14794.5961865,154
1660298697.09015,14794.5961886,177
1660298697.09015,14794.5961906,191
1660298697.09015,14794.5961926,207
1660298697.09015,14794.5961947,233
1660298697.09015,14794.5961967,249
1660298697.09015,14794.5961986,277
1660298697.09015,14794.5962007,312
1660298697.09015,14794.5962026,331
1660298697.09015,14794.5962049,345
1660298697.09015,14794.5962069,364
1660298697.09015,14794.5962089,362
1660298697.09015,14794.5962109,331
1660298697.09015,14794.5962147,301
1660298697.09015,14795.1806082,256
1660298697.09015,14795.1806223,175
1660298697.09015,14795.1806268,95
1660298697.09015,14795.1806333,42
1660298697.09015,14795.1806376,0
1660298697.09015,14795.1806428,-32
1660298697.09015,14795.1806472,-49
1660298697.09015,14795.1806509,-49
1660298697.09015,14795.1806559,-51
1660298697.09015,14795.1806601,-65
1660298697.09015,14795.1806713,-79
1660298697.09015,14795.1806756,-91
1660298697.11309,14795.1806776,-107
1660298697.11309,14795.1806797,-102
1660298697.11309,14795.1806818,-77
1660298697.11309,14795.1806847,-74
1660298697.11309,14795.1806888,-93
1660298697.11309,14795.180693,-98
1660298697.11309,14795.1806968,-81
1660298697.11309,14795.1806988,-60
1660298697.11309,14795.1807026,-39
1660298697.11309,14795.1807048,-32
1660298697.11309,14795.1807068,-35
1660298697.11309,14795.1807102,-28
1660298697.11309,14795.1807203,-14
1660298697.11309,14795.180727,-2
1660298697.11309,14795.1807327,4
1660298697.11309,14795.1807394,2
1660298697.11309,14795.180747,0
1660298697.11309,14795.1807528,2
1660298697.11309,14795.1807583,2
1660298697.11309,14795.1807615,2
1660298697.11309,14795.1807646,14
1660298697.11309,14795.1807678,21
1660298697.11309,14795.1807718,25
1660298697.11309,14795.180778,23
1660298697.62288,14795.1807827,16
1660298697.62288,14795.1807875,14
1660298697.62288,14795.1807945,23
1660298697.62288,14795.1808053,32
1660298697.62288,14795.1808134,42
1660298697.62288,14795.1808215,63
1660298697.62288,14795.1808289,74
1660298697.62288,14795.1808343,63
1660298697.62288,14795.1808445,63
1660298697.62288,14795.1808554,63
1660298697.62288,14795.1808652,42
1660298697.62288,14795.1808741,25
1660298697.62288,14795.1808857,32
1660298697.62288,14795.1808946,39
1660298697.62288,14795.180905,49
1660298697.62288,14795.1809159,63
1660298697.62288,14795.1809264,58
1660298697.62288,14795.180938,46
1660298697.62288,14795.1809471,32
1660298697.62288,14795.1809529,-16
1660298697.62288,14795.1809668,-18
1660298697.62288,14795.1809808,266
1660298697.62288,14795.1809913,822
1660298697.62288,14795.1809984,1221
1660298697.62288,14795.1810036,952
1660298697.62288,14795.1810114,130
1660298697.62288,14795.1810168,-282
1660298697.62288,14795.1810239,-7
1660298697.62288,14795.1810294,121
1660298697.62288,14795.1810365,-23
1660298697.62288,14795.1810406,-4
1660298697.62288,14795.1810464,65
1660298697.62288,14795.1810511,28
1660298697.62288,14795.1810613,7
1660298697.62288,14795.1810705,39
1660298697.62288,14795.1810823,60
1660298697.62288,14795.1810925,65
1660298697.62288,14795.7191572,74
1660298697.62288,14795.7191706,100
1660298697.62288,14795.7191749,119
1660298697.62288,14795.7191771,114
1660298697.62288,14795.7191792,107
1660298697.62288,14795.7191812,126
1660298697.62288,14795.7191832,144
1660298697.62288,14795.7191852,147
1660298697.62288,14795.7191872,182
1660298697.62288,14795.7191892,228
1660298697.62288,14795.7191912,233
1660298697.62288,14795.7191936,226
1660298697.62288,14795.7191997,242
1660298697.63684,14795.7192096,238
1660298697.63684,14795.7192141,207
1660298697.63684,14795.7192221,182
1660298697.63684,14795.7192304,121
1660298697.63684,14795.719242,9
1660298697.63684,14795.7192524,-65
1660298697.63684,14795.7192605,-91
1660298697.63684,14795.7192697,-114
1660298697.63684,14795.7192841,-142
1660298697.63684,14795.7192986,-147
1660298697.63684,14795.7193134,-140
1660298697.63684,14795.7193247,-147
1660298697.63684,14795.7193291,-151
1660298697.63684,14795.7193355,-130
1660298697.63684,14795.7193475,-107
1660298697.63684,14795.7193613,-100
1660298697.63684,14795.7193756,-93
1660298697.63684,14795.7193894,-88
1660298697.63684,14795.7194035,-91
1660298697.63684,14795.7194198,-79
1660298697.63684,14795.7194276,-60
1660298697.63684,14795.7194334,-51
1660298697.63684,14795.7194418,-39
1660298697.63684,14795.7194528,-25
1660298698.15808,14795.7194646,-21
1660298698.15808,14795.7194727,-25
1660298698.15808,14795.7194799,-25
1660298698.15808,14795.7194872,-23
1660298698.15808,14795.7194921,-18
1660298698.15808,14795.7194972,-7
1660298698.15808,14795.7195028,0
1660298698.15808,14795.7195075,-2
1660298698.15808,14795.7195116,-2
1660298698.15808,14795.7195178,2
1660298698.15808,14795.7195234,2
1660298698.15808,14795.7195324,7
1660298698.15808,14795.7195439,21
1660298698.15808,14795.7195575,23
1660298698.15808,14795.7195728,18
1660298698.15808,14795.7195839,18
1660298698.15808,14795.7195888,16
1660298698.15808,14795.7195914,11
1660298698.15808,14795.7195991,7
1660298698.15808,14795.7196098,16
1660298698.15808,14795.7196133,21
1660298698.15808,14795.7196164,18
1660298698.15808,14795.7196193,35
1660298698.15808,14795.7196231,74
1660298698.15808,14795.7196362,93
1660298698.15808,14795.7196404,79
1660298698.15808,14795.7196499,67
1660298698.15808,14795.7196584,65
1660298698.15808,14795.7196714,51
1660298698.15808,14795.719685,46
1660298698.15808,14795.7196986,58
1660298698.15808,14795.7197091,63
1660298698.15808,14795.7197204,56
1660298698.15808,14795.7197345,46
1660298698.15808,14795.7197484,42
1660298698.15808,14795.7197627,49
1660298698.15808,14796.2539088,42
1660298698.15808,14796.2539269,4
1660298698.15808,14796.2539358,74
1660298698.15808,14796.2539421,408
1660298698.15808,14796.2539489,859
1660298698.15808,14796.2539557,1018
1660298698.15808,14796.2539647,586
1660298698.15808,14796.2539763,-53
1660298698.15808,14796.2539822,-133
1660298698.15808,14796.2539866,116
1660298698.15808,14796.2539948,53
1660298698.15808,14796.2540058,-72
1660298698.15808,14796.2540085,11
1660298698.15808,14796.2540106,46
1660298698.17304,14796.2540126,9
1660298698.17304,14796.2540146,44
1660298698.17304,14796.2540166,60
1660298698.17304,14796.2540186,25
1660298698.17304,14796.2540215,35
1660298698.17304,14796.2540324,58
1660298698.17304,14796.2540398,49
1660298698.17304,14796.2540423,51
1660298698.17304,14796.2540454,53
1660298698.17304,14796.2540546,49
1660298698.17304,14796.254067,74
1660298698.17304,14796.2540735,102
1660298698.17304,14796.2540827,112
1660298698.17304,14796.2540949,137
1660298698.17304,14796.2541006,168
1660298698.17304,14796.2541036,198
1660298698.17304,14796.2541111,221
1660298698.17304,14796.2541241,228
1660298698.17304,14796.2541307,231
1660298698.17304,14796.2541331,238
1660298698.17304,14796.2541352,205
1660298698.17304,14796.2541373,133
1660298698.17304,14796.2541393,56
1660298698.17304,14796.2541413,4
1660298698.84113,14796.2541474,-21
1660298698.84113,14796.254157,-42
1660298698.84113,14796.2541607,-65
1660298698.84113,14796.2541626,-65
1660298698.84113,14796.254166,-53
1660298698.84113,14796.2541769,-77
1660298698.84113,14796.2541867,-114
1660298698.84113,14796.2541914,-88
1660298698.84113,14796.2541934,-51
1660298698.84113,14796.2541973,-49
1660298698.84113,14796.2542079,-39
1660298698.84113,14796.2542163,-25
1660298698.84113,14796.2542188,-16
1660298698.84113,14796.2542262,-7
1660298698.84113,14796.2542393,11
1660298698.84113,14796.2542524,37
1660298698.84113,14796.2542656,35
1660298698.84113,14796.2542789,16
1660298698.84113,14796.2542923,11
1660298698.84113,14796.2543055,28
1660298698.84113,14796.2543187,51
1660298698.84113,14796.2543318,51
1660298698.84113,14796.2543452,44
1660298698.84113,14796.2543578,51
1660298698.84113,14796.254366,44
1660298698.84113,14796.2543721,21
1660298698.84113,14796.2543831,25
1660298698.84113,14796.2543917,56
1660298698.84113,14796.2543993,67
1660298698.84113,14796.254406,42
1660298698.84113,14796.2544162,25
1660298698.84113,14796.2544244,42
1660298698.84113,14796.2544309,51
1660298698.84113,14796.2544366,56
1660298698.84113,14796.2544437,67
1660298698.84113,14796.9362146,63
1660298698.84113,14796.9362307,53
1660298698.84113,14796.936238,53
1660298698.84113,14796.9362446,53
1660298698.84113,14796.9362502,67
1660298698.84113,14796.93626,91
1660298698.84113,14796.9362674,81
1660298698.84113,14796.9362768,46
1660298698.84113,14796.9362837,35
1660298698.84113,14796.9362918,51
1660298698.84113,14796.9362979,60
1660298698.84113,14796.9363102,51
1660298698.84113,14796.9363204,21
1660298698.84113,14796.9363312,4
1660298698.84113,14796.93634,16
1660298698.86208,14796.9363495,21
1660298698.86208,14796.936357,25
1660298698.86208,14796.9363694,46
1660298698.86208,14796.9363786,58
1660298698.86208,14796.936385,21
1660298698.86208,14796.9363973,-39
1660298698.86208,14796.9364073,49
1660298698.86208,14796.9364143,383
1660298698.86208,14796.9364266,784
1660298698.86208,14796.9364364,903
1660298698.86208,14796.9364431,467
1660298698.86208,14796.9364512,-112
1660298698.86208,14796.9364536,-128
1660298698.86208,14796.9364557,119
1660298698.86208,14796.9364577,93
1660298698.86208,14796.9364598,37
1660298698.86208,14796.9364618,91
1660298698.86208,14796.9364655,74
1660298698.86208,14796.9364779,39
1660298698.86208,14796.9364871,65
1660298698.86208,14796.9364927,70
1660298698.86208,14796.9364967,67
1660298698.86208,14796.9365056,102
1660298698.86208,14796.9365174,119
1660298699.33833,14796.936523,98
1660298699.33833,14796.9365314,102
1660298699.33833,14796.9365404,123
1660298699.33833,14796.9365437,140
1660298699.33833,14796.9365457,163
1660298699.33833,14796.9365484,189
1660298699.33833,14796.9365566,198
1660298699.33833,14796.9365667,219
1660298699.33833,14796.9365769,259
1660298699.33833,14796.9365874,282
1660298699.33833,14796.9365931,284
1660298699.33833,14796.9366074,294
1660298699.33833,14796.9366165,303
1660298699.33833,14796.9366221,296
1660298699.33833,14796.9366334,270
1660298699.33833,14796.9366369,217
1660298699.33833,14796.9366398,130
1660298699.33833,14796.9366486,49
1660298699.33833,14796.9366579,7
1660298699.33833,14796.9366642,-9
1660298699.33833,14796.9367268,-25
1660298699.33833,14796.9367337,-35
1660298699.33833,14796.936737,-28
1660298699.33833,14796.9367404,-18
1660298699.33833,14796.9367437,-11
1660298699.33833,14796.9367469,-4
1660298699.33833,14796.9367502,21
1660298699.33833,14796.9367551,35
1660298699.33833,14796.9367583,16
1660298699.33833,14796.9367615,18
1660298699.33833,14796.9367874,35
1660298699.33833,14796.9367992,28
1660298699.33833,14796.9368038,56
1660298699.33833,14796.9368084,114
1660298699.33833,14797.4231987,114
1660298699.33833,14797.4232121,88
1660298699.33833,14797.4232175,93
1660298699.33833,14797.4232222,114
1660298699.33833,14797.4232254,156
1660298699.33833,14797.42323,142
1660298699.33833,14797.4232329,56
1660298699.33833,14797.423236,39
1660298699.33833,14797.4232396,112
1660298699.33833,14797.4232523,133
1660298699.33833,14797.4232614,100
1660298699.33833,14797.4232641,109
1660298699.33833,14797.4232663,140
1660298699.33833,14797.4232684,142
1660298699.33833,14797.4232705,142
1660298699.33833,14797.4232725,149
1660298699.35428,14797.4232746,137
1660298699.35428,14797.4232766,149
1660298699.35428,14797.4232788,170
1660298699.35428,14797.4232808,170
1660298699.35428,14797.4232828,196
1660298699.35428,14797.4232849,193
1660298699.35428,14797.4232869,123
1660298699.35428,14797.4232889,105
1660298699.35428,14797.4232909,128
1660298699.35428,14797.4232929,114
1660298699.35428,14797.4232948,93
1660298699.35428,14797.4232969,70
1660298699.35428,14797.4232989,60
1660298699.35428,14797.4233012,79
1660298699.35428,14797.4233032,84
1660298699.35428,14797.4233052,67
1660298699.35428,14797.4233073,37
1660298699.35428,14797.4233093,4
1660298699.35428,14797.4233113,74
1660298699.35428,14797.4233135,380
1660298699.35428,14797.4233156,847
1660298699.35428,14797.4233176,1058
1660298699.35428,14797.4233196,590
1660298699.35428,14797.4233218,-105
1660298699.87198,14797.4233238,-158
1660298699.87198,14797.4233258,126
1660298699.87198,14797.4233277,102
1660298699.87198,14797.4233295,25
1660298699.87198,14797.4233315,98
1660298699.87198,14797.4233335,107
1660298699.87198,14797.4233354,72
1660298699.87198,14797.4233372,88
1660298699.87198,14797.4233391,100
1660298699.87198,14797.4233409,79
1660298699.87198,14797.4233439,49
1660298699.87198,14797.423355,56
1660298699.87198,14797.4233604,123
1660298699.87198,14797.4233627,161
1660298699.87198,14797.4233695,156
1660298699.87198,14797.423378,175
1660298699.87198,14797.4233892,191
1660298699.87198,14797.4234007,210
1660298699.87198,14797.4234123,247
1660298699.87198,14797.4234177,273
1660298699.87198,14797.4234198,289
1660298699.87198,14797.4234219,287
1660298699.87198,14797.4234239,268
1660298699.87198,14797.423426,266
1660298699.87198,14797.4234285,294
1660298699.87198,14797.4234306,326
1660298699.87198,14797.4234326,301
1660298699.87198,14797.4234345,205
1660298699.87198,14797.4234366,100
1660298699.87198,14797.4234386,44
1660298699.87198,14797.4234406,21
1660298699.87198,14797.4234426,-7
1660298699.87198,14797.4234446,-30
1660298699.87198,14797.9603863,-32
1660298699.87198,14797.9604074,-32
1660298699.87198,14797.9604182,-39
1660298699.87198,14797.9604281,-39
1660298699.87198,14797.9604346,-28
1660298699.87198,14797.9604489,-11
1660298699.87198,14797.9604598,-7

1660298699.87198,14797.960467,-7
1660298699.87198,14797.9604779,0
1660298699.87198,14797.9604884,7
1660298699.87198,14797.9604973,23
1660298699.87198,14797.9605073,49
1660298699.87198,14797.9605181,49
1660298699.87198,14797.960526,18
1660298699.87198,14797.9605398,4
1660298699.87198,14797.9605504,21
1660298699.87198,14797.960556,25
1660298699.88694,14797.9605602,2
1660298699.88694,14797.960564,-11
1660298699.88694,14797.9605676,-7
1660298699.88694,14797.9605724,-7
1660298699.88694,14797.9605784,-7
1660298699.88694,14797.9605853,-4
1660298699.88694,14797.9605909,11
1660298699.88694,14797.9605946,21
1660298699.88694,14797.9605981,11
1660298699.88694,14797.9606093,16
1660298699.88694,14797.9606272,32
1660298699.88694,14797.9606357,39
1660298699.88694,14797.9606407,67
1660298699.88694,14797.960647,95
1660298699.88694,14797.9606517,86
1660298699.88694,14797.9606579,65
1660298699.88694,14797.9606625,60
1660298699.88694,14797.9606719,65
1660298699.88694,14797.9607001,70
1660298699.88694,14797.9607095,67
1660298699.88694,14797.9607159,53
1660298699.88694,14797.960719,51
1660298699.88694,14797.9607247,63
1660298699.88694,14797.9607276,70
1660298700.5395,14797.9607316,65
1660298700.5395,14797.9607396,56
1660298700.5395,14797.9607466,46
1660298700.5395,14797.9607536,109
1660298700.5395,14797.9607582,380
1660298700.5395,14797.9607624,808
1660298700.5395,14797.9607659,1027
1660298700.5395,14797.9607693,651
1660298700.5395,14797.9607729,-11
1660298700.5395,14797.9607766,-128
1660298700.5395,14797.9607804,163
1660298700.5395,14797.9607841,165
1660298700.5395,14797.9607877,58
1660298700.5395,14797.9607913,123
1660298700.5395,14797.9607952,165
1660298700.5395,14797.9607993,135
1660298700.5395,14797.9608033,154
1660298700.5395,14797.9608075,184
1660298700.5395,14797.9608112,189
1660298700.5395,14797.9608151,191
1660298700.5395,14797.9608189,205
1660298700.5395,14797.9608227,226
1660298700.5395,14797.9608298,238
1660298700.5395,14797.9608329,245
1660298700.5395,14797.9608359,268
1660298700.5395,14797.9608388,291
1660298700.5395,14797.9608416,315
1660298700.5395,14797.9608445,348
1660298700.5395,14797.9608474,373
1660298700.5395,14797.9608508,399
1660298700.5395,14797.9608654,429
1660298700.5395,14797.9608787,439
1660298700.5395,14798.641604,436
1660298700.5395,14798.6416186,446
1660298700.5395,14798.6416357,441
1660298700.5395,14798.6416565,397
1660298700.5395,14798.6416661,324
1660298700.5395,14798.6416711,245
1660298700.5395,14798.6416794,179
1660298700.5395,14798.6416896,119
1660298700.5395,14798.6417033,74
1660298700.5395,14798.6417145,67
1660298700.5395,14798.6417193,65
1660298700.5395,14798.6417214,46
1660298700.5395,14798.6417239,35
1660298700.5395,14798.641726,39
1660298700.5395,14798.641728,49
1660298700.5395,14798.64173,56
1660298700.5395,14798.641732,46
1660298700.5395,14798.641734,37
1660298700.55147,14798.6417361,32
1660298700.55147,14798.6417381,35
1660298700.55147,14798.6417402,53
1660298700.55147,14798.6417421,53
1660298700.55147,14798.6417441,30
1660298700.55147,14798.6417461,21
1660298700.55147,14798.6417482,35
1660298700.55147,14798.6417502,46
1660298700.55147,14798.6417522,42
1660298700.55147,14798.6417542,23
1660298700.55147,14798.6417562,18
1660298700.55147,14798.6417582,39
1660298700.55147,14798.6417601,58
1660298700.55147,14798.6417621,42
1660298700.55147,14798.6417642,16
1660298700.55147,14798.6417661,7
1660298700.55147,14798.6417681,11
1660298700.55147,14798.6417701,21
1660298700.55147,14798.6417721,49
1660298700.55147,14798.6417741,56
1660298700.55147,14798.6417761,28
1660298700.55147,14798.6417781,18
1660298700.55147,14798.6417802,25
1660298700.55147,14798.6417823,0
1660298701.08834,14798.6417844,-14
1660298701.08834,14798.6417864,4
1660298701.08834,14798.6417882,16
1660298701.08834,14798.6417901,21
1660298701.08834,14798.641792,30
1660298701.08834,14798.6417939,25
1660298701.08834,14798.6417967,14
1660298701.08834,14798.6418069,2
1660298701.08834,14798.641814,-23
1660298701.08834,14798.6418184,84
1660298701.08834,14798.6418273,516
1660298701.08834,14798.6418387,1053
1660298701.08834,14798.641849,1172
1660298701.08834,14798.6418573,586
1660298701.08834,14798.6418673,-133
1660298701.08834,14798.6418723,-156
1660298701.08834,14798.6418744,126
1660298701.08834,14798.6418765,60
1660298701.08834,14798.6418786,-39
1660298701.08834,14798.641882,37
1660298701.08834,14798.641891,60
1660298701.08834,14798.6419008,39
1660298701.08834,14798.6419121,72
1660298701.08834,14798.6419155,100
1660298701.08834,14798.6419177,88
1660298701.08834,14798.6419198,72
1660298701.08834,14798.6419219,88
1660298701.08834,14798.6419239,123
1660298701.08834,14798.6419259,144
1660298701.08834,14798.6419279,147
1660298701.08834,14798.6419299,154
1660298701.08834,14799.1784721,177
1660298701.08834,14799.1784852,203
1660298701.08834,14799.178489,221
1660298701.08834,14799.1784911,249
1660298701.08834,14799.1784933,287
1660298701.08834,14799.1784953,305
1660298701.08834,14799.1784973,291
1660298701.08834,14799.1784993,273
1660298701.08834,14799.1785013,273
1660298701.08834,14799.1785033,256
1660298701.08834,14799.1785052,186
1660298701.08834,14799.1785073,102
1660298701.08834,14799.1785093,51
1660298701.08834,14799.1785114,-2
1660298701.08834,14799.1785134,-46
1660298701.08834,14799.1785155,-65
1660298701.08834,14799.1785218,-72
1660298701.08834,14799.1785343,-81
1660298701.08834,14799.1785459,-88
1660298701.1033,14799.1785576,-77
1660298701.1033,14799.1785722,-58
1660298701.1033,14799.1785858,-70
1660298701.1033,14799.1785991,-81
1660298701.1033,14799.1786106,-46
1660298701.1033,14799.1786205,-32
1660298701.1033,14799.1786266,-81
1660298701.1033,14799.1786307,-109
1660298701.1033,14799.1786361,-91
1660298701.1033,14799.178645,-67
1660298701.1033,14799.1786561,-53
1660298701.1033,14799.1786686,-46
1660298701.1033,14799.178678,-56
1660298701.1033,14799.1786847,-74
1660298701.1033,14799.1786922,-72
1660298701.1033,14799.1787025,-60
1660298701.1033,14799.1787082,-60
1660298701.1033,14799.1787146,-49
1660298701.1033,14799.1787187,-42
1660298701.1033,14799.1787244,-53
1660298701.1033,14799.1787301,-44
1660298701.1033,14799.1787341,-23
1660298701.1033,14799.1787403,-18
1660298701.1033,14799.1787452,-11
1660298701.61832,14799.1787512,-4
1660298701.61832,14799.1787556,-21
1660298701.61832,14799.1787599,-32
1660298701.61832,14799.1787639,-16
1660298701.61832,14799.1787683,-14
1660298701.61832,14799.1787725,-30
1660298701.61832,14799.1787767,-23
1660298701.61832,14799.1787807,-16
1660298701.61832,14799.178785,-30
1660298701.61832,14799.1787892,-25
1660298701.61832,14799.1787932,-11
1660298701.61832,14799.1787973,-9
1660298701.61832,14799.1788017,-9
1660298701.61832,14799.1788119,-37
1660298701.61832,14799.1788206,-39
1660298701.61832,14799.1788315,193
1660298701.61832,14799.1788354,670
1660298701.61832,14799.1788376,1027
1660298701.61832,14799.1788403,829
1660298701.61832,14799.1788507,112
1660298701.61832,14799.1788637,-291
1660298701.61832,14799.1788768,-67
1660298701.61832,14799.1788901,60
1660298701.61832,14799.1789043,-60
1660298701.61832,14799.1789315,-39
1660298701.61832,14799.178947,28
1660298701.61832,14799.1789605,-4
1660298701.61832,14799.1789739,0
1660298701.61832,14799.1789862,25
1660298701.61832,14799.1789948,4
1660298701.61832,14799.7147217,14
1660298701.61832,14799.7147444,56
1660298701.61832,14799.7147524,70
1660298701.61832,14799.7147594,79
1660298701.61832,14799.7147625,93
1660298701.61832,14799.7147654,100
1660298701.61832,14799.7147683,123
1660298701.61832,14799.7147711,163
1660298701.61832,14799.7147739,189
1660298701.61832,14799.7147767,196
1660298701.61832,14799.7147796,196
1660298701.61832,14799.7147823,212
1660298701.61832,14799.7147852,249
1660298701.61832,14799.714788,273
1660298701.61832,14799.7147909,270
1660298701.61832,14799.7147937,249
1660298701.61832,14799.7147966,203
1660298701.61832,14799.7147994,128
1660298701.61832,14799.7148025,39
1660298701.61832,14799.7148053,-21
1660298701.62929,14799.7148083,-37
1660298701.62929,14799.714811,-60
1660298701.62929,14799.7148138,-100
1660298701.62929,14799.7148167,-112
1660298701.62929,14799.7148196,-105
1660298701.62929,14799.7148228,-107
1660298701.62929,14799.7148354,-88
1660298701.62929,14799.7148435,-65
1660298701.62929,14799.7148479,-88
1660298701.62929,14799.7148561,-121
1660298701.62929,14799.714861,-105
1660298701.62929,14799.7148678,-79
1660298701.62929,14799.7148711,-81
1660298701.62929,14799.7148778,-67
1660298701.62929,14799.7148811,-42
1660298701.62929,14799.7148884,-37
1660298701.62929,14799.7148953,-39
1660298701.62929,14799.7149006,-35
1660298701.62929,14799.7149041,-35
1660298701.62929,14799.7149075,-30
1660298701.62929,14799.7149111,-18
1660298701.62929,14799.7149145,-4
1660298701.62929,14799.7149179,0
1660298701.62929,14799.7149213,0
1660298702.10235,14799.7149248,7
1660298702.10235,14799.7149289,14
1660298702.10235,14799.7149333,0
1660298702.10235,14799.7149386,-11
1660298702.10235,14799.7149453,11
1660298702.10235,14799.7149523,30
1660298702.10235,14799.7149592,25
1660298702.10235,14799.7149655,37
1660298702.10235,14799.7149703,63
1660298702.10235,14799.7149737,58
1660298702.10235,14799.7149772,28
1660298702.10235,14799.7149808,23
1660298702.10235,14799.7149845,44
1660298702.10235,14799.7149882,37
1660298702.10235,14799.7149916,14
1660298702.10235,14799.7149952,4
1660298702.10235,14799.714999,-4
1660298702.10235,14799.7150022,-11
1660298702.10235,14799.7150062,2
1660298702.10235,14799.7150103,18
1660298702.10235,14799.7150144,7
1660298702.10235,14799.7150188,-21
1660298702.10235,14799.7150221,-30
1660298702.10235,14799.7150254,23
1660298702.10235,14799.7150286,259
1660298702.10235,14799.7150319,670
1660298702.10235,14799.7150368,922
1660298702.10235,14799.7150419,588
1660298702.10235,14799.7150452,-70
1660298702.10235,14800.2024191,-238
1660298702.10235,14800.2024322,37
1660298702.10235,14800.2024375,86
1660298702.10235,14800.2024432,-25
1660298702.10235,14800.2024462,25
1660298702.10235,14800.2024498,84
1660298702.10235,14800.2024527,42
1660298702.10235,14800.2024552,18
1660298702.10235,14800.2024581,25
1660298702.10235,14800.202461,18
1660298702.10235,14800.2024639,16
1660298702.10235,14800.2024669,46
1660298702.10235,14800.2024743,81
1660298702.10235,14800.2024818,74
1660298702.10235,14800.2024865,60
1660298702.10235,14800.2024914,95
1660298702.10235,14800.2024985,149
1660298702.10235,14800.2025095,175
1660298702.10235,14800.2025122,186
1660298702.10235,14800.2025143,207
1660298702.10235,14800.2025165,238
1660298702.11531,14800.2025187,266
1660298702.11531,14800.2025207,289
1660298702.11531,14800.2025228,301
1660298702.11531,14800.2025248,305
1660298702.11531,14800.2025269,298
1660298702.11531,14800.202529,242
1660298702.11531,14800.202531,154
1660298702.11531,14800.202533,100
1660298702.11531,14800.2025352,77
1660298702.11531,14800.2025423,46
1660298702.11531,14800.2025518,11
1660298702.11531,14800.2025566,-11
1660298702.11531,14800.2025625,-23
1660298702.11531,14800.2025668,-21
1660298702.11531,14800.2025724,-4
1660298702.11531,14800.2025766,-21
1660298702.11531,14800.2025807,-35
1660298702.11531,14800.202585,4
1660298702.11531,14800.2025903,42
1660298702.11531,14800.2025942,28
1660298702.11531,14800.2025998,-2
1660298702.11531,14800.2026034,2
1660298702.11531,14800.2026069,30
1660298702.11531,14800.2026105,56
1660298702.74072,14800.2026156,70
1660298702.74072,14800.202619,56
1660298702.74072,14800.2026224,16
1660298702.74072,14800.2026257,30
1660298702.74072,14800.20263,88
1660298702.74072,14800.202635,100
1660298702.74072,14800.202641,77
1660298702.74072,14800.2026473,60
1660298702.74072,14800.2026582,56
1660298702.74072,14800.2026714,51
1660298702.74072,14800.2026778,60
1660298702.74072,14800.20268,98
1660298702.74072,14800.2026823,105
1660298702.74072,14800.2026897,67
1660298702.74072,14800.2027002,67
1660298702.74072,14800.202705,91
1660298702.74072,14800.2027104,102
1660298702.74072,14800.2027139,119
1660298702.74072,14800.2027264,116
1660298702.74072,14800.2027381,86
1660298702.74072,14800.2027537,74
1660298702.74072,14800.2027666,81
1660298702.74072,14800.2027804,84
1660298702.74072,14800.202789,79
1660298702.74072,14800.2027914,112
1660298702.74072,14800.2027935,156
1660298702.74072,14800.2027956,135
1660298702.74072,14800.2028036,95
1660298702.74072,14800.8360686,105
1660298702.74072,14800.8360858,91
1660298702.74072,14800.8360937,46
1660298702.74072,14800.8360971,32
1660298702.74072,14800.836101,30
1660298702.74072,14800.8361039,16
1660298702.74072,14800.8361077,21
1660298702.74072,14800.8361107,16
1660298702.74072,14800.8361145,-16
1660298702.74072,14800.8361185,-37
1660298702.74072,14800.8361245,-58
1660298702.74072,14800.8361282,-72
1660298702.74072,14800.8361324,11
1660298702.74072,14800.8361371,317
1660298702.74072,14800.8361424,777
1660298702.74072,14800.8361478,950
1660298702.74072,14800.8361521,469
1660298702.74072,14800.8361578,-170
1660298702.74072,14800.8361608,-219
1660298702.74072,14800.8361647,-11
1660298702.74072,14800.8361679,-58
1660298702.74072,14800.8361712,-112
1660298702.75368,14800.8361744,-37
1660298702.75368,14800.8361807,-35
1660298702.75368,14800.8361844,-74
1660298702.75368,14800.8361937,-37
1660298702.75368,14800.836199,-11
1660298702.75368,14800.8362023,-21
1660298702.75368,14800.8362055,11
1660298702.75368,14800.8362089,42
1660298702.75368,14800.8362143,51
1660298702.75368,14800.8362177,67
1660298702.75368,14800.8362213,70
1660298702.75368,14800.8362249,95
1660298702.75368,14800.8362303,135
1660298702.75368,14800.8362369,142
1660298702.75368,14800.8362427,165
1660298702.75368,14800.8362472,212
1660298702.75368,14800.8362511,226
1660298702.75368,14800.8362569,254
1660298702.75368,14800.8362645,301
1660298702.75368,14800.8362678,291
1660298702.75368,14800.8362723,259
1660298702.75368,14800.83628,268
1660298702.75368,14800.8362848,270
1660298702.75368,14800.8362884,205
1660298703.27646,14800.8362938,116
1660298703.27646,14800.8362993,56
1660298703.27646,14800.8363024,18
1660298703.27646,14800.8363054,11
1660298703.27646,14800.8363093,14
1660298703.27646,14800.8363124,2
1660298703.27646,14800.8363159,-16
1660298703.27646,14800.8363194,-30
1660298703.27646,14800.8363225,-21
1660298703.27646,14800.8363256,-9
1660298703.27646,14800.8363286,-9
1660298703.27646,14800.8363315,21
1660298703.27646,14800.8363352,46
1660298703.27646,14800.8363385,18
1660298703.27646,14800.8363418,11
1660298703.27646,14800.8363474,46
1660298703.27646,14800.836351,56
1660298703.27646,14800.8363558,32
1660298703.27646,14800.8363607,30
1660298703.27646,14800.8363662,63
1660298703.27646,14800.836372,84
1660298703.27646,14800.8363784,56
1660298703.27646,14800.8363837,23
1660298703.27646,14800.83639,18
1660298703.27646,14800.8363938,25
1660298703.27646,14800.8363988,49
1660298703.27646,14800.8364031,56
1660298703.27646,14801.3724474,30
1660298703.27646,14801.3724663,23
1660298703.27646,14801.3724734,35
1660298703.27646,14801.3724816,56
1660298703.27646,14801.3724894,60
1660298703.27646,14801.372496,46
1660298703.27646,14801.3725041,46
1660298703.27646,14801.3725076,60
1660298703.27646,14801.3725107,65
1660298703.27646,14801.3725168,58
1660298703.27646,14801.372525,72
1660298703.27646,14801.3725311,79
1660298703.27646,14801.3725383,46
1660298703.27646,14801.3725423,21
1660298703.27646,14801.3725496,23
1660298703.27646,14801.3725578,23
1660298703.27646,14801.3725629,37
1660298703.27646,14801.3725663,63
1660298703.27646,14801.3725708,65
1660298703.27646,14801.3725784,44
1660298703.27646,14801.372585,32
1660298703.27646,14801.3725918,30
1660298703.27646,14801.3726058,23
1660298703.28743,14801.3726169,25
1660298703.28743,14801.372624,28
1660298703.28743,14801.3726316,-23
1660298703.28743,14801.3726378,-70
1660298703.28743,14801.3726464,-21
1660298703.28743,14801.3726543,23
1660298703.28743,14801.3726627,-23
1660298703.28743,14801.3727059,-58
1660298703.28743,14801.3727252,-72
1660298703.28743,14801.372741,-42
1660298703.28743,14801.3727532,228
1660298703.28743,14801.3727614,710
1660298703.28743,14801.3727705,1006
1660298703.28743,14801.3727766,714
1660298703.28743,14801.3727856,32
1660298703.28743,14801.3727914,-238
1660298703.28743,14801.3728046,-7
1660298703.28743,14801.3728133,53
1660298703.28743,14801.3728204,-58
1660298703.28743,14801.3728257,-30
1660298703.28743,14801.3728326,11
1660298703.28743,14801.3728399,-14
1660298703.28743,14801.3728453,-14
1660298703.28743,14801.3728591,14
1660298703.80788,14801.3728723,56
1660298703.80788,14801.37288,88
1660298703.80788,14801.3728874,86
1660298703.80788,14801.3728927,72
1660298703.80788,14801.3729015,67
1660298703.80788,14801.3729099,72
1660298703.80788,14801.3729172,95
1660298703.80788,14801.3729215,133
1660298703.80788,14801.3729273,161
1660298703.80788,14801.3729315,182
1660298703.80788,14801.3729374,221
1660298703.80788,14801.3729421,259
1660298703.80788,14801.3729471,266
1660298703.80788,14801.3729531,275
1660298703.80788,14801.3729582,319
1660298703.80788,14801.372962,326
1660298703.80788,14801.3729673,268
1660298703.80788,14801.372971,224
1660298703.80788,14801.3729746,193
1660298703.80788,14801.3729802,142
1660298703.80788,14801.3729839,74
