Time,TimeLsl,Value
1660310141.11778,1391.1706839,86
1660310141.11778,1391.1706999,98
1660310141.11778,1391.1707057,107
1660310141.11778,1391.1707125,121
1660310141.11778,1391.1707173,124
1660310141.11778,1391.170724,116
1660310141.11778,1391.1707282,131
1660310141.11778,1391.1707312,163
1660310141.11778,1391.1707359,184
1660310141.11778,1391.1707426,196
1660310141.11778,1391.1707511,189
1660310141.11778,1391.1707558,170
1660310141.11778,1391.170759,173
1660310141.11778,1391.1707682,187
1660310141.11778,1391.1707771,187
1660310141.11778,1391.1707839,170
1660310141.11778,1391.1707932,142
1660310141.11778,1391.1708005,105
1660310141.11778,1391.1708081,67
1660310141.11778,1391.1708182,44
1660310141.11778,1391.1708289,25
1660310141.11778,1391.1708363,9
1660310141.11778,1391.170849,-2
1660310141.11778,1391.1708632,-9
1660310141.11778,1391.1708764,-16
1660310141.11778,1391.1708831,-14
1660310141.11778,1391.1708872,-2
1660310141.11778,1391.1708958,4
1660310141.11778,1391.1709078,4
1660310141.11778,1391.1709131,9
1660310141.11778,1391.1709152,16
1660310141.11778,1391.1709225,23
1660310141.11778,1391.1709329,30
1660310141.11778,1391.1709407,37
1660310141.11778,1391.1709432,44
1660310141.11778,1391.1709453,53
1660310141.11778,1391.1709477,60
1660310141.11778,1391.1709554,63
1660310141.11778,1391.170965,67
1660310141.11778,1391.170969,79
1660310141.11778,1391.1709745,84
1660310141.11778,1391.1709788,81
1660310141.11778,1391.1709824,84
1660310141.11778,1391.1709894,86
1660310141.11778,1391.1709932,91
1660310141.11778,1391.1709983,93
1660310141.11778,1391.1710016,93
1660310141.11778,1391.1710067,95
1660310141.11778,1391.1710124,98
1660310141.11778,1391.1710162,98
1660310141.23073,1391.1710211,102
1660310141.23073,1391.1710254,107
1660310141.23073,1391.1710298,102
1660310141.23073,1391.1710348,102
1660310141.23073,1391.1710387,107
1660310141.23073,1391.1710428,102
1660310141.23073,1391.1710535,93
1660310141.23073,1391.1710644,91
1660310141.23073,1391.1710761,95
1660310141.23073,1391.1710874,95
1660310141.23073,1391.1711018,98
1660310141.23073,1391.1711132,95
1660310141.23073,1391.1711282,93
1660310141.23073,1391.1711408,93
1660310141.23073,1391.1711537,88
1660310141.23073,1391.1711668,79
1660310141.23073,1391.1711798,72
1660310141.23073,1391.1711927,70
1660310141.23073,1391.1712047,70
1660310141.23073,1391.1712155,72
1660310141.23073,1391.1712258,84
1660310141.23073,1391.1712395,100
1660310141.23073,1391.1712521,100
1660310141.23073,1391.7575206,86
1660310141.23073,1391.7575402,77
1660310141.23073,1391.7575501,67
1660310141.23073,1391.7575573,49
1660310141.23073,1391.7575607,39
1660310141.23073,1391.7575639,44
1660310141.23073,1391.7575669,51
1660310141.23073,1391.7575715,30
1660310141.23073,1391.7575753,-44
1660310141.23073,1391.7575782,-98
1660310141.23073,1391.7575812,46
1660310141.23073,1391.7575846,428
1660310141.23073,1391.7575877,797
1660310141.23073,1391.7575925,744
1660310141.23073,1391.7575972,315
1660310141.23073,1391.7576016,49
1660310141.23073,1391.7576077,46
1660310141.23073,1391.7576128,16
1660310141.23073,1391.7576219,-30
1660310141.23073,1391.7576332,-14
1660310141.23073,1391.7576449,-21
1660310141.23073,1391.7576496,-51
1660310141.23073,1391.7576526,-35
1660310141.23073,1391.7576616,-14
1660310141.23073,1391.7576758,-14
1660310141.23073,1391.7576896,-4
1660310141.23073,1391.7576973,7
1660310141.26464,1391.7576998,4
1660310141.26464,1391.7577025,9
1660310141.26464,1391.7577045,25
1660310141.26464,1391.7577066,42
1660310141.26464,1391.7577086,53
1660310141.26464,1391.7577106,65
1660310141.26464,1391.7577127,74
1660310141.26464,1391.7577147,86
1660310141.26464,1391.7577167,105
1660310141.26464,1391.7577187,126
1660310141.26464,1391.7577206,147
1660310141.26464,1391.7577229,166
1660310141.26464,1391.7577254,182
1660310141.26464,1391.7577274,196
1660310141.26464,1391.7577295,215
1660310141.26464,1391.7577315,233
1660310141.26464,1391.7577335,245
1660310141.26464,1391.7577355,252
1660310141.26464,1391.7577376,250
1660310141.26464,1391.7577396,229
1660310141.26464,1391.7577416,196
1660310141.26464,1391.7577436,163
1660310141.26464,1391.7577455,133
1660310141.26464,1391.7577475,102
1660310141.26464,1391.7577497,77
1660310141.26464,1391.7577517,58
1660310141.26464,1391.7577537,46
1660310141.26464,1391.7577557,49
1660310141.26464,1391.7577578,49
1660310141.26464,1391.7577598,51
1660310141.26464,1391.7577618,51
1660310141.26464,1391.7577639,46
1660310141.26464,1391.7577659,46
1660310141.26464,1391.7577681,56
1660310141.26464,1391.7577761,60
1660310141.26464,1391.7577854,60
1660310141.26464,1391.7577897,60
1660310141.26464,1391.7577962,63
1660310141.26464,1391.7577997,67
1660310141.26464,1391.7578047,72
1660310141.26464,1391.7578109,77
1660310141.26464,1391.757815,77
1660310141.26464,1391.7578186,65
1660310141.26464,1391.7578238,58
1660310141.26464,1391.7578301,63
1660310141.26464,1391.7578361,65
1660310141.26464,1392.2433642,70
1660310141.26464,1392.2433815,77
1660310141.26464,1392.2433897,74
1660310141.26464,1392.2433941,74
1660310141.28858,1392.2433978,84
1660310141.28858,1392.2434017,81
1660310141.28858,1392.2434059,72
1660310141.28858,1392.2434109,74
1660310141.28858,1392.2434152,81
1660310141.28858,1392.2434187,77
1660310141.28858,1392.2434225,67
1660310141.28858,1392.2434259,56
1660310141.28858,1392.2434315,49
1660310141.28858,1392.243439,51
1660310141.28858,1392.243452,53
1660310141.28858,1392.2434588,56
1660310141.28858,1392.2434635,60
1660310141.28858,1392.2434694,60
1660310141.28858,1392.2434734,58
1660310141.28858,1392.2434768,63
1660310141.28858,1392.2434802,63
1660310141.28858,1392.243484,56
1660310141.28858,1392.2434875,51
1660310141.28858,1392.2434937,37
1660310141.28858,1392.2434971,14
1660310141.28858,1392.2435005,11
1660310141.28858,1392.2435037,18
1660310141.28858,1392.2435071,16
1660310141.28858,1392.2435106,16
1660310141.28858,1392.2435139,16
1660310141.28858,1392.2435177,4
1660310141.28858,1392.2435214,0
1660310141.28858,1392.2435248,9
1660310141.28858,1392.2435283,11
1660310141.28858,1392.243532,11
1660310141.28858,1392.2435358,18
1660310141.28858,1392.2435421,18
1660310141.28858,1392.2435478,7
1660310141.28858,1392.2435541,9
1660310141.28858,1392.243564,32
1660310141.28858,1392.243573,53
1660310141.28858,1392.2435825,60
1660310141.28858,1392.2435907,63
1660310141.28858,1392.2435945,58
1660310141.28858,1392.2435998,49
1660310141.28858,1392.2436066,49
1660310141.28858,1392.2436111,51
1660310141.28858,1392.2436149,53
1660310141.28858,1392.2436207,58
1660310141.28858,1392.2436298,60
1660310141.28858,1392.2436357,58
1660310141.28858,1392.2436404,39
1660310141.28858,1392.2436453,-18
1660310141.28858,1392.24365,-2
1660310141.29974,1392.243659,248
1660310141.29974,1392.2436648,657
1660310141.29974,1392.243671,851
1660310141.29974,1392.2436802,584
1660310141.29974,1392.2436914,210
1660310141.29974,1392.2436974,100
1660310141.29974,1392.2437033,91
1660310141.29974,1392.2437093,28
1660310141.29974,1392.2437152,-4
1660310141.29974,1392.2437211,14
1660310141.29974,1392.2437277,23
1660310141.29974,1392.2437382,23
1660310141.29974,1392.2437473,28
1660310141.29974,1392.2437532,35
1660310141.29974,1392.2437597,37
1660310141.29974,1392.2437663,42
1660310141.29974,1392.2437729,44
1660310141.29974,1392.2437788,49
1660310141.29974,1392.2437881,63
1660310141.29974,1392.8768654,72
1660310141.29974,1392.8768858,72
1660310141.29974,1392.8768957,81
1660310141.73663,1392.8769028,98
1660310141.73663,1392.8769097,109
1660310141.73663,1392.8769149,124
1660310141.73663,1392.8769191,140
1660310141.73663,1392.8769249,140
1660310141.73663,1392.8769323,133
1660310141.73663,1392.8769393,145
1660310141.73663,1392.8769487,173
1660310141.73663,1392.8769594,196
1660310141.73663,1392.876967,208
1660310141.73663,1392.8769731,212
1660310141.73663,1392.8769834,201
1660310141.73663,1392.876988,191
1660310141.73663,1392.8769902,194
1660310141.73663,1392.876993,187
1660310141.73663,1392.8769953,156
1660310141.73663,1392.8769974,121
1660310141.73663,1392.8769994,86
1660310141.73663,1392.8770044,60
1660310141.73663,1392.8770157,44
1660310141.73663,1392.8770212,35
1660310141.73663,1392.8770234,25
1660310141.73663,1392.8770255,21
1660310141.73663,1392.8770276,18
1660310141.73663,1392.8770299,18
1660310141.73663,1392.8770396,16
1660310141.73663,1392.8770494,14
1660310141.73663,1392.8770519,14
1660310141.73663,1392.877054,16
1660310141.73663,1392.877056,21
1660310141.73663,1392.8770636,23
1660310141.73663,1392.877074,25
1660310141.73663,1392.8770773,32
1660310141.73663,1392.8770801,42
1660310141.73663,1392.8770838,42
1660310141.73663,1392.8770964,44
1660310141.73663,1392.8771019,49
1660310141.73663,1392.8771042,53
1660310141.73663,1392.8771116,63
1660310141.73663,1392.8771234,65
1660310141.73663,1392.877133,63
1660310141.73663,1392.8771419,65
1660310141.73663,1392.8771559,65
1660310141.73663,1392.8771708,60
1660310141.73663,1392.8771817,60
1660310141.73663,1392.8771905,65
1660310141.73663,1392.877195,67
1660310141.73663,1392.8772015,65
1660310141.73663,1392.8772046,67
1660310141.73663,1392.8772075,67
1660310141.75458,1392.8772103,58
1660310141.75458,1392.8772132,39
1660310141.75458,1392.877216,28
1660310141.75458,1392.8772189,32
1660310141.75458,1392.8772218,28
1660310141.75458,1392.8772247,18
1660310141.75458,1392.8772275,23
1660310141.75458,1392.8772304,21
1660310141.75458,1392.8772331,7
1660310141.75458,1392.877236,7
1660310141.75458,1392.8772389,21
1660310141.75458,1392.8772417,21
1660310141.75458,1392.8772445,14
1660310141.75458,1392.8772473,16
1660310141.75458,1392.8772501,18
1660310141.75458,1392.8772529,25
1660310141.75458,1392.8772556,30
1660310141.75458,1392.8772584,32
1660310141.75458,1392.8772612,30
1660310141.75458,1392.877264,32
1660310141.75458,1393.3650492,39
1660310141.75458,1393.3650675,42
1660310141.75458,1393.3650723,44
1660310141.75458,1393.3650756,51
1660310142.26971,1393.3650789,51
1660310142.26971,1393.3650823,49
1660310142.26971,1393.365086,49
1660310142.26971,1393.3650902,53
1660310142.26971,1393.3650956,51
1660310142.26971,1393.3650995,49
1660310142.26971,1393.3651028,44
1660310142.26971,1393.3651081,37
1660310142.26971,1393.3651143,44
1660310142.26971,1393.3651207,60
1660310142.26971,1393.3651274,72
1660310142.26971,1393.365134,70
1660310142.26971,1393.3651408,63
1660310142.26971,1393.3651476,51
1660310142.26971,1393.3651558,44
1660310142.26971,1393.3651644,44
1660310142.26971,1393.3651745,42
1660310142.26971,1393.3651811,42
1660310142.26971,1393.3651855,49
1660310142.26971,1393.36519,23
1660310142.26971,1393.3651954,-58
1660310142.26971,1393.3652003,-84
1660310142.26971,1393.365205,114
1660310142.26971,1393.3652092,519
1660310142.26971,1393.3652137,818
1660310142.26971,1393.3652185,631
1660310142.26971,1393.3652234,180
1660310142.26971,1393.3652285,18
1660310142.26971,1393.3652373,74
1660310142.26971,1393.3652606,32
1660310142.26971,1393.3652769,-18
1660310142.26971,1393.3652844,11
1660310142.26971,1393.3652879,16
1660310142.26971,1393.365291,2
1660310142.26971,1393.365294,21
1660310142.26971,1393.3652969,42
1660310142.26971,1393.3652997,42
1660310142.26971,1393.3653028,49
1660310142.26971,1393.365306,56
1660310142.26971,1393.3653094,56
1660310142.26971,1393.3653129,67
1660310142.26971,1393.3653175,84
1660310142.26971,1393.3653217,77
1660310142.26971,1393.3653249,67
1660310142.26971,1393.3653283,79
1660310142.26971,1393.3653319,95
1660310142.26971,1393.3653354,109
1660310142.26971,1393.365339,124
1660310142.26971,1393.3653443,135
1660310142.26971,1393.3653483,147
1660310142.28268,1393.3653519,161
1660310142.28268,1393.3653572,182
1660310142.28268,1393.3653609,203
1660310142.28268,1393.3653665,222
1660310142.28268,1393.3653706,238
1660310142.28268,1393.3653764,250
1660310142.28268,1393.3653818,250
1660310142.28268,1393.3653864,245
1660310142.28268,1393.3653927,231
1660310142.28268,1393.3653984,205
1660310142.28268,1393.3654026,177
1660310142.28268,1393.365407,142
1660310142.28268,1393.3654106,102
1660310142.28268,1393.3654148,74
1660310142.28268,1393.3654189,53
1660310142.28268,1393.3654229,42
1660310142.28268,1393.3654276,39
1660310142.28268,1393.3654355,35
1660310142.28268,1393.3654394,35
1660310142.28268,1393.9011995,32
1660310142.28268,1393.9012213,25
1660310142.28268,1393.9012352,21
1660310142.28268,1393.9012456,25
1660310142.28268,1393.9012527,32
1660310142.99481,1393.9012608,32
1660310142.99481,1393.9012654,35
1660310142.99481,1393.9012697,28
1660310142.99481,1393.901275,11
1660310142.99481,1393.9012805,16
1660310142.99481,1393.9012857,23
1660310142.99481,1393.9012915,7
1660310142.99481,1393.9012957,0
1660310142.99481,1393.9013015,0
1660310142.99481,1393.9013082,-21
1660310142.99481,1393.9013125,-32
1660310142.99481,1393.9013198,-18
1660310142.99481,1393.9013247,-14
1660310142.99481,1393.9013281,-18
1660310142.99481,1393.9013339,-11
1660310142.99481,1393.9013397,-9
1660310142.99481,1393.9013442,-11
1660310142.99481,1393.9013477,-7
1660310142.99481,1393.901351,-2
1660310142.99481,1393.9013541,4
1660310142.99481,1393.9013585,11
1660310142.99481,1393.9013617,14
1660310142.99481,1393.901367,16
1660310142.99481,1393.9013733,18
1660310142.99481,1393.9013798,25
1660310142.99481,1393.9013865,30
1660310142.99481,1393.9013906,37
1660310142.99481,1393.9013936,44
1660310142.99481,1393.9013967,46
1660310142.99481,1393.9014002,44
1660310142.99481,1393.9014036,49
1660310142.99481,1393.901407,58
1660310142.99481,1393.9014101,60
1660310142.99481,1393.9014131,53
1660310142.99481,1393.9014172,49
1660310142.99481,1393.901421,46
1660310142.99481,1393.9014247,46
1660310142.99481,1393.9014279,46
1660310142.99481,1393.9014314,44
1660310142.99481,1393.9014351,44
1660310142.99481,1393.9014386,51
1660310142.99481,1393.901442,49
1660310142.99481,1393.9014457,46
1660310142.99481,1393.9014492,51
1660310142.99481,1393.9014527,58
1660310142.99481,1393.9014563,63
1660310142.99481,1393.901461,79
1660310142.99481,1393.9014672,93
1660310142.99481,1393.9014706,105
1660310142.99481,1393.9014739,114
1660310143.00578,1393.9014773,114
1660310143.00578,1393.9014809,107
1660310143.00578,1393.9014866,102
1660310143.00578,1393.90149,102
1660310143.00578,1393.9014936,100
1660310143.00578,1393.9014974,105
1660310143.00578,1393.901501,109
1660310143.00578,1393.9015048,112
1660310143.00578,1393.9015126,91
1660310143.00578,1393.9015162,28
1660310143.00578,1393.9015196,18
1660310143.00578,1393.9015234,248
1660310143.00578,1393.9015271,687
1660310143.00578,1393.9015305,942
1660310143.00578,1393.9015344,666
1660310143.00578,1393.9015381,219
1660310143.00578,1393.9015417,109
1660310143.00578,1393.9015451,147
1660310143.00578,1394.6319569,84
1660310143.00578,1394.6319769,46
1660310143.00578,1394.631983,72
1660310143.00578,1394.6319879,60
1660310143.00578,1394.6319912,30
1660310143.00578,1394.6319946,23
1660310143.49171,1394.6319977,35
1660310143.49171,1394.6320009,46
1660310143.49171,1394.6320039,53
1660310143.49171,1394.6320071,58
1660310143.49171,1394.63201,51
1660310143.49171,1394.6320134,35
1660310143.49171,1394.6320166,42
1660310143.49171,1394.6320198,63
1660310143.49171,1394.6320228,72
1660310143.49171,1394.6320258,81
1660310143.49171,1394.6320287,91
1660310143.49171,1394.6320331,100
1660310143.49171,1394.6320374,116
1660310143.49171,1394.6320408,140
1660310143.49171,1394.6320438,161
1660310143.49171,1394.6320466,182
1660310143.49171,1394.6320497,203
1660310143.49171,1394.6320525,217
1660310143.49171,1394.6320554,224
1660310143.49171,1394.6320582,231
1660310143.49171,1394.632061,245
1660310143.49171,1394.6320639,250
1660310143.49171,1394.6320667,240
1660310143.49171,1394.6320697,217
1660310143.49171,1394.6320725,182
1660310143.49171,1394.6320754,131
1660310143.49171,1394.6320784,81
1660310143.49171,1394.6320813,46
1660310143.49171,1394.6320843,9
1660310143.49171,1394.6320873,-23
1660310143.49171,1394.6320901,-39
1660310143.49171,1394.6320931,-46
1660310143.49171,1394.6320959,-46
1660310143.49171,1394.6320987,-42
1660310143.49171,1394.6321016,-42
1660310143.49171,1394.6321044,-42
1660310143.49171,1394.6321074,-35
1660310143.49171,1394.6321103,-30
1660310143.49171,1394.6321131,-28
1660310143.49171,1394.6321159,-21
1660310143.49171,1394.6321187,-14
1660310143.49171,1394.6321215,-7
1660310143.49171,1394.6321245,0
1660310143.49171,1394.6321273,4
1660310143.49171,1394.6321302,14
1660310143.49171,1394.632133,23
1660310143.49171,1394.6321358,25
1660310143.49171,1394.6321387,30
1660310143.49171,1394.6321416,37
1660310143.49171,1394.6321444,39
1660310143.50368,1394.6321472,39
1660310143.50368,1394.63215,44
1660310143.50368,1394.632153,46
1660310143.50368,1394.6321559,53
1660310143.50368,1394.6321588,60
1660310143.50368,1394.6321616,60
1660310143.50368,1394.6321645,60
1660310143.50368,1394.6321672,65
1660310143.50368,1394.6321702,67
1660310143.50368,1394.6321731,65
1660310143.50368,1394.6321759,63
1660310143.50368,1394.6321788,60
1660310143.50368,1394.6321817,63
1660310143.50368,1394.6321848,67
1660310143.50368,1394.6321914,70
1660310143.50368,1394.6321952,70
1660310143.50368,1394.6321984,79
1660310143.50368,1395.1195454,84
1660310143.50368,1395.1195607,84
1660310143.50368,1395.1195659,84
1660310143.50368,1395.1195705,86
1660310143.50368,1395.119576,88
1660310143.50368,1395.1195806,93
1660310143.50368,1395.1195853,100
1660310144.02573,1395.1195898,98
1660310144.02573,1395.1195947,91
1660310144.02573,1395.1195993,91
1660310144.02573,1395.1196041,95
1660310144.02573,1395.1196089,102
1660310144.02573,1395.1196136,107
1660310144.02573,1395.1196184,107
1660310144.02573,1395.1196252,109
1660310144.02573,1395.1196331,109
1660310144.02573,1395.1196398,112
1660310144.02573,1395.1196465,116
1660310144.02573,1395.1196534,124
1660310144.02573,1395.1196602,119
1660310144.02573,1395.1196672,102
1660310144.02573,1395.1196756,81
1660310144.02573,1395.1196838,81
1660310144.02573,1395.1196885,86
1660310144.02573,1395.1196934,67
1660310144.02573,1395.1196981,44
1660310144.02573,1395.1197028,35
1660310144.02573,1395.1197081,32
1660310144.02573,1395.1197131,44
1660310144.02573,1395.1197176,58
1660310144.02573,1395.1197238,67
1660310144.02573,1395.1197312,72
1660310144.02573,1395.1197377,67
1660310144.02573,1395.1197473,49
1660310144.02573,1395.1197542,37
1660310144.02573,1395.1197594,35
1660310144.02573,1395.1197629,28
1660310144.02573,1395.1197661,21
1660310144.02573,1395.1197707,14
1660310144.02573,1395.1197829,-14
1660310144.02573,1395.1197916,-72
1660310144.02573,1395.119795,-86
1660310144.02573,1395.1198013,105
1660310144.02573,1395.1198064,514
1660310144.02573,1395.1198106,830
1660310144.02573,1395.1198181,673
1660310144.02573,1395.1198255,252
1660310144.02573,1395.1198308,58
1660310144.02573,1395.1198347,58
1660310144.02573,1395.1198378,16
1660310144.02573,1395.1198447,-11
1660310144.02573,1395.1198519,4
1660310144.02573,1395.1198583,0
1660310144.02573,1395.1198636,-2
1660310144.02573,1395.1198679,14
1660310144.02573,1395.1198727,18
1660310144.02573,1395.1198779,16
1660310144.0367,1395.1198811,14
1660310144.0367,1395.1198862,11
1660310144.0367,1395.1198903,18
1660310144.0367,1395.1198944,32
1660310144.0367,1395.1199007,42
1660310144.0367,1395.1199064,51
1660310144.0367,1395.1199099,60
1660310144.0367,1395.1199143,67
1660310144.0367,1395.1199179,70
1660310144.0367,1395.1199228,77
1660310144.0367,1395.1199258,93
1660310144.0367,1395.1199286,105
1660310144.0367,1395.1199314,116
1660310144.0367,1395.1199342,135
1660310144.0367,1395.1199371,156
1660310144.0367,1395.1199401,173
1660310144.0367,1395.656392,191
1660310144.0367,1395.6564102,208
1660310144.0367,1395.6564204,219
1660310144.0367,1395.6564298,222
1660310144.0367,1395.6564394,217
1660310144.0367,1395.6564468,210
1660310144.0367,1395.6564527,189
1660310144.0367,1395.6564628,154
1660310144.55671,1395.6564671,114
1660310144.55671,1395.6564693,84
1660310144.55671,1395.6564713,51
1660310144.55671,1395.6564749,16
1660310144.55671,1395.6564863,-2
1660310144.55671,1395.6564918,-2
1660310144.55671,1395.656494,-4
1660310144.55671,1395.6564959,-4
1660310144.55671,1395.6564978,-16
1660310144.55671,1395.6565005,-46
1660310144.55671,1395.6565083,-56
1660310144.55671,1395.6565148,-42
1660310144.55671,1395.6565189,-35
1660310144.55671,1395.6565226,-32
1660310144.55671,1395.6565263,-21
1660310144.55671,1395.65653,-14
1660310144.55671,1395.6565337,-11
1660310144.55671,1395.6565374,-7
1660310144.55671,1395.6565412,2
1660310144.55671,1395.6565451,11
1660310144.55671,1395.6565491,21
1660310144.55671,1395.6565546,25
1660310144.55671,1395.6565585,30
1660310144.55671,1395.6565636,32
1660310144.55671,1395.6565677,39
1660310144.55671,1395.656573,44
1660310144.55671,1395.656577,46
1660310144.55671,1395.656582,56
1660310144.55671,1395.6565858,60
1660310144.55671,1395.6565906,58
1660310144.55671,1395.6565958,60
1660310144.55671,1395.656606,70
1660310144.55671,1395.6566113,77
1660310144.55671,1395.6566135,79
1660310144.55671,1395.6566156,79
1660310144.55671,1395.6566177,77
1660310144.55671,1395.6566198,79
1660310144.55671,1395.6566546,88
1660310144.55671,1395.6566593,95
1660310144.55671,1395.6566616,95
1660310144.55671,1395.6566639,93
1660310144.55671,1395.6566662,88
1660310144.55671,1395.6566684,88
1660310144.55671,1395.6566707,95
1660310144.55671,1395.656673,100
1660310144.55671,1395.6566751,102
1660310144.55671,1395.6566773,107
1660310144.55671,1395.6566794,105
1660310144.55671,1395.6566815,102
1660310144.55671,1395.6566837,105
1660310144.56768,1395.6566859,109
1660310144.56768,1395.656688,114
1660310144.56768,1395.6566904,119
1660310144.56768,1395.6566925,119
1660310144.56768,1395.6566947,114
1660310144.56768,1395.6566968,114
1660310144.56768,1395.656699,121
1660310144.56768,1395.6567011,124
1660310144.56768,1395.6567032,124
1660310144.56768,1395.6567053,126
1660310144.56768,1395.6567074,121
1660310144.56768,1395.6567096,119
1660310144.56768,1395.6567117,124
1660310144.56768,1395.6567139,131
1660310144.56768,1395.656716,133
1660310144.56768,1396.1927339,126
1660310144.56768,1396.1927517,119
1660310144.56768,1396.1927608,116
1660310144.56768,1396.1927691,119
1660310144.56768,1396.1927777,128
1660310144.56768,1396.1927802,147
1660310144.56768,1396.1927826,159
1660310144.56768,1396.1927895,149
1660310144.56768,1396.192801,131
1660310145.19433,1396.1928063,114
1660310145.19433,1396.1928084,107
1660310145.19433,1396.1928105,102
1660310145.19433,1396.1928124,98
1660310145.19433,1396.1928143,86
1660310145.19433,1396.1928167,65
1660310145.19433,1396.1928249,60
1660310145.19433,1396.1928321,72
1660310145.19433,1396.1928379,56
1660310145.19433,1396.1928455,-4
1660310145.19433,1396.1928546,-18
1660310145.19433,1396.1928632,170
1660310145.19433,1396.1928683,559
1660310145.19433,1396.1928785,818
1660310145.19433,1396.1928872,615
1660310145.19433,1396.1928975,210
1660310145.19433,1396.1929078,56
1660310145.19433,1396.1929164,51
1660310145.19433,1396.1929281,-7
1660310145.19433,1396.1929358,-35
1660310145.19433,1396.1929383,-7
1660310145.19433,1396.1929404,-7
1660310145.19433,1396.1929425,-9
1660310145.19433,1396.1929445,2
1660310145.19433,1396.1929473,4
1660310145.19433,1396.1929499,4
1660310145.19433,1396.1929528,9
1660310145.19433,1396.1929636,11
1660310145.19433,1396.1929765,11
1660310145.19433,1396.1929883,14
1660310145.19433,1396.1929983,11
1660310145.19433,1396.193003,11
1660310145.19433,1396.1930094,23
1660310145.19433,1396.1930167,37
1660310145.19433,1396.1930257,46
1660310145.19433,1396.1930318,60
1660310145.19433,1396.1930403,77
1660310145.19433,1396.1930448,88
1660310145.19433,1396.1930507,105
1660310145.19433,1396.1930674,131
1660310145.19433,1396.1930731,154
1660310145.19433,1396.1930803,170
1660310145.19433,1396.1930862,184
1660310145.19433,1396.1930919,198
1660310145.19433,1396.1930996,210
1660310145.19433,1396.1931124,217
1660310145.19433,1396.1931265,217
1660310145.19433,1396.1931391,205
1660310145.19433,1396.1931543,182
1660310145.19433,1396.1931658,149
1660310145.2053,1396.1931749,112
1660310145.2053,1396.1931816,79
1660310145.2053,1396.1931899,53
1660310145.2053,1396.1931962,32
1660310145.2053,1396.1932046,23
1660310145.2053,1396.1932109,18
1660310145.2053,1396.1932194,16
1660310145.2053,1396.1932257,16
1660310145.2053,1396.1932344,14
1660310145.2053,1396.1932404,21
1660310145.2053,1396.1932491,28
1660310145.2053,1396.1932573,30
1660310145.2053,1396.1932645,25
1660310145.2053,1396.1932727,23
1660310145.2053,1396.8264885,28
1660310145.2053,1396.8265076,28
1660310145.2053,1396.8265139,16
1660310145.2053,1396.8265214,11
1660310145.2053,1396.8265246,23
1660310145.2053,1396.8265276,25
1660310145.2053,1396.8265345,23
1660310145.2053,1396.8265378,32
1660310145.2053,1396.8265445,44
1660310145.2053,1396.8265513,46
1660310145.68203,1396.8265582,37
1660310145.68203,1396.8265643,16
1660310145.68203,1396.8265712,14
1660310145.68203,1396.8265778,25
1660310145.68203,1396.8265847,32
1660310145.68203,1396.8265893,32
1660310145.68203,1396.8265943,32
1660310145.68203,1396.8265984,18
1660310145.68203,1396.8266035,9
1660310145.68203,1396.8266074,21
1660310145.68203,1396.8266131,30
1660310145.68203,1396.8266161,30
1660310145.68203,1396.8266192,35
1660310145.68203,1396.8266244,32
1660310145.68203,1396.8266273,25
1660310145.68203,1396.8266302,30
1660310145.68203,1396.826633,39
1660310145.68203,1396.8266358,44
1660310145.68203,1396.8266387,49
1660310145.68203,1396.8266417,56
1660310145.68203,1396.8266445,53
1660310145.68203,1396.8266474,46
1660310145.68203,1396.8266502,49
1660310145.68203,1396.826653,60
1660310145.68203,1396.826656,65
1660310145.68203,1396.8266588,65
1660310145.68203,1396.8266616,65
1660310145.68203,1396.8266644,67
1660310145.68203,1396.8266673,74
1660310145.68203,1396.8266701,84
1660310145.68203,1396.826673,91
1660310145.68203,1396.8266758,88
1660310145.68203,1396.8266788,86
1660310145.68203,1396.8266816,86
1660310145.68203,1396.8266844,88
1660310145.68203,1396.8266873,93
1660310145.68203,1396.8266901,93
1660310145.68203,1396.826693,88
1660310145.68203,1396.8266958,91
1660310145.68203,1396.8266986,105
1660310145.68203,1396.8267015,124
1660310145.68203,1396.8267043,135
1660310145.68203,1396.8267072,140
1660310145.68203,1396.82671,135
1660310145.68203,1396.8267131,121
1660310145.68203,1396.8267161,109
1660310145.68203,1396.8267189,109
1660310145.68203,1396.8267217,114
1660310145.68203,1396.8267246,121
1660310145.68203,1396.8267274,121
1660310145.693,1396.8267301,116
1660310145.693,1396.826733,88
1660310145.693,1396.8267359,21
1660310145.693,1396.8267386,21
1660310145.693,1396.8267415,266
1660310145.693,1396.8267444,692
1660310145.693,1396.8267472,882
1660310145.693,1396.82675,552
1660310145.693,1396.8267529,128
1660310145.693,1396.8267558,67
1660310145.693,1396.8267587,114
1660310145.693,1396.8267615,37
1660310145.693,1396.8267644,0
1660310145.693,1397.3149739,32
1660310145.693,1397.3149918,28
1660310145.693,1397.3150045,18
1660310145.693,1397.3150148,37
1660310145.693,1397.3150194,44
1660310145.693,1397.315023,39
1660310145.693,1397.315025,44
1660310145.693,1397.3150271,35
1660310145.693,1397.3150291,11
1660310145.693,1397.3150311,11
1660310145.693,1397.3150331,25
1660310146.2166,1397.315035,28
1660310146.2166,1397.315037,32
1660310146.2166,1397.3150388,44
1660310146.2166,1397.3150407,51
1660310146.2166,1397.3150425,63
1660310146.2166,1397.3150447,81
1660310146.2166,1397.3150514,98
1660310146.2166,1397.3150612,119
1660310146.2166,1397.315069,142
1660310146.2166,1397.3150764,154
1660310146.2166,1397.3150809,163
1660310146.2166,1397.3150875,177
1660310146.2166,1397.3150982,189
1660310146.2166,1397.3151055,203
1660310146.2166,1397.3151093,210
1660310146.2166,1397.3151152,191
1660310146.2166,1397.3151183,149
1660310146.2166,1397.3151215,116
1660310146.2166,1397.3151248,86
1660310146.2166,1397.3151281,46
1660310146.2166,1397.3151314,18
1660310146.2166,1397.3151346,0
1660310146.2166,1397.3151381,-21
1660310146.2166,1397.3151429,-35
1660310146.2166,1397.3151462,-32
1660310146.2166,1397.3151494,-28
1660310146.2166,1397.3151538,-25
1660310146.2166,1397.3151571,-21
1660310146.2166,1397.3151625,-18
1660310146.2166,1397.3151673,-11
1660310146.2166,1397.3151727,-2
1660310146.2166,1397.315176,4
1660310146.2166,1397.3151793,14
1660310146.2166,1397.3151824,25
1660310146.2166,1397.3151855,28
1660310146.2166,1397.315189,25
1660310146.2166,1397.3151924,35
1660310146.2166,1397.3151958,46
1660310146.2166,1397.3152018,53
1660310146.2166,1397.3152073,60
1660310146.2166,1397.3152117,67
1660310146.2166,1397.3152173,67
1660310146.2166,1397.3152208,65
1660310146.2166,1397.3152242,58
1660310146.2166,1397.3152292,60
1660310146.2166,1397.3152349,70
1660310146.2166,1397.31524,72
1660310146.2166,1397.3152436,70
1660310146.2166,1397.3152474,67
1660310146.2166,1397.3152532,63
1660310146.22657,1397.315257,56
1660310146.22657,1397.3152605,53
1660310146.22657,1397.3152657,60
1660310146.22657,1397.3152704,63
1660310146.22657,1397.3152741,58
1660310146.22657,1397.3152778,63
1660310146.22657,1397.3152814,72
1660310146.22657,1397.3152852,77
1660310146.22657,1397.3152892,79
1660310146.22657,1397.3152932,84
1660310146.22657,1397.3152987,81
1660310146.22657,1397.3153024,84
1660310146.22657,1397.8500466,91
1660310146.22657,1397.8500621,95
1660310146.22657,1397.8500663,98
1660310146.22657,1397.8500729,93
1660310146.22657,1397.8500773,74
1660310146.22657,1397.8500823,58
1660310146.22657,1397.8500857,65
1660310146.22657,1397.8500892,74
1660310146.22657,1397.8500943,79
1660310146.22657,1397.850099,84
1660310146.22657,1397.8501024,77
1660310146.22657,1397.8501058,65
1660310146.90046,1397.8501092,67
1660310146.90046,1397.8501126,70
1660310146.90046,1397.8501159,67
1660310146.90046,1397.8501193,74
1660310146.90046,1397.8501227,72
1660310146.90046,1397.8501261,63
1660310146.90046,1397.8501297,60
1660310146.90046,1397.850133,65
1660310146.90046,1397.8501364,72
1660310146.90046,1397.8501398,86
1660310146.90046,1397.8501432,100
1660310146.90046,1397.8501465,95
1660310146.90046,1397.8501499,81
1660310146.90046,1397.8501533,84
1660310146.90046,1397.8501568,88
1660310146.90046,1397.8501601,77
1660310146.90046,1397.8501634,72
1660310146.90046,1397.8501667,72
1660310146.90046,1397.85017,74
1660310146.90046,1397.8501734,81
1660310146.90046,1397.8501768,86
1660310146.90046,1397.8501804,77
1660310146.90046,1397.8501839,28
1660310146.90046,1397.8501874,-14
1660310146.90046,1397.8501923,121
1660310146.90046,1397.8501957,491
1660310146.90046,1397.8502022,844
1660310146.90046,1397.8502417,776
1660310146.90046,1397.8502512,357
1660310146.90046,1397.8502567,105
1660310146.90046,1397.8502624,95
1660310146.90046,1397.8502688,56
1660310146.90046,1397.8502744,4
1660310146.90046,1397.85028,14
1660310146.90046,1397.8502885,14
1660310146.90046,1397.8502952,0
1660310146.90046,1397.8503006,0
1660310146.90046,1397.8503042,0
1660310146.90046,1397.850307,0
1660310146.90046,1397.8503099,7
1660310146.90046,1397.8503128,11
1660310146.90046,1397.8503156,7
1660310146.90046,1397.8503184,-4
1660310146.90046,1397.8503215,-2
1660310146.90046,1397.8503243,11
1660310146.90046,1397.8503276,23
1660310146.90046,1397.8503307,28
1660310146.90046,1397.8503337,39
1660310146.90046,1397.8503371,56
1660310146.90046,1397.8503402,70
1660310146.90944,1397.8503434,84
1660310146.90944,1397.8503491,105
1660310146.90944,1397.8503552,128
1660310146.90944,1397.8503594,147
1660310146.90944,1397.8503666,170
1660310146.90944,1397.8503732,189
1660310146.90944,1397.8503801,201
1660310146.90944,1397.8503872,217
1660310146.90944,1397.8503912,226
1660310146.90944,1397.8503952,226
1660310146.90944,1397.8503988,219
1660310146.90944,1398.5336474,196
1660310146.90944,1398.53367,161
1660310146.90944,1398.5336782,121
1660310146.90944,1398.5336843,81
1660310146.90944,1398.5336892,46
1660310146.90944,1398.5336963,25
1660310146.90944,1398.5337059,18
1660310146.90944,1398.5337121,-2
1660310146.90944,1398.5337167,-32
1660310146.90944,1398.5337214,-30
1660310146.90944,1398.5337258,-11
1660310146.90944,1398.5337302,-9
1660310146.90944,1398.5337349,-7
1660310147.33829,1398.5337393,-11
1660310147.33829,1398.5337436,-30
1660310147.33829,1398.533748,-35
1660310147.33829,1398.5337524,-18
1660310147.33829,1398.5337568,-9
1660310147.33829,1398.5337614,-7
1660310147.33829,1398.5337658,0
1660310147.33829,1398.5337702,2
1660310147.33829,1398.5337745,4
1660310147.33829,1398.5337788,16
1660310147.33829,1398.5337829,28
1660310147.33829,1398.5337868,32
1660310147.33829,1398.5337909,39
1660310147.33829,1398.5337948,42
1660310147.33829,1398.5337983,42
1660310147.33829,1398.5338021,49
1660310147.33829,1398.5338058,56
1660310147.33829,1398.5338094,60
1660310147.33829,1398.5338131,67
1660310147.33829,1398.5338167,72
1660310147.33829,1398.5338205,70
1660310147.33829,1398.5338242,70
1660310147.33829,1398.5338279,77
1660310147.33829,1398.5338315,72
1660310147.33829,1398.5338353,67
1660310147.33829,1398.533839,72
1660310147.33829,1398.5338429,72
1660310147.33829,1398.5338466,70
1660310147.33829,1398.5338526,81
1660310147.33829,1398.5338574,91
1660310147.33829,1398.5338628,93
1660310147.33829,1398.5338665,93
1660310147.33829,1398.5338716,95
1660310147.33829,1398.5338757,84
1660310147.33829,1398.5338794,70
1660310147.33829,1398.533883,77
1660310147.33829,1398.5338866,91
1660310147.33829,1398.5338907,91

1660310147.33829,1398.5338958,88
1660310147.33829,1398.5338992,91
1660310147.33829,1398.5339027,91
1660310147.33829,1398.5339062,95
1660310147.33829,1398.5339099,100
1660310147.33829,1398.5339149,102
1660310147.33829,1398.5339186,102
1660310147.33829,1398.5339237,102
1660310147.33829,1398.533928,105
1660310147.33829,1398.5339333,112
1660310147.33829,1398.5339369,114
1660310147.33829,1398.5339406,114
1660310147.34826,1398.5339457,119
1660310147.34826,1398.5339493,116
1660310147.34826,1398.533953,114
1660310147.34826,1398.5339565,119
1660310147.34826,1398.5339601,119
1660310147.34826,1398.5339638,107
1660310147.34826,1398.5339691,98
1660310147.34826,1398.5339727,98
1660310147.34826,1398.5339776,100
1660310147.34826,1398.533982,105
1660310147.34826,1398.9728555,124
1660310147.34826,1398.9728747,140
1660310147.34826,1398.9728834,145
1660310147.34826,1398.97289,142
1660310147.34826,1398.9728971,138
1660310147.34826,1398.9729005,133
1660310147.34826,1398.9729038,128
1660310147.34826,1398.9729072,119
1660310147.34826,1398.9729104,116
1660310147.34826,1398.9729133,124
1660310147.34826,1398.9729162,112
1660310147.34826,1398.972919,86
1660310147.34826,1398.9729218,67
1660310147.34826,1398.9729246,21
1660310147.97073,1398.9729275,-11
1660310147.97073,1398.9729305,152
1660310147.97073,1398.9730771,538
1660310147.97073,1398.9730813,835
1660310147.97073,1398.9730847,694
1660310147.97073,1398.9730882,297
1660310147.97073,1398.9730916,98
1660310147.97073,1398.9730952,86
1660310147.97073,1398.9730986,42
1660310147.97073,1398.973102,-2
1660310147.97073,1398.9731056,4
1660310147.97073,1398.9731089,4
1660310147.97073,1398.9731123,-9
1660310147.97073,1398.9731158,-16
1660310147.97073,1398.9731193,-14
1660310147.97073,1398.9731228,-18
1660310147.97073,1398.9731264,-25
1660310147.97073,1398.9731298,-25
1660310147.97073,1398.9731333,-14
1660310147.97073,1398.9731369,-2
1660310147.97073,1398.9731403,7
1660310147.97073,1398.973144,11
1660310147.97073,1398.9731475,4
1660310147.97073,1398.9731511,7
1660310147.97073,1398.9731547,11
1660310147.97073,1398.9731581,14
1660310147.97073,1398.9731616,28
1660310147.97073,1398.9731651,49
1660310147.97073,1398.9731687,67
1660310147.97073,1398.9731725,86
1660310147.97073,1398.973176,112
1660310147.97073,1398.97318,133
1660310147.97073,1398.9731836,154
1660310147.97073,1398.973187,180
1660310147.97073,1398.9731905,191
1660310147.97073,1398.9731939,191
1660310147.97073,1398.9731973,194
1660310147.97073,1398.9732008,187
1660310147.97073,1398.9732044,168
1660310147.97073,1398.9732077,145
1660310147.97073,1398.9732111,112
1660310147.97073,1398.9732144,74
1660310147.97073,1398.9732182,44
1660310147.97073,1398.9732216,30
1660310147.97073,1398.9732248,23
1660310147.97073,1398.973228,9
1660310147.97073,1398.9732314,2
1660310147.97073,1398.9732361,4
1660310147.97073,1398.9732398,4
1660310147.97073,1398.9732464,7
1660310147.9827,1398.9732501,16
1660310147.9827,1398.973256,25
1660310147.9827,1398.9732598,28
1660310147.9827,1398.973265,30
1660310147.9827,1398.9732686,32
1660310147.9827,1398.9732736,35
1660310147.9827,1398.9732994,39
1660310147.9827,1398.9733098,51
1660310147.9827,1398.9733156,58
1660310147.9827,1399.6065349,60
1660310147.9827,1399.6065486,56
1660310147.9827,1399.6065526,58
1660310147.9827,1399.6065561,74
1660310147.9827,1399.6065609,84
1660310147.9827,1399.6065642,84
1660310147.9827,1399.6065686,81
1660310147.9827,1399.6065719,65
1660310147.9827,1399.606576,49
1660310147.9827,1399.6065791,56
1660310147.9827,1399.6065826,67
1660310147.9827,1399.6065935,67
1660310147.9827,1399.6066015,67
1660310147.9827,1399.6066058,65
1660310147.9827,1399.6066116,56
1660310148.50426,1399.6066153,56
1660310148.50426,1399.6066197,65
1660310148.50426,1399.6066233,70
1660310148.50426,1399.6066267,60
1660310148.50426,1399.6066302,49
1660310148.50426,1399.6066338,39
1660310148.50426,1399.6066374,32
1660310148.50426,1399.6066411,42
1660310148.50426,1399.6066447,53
1660310148.50426,1399.6066481,53
1660310148.50426,1399.6066522,58
1660310148.50426,1399.6066567,60
1660310148.50426,1399.6066598,58
1660310148.50426,1399.6066627,65
1660310148.50426,1399.6066656,77
1660310148.50426,1399.6066686,77
1660310148.50426,1399.6066715,60
1660310148.50426,1399.6066744,49
1660310148.50426,1399.6066773,58
1660310148.50426,1399.6066801,65
1660310148.50426,1399.6066828,65
1660310148.50426,1399.6066856,67
1660310148.50426,1399.6066884,70
1660310148.50426,1399.6066911,74
1660310148.50426,1399.6066938,77
1660310148.50426,1399.6066966,81
1660310148.50426,1399.6066992,86
1660310148.50426,1399.606702,88
1660310148.50426,1399.6067046,93
1660310148.50426,1399.6067073,95
1660310148.50426,1399.6067106,93
1660310148.50426,1399.6067133,93
1660310148.50426,1399.606716,95
1660310148.50426,1399.6067187,95
1660310148.50426,1399.6067214,86
1660310148.50426,1399.6067241,79
1660310148.50426,1399.6067269,86
1660310148.50426,1399.6067297,100
1660310148.50426,1399.6067323,112
1660310148.50426,1399.606735,121
1660310148.50426,1399.6067387,124
1660310148.50426,1399.6067435,119
1660310148.50426,1399.6067492,107
1660310148.50426,1399.6067533,100
1660310148.50426,1399.6067569,100
1660310148.50426,1399.6067603,102
1660310148.50426,1399.6067635,105
1660310148.50426,1399.6067664,107
1660310148.50426,1399.6067695,102
1660310148.50426,1399.6067725,53
1660310148.51423,1399.6067756,-9
1660310148.51423,1399.606789,86
1660310148.51423,1399.6068023,430
1660310148.51423,1399.606816,804
1660310148.51423,1399.6068302,797
1660310148.51423,1399.606844,383
1660310148.51423,1399.6068579,100
1660310148.51423,1399.6068716,109
1660310148.51423,1400.1414935,93
1660310148.51423,1400.1415056,18
1660310148.51423,1400.1415088,23
1660310148.51423,1400.1415111,37
1660310148.51423,1400.1415133,14
1660310148.51423,1400.1415154,4
1660310148.51423,1400.1415175,16
1660310148.51423,1400.1415196,23
1660310148.51423,1400.1415217,25
1660310148.51423,1400.1415238,23
1660310148.51423,1400.1415259,11
1660310148.51423,1400.1415283,4
1660310148.51423,1400.1415305,14
1660310148.51423,1400.1415326,28
1660310148.51423,1400.1415347,37
1660310148.51423,1400.1415367,46
1660310149.14282,1400.1415387,49
1660310149.14282,1400.1415407,39
1660310149.14282,1400.1415427,44
1660310149.14282,1400.1415488,67
1660310149.14282,1400.1415579,91
1660310149.14282,1400.1415625,109
1660310149.14282,1400.1415661,133
1660310149.14282,1400.1415697,149
1660310149.14282,1400.1415739,154
1660310149.14282,1400.141578,159
1660310149.14282,1400.1415818,173
1660310149.14282,1400.1415867,187
1660310149.14282,1400.1415929,187
1660310149.14282,1400.1415967,168
1660310149.14282,1400.1416002,128
1660310149.14282,1400.141604,93
1660310149.14282,1400.1416091,65
1660310149.14282,1400.1416129,35
1660310149.14282,1400.1416181,4
1660310149.14282,1400.1416221,-14
1660310149.14282,1400.1416259,-32
1660310149.14282,1400.1416296,-42
1660310149.14282,1400.1416336,-35
1660310149.14282,1400.1416388,-25
1660310149.14282,1400.1416427,-25
1660310149.14282,1400.1416466,-30
1660310149.14282,1400.1416524,-39
1660310149.14282,1400.141656,-35
1660310149.14282,1400.1416598,-18
1660310149.14282,1400.141666,-9
1660310149.14282,1400.1416747,-4
1660310149.14282,1400.1416772,2
1660310149.14282,1400.1416794,4
1660310149.14282,1400.1416877,9
1660310149.14282,1400.1416897,21
1660310149.14282,1400.1416916,32
1660310149.14282,1400.1416935,37
1660310149.14282,1400.1416964,49
1660310149.14282,1400.1416985,51
1660310149.14282,1400.1417005,49
1660310149.14282,1400.1417025,53
1660310149.14282,1400.1417044,65
1660310149.14282,1400.1417064,67
1660310149.14282,1400.1417084,67
1660310149.14282,1400.1417105,70
1660310149.14282,1400.1417131,72
1660310149.14282,1400.1417152,74
1660310149.14282,1400.1417171,79
1660310149.14282,1400.1417191,84
1660310149.14282,1400.1417211,88
1660310149.15379,1400.1417231,88
1660310149.15379,1400.1417251,86
1660310149.15379,1400.1417271,88
1660310149.15379,1400.1417292,93
1660310149.15379,1400.1417311,95
1660310149.15379,1400.1417331,100
1660310149.15379,1400.1417351,105
1660310149.15379,1400.7749462,100
1660310149.15379,1400.774973,93
1660310149.15379,1400.7749764,98
1660310149.15379,1400.7749786,102
1660310149.15379,1400.7749806,102
1660310149.15379,1400.7749827,105
1660310149.15379,1400.7749847,102
1660310149.15379,1400.7749867,86
1660310149.15379,1400.7749887,70
1660310149.15379,1400.7749907,72
1660310149.15379,1400.7749928,81
1660310149.15379,1400.7749948,84
1660310149.15379,1400.7749968,84
1660310149.15379,1400.7749988,74
1660310149.15379,1400.7750008,56
1660310149.15379,1400.7750028,56
1660310149.15379,1400.7750048,63
1660310149.6248,1400.7750068,51
1660310149.6248,1400.7750088,39
1660310149.6248,1400.7750107,37
1660310149.6248,1400.7750126,32
1660310149.6248,1400.7750146,28
1660310149.6248,1400.7750165,42
1660310149.6248,1400.7750184,65
1660310149.6248,1400.7750203,79
1660310149.6248,1400.7750222,86
1660310149.6248,1400.775024,84
1660310149.6248,1400.7750259,72
1660310149.6248,1400.7750295,67
1660310149.6248,1400.7750314,67
1660310149.6248,1400.7750333,67
1660310149.6248,1400.7750351,67
1660310149.6248,1400.775037,67
1660310149.6248,1400.7750388,72
1660310149.6248,1400.7750408,74
1660310149.6248,1400.7750428,39
1660310149.6248,1400.7750448,-32
1660310149.6248,1400.7750467,0
1660310149.6248,1400.7750486,271
1660310149.6248,1400.7750514,685
1660310149.6248,1400.7750534,851
1660310149.6248,1400.775056,524
1660310149.6248,1400.7750581,135
1660310149.6248,1400.7750601,79
1660310149.6248,1400.7750621,95
1660310149.6248,1400.775064,18
1660310149.6248,1400.775066,-7
1660310149.6248,1400.7750681,14
1660310149.6248,1400.7750702,0
1660310149.6248,1400.7750721,0
1660310149.6248,1400.7750741,18
1660310149.6248,1400.775076,18
1660310149.6248,1400.775078,11
1660310149.6248,1400.7750801,23
1660310149.6248,1400.775082,35
1660310149.6248,1400.7750841,39
1660310149.6248,1400.7750862,46
1660310149.6248,1400.7750882,56
1660310149.6248,1400.7750902,60
1660310149.6248,1400.7750922,65
1660310149.6248,1400.7750942,77
1660310149.6248,1400.7750961,98
1660310149.6248,1400.7750982,112
1660310149.6248,1400.7751001,126
1660310149.6248,1400.775102,138
1660310149.6248,1400.7751042,142
1660310149.6248,1400.7751062,161
1660310149.63776,1400.7751083,196
1660310149.63776,1400.7751103,219
1660310149.63776,1400.7751124,236
1660310149.63776,1400.7751143,248
1660310149.63776,1400.7751163,252
1660310149.63776,1400.7751183,255
1660310149.63776,1401.2628103,252
1660310149.63776,1401.262823,233
1660310149.63776,1401.2628283,205
1660310149.63776,1401.2628328,161
1660310149.63776,1401.2628358,98
1660310149.63776,1401.2628387,46
1660310149.63776,1401.2628415,30
1660310149.63776,1401.2628443,21
1660310149.63776,1401.2628475,11
1660310149.63776,1401.2628594,7
1660310149.63776,1401.2628698,-7
1660310149.63776,1401.2628737,-21
1660310149.63776,1401.2628764,-14
1660310149.63776,1401.2628786,-2
1660310149.63776,1401.2628807,2
1660310149.63776,1401.2628838,7
1660310149.63776,1401.2628967,7
1660310149.63776,1401.2629023,2
1660310150.17052,1401.2629048,11
1660310150.17052,1401.2629068,28
1660310150.17052,1401.262909,32
1660310150.17052,1401.2629164,32
1660310150.17052,1401.2629254,37
1660310150.17052,1401.2629285,42
1660310150.17052,1401.2629306,42
1660310150.17052,1401.2629363,51
1660310150.17052,1401.2629451,58
1660310150.17052,1401.2629548,58
1660310150.17052,1401.2629651,63
1660310150.17052,1401.2629759,56
1660310150.17052,1401.2629847,42
1660310150.17052,1401.2629926,44
1660310150.17052,1401.2629988,53
1660310150.17052,1401.2630012,58
1660310150.17052,1401.2630032,63
1660310150.17052,1401.2630052,60
1660310150.17052,1401.2630072,58
1660310150.17052,1401.2630091,63
1660310150.17052,1401.2630114,72
1660310150.17052,1401.2630188,74
1660310150.17052,1401.2630294,74
1660310150.17052,1401.2630338,74
1660310150.17052,1401.2630358,77
1660310150.17052,1401.2630379,81
1660310150.17052,1401.2630403,88
1660310150.17052,1401.2630496,88
1660310150.17052,1401.2630593,88
1660310150.17052,1401.2630631,95
1660310150.17052,1401.2630651,100
1660310150.17052,1401.2630719,98
1660310150.17052,1401.2630831,100
1660310150.17052,1401.2630883,102
1660310150.17052,1401.2630903,100
1660310150.17052,1401.2630955,102
1660310150.17052,1401.2631069,109
1660310150.17052,1401.2631123,107
1660310150.17052,1401.2631153,102
1660310150.17052,1401.2631174,102
1660310150.17052,1401.2631207,107
1660310150.17052,1401.2631333,105
1660310150.17052,1401.2631433,109
1660310150.17052,1401.2631547,112
1660310150.17052,1401.2631574,109
1660310150.17052,1401.26316,114
1660310150.17052,1401.2631699,114
1660310150.17052,1401.2631789,112
1660310150.17052,1401.2631813,114
1660310150.17052,1401.2631833,116
1660310150.18048,1401.2631853,114
1660310150.18048,1401.2631873,116
1660310150.18048,1401.2631901,119
1660310150.18048,1401.2632,121
1660310150.18048,1401.2632082,124
1660310150.18048,1401.7998403,121
1660310150.18048,1401.7998538,116
1660310150.18048,1401.7998573,105
1660310150.18048,1401.7998607,84
1660310150.18048,1401.7998627,79
1660310150.18048,1401.7998648,100
1660310150.18048,1401.7998668,116
1660310150.18048,1401.7998687,98
1660310150.18048,1401.7998706,72
1660310150.18048,1401.7998726,74
1660310150.18048,1401.7998746,81
1660310150.18048,1401.7998766,70
1660310150.18048,1401.7998787,65
1660310150.18048,1401.7998807,67
1660310150.18048,1401.7998827,60
1660310150.18048,1401.7998847,53
1660310150.18048,1401.7998866,56
1660310150.18048,1401.7998887,51
1660310150.18048,1401.7998907,16
1660310150.70528,1401.7998929,-53
1660310150.70528,1401.7998948,-35
1660310150.70528,1401.7998968,231
1660310150.70528,1401.7998987,648
1660310150.70528,1401.7999006,790
1660310150.70528,1401.7999025,472
1660310150.70528,1401.7999044,116
1660310150.70528,1401.7999062,23
1660310150.70528,1401.799908,2
1660310150.70528,1401.7999099,-46
1660310150.70528,1401.7999117,-46
1660310150.70528,1401.7999136,-28
1660310150.70528,1401.7999155,-30
1660310150.70528,1401.7999185,-32
1660310150.70528,1401.7999265,-25
1660310150.70528,1401.7999321,-16
1660310150.70528,1401.7999361,-7
1660310150.70528,1401.7999411,2
1660310150.70528,1401.7999465,14
1660310150.70528,1401.7999514,23
1660310150.70528,1401.7999602,23
1660310150.70528,1401.7999669,35
1660310150.70528,1401.7999692,51
1660310150.70528,1401.7999713,60
1660310150.70528,1401.7999733,72
1660310150.70528,1401.7999754,86
1660310150.70528,1401.7999774,93
1660310150.70528,1401.7999794,102
1660310150.70528,1401.7999814,114
1660310150.70528,1401.7999834,131
1660310150.70528,1401.7999854,154
1660310150.70528,1401.7999874,177
1660310150.70528,1401.7999895,191
1660310150.70528,1401.7999914,205
1660310150.70528,1401.7999934,224
1660310150.70528,1401.7999954,240
1660310150.70528,1401.7999975,245
1660310150.70528,1401.7999995,243
1660310150.70528,1401.8000015,226
1660310150.70528,1401.8000036,191
1660310150.70528,1401.8000055,154
1660310150.70528,1401.8000076,126
1660310150.70528,1401.8000097,95
1660310150.70528,1401.8000117,67
1660310150.70528,1401.8000137,53
1660310150.70528,1401.8000156,39
1660310150.70528,1401.8000178,30
1660310150.70528,1401.8000199,35
1660310150.70528,1401.8000219,42
1660310150.70528,1401.8000239,35
1660310150.72323,1401.800026,18
1660310150.72323,1401.800028,11
1660310150.72323,1401.80003,14
1660310150.72323,1401.800032,21
1660310150.72323,1402.3363469,28
1660310150.72323,1402.3363608,32
1660310150.72323,1402.3363649,35
1660310150.72323,1402.3363685,37
1660310150.72323,1402.336372,39
1660310150.72323,1402.3363754,37
1660310150.72323,1402.3363788,37
1660310150.72323,1402.3363821,37
1660310150.72323,1402.3363857,46
1660310150.72323,1402.3363891,49
1660310150.72323,1402.3363926,32
1660310150.72323,1402.336396,16
1660310150.72323,1402.3363995,21
1660310150.72323,1402.3364034,35
1660310150.72323,1402.3364067,35
1660310150.72323,1402.3364105,35
1660310150.72323,1402.3364145,35
1660310150.72323,1402.336418,25
1660310150.72323,1402.3364214,23
1660310150.72323,1402.3364249,32
1660310151.28971,1402.3364283,39
1660310151.28971,1402.3364317,42
1660310151.28971,1402.3364352,39
1660310151.28971,1402.3364386,32
1660310151.28971,1402.336442,28
1660310151.28971,1402.3364451,35
1660310151.28971,1402.3364495,39
1660310151.28971,1402.3364531,42
1660310151.28971,1402.3364565,49
1660310151.28971,1402.3364599,53
1660310151.28971,1402.3364633,56
1660310151.28971,1402.3364667,58
1660310151.28971,1402.3364701,58
1660310151.28971,1402.3364736,67
1660310151.28971,1402.336477,77
1660310151.28971,1402.3364803,74
1660310151.28971,1402.3364837,72
1660310151.28971,1402.3364871,74
1660310151.28971,1402.3364905,70
1660310151.28971,1402.3364939,67
1660310151.28971,1402.3364984,74
1660310151.28971,1402.3365018,81
1660310151.28971,1402.3365052,77
1660310151.28971,1402.3365088,79
1660310151.28971,1402.3365122,86
1660310151.28971,1402.3365155,91
1660310151.28971,1402.3365211,88
1660310151.28971,1402.3365249,91
1660310151.28971,1402.3365283,95
1660310151.28971,1402.3365321,95
1660310151.28971,1402.3365355,95
1660310151.28971,1402.3365389,98
1660310151.28971,1402.3365424,107
1660310151.28971,1402.3365457,107
1660310151.28971,1402.3365497,102
1660310151.28971,1402.3365534,102
1660310151.28971,1402.3365568,105
1660310151.28971,1402.3365601,109
1660310151.28971,1402.3365635,112
1660310151.28971,1402.336567,109
1660310151.28971,1402.3365706,102
1660310151.28971,1402.3365739,95
1660310151.28971,1402.3365779,79
1660310151.28971,1402.3365818,65
1660310151.28971,1402.3365852,67
1660310151.28971,1402.3365886,74
1660310151.28971,1402.336592,84
1660310151.28971,1402.3365954,98
1660310151.28971,1402.3365999,100
1660310151.28971,1402.3366032,91
1660310151.29969,1402.3366066,81
1660310151.29969,1402.33661,72
1660310151.29969,1402.3366134,60
1660310151.29969,1402.9195811,44
1660310151.29969,1402.9195999,32
1660310151.29969,1402.9196063,35
1660310151.29969,1402.9196096,44
1660310151.29969,1402.9196129,49
1660310151.29969,1402.919618,46
1660310151.29969,1402.9196247,11
1660310151.29969,1402.9196355,-70
1660310151.29969,1402.919639,-53
1660310151.29969,1402.9196419,224
1660310151.29969,1402.9196448,634
1660310151.29969,1402.9196477,790
1660310151.29969,1402.9196505,503
1660310151.29969,1402.9196534,131
1660310151.29969,1402.9196562,9
1660310151.29969,1402.919659,-2
1660310151.29969,1402.9196629,-39
1660310151.29969,1402.9196761,-46
1660310151.29969,1402.919682,-30
1660310151.29969,1402.9196843,-39
1660310151.29969,1402.9196864,-58
1660310151.92394,1402.9196883,-49
1660310151.92394,1402.9196903,-25
1660310151.92394,1402.9196927,-16
1660310151.92394,1402.9197023,-11
1660310151.92394,1402.9197099,-4
1660310151.92394,1402.9197124,4
1660310151.92394,1402.9197144,16
1660310151.92394,1402.9197181,25
1660310151.92394,1402.9197225,28
1660310151.92394,1402.9197273,30
1660310151.92394,1402.919732,44
1660310151.92394,1402.9197346,60
1660310151.92394,1402.9197367,70
1660310151.92394,1402.9197399,88
1660310151.92394,1402.919742,112
1660310151.92394,1402.9197439,128
1660310151.92394,1402.9197459,145
1660310151.92394,1402.9197478,170
1660310151.92394,1402.9197498,194
1660310151.92394,1402.9197518,212
1660310151.92394,1402.9197538,226
1660310151.92394,1402.9197557,240
1660310151.92394,1402.9197577,248
1660310151.92394,1402.9197597,243
1660310151.92394,1402.9197619,229
1660310151.92394,1402.9197638,201
1660310151.92394,1402.9197658,168
1660310151.92394,1402.9197678,135
1660310151.92394,1402.9197698,100
1660310151.92394,1402.9197718,70
1660310151.92394,1402.9197738,53
1660310151.92394,1402.9197758,42
1660310151.92394,1402.9197778,37
1660310151.92394,1402.9197798,28
1660310151.92394,1402.9197818,9
1660310151.92394,1402.9197837,4
1660310151.92394,1402.9197858,11
1660310151.92394,1402.9197879,14
1660310151.92394,1402.9197899,14
1660310151.92394,1402.9197919,18
1660310151.92394,1402.9197939,16
1660310151.92394,1402.9197959,14
1660310151.92394,1402.9197979,21
1660310151.92394,1402.9197999,25
1660310151.92394,1402.9198019,25
1660310151.92394,1402.9198039,30
1660310151.92394,1402.9198059,32
1660310151.92394,1402.9198078,39
1660310151.92394,1402.9198099,49
1660310151.92394,1402.9198119,53
1660310151.93492,1402.9198139,51
1660310151.93492,1402.9198159,53
1660310151.93492,1403.5548896,58
1660310151.93492,1403.554907,67
1660310151.93492,1403.5549107,77
1660310151.93492,1403.554914,77
1660310151.93492,1403.5549172,72
1660310151.93492,1403.5549208,74
1660310151.93492,1403.5549238,77
1660310151.93492,1403.5549271,79
1660310151.93492,1403.5549306,84
1660310151.93492,1403.5549347,86
1660310151.93492,1403.5549394,70
1660310151.93492,1403.5549425,49
1660310151.93492,1403.5549473,49
1660310151.93492,1403.5549537,60
1660310151.93492,1403.5549619,63
1660310151.93492,1403.5549687,63
1660310151.93492,1403.5549771,60
1660310151.93492,1403.5549809,39
1660310151.93492,1403.5549853,32
1660310151.93492,1403.5549884,42
1660310151.93492,1403.5549913,39
1660310151.93492,1403.5549942,35
1660310152.41371,1403.5549982,39
1660310152.41371,1403.5550058,37
1660310152.41371,1403.5550126,35
1660310152.41371,1403.5550185,44
1660310152.41371,1403.5550227,56
1660310152.41371,1403.555028,58
1660310152.41371,1403.5550321,58
1660310152.41371,1403.5550352,56
1660310152.41371,1403.5550412,53
1660310152.41371,1403.5550469,60
1660310152.41371,1403.5550503,72
1660310152.41371,1403.5550532,79
1660310152.41371,1403.55506,81
1660310152.41371,1403.5550746,77
1660310152.41371,1403.5550831,72
1660310152.41371,1403.5550855,74
1660310152.41371,1403.5550877,79
1660310152.41371,1403.5550897,74
1660310152.41371,1403.5550918,67
1660310152.41371,1403.5550938,65
1660310152.41371,1403.5550964,63
1660310152.41371,1403.5550994,65
1660310152.41371,1403.5551093,77
1660310152.41371,1403.555118,98
1660310152.41371,1403.5551205,112
1660310152.41371,1403.5551225,102
1660310152.41371,1403.5551245,72
1660310152.41371,1403.5551273,49
1660310152.41371,1403.555135,42
1660310152.41371,1403.5551458,35
1660310152.41371,1403.5551492,23
1660310152.41371,1403.5551529,18
1660310152.41371,1403.5551645,23
1660310152.41371,1403.5551763,21
1660310152.41371,1403.5551795,4
1660310152.41371,1403.5551818,-49
1660310152.41371,1403.5551845,-58
1660310152.41371,1403.5551921,149
1660310152.41371,1403.5552047,563
1660310152.41371,1403.5552106,821
1660310152.41371,1403.5552129,559
1660310152.41371,1403.5552149,105
1660310152.41371,1403.5552169,7
1660310152.41371,1403.5552189,84
1660310152.41371,1403.5552209,23
1660310152.41371,1403.5552361,-28
1660310152.41371,1403.5552382,0
1660310152.41371,1403.5552401,9
1660310152.41371,1403.555242,4
1660310152.41371,1403.555244,16
1660310152.42468,1403.5552597,23
1660310152.42468,1404.0418182,28
1660310152.42468,1404.0418402,37
1660310152.42468,1404.0418551,42
1660310152.42468,1404.0418694,56
1660310152.42468,1404.0418822,63
1660310152.42468,1404.0418916,67
1660310152.42468,1404.0419056,74
1660310152.42468,1404.0419188,65
1660310152.42468,1404.0419325,58
1660310152.42468,1404.0419467,77
1660310152.42468,1404.0419617,91
1660310152.42468,1404.0419749,93
1660310152.42468,1404.0419896,107
1660310152.42468,1404.0420041,135
1660310152.42468,1404.0420181,156
1660310152.42468,1404.0420312,180
1660310152.42468,1404.0420459,203
1660310152.42468,1404.0420627,219
1660310152.42468,1404.0420751,240
1660310152.42468,1404.0420818,255
1660310152.42468,1404.0421311,248
1660310152.42468,1404.042143,236
1660310152.42468,1404.04216,229
1660310153.04297,1404.0421756,198
1660310153.04297,1404.0421838,152
1660310153.04297,1404.0423187,112
1660310153.04297,1404.0423506,72
1660310153.04297,1404.0423595,30
1660310153.04297,1404.0423665,9
1660310153.04297,1404.0423723,0
1660310153.04297,1404.0423941,-7
1660310153.04297,1404.0424071,-4
1660310153.04297,1404.0424176,-11
1660310153.04297,1404.0424278,-30
1660310153.04297,1404.0424354,-30
1660310153.04297,1404.0424423,-16
1660310153.04297,1404.0424493,-7
1660310153.04297,1404.042454,-4
1660310153.04297,1404.0424603,0
1660310153.04297,1404.042467,0
1660310153.04297,1404.0424733,-9
1660310153.04297,1404.0424781,-11
1660310153.04297,1404.0424833,2
1660310153.04297,1404.0424975,2
1660310153.04297,1404.0425118,2
1660310153.04297,1404.042526,9
1660310153.04297,1404.0425332,16
1660310153.04297,1404.0425428,21
1660310153.04297,1404.042548,30
1660310153.04297,1404.0425543,39
1660310153.04297,1404.0425676,46
1660310153.04297,1404.0425718,49
1660310153.04297,1404.0425752,46
1660310153.04297,1404.0425881,49
1660310153.04297,1404.0425947,58
1660310153.04297,1404.0425975,63
1660310153.04297,1404.0425997,67
1660310153.04297,1404.0426017,70
1660310153.04297,1404.0426038,70
1660310153.04297,1404.0426061,70
1660310153.04297,1404.042616,74
1660310153.04297,1404.0426257,81
1660310153.04297,1404.0426282,86
1660310153.04297,1404.0426302,91
1660310153.04297,1404.0426321,88
1660310153.04297,1404.042634,84
1660310153.04297,1404.0426371,88
1660310153.04297,1404.0426415,100
1660310153.04297,1404.0426451,107
1660310153.04297,1404.0426547,105
1660310153.04297,1404.0426629,102
1660310153.04297,1404.0426736,100
1660310153.04297,1404.0426844,100
1660310153.05294,1404.6770848,107
1660310153.05294,1404.6771025,114
1660310153.05294,1404.6771071,105
1660310153.05294,1404.6771109,93
1660310153.05294,1404.6771147,91
1660310153.05294,1404.6771183,93
1660310153.05294,1404.6771229,102
1660310153.05294,1404.6771266,109
1660310153.05294,1404.6771301,107
1660310153.05294,1404.6771336,93
1660310153.05294,1404.6771371,67
1660310153.05294,1404.6771408,49
1660310153.05294,1404.6771456,56
1660310153.05294,1404.6771497,63
1660310153.05294,1404.6771533,65
1660310153.05294,1404.6771561,67
1660310153.05294,1404.6771591,51
1660310153.05294,1404.6771654,21
1660310153.05294,1404.6771704,11
1660310153.05294,1404.6771748,18
1660310153.05294,1404.6771778,28
1660310153.05294,1404.6771806,35
1660310153.05294,1404.6771835,37
1660310153.05294,1404.6771862,39
1660310153.67877,1404.6771902,44
1660310153.67877,1404.6771969,42
1660310153.67877,1404.6772036,35
1660310153.67877,1404.6772103,32
1660310153.67877,1404.6772171,32
1660310153.67877,1404.6772205,28
1660310153.67877,1404.6772242,28
1660310153.67877,1404.6772273,39
1660310153.67877,1404.6772306,35
1660310153.67877,1404.6772336,-18
1660310153.67877,1404.6772382,-95
1660310153.67877,1404.6772427,-42
1660310153.67877,1404.6772472,262
1660310153.67877,1404.6772523,680
1660310153.67877,1404.677258,797
1660310153.67877,1404.6772674,449
1660310153.67877,1404.677274,95
1660310153.67877,1404.6772784,42
1660310153.67877,1404.6772844,32
1660310153.67877,1404.6772875,-28
1660310153.67877,1404.6772905,-28
1660310153.67877,1404.6772934,-2
1660310153.67877,1404.6772962,-7
1660310153.67877,1404.6773001,-7
1660310153.67877,1404.6773054,7
1660310153.67877,1404.6773099,14
1660310153.67877,1404.6773128,25
1660310153.67877,1404.6773157,35
1660310153.67877,1404.6773187,39
1660310153.67877,1404.6773226,49
1660310153.67877,1404.6773286,58
1660310153.67877,1404.677334,63
1660310153.67877,1404.6773426,77
1660310153.67877,1404.677351,91
1660310153.67877,1404.6773571,100
1660310153.67877,1404.6773623,112
1660310153.67877,1404.6773664,124
1660310153.67877,1404.6773694,138
1660310153.67877,1404.6773723,156
1660310153.67877,1404.6773752,177
1660310153.67877,1404.677378,196
1660310153.67877,1404.6773809,217
1660310153.67877,1404.6773837,238
1660310153.67877,1404.6773865,245
1660310153.67877,1404.6773894,252
1660310153.67877,1404.6773922,266
1660310153.67877,1404.677395,269
1660310153.67877,1404.6773979,264
1660310153.67877,1404.6774008,252
1660310153.67877,1405.3088163,224
1660310153.69074,1405.3088315,180
1660310153.69074,1405.308836,140
1660310153.69074,1405.308842,107
1660310153.69074,1405.3088462,81
1660310153.69074,1405.308852,70
1660310153.69074,1405.3088559,63
1660310153.69074,1405.30886,53
1660310153.69074,1405.3088658,44
1660310153.69074,1405.3088702,44
1660310153.69074,1405.3088763,49
1660310153.69074,1405.3088807,56
1660310153.69074,1405.308885,60
1660310153.69074,1405.3088897,58
1660310153.69074,1405.3088939,49
1660310153.69074,1405.3088979,46
1660310153.69074,1405.308905,51
1660310153.69074,1405.3089128,60
1660310153.69074,1405.3089201,70
1660310153.69074,1405.3089341,60
1660310153.69074,1405.3089474,37
1660310153.69074,1405.3089605,28
1660310153.69074,1405.3089729,42
1660310153.69074,1405.3089824,51
1660310153.69074,1405.3089905,51
1660310154.11205,1405.3089989,51
1660310154.11205,1405.3090052,46
1660310154.11205,1405.3090117,46
1660310154.11205,1405.3090185,53
1660310154.11205,1405.3090276,58
1660310154.11205,1405.3090348,60
1660310154.11205,1405.3090413,67
1660310154.11205,1405.3090477,49
1660310154.11205,1405.3090542,21
1660310154.11205,1405.3090626,30
1660310154.11205,1405.3090693,51
1660310154.11205,1405.3090779,49
1660310154.11205,1405.3090844,49
1660310154.11205,1405.3090904,60
1660310154.11205,1405.3090967,63
1660310154.11205,1405.3091097,63
1660310154.11205,1405.3091196,70
1660310154.11205,1405.3091276,77
1660310154.11205,1405.3091357,77
1660310154.11205,1405.3091422,79
1660310154.11205,1405.3091515,77
1660310154.11205,1405.3091603,77
1660310154.11205,1405.3091688,79
1660310154.11205,1405.3091752,86
1660310154.11205,1405.309186,93
1660310154.11205,1405.3091964,93
1660310154.11205,1405.309204,86
1660310154.11205,1405.3092092,86
1660310154.11205,1405.3092181,93
1660310154.11205,1405.3092254,98
1660310154.11205,1405.3092306,100
1660310154.11205,1405.3092384,105
1660310154.11205,1405.3092416,102
1660310154.11205,1405.309246,93
1660310154.11205,1405.3092584,93
1660310154.11205,1405.3092736,98
1660310154.11205,1405.3092793,100
1660310154.11205,1405.3092835,100
1660310154.11205,1405.3092877,102
1660310154.11205,1405.3092921,100
1660310154.11205,1405.3092968,91
1660310154.11205,1405.3093016,91
1660310154.11205,1405.3093079,100
1660310154.11205,1405.3093165,100
1660310154.11205,1405.3093237,95
1660310154.11205,1405.3093313,91
1660310154.11205,1405.3093345,84
1660310154.11205,1405.3093374,77
1660310154.11205,1405.7493762,81
1660310154.11205,1405.7493887,84
1660310154.12302,1405.7494004,67
1660310154.12302,1405.7494072,60
1660310154.12302,1405.7494095,79
1660310154.12302,1405.7494115,84
1660310154.12302,1405.7494137,79
1660310154.12302,1405.7494157,81
1660310154.12302,1405.7494177,72
1660310154.12302,1405.7494197,56
1660310154.12302,1405.7494217,49
1660310154.12302,1405.7494277,51
1660310154.12302,1405.7494414,53
1660310154.12302,1405.7494489,56
1660310154.12302,1405.7494574,56
1660310154.12302,1405.7494651,51
1660310154.12302,1405.7494759,30
1660310154.12302,1405.7494848,-30
1660310154.12302,1405.7494943,-51
1660310154.12302,1405.7494986,126
1660310154.12302,1405.7495025,510
1660310154.12302,1405.7495045,804
1660310154.12302,1405.7495066,648
1660310154.12302,1405.7495086,212
1660310154.12302,1405.7495106,4
1660310154.12302,1405.7495126,14
1660310154.65669,1405.7495146,-25
1660310154.65669,1405.7495166,-67
1660310154.65669,1405.7495186,-46
1660310154.65669,1405.7495204,-37
1660310154.65669,1405.7495224,-44
1660310154.65669,1405.7495243,-35
1660310154.65669,1405.7495262,-25
1660310154.65669,1405.7495281,-16
1660310154.65669,1405.74953,-7
1660310154.65669,1405.7495342,-9
1660310154.65669,1405.7495429,-21
1660310154.65669,1405.749549,-16
1660310154.65669,1405.7495542,-4
1660310154.65669,1405.7495577,7
1660310154.65669,1405.7495611,21
1660310154.65669,1405.7495643,30
1660310154.65669,1405.7495676,35
1660310154.65669,1405.7495719,49
1660310154.65669,1405.7495766,65
1660310154.65669,1405.7495799,81
1660310154.65669,1405.7495852,100
1660310154.65669,1405.7495916,128
1660310154.65669,1405.7495949,154
1660310154.65669,1405.7495983,168
1660310154.65669,1405.7496035,177
1660310154.65669,1405.7496075,196
1660310154.65669,1405.7496123,212
1660310154.65669,1405.7496156,229
1660310154.65669,1405.7496204,238
1660310154.65669,1405.7496237,222
1660310154.65669,1405.7496285,191
1660310154.65669,1405.749634,163
1660310154.65669,1405.7496391,135
1660310154.65669,1405.7496448,98
1660310154.65669,1405.7496497,65
1660310154.65669,1405.7497581,44
1660310154.65669,1405.7497656,28
1660310154.65669,1405.7497729,21
1660310154.65669,1405.7497797,25
1660310154.65669,1405.7497864,28
1660310154.65669,1405.7497897,28
1660310154.65669,1405.7497973,28
1660310154.65669,1405.7498008,28
1660310154.65669,1405.7498038,32
1660310154.65669,1405.7498068,39
1660310154.65669,1405.7498096,44
1660310154.65669,1405.7498126,51
1660310154.65669,1406.2842109,46
1660310154.65669,1406.284231,39
1660310154.65669,1406.284242,51
1660310154.66767,1406.2842516,60
1660310154.66767,1406.2842587,58
1660310154.66767,1406.2842708,63
1660310154.66767,1406.2842818,70
1660310154.66767,1406.2842905,60
1660310154.66767,1406.284298,53
1660310154.66767,1406.2843284,60
1660310154.66767,1406.2843389,72
1660310154.66767,1406.2843447,67
1660310154.66767,1406.2843508,46
1660310154.66767,1406.2843561,21
1660310154.66767,1406.2843605,7
1660310154.66767,1406.2843658,14
1660310154.66767,1406.2843693,21
1660310154.66767,1406.2843724,23
1660310154.66767,1406.2843755,25
1660310154.66767,1406.2843786,21
1660310154.66767,1406.2843817,16
1660310154.66767,1406.2843849,28
1660310154.66767,1406.2843882,39
1660310154.66767,1406.2843912,39
1660310154.66767,1406.2843946,39
1660310154.66767,1406.2843977,39
1660310154.66767,1406.2844006,21
1660310155.2864,1406.2844036,7
1660310155.2864,1406.2844075,25

1660310155.2864,1406.2844106,39
1660310155.2864,1406.2844137,37
1660310155.2864,1406.2844172,39
1660310155.2864,1406.2844207,37
1660310155.2864,1406.2844256,42
1660310155.2864,1406.28443,51
1660310155.2864,1406.2844337,56
1660310155.2864,1406.2844374,58
1660310155.2864,1406.2844412,63
1660310155.2864,1406.2844449,65
1660310155.2864,1406.2844486,65
1660310155.2864,1406.2844519,67
1660310155.2864,1406.2844557,72
1660310155.2864,1406.2844594,70
1660310155.2864,1406.2844629,67
1660310155.2864,1406.2844694,67
1660310155.2864,1406.284477,67
1660310155.2864,1406.2844821,74
1660310155.2864,1406.2844882,93
1660310155.2864,1406.2844943,112
1660310155.2864,1406.2844999,121
1660310155.2864,1406.2845045,119
1660310155.2864,1406.2845082,112
1660310155.2864,1406.284512,105
1660310155.2864,1406.2845159,98
1660310155.2864,1406.28452,91
1660310155.2864,1406.2845239,86
1660310155.2864,1406.2845281,93
1660310155.2864,1406.2845321,105
1660310155.2864,1406.2845365,98
1660310155.2864,1406.2845405,53
1660310155.2864,1406.284545,-9
1660310155.2864,1406.2845718,49
1660310155.2864,1406.2845811,362
1660310155.2864,1406.2845853,786
1660310155.2864,1406.2845895,846
1660310155.2864,1406.2845934,402
1660310155.2864,1406.2845969,35
1660310155.2864,1406.2846004,58
1660310155.2864,1406.2846038,88
1660310155.2864,1406.2846075,14
1660310155.2864,1406.2846111,11
1660310155.2864,1406.2846146,32
1660310155.2864,1406.2846181,2
1660310155.2864,1406.9171804,-7
1660310155.2864,1406.9171995,18
1660310155.2864,1406.9172082,28
1660310155.2864,1406.9172137,25
1660310155.29638,1406.9172207,21
1660310155.29638,1406.917225,11
1660310155.29638,1406.9172291,4
1660310155.29638,1406.9172349,21
1660310155.29638,1406.917239,42
1660310155.29638,1406.9172443,44
1660310155.29638,1406.91725,35
1660310155.29638,1406.9172539,28
1660310155.29638,1406.9172606,32
1660310155.29638,1406.9172645,51
1660310155.29638,1406.9172699,77
1660310155.29638,1406.9172737,109
1660310155.29638,1406.9172775,124
1660310155.29638,1406.9172831,112
1660310155.29638,1406.917287,124
1660310155.29638,1406.9172926,161
1660310155.29638,1406.9172965,187
1660310155.29638,1406.917302,201
1660310155.29638,1406.9173064,212
1660310155.29638,1406.9173118,208
1660310155.29638,1406.9173162,194
1660310155.29638,1406.9173213,182
1660310155.29638,1406.917326,152
1660310155.29638,1406.9173317,109
1660310155.9204,1406.9173355,79
1660310155.9204,1406.9173394,42
1660310155.9204,1406.917343,0
1660310155.9204,1406.9173469,-16
1660310155.9204,1406.9173505,-16
1660310155.9204,1406.9173544,-16
1660310155.9204,1406.917358,-16
1660310155.9204,1406.9173616,-11
1660310155.9204,1406.9173654,-14
1660310155.9204,1406.917369,-9
1660310155.9204,1406.9173728,0
1660310155.9204,1406.9173826,9
1660310155.9204,1406.9173883,23
1660310155.9204,1406.9173932,35
1660310155.9204,1406.9173998,28
1660310155.9204,1406.9174105,25
1660310155.9204,1406.9174225,42
1660310155.9204,1406.9174299,53
1660310155.9204,1406.9174323,56
1660310155.9204,1406.9174343,58
1660310155.9204,1406.9174364,63
1660310155.9204,1406.9174384,70
1660310155.9204,1406.9174416,74
1660310155.9204,1406.9174541,77
1660310155.9204,1406.9174599,81
1660310155.9204,1406.9174627,86
1660310155.9204,1406.9174647,84
1660310155.9204,1406.9174666,79
1660310155.9204,1406.9174694,86
1660310155.9204,1406.9174797,95
1660310155.9204,1406.9174914,93
1660310155.9204,1406.9175068,91
1660310155.9204,1406.9175127,102
1660310155.9204,1406.9175149,114
1660310155.9204,1406.9175168,102
1660310155.9204,1406.9175187,86
1660310155.9204,1406.9175206,86
1660310155.9204,1406.9175237,88
1660310155.9204,1406.9175345,88
1660310155.9204,1406.9175395,86
1660310155.9204,1406.9175417,81
1660310155.9204,1406.9175437,84
1660310155.9204,1406.9175457,95
1660310155.9204,1406.9175475,88
1660310155.9204,1406.9175533,72
1660310155.9204,1407.5514131,79
1660310155.9204,1407.5514338,84
1660310155.9204,1407.5514435,84
1660310155.9204,1407.5514462,86
1660310155.9204,1407.5514483,88
1660310155.93437,1407.5514635,88
1660310155.93437,1407.5514656,88
1660310155.93437,1407.5514676,81
1660310155.93437,1407.5514695,79
1660310155.93437,1407.5514714,91
1660310155.93437,1407.5514886,112
1660310155.93437,1407.5515019,126
1660310155.93437,1407.5515126,133
1660310155.93437,1407.5515212,138
1660310155.93437,1407.5515291,133
1660310155.93437,1407.5515354,124
1660310155.93437,1407.5515399,121
1660310155.93437,1407.5515444,116
1660310155.93437,1407.551551,109
1660310155.93437,1407.5515559,100
1660310155.93437,1407.5515627,86
1660310155.93437,1407.5515678,77
1660310155.93437,1407.5515748,63
1660310155.93437,1407.5515808,0
1660310155.93437,1407.5515916,-25
1660310155.93437,1407.5516022,166
1660310155.93437,1407.5516105,559
1660310155.93437,1407.5516179,837
1660310155.93437,1407.5516272,652
1660310156.31139,1407.5516322,205
1660310156.31139,1407.5516366,23
1660310156.31139,1407.5516429,49
1660310156.31139,1407.5516487,0
1660310156.31139,1407.5516565,-39
1660310156.31139,1407.5516622,-18
1660310156.31139,1407.551667,-18
1660310156.31139,1407.5516712,-25
1660310156.31139,1407.5516751,0
1660310156.31139,1407.5516792,14
1660310156.31139,1407.551683,2
1660310156.31139,1407.551687,2
1660310156.31139,1407.551691,9
1660310156.31139,1407.5516967,9
1660310156.31139,1407.5517004,11
1660310156.31139,1407.5517041,23
1660310156.31139,1407.5517077,35
1660310156.31139,1407.5517113,35
1660310156.31139,1407.5517151,51
1660310156.31139,1407.5517188,72
1660310156.31139,1407.5517227,77
1660310156.31139,1407.5517264,91
1660310156.31139,1407.5517318,119
1660310156.31139,1407.5517354,133
1660310156.31139,1407.551739,138
1660310156.31139,1407.5517426,154
1660310156.31139,1407.551746,180
1660310156.31139,1407.5517494,203
1660310156.31139,1407.5517528,215
1660310156.31139,1407.5517563,215
1660310156.31139,1407.5517598,224
1660310156.31139,1407.5517632,236
1660310156.31139,1407.5517664,222
1660310156.31139,1407.55177,187
1660310156.31139,1407.5517735,152
1660310156.31139,1407.5517788,100
1660310156.31139,1407.5517835,39
1660310156.31139,1407.5517872,14
1660310156.31139,1407.5517909,7
1660310156.31139,1407.5517946,-9
1660310156.31139,1407.5517983,-14
1660310156.31139,1407.5518038,-14
1660310156.31139,1407.5518075,-25
1660310156.31139,1407.5518112,-18
1660310156.31139,1407.9417999,0
1660310156.31139,1407.9418109,-2
1660310156.31139,1407.9418138,-9
1660310156.31139,1407.9418162,-2
1660310156.31139,1407.9418186,4
1660310156.31139,1407.9418208,9
1660310156.32136,1407.941823,21
1660310156.32136,1407.9418251,39
1660310156.32136,1407.9418273,42
1660310156.32136,1407.9418295,35
1660310156.32136,1407.9418316,28
1660310156.32136,1407.9418338,32
1660310156.32136,1407.941836,49
1660310156.32136,1407.9418381,58
1660310156.32136,1407.9418403,49
1660310156.32136,1407.9418425,49
1660310156.32136,1407.9418447,44
1660310156.32136,1407.9418468,25
1660310156.32136,1407.941849,28
1660310156.32136,1407.9418512,46
1660310156.32136,1407.9418534,46
1660310156.32136,1407.9418555,49
1660310156.32136,1407.9418577,51
1660310156.32136,1407.9418598,42
1660310156.32136,1407.941862,44
1660310156.32136,1407.9418642,65
1660310156.32136,1407.9418664,65
1660310156.32136,1407.9418685,56
1660310156.32136,1407.9418706,65
1660310156.32136,1407.9418728,70
1660310156.93918,1407.9418749,63
1660310156.93918,1407.941877,60
1660310156.93918,1407.9418791,67
1660310156.93918,1407.9418811,79
1660310156.93918,1407.9418832,81
1660310156.93918,1407.9418852,72
1660310156.93918,1407.9418872,46
1660310156.93918,1407.9418892,30
1660310156.93918,1407.9418912,49
1660310156.93918,1407.9418932,70
1660310156.93918,1407.9418952,60
1660310156.93918,1407.9418972,56
1660310156.93918,1407.9418992,67
1660310156.93918,1407.9419012,74
1660310156.93918,1407.9419036,65
1660310156.93918,1407.9419056,51
1660310156.93918,1407.9419075,49
1660310156.93918,1407.9419093,51
1660310156.93918,1407.9419112,37
1660310156.93918,1407.9419133,49
1660310156.93918,1407.9419154,88
1660310156.93918,1407.9419236,100
1660310156.93918,1407.9419255,91
1660310156.93918,1407.9419282,100
1660310156.93918,1407.9419302,102
1660310156.93918,1407.9419322,93
1660310156.93918,1407.9419342,86
1660310156.93918,1407.9419363,70
1660310156.93918,1407.9419383,58
1660310156.93918,1407.9419403,70
1660310156.93918,1407.9419424,74
1660310156.93918,1407.9419444,58
1660310156.93918,1407.9419464,21
1660310156.93918,1407.9419483,-16
1660310156.93918,1407.9419504,79
1660310156.93918,1407.9419524,425
1660310156.93918,1407.9419544,828
1660310156.93918,1407.9419563,856
1660310156.93918,1407.9419584,460
1660310156.93918,1407.9419603,149
1660310156.93918,1407.9419625,114
1660310156.93918,1407.9419645,93
1660310156.93918,1407.9419666,37
1660310156.93918,1408.574801,30
1660310156.93918,1408.574819,46
1660310156.93918,1408.5748244,56
1660310156.93918,1408.5748323,56
1660310156.93918,1408.5748387,51
1660310156.93918,1408.5748496,53
1660310156.93918,1408.5748606,46
1660310156.95114,1408.5748671,25
1660310156.95114,1408.5748705,23
1660310156.95114,1408.5748766,35
1660310156.95114,1408.574893,39
1660310156.95114,1408.5749058,49
1660310156.95114,1408.5749188,60
1660310156.95114,1408.5749307,44
1660310156.95114,1408.5749404,28
1660310156.95114,1408.5749506,53
1660310156.95114,1408.5749582,81
1660310156.95114,1408.5749662,79
1660310156.95114,1408.5749719,84
1660310156.95114,1408.5749746,105
1660310156.95114,1408.5749767,116
1660310156.95114,1408.5749788,128
1660310156.95114,1408.5749808,156
1660310156.95114,1408.574983,180
1660310156.95114,1408.5749852,180
1660310156.95114,1408.5749873,191
1660310156.95114,1408.5749893,210
1660310156.95114,1408.5749924,198
1660310156.95114,1408.5750032,163
1660310156.95114,1408.5750103,138
1660310156.95114,1408.5750125,109
1660310157.96507,1408.5750146,70
1660310157.96507,1408.5750166,39
1660310157.96507,1408.5750191,18
1660310157.96507,1408.575029,4
1660310157.96507,1408.5750383,9
1660310157.96507,1408.5750434,4
1660310157.96507,1408.5750471,-9
1660310157.96507,1408.5750532,-7
1660310157.96507,1408.5750576,0
1660310157.96507,1408.5750661,4
1660310157.96507,1408.5750715,14
1660310157.96507,1408.5750807,11
1660310157.96507,1408.5750862,18
1660310157.96507,1408.5750986,32
1660310157.96507,1408.5751093,30
1660310157.96507,1408.5751165,23
1660310157.96507,1408.5751278,28
1660310157.96507,1408.5751379,39
1660310157.96507,1408.5751463,49
1660310157.96507,1408.5751585,32
1660310157.96507,1408.5751671,7
1660310157.96507,1408.5751758,18
1660310157.96507,1408.5751867,42
1660310157.96507,1408.5751947,32
1660310157.96507,1408.5752043,25
1660310157.96507,1408.5752156,53
1660310157.96507,1408.575224,67
1660310157.96507,1408.5752317,51
1660310157.96507,1408.5752439,49
1660310157.96507,1408.5752502,63
1660310157.96507,1408.575263,65
1660310157.96507,1408.575276,72
1660310157.96507,1408.5752892,72
1660310157.96507,1408.5753023,58
1660310157.96507,1408.5753155,63
1660310157.96507,1408.5753288,81
1660310157.96507,1408.5753418,86
1660310157.96507,1408.575355,74
1660310157.96507,1408.5753685,70
1660310157.96507,1408.5753817,72
1660310157.96507,1408.5753948,70
1660310157.96507,1408.5754079,72
1660310157.96507,1409.5979021,84
1660310157.96507,1409.5979202,81
1660310157.96507,1409.5979266,77
1660310157.96507,1409.5979334,84
1660310157.96507,1409.5979402,86
1660310157.96507,1409.5979487,86
1660310157.96507,1409.5979572,98
1660310157.96507,1409.5979639,102
1660310157.97955,1409.5979671,98
1660310157.97955,1409.5979713,98
1660310157.97955,1409.5979789,84
1660310157.97955,1409.5979839,58
1660310157.97955,1409.5979928,63
1660310157.97955,1409.5979993,84
1660310157.97955,1409.5980071,81
1660310157.97955,1409.5980121,67
1660310157.97955,1409.598021,67
1660310157.97955,1409.5980273,79
1660310157.97955,1409.5980348,93
1660310157.97955,1409.5980406,98
1660310157.97955,1409.5980497,88
1660310157.97955,1409.5980573,84
1660310157.97955,1409.598063,70
1660310157.97955,1409.5980712,53
1660310157.97955,1409.5980778,53
1660310157.97955,1409.5980853,60
1660310157.97955,1409.5980902,56
1660310157.97955,1409.5980991,49
1660310157.97955,1409.5981043,32
1660310157.97955,1409.5981082,-30
1660310157.97955,1409.5981112,-53
1660310157.97955,1409.5981142,147
1660310158.11079,1409.598118,559
1660310158.11079,1409.5981261,828
1660310158.11079,1409.598133,612
1660310158.11079,1409.5981399,184
1660310158.11079,1409.5981452,39
1660310158.11079,1409.5981515,81
1660310158.11079,1409.5981561,44
1660310158.11079,1409.5981617,4
1660310158.11079,1409.5981648,18
1660310158.11079,1409.5981751,21
1660310158.11079,1409.5981855,16
1660310158.11079,1409.5981929,9
1660310158.11079,1409.598199,4
1660310158.11079,1409.5982075,18
1660310158.11079,1409.598212,37
1660310158.11079,1409.5982182,37
1660310158.11079,1409.5982215,32
1660310158.11079,1409.5982246,37
1660310158.11079,1409.5982277,56
1660310158.11079,1409.5982307,74
1660310158.11079,1409.5982337,81
1660310158.11079,1409.5982366,91
1660310158.11079,1409.5982399,109
1660310158.11079,1409.5982515,121
1660310158.11079,1409.5982617,128
1660310158.11079,1409.5982666,152
1660310158.11079,1409.5982805,175
1660310158.11079,1409.59829,187
1660310158.11079,1409.598295,198
1660310158.11079,1409.598305,215
1660310158.11079,1409.598316,231
1660310158.11079,1409.5983287,243
1660310158.11079,1409.5983412,245
1660310158.11079,1409.5983514,243
1660310158.11079,1409.5983634,248
1660310158.11079,1409.598372,243
1660310158.11079,1409.5983787,208
1660310158.11079,1409.5983866,159
1660310158.11079,1409.5983937,114
1660310158.11079,1409.5983969,86
1660310158.11079,1409.5984065,67
1660310158.11079,1409.7462277,35
1660310158.11079,1409.7462478,0
1660310158.11079,1409.7462521,-14
1660310158.11079,1409.7462565,-21
1660310158.11079,1409.7462598,-23
1660310158.11079,1409.7462661,-14
1660310158.11079,1409.7462744,-18
1660310158.11079,1409.7462809,-30
1660310158.11079,1409.7462873,-21
1660310158.12176,1409.7462909,-9
1660310158.12176,1409.7462967,-9
1660310158.12176,1409.7463002,-2
1660310158.12176,1409.7463034,4
1660310158.12176,1409.7463064,-7
1660310158.12176,1409.7463111,-4
1660310158.12176,1409.7463163,9
1660310158.12176,1409.7463198,2
1660310158.12176,1409.7463233,4
1660310158.12176,1409.7463286,18
1660310158.12176,1409.7463321,9
1660310158.12176,1409.7463358,0
1660310158.12176,1409.7463409,7
1660310158.12176,1409.7463457,18
1660310158.12176,1409.7463512,28
1660310158.12176,1409.746356,30
1660310158.12176,1409.7463607,25
1660310158.12176,1409.7463639,28
1660310158.12176,1409.7463671,32
1660310158.12176,1409.7463721,35
1660310158.12176,1409.7463756,42
1660310158.12176,1409.7463812,44
1660310158.12176,1409.746387,35
1660310158.12176,1409.7463907,21
1660310158.69779,1409.7463941,18
1660310158.69779,1409.7463973,28
1660310158.69779,1409.7464006,28
1660310158.69779,1409.7464043,16
1660310158.69779,1409.7464081,4
1660310158.69779,1409.7464118,0
1660310158.69779,1409.7464157,-2
1660310158.69779,1409.7464194,-4
1660310158.69779,1409.7464226,4
1660310158.69779,1409.7464258,16
1660310158.69779,1409.7464294,21
1660310158.69779,1409.7464328,35
1660310158.69779,1409.7464361,51
1660310158.69779,1409.7464395,63
1660310158.69779,1409.7464434,70
1660310158.69779,1409.7464465,70
1660310158.69779,1409.7464495,53
1660310158.69779,1409.7464526,35
1660310158.69779,1409.7464561,30
1660310158.69779,1409.7464592,39
1660310158.69779,1409.7464623,49
1660310158.69779,1409.7464662,51
1660310158.69779,1409.7464689,32
1660310158.69779,1409.7464719,-28
1660310158.69779,1409.7464746,-39
1660310158.69779,1409.7464774,196
1660310158.69779,1409.74648,648
1660310158.69779,1409.7464827,865
1660310158.69779,1409.7464853,514
1660310158.69779,1409.746488,63
1660310158.69779,1409.7464905,30
1660310158.69779,1409.7464931,112
1660310158.69779,1409.7464956,39
1660310158.69779,1409.7464981,7
1660310158.69779,1409.7465007,44
1660310158.69779,1409.7465034,39
1660310158.69779,1409.7465059,28
1660310158.69779,1409.7465085,42
1660310158.69779,1409.746511,51
1660310158.69779,1409.7465136,51
1660310158.69779,1410.3298988,60
1660310158.69779,1410.3299251,79
1660310158.69779,1410.3299288,88
1660310158.69779,1410.3299313,77
1660310158.69779,1410.3299334,60
1660310158.69779,1410.3299355,67
1660310158.69779,1410.3299376,84
1660310158.69779,1410.3299397,91
1660310158.69779,1410.3299417,107
1660310158.69779,1410.3299437,126
1660310158.70976,1410.3299458,133
1660310158.70976,1410.3299478,145
1660310158.70976,1410.3299498,170
1660310158.70976,1410.3299518,201
1660310158.70976,1410.3299539,222
1660310158.70976,1410.3299562,243
1660310158.70976,1410.3299581,245
1660310158.70976,1410.3299602,238
1660310158.70976,1410.3299622,243
1660310158.70976,1410.3299642,252
1660310158.70976,1410.3299663,238
1660310158.70976,1410.3299682,215
1660310158.70976,1410.3299702,182
1660310158.70976,1410.3299722,126
1660310158.70976,1410.3299742,67
1660310158.70976,1410.3299764,37
1660310158.70976,1410.3299784,18
1660310158.70976,1410.3299803,2
1660310158.70976,1410.3299825,-9
1660310158.70976,1410.3299845,-23
1660310158.70976,1410.3299865,-35
1660310158.70976,1410.3299886,-30
1660310158.70976,1410.3299907,-21
1660310158.70976,1410.3299928,-16
1660310159.18198,1410.3299948,-14
1660310159.18198,1410.3299968,-25
1660310159.18198,1410.3299987,-39
1660310159.18198,1410.3300005,-23
1660310159.18198,1410.3300024,-4
1660310159.18198,1410.3300042,2
1660310159.18198,1410.3300061,9
1660310159.18198,1410.330008,9
1660310159.18198,1410.33001,-11
1660310159.18198,1410.3300118,-18
1660310159.18198,1410.3300137,-2
1660310159.18198,1410.3300156,14
1660310159.18198,1410.3300175,18
1660310159.18198,1410.3300194,11
1660310159.18198,1410.3300212,-4
1660310159.18198,1410.3300232,0
1660310159.18198,1410.3300251,25
1660310159.18198,1410.3300275,32
1660310159.18198,1410.3300315,25
1660310159.18198,1410.3300361,23
1660310159.18198,1410.3300392,23
1660310159.18198,1410.3300411,23
1660310159.18198,1410.330043,30
1660310159.18198,1410.3300449,35
1660310159.18198,1410.3300481,44
1660310159.18198,1410.3300508,56
1660310159.18198,1410.3300529,49
1660310159.18198,1410.3300549,42
1660310159.18198,1410.330057,42
1660310159.18198,1410.330059,46
1660310159.18198,1410.330061,60
1660310159.18198,1410.330063,67
1660310159.18198,1410.330065,65
1660310159.18198,1410.3300671,84
1660310159.18198,1410.3300692,107
1660310159.18198,1410.3300712,112
1660310159.18198,1410.3300732,107
1660310159.18198,1410.3300752,98
1660310159.18198,1410.3300773,84
1660310159.18198,1410.8188355,79
1660310159.18198,1410.8188565,81
1660310159.18198,1410.8188722,84
1660310159.18198,1410.8188819,84
1660310159.18198,1410.8188908,81
1660310159.18198,1410.818898,56
1660310159.18198,1410.818904,-9
1660310159.18198,1410.818909,23
1660310159.18198,1410.8189145,320
1660310159.18198,1410.8189235,765
1660310159.18198,1410.8189285,903
1660310159.19096,1410.818936,538
1660310159.19096,1410.8189421,159
1660310159.19096,1410.8189451,102
1660310159.19096,1410.8189482,95
1660310159.19096,1410.8189541,32
1660310159.19096,1410.818957,42
1660310159.19096,1410.8189598,60
1660310159.19096,1410.8189628,35
1660310159.19096,1410.8189656,9
1660310159.19096,1410.8189684,11
1660310159.19096,1410.8189711,28
1660310159.19096,1410.818974,21
1660310159.19096,1410.8189769,7
1660310159.19096,1410.8189796,21
1660310159.19096,1410.8189825,25
1660310159.19096,1410.8189853,21
1660310159.19096,1410.8189881,30
1660310159.19096,1410.8189908,42
1660310159.19096,1410.8189943,58
1660310159.19096,1410.8190078,70
1660310159.19096,1410.8190205,77
1660310159.19096,1410.8190329,100
1660310159.19096,1410.8190405,116
1660310159.19096,1410.8190493,119
1660310159.81612,1410.8190597,145
1660310159.81612,1410.8190659,173
1660310159.81612,1410.8190711,189
1660310159.81612,1410.8190758,208
1660310159.81612,1410.8190844,219
1660310159.81612,1410.8190949,233
1660310159.81612,1410.8191009,252
1660310159.81612,1410.8191082,255
1660310159.81612,1410.8191159,245
1660310159.81612,1410.8191206,231
1660310159.81612,1410.8191262,187
1660310159.81612,1410.8191341,138
1660310159.81612,1410.8191413,109
1660310159.81612,1410.8191519,79
1660310159.81612,1410.8191629,53
1660310159.81612,1410.8191714,56
1660310159.81612,1410.8191795,53
1660310159.81612,1410.8191914,42
1660310159.81612,1410.8191988,44
1660310159.81612,1410.8192087,51
1660310159.81612,1410.8192193,49
1660310159.81612,1410.8192249,46
1660310159.81612,1410.8192381,58
1660310159.81612,1410.819247,74
1660310159.81612,1410.8192493,72
1660310159.81612,1410.8192515,60
1660310159.81612,1410.8192537,70
1660310159.81612,1410.8192565,93
1660310159.81612,1410.8192668,93
1660310159.81612,1410.8192741,77
1660310159.81612,1410.8192895,67
1660310159.81612,1410.8192914,65
1660310159.81612,1410.8192933,72
1660310159.81612,1410.8192952,86
1660310159.81612,1410.8193129,79
1660310159.81612,1410.819323,63
1660310159.81612,1410.8193349,65
1660310159.81612,1410.819339,74
1660310159.81612,1411.4529806,65
1660310159.81612,1411.4529962,63
1660310159.81612,1411.4530009,74
1660310159.81612,1411.4530085,74
1660310159.81612,1411.4530126,63
1660310159.81612,1411.453018,65
1660310159.81612,1411.4530221,67
1660310159.81612,1411.4530274,51
1660310159.81612,1411.453031,42
1660310159.81612,1411.4530358,44
1660310159.81612,1411.4530392,42
1660310159.81612,1411.4530438,37
1660310159.82809,1411.4530495,37
1660310159.82809,1411.4530535,39
1660310159.82809,1411.4530569,42
1660310159.82809,1411.4530604,23
1660310159.82809,1411.4530642,-11
1660310159.82809,1411.4530677,-30
1660310159.82809,1411.4530715,-21
1660310159.82809,1411.4530751,-9
1660310159.82809,1411.4530788,2
1660310159.82809,1411.4530823,21
1660310159.82809,1411.453086,23
1660310159.82809,1411.4530896,16
1660310159.82809,1411.4530931,21
1660310159.82809,1411.4530964,21
1660310159.82809,1411.4530995,16
1660310159.82809,1411.4531034,16
1660310159.82809,1411.4531096,-2
1660310159.82809,1411.4531164,-16
1660310159.82809,1411.4531245,0
1660310159.82809,1411.4531305,23
1660310159.82809,1411.4531366,18
1660310159.82809,1411.4531416,-9
1660310159.82809,1411.4531476,-53
1660310159.82809,1411.4531526,-42
1660310160.2545,1411.4531634,182
1660310160.2545,1411.4531674,591
1660310160.2545,1411.4531696,828
1660310160.2545,1411.4531716,587
1660310160.2545,1411.4531789,189
1660310160.2545,1411.4531889,63
1660310160.2545,1411.4532016,72
1660310160.2545,1411.4532124,28
1660310160.2545,1411.4532167,7
1660310160.2545,1411.4532296,18
1660310160.2545,1411.4532424,21
1660310160.2545,1411.4532548,25
1660310160.2545,1411.453268,37
1660310160.2545,1411.4532741,44
1660310160.2545,1411.4532777,44
1660310160.2545,1411.4532808,49
1660310160.2545,1411.4532917,60
1660310160.2545,1411.4532988,74
1660310160.2545,1411.4533011,81
1660310160.2545,1411.4533032,81
1660310160.2545,1411.4533053,84
1660310160.2545,1411.4533099,91
1660310160.2545,1411.4533215,100
1660310160.2545,1411.453327,114
1660310160.2545,1411.4533303,128
1660310160.2545,1411.4533324,131
1660310160.2545,1411.4533351,142
1660310160.2545,1411.4533456,173
1660310160.2545,1411.453353,198
1660310160.2545,1411.4533555,215
1660310160.2545,1411.4533576,233
1660310160.2545,1411.4533653,245
1660310160.2545,1411.4533783,255
1660310160.2545,1411.4533924,262
1660310160.2545,1411.4534053,259
1660310160.2545,1411.4534182,257
1660310160.2545,1411.4534314,252
1660310160.2545,1411.8898742,224
1660310160.2545,1411.8898886,180
1660310160.2545,1411.8898925,147
1660310160.2545,1411.8898975,116
1660310160.2545,1411.8899007,88
1660310160.2545,1411.8899039,74
1660310160.2545,1411.8899072,60
1660310160.2545,1411.8899117,30
1660310160.2545,1411.8899148,11
1660310160.2545,1411.8899194,32
1660310160.2545,1411.8899224,53
1660310160.2545,1411.8899256,53
1660310160.2545,1411.8899286,56
1660310160.26447,1411.8899318,51
1660310160.26447,1411.8899384,42
1660310160.26447,1411.8899414,32
1660310160.26447,1411.8899445,30
1660310160.26447,1411.8899509,44
1660310160.26447,1411.8899561,51
1660310160.26447,1411.8899619,46
1660310160.26447,1411.8899668,46
1660310160.26447,1411.8899709,53
1660310160.26447,1411.8899757,49
1660310160.26447,1411.8899807,49
1660310160.26447,1411.8899866,67
1660310160.26447,1411.889993,63
1660310160.26447,1411.8899991,28
1660310160.26447,1411.8900041,16
1660310160.26447,1411.8900084,32
1660310160.26447,1411.890013,46
1660310160.26447,1411.8900163,51
1660310160.26447,1411.8900196,51
1660310160.26447,1411.8900228,56
1660310160.26447,1411.8900259,53
1660310160.26447,1411.890029,46
1660310160.26447,1411.8900323,46
1660310160.26447,1411.8900354,51
1660310160.93804,1411.8900383,53
1660310160.93804,1411.8900411,42
1660310160.93804,1411.8900438,21
1660310160.93804,1411.8900473,23
1660310160.93804,1411.8900506,37
1660310160.93804,1411.8900537,35
1660310160.93804,1411.8900568,32
1660310160.93804,1411.8900602,35
1660310160.93804,1411.8900636,21
1660310160.93804,1411.8900669,2
1660310160.93804,1411.8900703,14
1660310160.93804,1411.8900734,28
1660310160.93804,1411.8900767,23
1660310160.93804,1411.8900798,30
1660310160.93804,1411.890083,32
1660310160.93804,1411.8900941,18
1660310160.93804,1411.8900998,14
1660310160.93804,1411.8901032,25
1660310160.93804,1411.8901063,28
1660310160.93804,1411.8901097,23
1660310160.93804,1411.8901128,23
1660310160.93804,1411.8901161,21
1660310160.93804,1411.8901195,14
1660310160.93804,1411.8901229,-7
1660310160.93804,1411.8901261,-51
1660310160.93804,1411.8901293,-32
1660310160.93804,1411.8901324,240
1660310160.93804,1411.8901358,690
1660310160.93804,1411.8901393,844
1660310160.93804,1411.8901426,467
1660310160.93804,1411.8901463,70
1660310160.93804,1411.8901505,42
1660310160.93804,1411.890154,81
1660310160.93804,1411.8901572,11
1660310160.93804,1411.8901606,-7
1660310160.93804,1411.8901639,25
1660310160.93804,1412.573172,9
1660310160.93804,1412.5731947,-9
1660310160.93804,1412.5732092,11
1660310160.93804,1412.573223,16
1660310160.93804,1412.5732368,4
1660310160.93804,1412.5732504,16
1660310160.93804,1412.5732642,32
1660310160.93804,1412.5732777,25
1660310160.93804,1412.5732916,28
1660310160.93804,1412.5733048,42
1660310160.93804,1412.5733184,32
1660310160.93804,1412.5733331,25
1660310160.93804,1412.5733464,51
1660310160.93804,1412.5733599,70
1660310160.94901,1412.5733746,70
1660310160.94901,1412.5733882,98
1660310160.94901,1412.5734021,126
1660310160.94901,1412.5734167,109
1660310160.94901,1412.5734304,112
1660310160.94901,1412.573444,159
1660310160.94901,1412.5734588,194
1660310160.94901,1412.5734724,187
1660310160.94901,1412.5734863,182
1660310160.94901,1412.5735009,205
1660310160.94901,1412.5735156,222
1660310160.94901,1412.5735228,205
1660310160.94901,1412.5735296,177
1660310160.94901,1412.5735338,156
1660310160.94901,1412.5735368,119
1660310160.94901,1412.5735397,77
1660310160.94901,1412.5735426,44
1660310160.94901,1412.5735455,11
1660310160.94901,1412.5735484,-4
1660310160.94901,1412.5735513,2
1660310160.94901,1412.5735543,-7
1660310160.94901,1412.5735572,-28
1660310160.94901,1412.5735601,-16
1660310160.94901,1412.5735628,-7
1660310161.52991,1412.5735667,-25
1660310161.52991,1412.5735735,-16
1660310161.52991,1412.5735803,21
1660310161.52991,1412.5735873,25
1660310161.52991,1412.5735939,9
1660310161.52991,1412.5735974,21
1660310161.52991,1412.5736026,37
1660310161.52991,1412.5736067,32
1660310161.52991,1412.5736121,39
1660310161.52991,1412.5736186,51
1660310161.52991,1412.5736347,49
1660310161.52991,1412.5736464,51
1660310161.52991,1412.5736522,60
1660310161.52991,1412.5736695,58
1660310161.52991,1412.573685,63
1660310161.52991,1412.5736947,79
1660310161.52991,1412.5737091,88
1660310161.52991,1412.5737229,81
1660310161.52991,1412.5737361,74
1660310161.52991,1412.573749,79
1660310161.52991,1412.5737624,88
1660310161.52991,1412.5737752,98
1660310161.52991,1412.5737886,98
1660310161.52991,1412.5738011,86
1660310161.52991,1412.5738102,81
1660310161.52991,1412.57382,88
1660310161.52991,1412.5738328,93
1660310161.52991,1412.5738413,81
1660310161.52991,1412.57385,63
1660310161.52991,1412.5738614,63
1660310161.52991,1412.5738762,81
1660310161.52991,1412.5738885,95
1660310161.52991,1412.5738992,98
1660310161.52991,1412.573907,98
1660310161.52991,1412.5739193,102
1660310161.52991,1413.1580756,93
1660310161.52991,1413.1580952,74
1660310161.52991,1413.1581107,67
1660310161.52991,1413.1581256,70
1660310161.52991,1413.1581391,79
1660310161.52991,1413.1581475,81
1660310161.52991,1413.1581522,67
1660310161.52991,1413.158156,46
1660310161.52991,1413.1581692,-9
1660310161.52991,1413.1581832,-18
1660310161.52991,1413.1581957,208
1660310161.52991,1413.1582186,638
1660310161.52991,1413.1582296,891
1660310161.52991,1413.1582377,615
1660310161.52991,1413.1582461,149
1660310161.54088,1413.1582526,39
1660310161.54088,1413.1582618,95
1660310161.54088,1413.158271,25
1660310161.54088,1413.158277,-21
1660310161.54088,1413.1582827,2
1660310161.54088,1413.1582887,9
1660310161.54088,1413.1582941,2
1660310161.54088,1413.1582978,7
1660310161.54088,1413.1583011,21
1660310161.54088,1413.158307,18
1660310161.54088,1413.1583137,4
1660310161.54088,1413.1583197,11
1660310161.54088,1413.1583244,21
1660310161.54088,1413.1583277,9
1660310161.54088,1413.1583336,14
1660310161.54088,1413.1583382,32
1660310161.54088,1413.1583429,28
1660310161.54088,1413.158346,7
1660310161.54088,1413.1583519,14
1660310161.54088,1413.158355,49
1660310161.54088,1413.158358,70
1660310161.54088,1413.158361,93
1660310161.54088,1413.1583641,121
1660310161.54088,1413.1583732,138
1660310162.05908,1413.1583806,163
1660310162.05908,1413.1583829,189
1660310162.05908,1413.1583849,201
1660310162.05908,1413.1583882,217
1660310162.05908,1413.1583922,233
1660310162.05908,1413.1584009,236
1660310162.05908,1413.1584056,222
1660310162.05908,1413.1584202,198
1660310162.05908,1413.1584354,159
1660310162.05908,1413.1584429,126
1660310162.05908,1413.1584529,93
1660310162.05908,1413.1584667,51
1660310162.05908,1413.1584798,32
1660310162.05908,1413.1584921,32
1660310162.05908,1413.1585051,23
1660310162.05908,1413.1585186,11
1660310162.05908,1413.1585305,9
1660310162.05908,1413.1585389,11
1660310162.05908,1413.1585475,18
1660310162.05908,1413.1585549,16
1660310162.05908,1413.1585592,7
1660310162.05908,1413.158564,2
1660310162.05908,1413.158569,0
1660310162.05908,1413.1585722,2
1660310162.05908,1413.158575,14
1660310162.05908,1413.158578,16
1660310162.05908,1413.1585811,14
1660310162.05908,1413.158584,23
1660310162.05908,1413.1585872,42
1660310162.05908,1413.1585926,49
1660310162.05908,1413.1585956,39
1660310162.05908,1413.1585987,39
1660310162.05908,1413.1586017,53
1660310162.05908,1413.1586047,60
1660310162.05908,1413.6945045,58
1660310162.05908,1413.694523,63
1660310162.05908,1413.6945297,74
1660310162.05908,1413.6945351,77
1660310162.05908,1413.6945391,67
1660310162.05908,1413.6945428,70
1660310162.05908,1413.6945467,77
1660310162.05908,1413.6945505,77
1660310162.05908,1413.6945545,84
1660310162.05908,1413.6945602,93
1660310162.05908,1413.6945644,100
1660310162.05908,1413.6945697,98
1660310162.05908,1413.6945738,86
1660310162.05908,1413.6945791,88
1660310162.05908,1413.6945831,98
1660310162.05908,1413.6945886,91
1660310162.07005,1413.6945928,74
1660310162.07005,1413.6945984,60
1660310162.07005,1413.6946024,60
1660310162.07005,1413.6946075,72
1660310162.07005,1413.6946113,84
1660310162.07005,1413.6946168,93
1660310162.07005,1413.6946207,93
1660310162.07005,1413.6946259,70
1660310162.07005,1413.6946297,46
1660310162.07005,1413.6946351,51
1660310162.07005,1413.6946392,67
1660310162.07005,1413.6946428,79
1660310162.07005,1413.6946464,77
1660310162.07005,1413.69465,63
1660310162.07005,1413.6946539,49
1660310162.07005,1413.6946577,42
1660310162.07005,1413.6946615,23
1660310162.07005,1413.6946665,-23
1660310162.07005,1413.694671,9
1660310162.07005,1413.6947066,276
1660310162.07005,1413.6947204,678
1660310162.07005,1413.6947248,823
1660310162.07005,1413.6947282,498
1660310162.07005,1413.6947333,105
1660310162.54912,1413.6947363,21
1660310162.54912,1413.6947391,35
1660310162.54912,1413.6947421,-21
1660310162.54912,1413.6947451,-51
1660310162.54912,1413.6947481,-30
1660310162.54912,1413.6947521,-25
1660310162.54912,1413.6947561,-16
1660310162.54912,1413.6947631,-7
1660310162.54912,1413.6947691,-23
1660310162.54912,1413.6947801,-23
1660310162.54912,1413.6947876,9
1660310162.54912,1413.6947916,21
1660310162.54912,1413.6947959,-7
1660310162.54912,1413.6947996,-39
1660310162.54912,1413.6948031,-23
1660310162.54912,1413.6948065,28
1660310162.54912,1413.6948099,35
1660310162.54912,1413.6948138,18
1660310162.54912,1413.6948176,42
1660310162.54912,1413.6948243,70
1660310162.54912,1413.6948289,77
1660310162.54912,1413.6948341,84
1660310162.54912,1413.6948383,114
1660310162.54912,1413.6948433,154
1660310162.54912,1413.6948487,175
1660310162.54912,1413.694854,187
1660310162.54912,1413.6948573,205
1660310162.54912,1413.6948615,222
1660310162.54912,1413.6948663,226
1660310162.54912,1413.6948695,226
1660310162.54912,1413.694873,219
1660310162.54912,1413.6948765,198
1660310162.54912,1413.6948824,163
1660310162.54912,1414.1817843,128
1660310162.54912,1414.1818036,102
1660310162.54912,1414.1818075,74
1660310162.54912,1414.1818109,46
1660310162.54912,1414.1818153,37
1660310162.54912,1414.181819,32
1660310162.54912,1414.1818242,23

1660310162.54912,1414.1818274,23
1660310162.54912,1414.1818307,28
1660310162.54912,1414.1818341,25
1660310162.54912,1414.181839,25
1660310162.54912,1414.1818451,30
1660310162.54912,1414.1818485,28
1660310162.54912,1414.1818518,16
1660310162.54912,1414.1818565,11
1660310162.54912,1414.1818629,11
1660310162.54912,1414.1818667,4
1660310162.55909,1414.1818735,7
1660310162.55909,1414.1818772,30
1660310162.55909,1414.1818819,23
1660310162.55909,1414.1818886,-9
1660310162.55909,1414.1818956,-7
1660310162.55909,1414.1819003,23
1660310162.55909,1414.1819046,32
1660310162.55909,1414.1819103,25
1660310162.55909,1414.1819168,23
1660310162.55909,1414.1819207,35
1660310162.55909,1414.1819249,53
1660310162.55909,1414.1819295,60
1660310162.55909,1414.1819336,60
1660310162.55909,1414.1819368,60
1660310162.55909,1414.1819402,58
1660310162.55909,1414.1819437,58
1660310162.55909,1414.1819476,65
1660310162.55909,1414.1819538,79
1660310162.55909,1414.1819598,91
1660310162.55909,1414.181965,91
1660310162.55909,1414.1819695,81
1660310162.55909,1414.1819745,77
1660310162.55909,1414.1819797,81
1660310162.55909,1414.1819856,88
1660310163.13606,1414.1819909,93
1660310163.13606,1414.1819939,98
1660310163.13606,1414.1819969,102
1660310163.13606,1414.182,91
1660310163.13606,1414.1820032,65
1660310163.13606,1414.1820064,65
1660310163.13606,1414.1820095,70
1660310163.13606,1414.1820142,63
1660310163.13606,1414.1820195,72
1660310163.13606,1414.1820229,86
1660310163.13606,1414.1820263,72
1660310163.13606,1414.1820306,70
1660310163.13606,1414.1820374,86
1660310163.13606,1414.1820435,86
1660310163.13606,1414.1820471,86
1660310163.13606,1414.1820502,109
1660310163.13606,1414.1820541,128
1660310163.13606,1414.1820569,128
1660310163.13606,1414.1820597,114
1660310163.13606,1414.1820626,109
1660310163.13606,1414.1820653,119
1660310163.13606,1414.1820679,112
1660310163.13606,1414.1820717,91
1660310163.13606,1414.1820762,86
1660310163.13606,1414.182079,93
1660310163.13606,1414.1820816,91
1660310163.13606,1414.1820842,84
1660310163.13606,1414.1820868,39
1660310163.13606,1414.1820895,-16
1660310163.13606,1414.1820921,105
1660310163.13606,1414.1820948,458
1660310163.13606,1414.1820974,809
1660310163.13606,1414.7677051,807
1660310163.13606,1414.7677334,437
1660310163.13606,1414.7677408,135
1660310163.13606,1414.7677464,77
1660310163.13606,1414.7677514,51
1660310163.13606,1414.7677563,21
1660310163.13606,1414.7677624,37
1660310163.13606,1414.7677698,49
1660310163.13606,1414.7677748,32
1660310163.13606,1414.7677806,14
1660310163.13606,1414.7677872,11
1660310163.13606,1414.7677932,11
1660310163.13606,1414.7677991,18
1660310163.13606,1414.7678043,35
1660310163.13606,1414.7678104,49
1660310163.13606,1414.7678165,44
1660310163.13606,1414.7678242,23
1660310163.13606,1414.7678284,18
1660310163.14803,1414.7678325,42
1660310163.14803,1414.7678364,58
1660310163.14803,1414.7678461,72
1660310163.14803,1414.7678544,93
1660310163.14803,1414.7678608,105
1660310163.14803,1414.7678651,105
1660310163.14803,1414.767871,126
1660310163.14803,1414.767875,161
1660310163.14803,1414.7678811,182
1660310163.14803,1414.767889,194
1660310163.14803,1414.7678958,210
1660310163.14803,1414.7679041,222
1660310163.14803,1414.7679169,231
1660310163.14803,1414.7679217,238
1660310163.14803,1414.7679301,245
1660310163.14803,1414.767936,240
1660310163.14803,1414.7679402,215
1660310163.14803,1414.7679457,170
1660310163.14803,1414.7679518,119
1660310163.14803,1414.7679598,74
1660310163.14803,1414.7679661,46
1660310163.14803,1414.7679742,21
1660310163.14803,1414.7679807,9
1660310163.14803,1414.7679874,18
1660310163.86956,1414.7679917,18
1660310163.86956,1414.7679955,9
1660310163.86956,1414.7679992,18
1660310163.86956,1414.7680028,39
1660310163.86956,1414.7680067,39
1660310163.86956,1414.7680105,23
1660310163.86956,1414.7680148,21
1660310163.86956,1414.7680206,39
1660310163.86956,1414.7680275,65
1660310163.86956,1414.7680332,70
1660310163.86956,1414.768038,58
1660310163.86956,1414.7680449,67
1660310163.86956,1414.7680531,84
1660310163.86956,1414.7680597,70
1660310163.86956,1414.7680689,72
1660310163.86956,1414.7680761,102
1660310163.86956,1414.768081,100
1660310163.86956,1414.7680869,74
1660310163.86956,1414.7680935,81
1660310163.86956,1414.7681,109
1660310163.86956,1414.7681051,121
1660310163.86956,1414.7681102,102
1660310163.86956,1414.7681159,100
1660310163.86956,1414.7681209,126
1660310163.86956,1414.7681252,131
1660310163.86956,1414.7681301,107
1660310163.86956,1414.7683508,91
1660310163.86956,1414.7683656,95
1660310163.86956,1414.7683798,102
1660310163.86956,1414.7683934,107
1660310163.86956,1414.7684056,100
1660310163.86956,1415.4987803,100
1660310163.86956,1415.4988025,114
1660310163.86956,1415.4988173,121
1660310163.86956,1415.4988309,109
1660310163.86956,1415.4988405,109
1660310163.86956,1415.4988475,126
1660310163.86956,1415.4988565,107
1660310163.86956,1415.4988614,63
1660310163.86956,1415.4988748,60
1660310163.86956,1415.4988867,88
1660310163.86956,1415.4988943,79
1660310163.86956,1415.4988982,63
1660310163.86956,1415.498902,81
1660310163.86956,1415.4989076,84
1660310163.86956,1415.4989111,63
1660310163.86956,1415.4989143,65
1660310163.86956,1415.4989176,72
1660310163.86956,1415.4989211,58
1660310163.86956,1415.4989246,44
1660310163.88253,1415.4989304,37
1660310163.88253,1415.4989339,21
1660310163.88253,1415.4989375,9
1660310163.88253,1415.4989432,11
1660310163.88253,1415.4989473,21
1660310163.88253,1415.498953,21
1660310163.88253,1415.498957,14
1660310163.88253,1415.4989627,11
1660310163.88253,1415.4989668,23
1660310163.88253,1415.4989727,46
1660310163.88253,1415.4989783,42
1660310163.88253,1415.4989842,14
1660310163.88253,1415.4989883,14
1660310163.88253,1415.4989944,7
1660310163.88253,1415.4990004,-16
1660310163.88253,1415.4990053,-16
1660310163.88253,1415.4990109,2
1660310163.88253,1415.4990149,7
1660310163.88253,1415.4990205,7
1660310163.88253,1415.4990246,-11
1660310163.88253,1415.4990308,-79
1660310163.88253,1415.4990351,-65
1660310163.88253,1415.4990408,205
1660310163.88253,1415.4990449,645
1660310164.30466,1415.499049,837
1660310164.30466,1415.4990532,533
1660310164.30466,1415.4990571,135
1660310164.30466,1415.499061,46
1660310164.30466,1415.499065,65
1660310164.30466,1415.4990689,4
1660310164.30466,1415.4990729,-16
1660310164.30466,1415.499077,4
1660310164.30466,1415.4990827,0
1660310164.30466,1415.4990876,7
1660310164.30466,1415.4990934,37
1660310164.30466,1415.4990973,49
1660310164.30466,1415.4991028,49
1660310164.30466,1415.4991089,51
1660310164.30466,1415.4991142,39
1660310164.30466,1415.4991183,32
1660310164.30466,1415.4991223,49
1660310164.30466,1415.4991287,60
1660310164.30466,1415.4991327,58
1660310164.30466,1415.4991367,56
1660310164.30466,1415.4991407,70
1660310164.30466,1415.4991448,95
1660310164.30466,1415.4991509,105
1660310164.30466,1415.499156,116
1660310164.30466,1415.4991615,140
1660310164.30466,1415.4991654,149
1660310164.30466,1415.499171,159
1660310164.30466,1415.4991752,180
1660310164.30466,1415.4991807,205
1660310164.30466,1415.4991848,219
1660310164.30466,1415.9367328,231
1660310164.30466,1415.9367444,243
1660310164.30466,1415.936747,245
1660310164.30466,1415.9367492,240
1660310164.30466,1415.9367511,231
1660310164.30466,1415.936753,210
1660310164.30466,1415.9367549,175
1660310164.30466,1415.9367568,147
1660310164.30466,1415.9367586,112
1660310164.30466,1415.9367605,70
1660310164.30466,1415.9367634,37
1660310164.30466,1415.9367711,18
1660310164.30466,1415.9367834,7
1660310164.30466,1415.9367895,14
1660310164.30466,1415.9367954,21
1660310164.30466,1415.9368014,11
1660310164.30466,1415.9368129,2
1660310164.30466,1415.9368188,2
1660310164.30466,1415.9368219,0
1660310164.30466,1415.936824,9
1660310164.31561,1415.9368261,21
1660310164.31561,1415.9368281,11
1660310164.31561,1415.9368301,2
1660310164.31561,1415.9368321,2
1660310164.31561,1415.9368341,7
1660310164.31561,1415.9368361,16
1660310164.31561,1415.9368382,21
1660310164.31561,1415.9368402,14
1660310164.31561,1415.9368422,11
1660310164.31561,1415.9368442,23
1660310164.31561,1415.9368462,39
1660310164.31561,1415.9368481,37
1660310164.31561,1415.9368502,23
1660310164.31561,1415.9368522,23
1660310164.31561,1415.9368542,28
1660310164.31561,1415.9368562,16
1660310164.31561,1415.9368582,9
1660310164.31561,1415.9368602,16
1660310164.31561,1415.9368622,21
1660310164.31561,1415.9368641,28
1660310164.31561,1415.9368662,39
1660310164.31561,1415.9368682,32
1660310164.31561,1415.9368702,9
1660310164.31561,1415.9368723,2
1660310164.79467,1415.9368742,9
1660310164.79467,1415.9368762,18
1660310164.79467,1415.9368781,21
1660310164.79467,1415.9368799,9
1660310164.79467,1415.9368817,2
1660310164.79467,1415.9368836,2
1660310164.79467,1415.9368855,-2
1660310164.79467,1415.9368887,2
1660310164.79467,1415.9368969,14
1660310164.79467,1415.9369167,4
1660310164.79467,1415.9369258,-11
1660310164.79467,1415.9369282,-7
1660310164.79467,1415.9369303,0
1660310164.79467,1415.9369323,9
1660310164.79467,1415.9369343,42
1660310164.79467,1415.9369363,56
1660310164.79467,1415.9369515,35
1660310164.79467,1415.9369535,30
1660310164.79467,1415.9369555,35
1660310164.79467,1415.9369574,23
1660310164.79467,1415.9369731,23
1660310164.79467,1415.9369753,42
1660310164.79467,1415.9369773,42
1660310164.79467,1415.9369793,30
1660310164.79467,1415.9369813,11
1660310164.79467,1415.9369833,-49
1660310164.79467,1415.9369853,-49
1660310164.79467,1415.9369877,198
1660310164.79467,1415.937008,634
1660310164.79467,1416.4259073,858
1660310164.79467,1416.4259266,563
1660310164.79467,1416.4259351,109
1660310164.79467,1416.425942,18
1660310164.79467,1416.4259471,100
1660310164.79467,1416.425954,53
1660310164.79467,1416.4259598,7
1660310164.79467,1416.4259664,23
1660310164.79467,1416.4259712,16
1660310164.79467,1416.425977,14
1660310164.79467,1416.4259816,46
1660310164.79467,1416.4259858,53
1660310164.79467,1416.4259937,42
1660310164.79467,1416.4259983,58
1660310164.79467,1416.4260038,63
1660310164.79467,1416.4260079,46
1660310164.79467,1416.4260121,53
1660310164.79467,1416.4260177,72
1660310164.79467,1416.4260215,77
1660310164.79467,1416.4260264,58
1660310164.79467,1416.4260303,46
1660310164.80365,1416.4260343,70
1660310164.80365,1416.4260396,105
1660310164.80365,1416.4260446,116
1660310164.80365,1416.4260487,131
1660310164.80365,1416.4260542,163
1660310164.80365,1416.4260578,173
1660310164.80365,1416.4260613,177
1660310164.80365,1416.426065,212
1660310164.80365,1416.4260686,243
1660310164.80365,1416.4260741,257
1660310164.80365,1416.4260774,257
1660310164.80365,1416.4260823,236
1660310164.80365,1416.4260868,215
1660310164.80365,1416.4260904,201
1660310164.80365,1416.4260957,170
1660310164.80365,1416.4260995,131
1660310164.80365,1416.4261044,91
1660310164.80365,1416.4261083,56
1660310164.80365,1416.4261129,32
1660310164.80365,1416.426118,23
1660310164.80365,1416.4261216,16
1660310164.80365,1416.4261257,-2
1660310164.80365,1416.426131,-11
1660310164.80365,1416.4261349,0
1660310165.28449,1416.4261398,18
1660310165.28449,1416.4261431,25
1660310165.28449,1416.4261463,25
1660310165.28449,1416.4261498,32
1660310165.28449,1416.4261533,39
1660310165.28449,1416.4261567,42
1660310165.28449,1416.4261602,46
1660310165.28449,1416.4261636,70
1660310165.28449,1416.426167,79
1660310165.28449,1416.4261701,65
1660310165.28449,1416.4261735,58
1660310165.28449,1416.4261772,72
1660310165.28449,1416.4261808,84
1660310165.28449,1416.4261842,81
1660310165.28449,1416.4261876,79
1660310165.28449,1416.4261908,84
1660310165.28449,1416.426194,81
1660310165.28449,1416.4261969,79
1660310165.28449,1416.4262001,91
1660310165.28449,1416.4262033,86
1660310165.28449,1416.4262065,72
1660310165.28449,1416.4262098,72
1660310165.28449,1416.4262133,70
1660310165.28449,1416.4262164,65
1660310165.28449,1416.4262209,70
1660310165.28449,1416.4262263,67
1660310165.28449,1416.4262298,60
1660310165.28449,1416.4262332,53
1660310165.28449,1416.9117763,46
1660310165.28449,1416.9117944,51
1660310165.28449,1416.9118114,63
1660310165.28449,1416.9118262,60
1660310165.28449,1416.9118401,46
1660310165.28449,1416.9118536,51
1660310165.28449,1416.9118671,53
1660310165.28449,1416.9118806,39
1660310165.28449,1416.9118941,23
1660310165.28449,1416.9119078,32
1660310165.28449,1416.9119213,46
1660310165.28449,1416.911935,39
1660310165.28449,1416.9119498,35
1660310165.28449,1416.9119634,49
1660310165.28449,1416.9119774,58
1660310165.28449,1416.9119921,53
1660310165.28449,1416.9120059,49
1660310165.28449,1416.9120201,56
1660310165.28449,1416.912035,63
1660310165.28449,1416.9120488,56
1660310165.28449,1416.9120623,67
1660310165.28449,1416.9120771,70
1660310165.29447,1416.9120907,2
1660310165.29447,1416.9121044,-39
1660310165.29447,1416.9121215,154
1660310165.29447,1416.9121343,573
1660310165.29447,1416.9121409,884
1660310165.29447,1416.9121497,718
1660310165.29447,1416.9121577,269
1660310165.29447,1416.9121645,67
1660310165.29447,1416.9121718,79
1660310165.29447,1416.9121846,23
1660310165.29447,1416.9121999,-18
1660310165.29447,1416.9122136,21
1660310165.29447,1416.9122271,21
1660310165.29447,1416.9122407,2
1660310165.29447,1416.9122553,18
1660310165.29447,1416.9122698,35
1660310165.29447,1416.9122835,35
1660310165.29447,1416.9122983,46
1660310165.29447,1416.9123116,60
1660310165.29447,1416.9123254,67
1660310165.29447,1416.91234,67
1660310165.29447,1416.912354,79
1660310165.29447,1416.9123674,98
1660310165.29447,1416.9123821,109
1660310165.91385,1416.9123951,119
1660310165.91385,1416.9124028,131
1660310165.91385,1416.9124099,138
1660310165.91385,1416.9124155,152
1660310165.91385,1416.9124232,177
1660310165.91385,1416.9124315,191
1660310165.91385,1416.9124389,212
1660310165.91385,1416.9124504,243
1660310165.91385,1416.9124609,250
1660310165.91385,1416.9124697,262
1660310165.91385,1416.9124771,290
1660310165.91385,1416.91249,304
1660310165.91385,1416.9125001,301
1660310165.91385,1416.9125101,292
1660310165.91385,1416.9125206,262
1660310165.91385,1416.9125308,224
1660310165.91385,1416.91254,194
1660310165.91385,1416.9125502,156
1660310165.91385,1416.9125605,119
1660310165.91385,1416.9125705,93
1660310165.91385,1416.9125807,67
1660310165.91385,1416.9125908,51
1660310165.91385,1416.9125998,49
1660310165.91385,1416.9126098,51
1660310165.91385,1416.91262,51
1660310165.91385,1416.9126289,56
1660310165.91385,1416.9126393,56
1660310165.91385,1417.5456009,42
1660310165.91385,1417.545622,37
1660310165.91385,1417.5456313,49
1660310165.91385,1417.545635,58
1660310165.91385,1417.5456372,60
1660310165.91385,1417.5456392,65
1660310165.91385,1417.5456412,51
1660310165.91385,1417.5456432,23
1660310165.91385,1417.5456452,21
1660310165.91385,1417.5456472,37
1660310165.91385,1417.5456492,35
1660310165.91385,1417.5456511,28
1660310165.91385,1417.5456531,32
1660310165.91385,1417.545655,25
1660310165.91385,1417.545657,11
1660310165.91385,1417.5456591,16
1660310165.91385,1417.5456611,23
1660310165.91385,1417.5456631,16
1660310165.91385,1417.5456651,9
1660310165.91385,1417.5456671,4
1660310165.91385,1417.5456697,-4
1660310165.91385,1417.5456718,-4
1660310165.91385,1417.5456739,0
1660310165.92482,1417.545676,-9
1660310165.92482,1417.5456779,-7
1660310165.92482,1417.5456799,2
1660310165.92482,1417.5456819,7
1660310165.92482,1417.5456839,9
1660310165.92482,1417.5456859,14
1660310165.92482,1417.5456879,9
1660310165.92482,1417.54569,18
1660310165.92482,1417.545692,30
1660310165.92482,1417.5456939,35
1660310165.92482,1417.5456959,30
1660310165.92482,1417.5456986,18
1660310165.92482,1417.5457007,25
1660310165.92482,1417.5457027,51
1660310165.92482,1417.5457047,60
1660310165.92482,1417.5457067,53
1660310165.92482,1417.5457087,49
1660310165.92482,1417.5457108,46
1660310165.92482,1417.5457128,51
1660310165.92482,1417.5457148,56
1660310165.92482,1417.5457168,56
1660310165.92482,1417.5457188,63
1660310165.92482,1417.5457208,70
1660310165.92482,1417.5457228,84
1660310166.40214,1417.5457248,109
1660310166.40214,1417.5457268,112
1660310166.40214,1417.5457287,91
1660310166.40214,1417.5457305,84
1660310166.40214,1417.5457324,84
1660310166.40214,1417.5457342,88
1660310166.40214,1417.545736,84
1660310166.40214,1417.545738,79
1660310166.40214,1417.5457398,77
1660310166.40214,1417.5457417,35
1660310166.40214,1417.5457435,-14
1660310166.40214,1417.5457458,105
1660310166.40214,1417.5457477,458
1660310166.40214,1417.5457496,814
1660310166.40214,1417.5457555,779
1660310166.40214,1417.5457645,369
1660310166.40214,1417.5457758,107
1660310166.40214,1417.5457849,116
1660310166.40214,1417.5457885,74
1660310166.40214,1417.5457906,-7
1660310166.40214,1417.5457926,28
1660310166.40214,1417.5457946,67
1660310166.40214,1417.5457966,37
1660310166.40214,1417.5457986,30
1660310166.40214,1417.5458007,51
1660310166.40214,1417.5458027,42
1660310166.40214,1418.0330879,42
1660310166.40214,1418.0331033,79
1660310166.40214,1418.0331081,93
1660310166.40214,1418.0331136,79
1660310166.40214,1418.0331181,84
1660310166.40214,1418.0331248,91
1660310166.40214,1418.0331286,93
1660310166.40214,1418.033134,116
1660310166.40214,1418.0331386,135
1660310166.40214,1418.0331425,126
1660310166.40214,1418.0331462,124
1660310166.40214,1418.03315,161
1660310166.40214,1418.0331551,198
1660310166.40214,1418.0331587,189
1660310166.40214,1418.0331636,184
1660310166.40214,1418.0331681,233
1660310166.40214,1418.0331728,250
1660310166.40214,1418.0331768,203
1660310166.40214,1418.0331804,191
1660310166.40214,1418.0331862,222
1660310166.40214,1418.0331899,250
1660310166.40214,1418.0331949,240
1660310166.40214,1418.0331991,180
1660310166.40214,1418.0332026,114
1660310166.41311,1418.0332073,93
1660310166.41311,1418.0332121,88
1660310166.41311,1418.033216,58
1660310166.41311,1418.0332206,21
1660310166.41311,1418.0332243,0
1660310166.41311,1418.0332275,-2
1660310166.41311,1418.0332307,11
1660310166.41311,1418.0332341,14
1660310166.41311,1418.0332397,0
1660310166.41311,1418.0332434,9
1660310166.41311,1418.0332483,28
1660310166.41311,1418.0332528,9
1660310166.41311,1418.0332565,16
1660310166.41311,1418.0332601,65
1660310166.41311,1418.0332663,60
1660310166.41311,1418.0332706,28
1660310166.41311,1418.0332757,32
1660310166.41311,1418.0332794,44
1660310166.41311,1418.0332841,49
1660310166.41311,1418.0332878,49
1660310166.41311,1418.0332914,44
1660310166.41311,1418.0332965,42
1660310166.41311,1418.0333007,37
1660310166.41311,1418.0333055,42
1660310166.98437,1418.0333098,51
1660310166.98437,1418.0333134,63
1660310166.98437,1418.0333169,70
1660310166.98437,1418.033321,51
1660310166.98437,1418.0333246,23
1660310166.98437,1418.0333281,28
1660310166.98437,1418.0333317,44
1660310166.98437,1418.0333352,49
1660310166.98437,1418.0333388,49
1660310166.98437,1418.0333425,35
1660310166.98437,1418.0333461,21
1660310166.98437,1418.0333497,30
1660310166.98437,1418.0333535,32
1660310166.98437,1418.033357,28
1660310166.98437,1418.0333607,32
1660310166.98437,1418.0333643,46
1660310166.98437,1418.0333716,49
1660310166.98437,1418.0333766,46
1660310166.98437,1418.0333797,46
1660310166.98437,1418.0333836,46
1660310166.98437,1418.0333886,44
1660310166.98437,1418.0333932,49
1660310166.98437,1418.0333981,58
1660310166.98437,1418.0334011,56
1660310166.98437,1418.0334046,53
1660310166.98437,1418.618397,60
1660310166.98437,1418.6184138,49
1660310166.98437,1418.6184193,32
1660310166.98437,1418.6184243,42
1660310166.98437,1418.6184291,39
1660310166.98437,1418.6184351,16
1660310166.98437,1418.6184416,2
1660310166.98437,1418.6184482,16
1660310166.98437,1418.618455,39
1660310166.98437,1418.6184608,44
1660310166.98437,1418.6184651,35
1660310166.98437,1418.6184683,25
1660310166.98437,1418.6184722,11
1660310166.98437,1418.6184752,0
1660310166.98437,1418.6184782,-11
1660310166.98437,1418.6184822,-9
1660310166.98437,1418.6184853,7
1660310166.98437,1418.6184893,16
1660310166.98437,1418.6184928,-11
1660310166.98437,1418.6184961,-79
1660310166.98437,1418.6185003,-74
1660310166.98437,1418.618507,173
1660310166.98437,1418.6185116,605
1660310166.98437,1418.6185154,844
1660310166.98437,1418.6185184,582
1660310166.99533,1418.6185212,147
1660310166.99533,1418.618524,35
1660310166.99533,1418.6185268,86
1660310166.99533,1418.6185296,30
1660310166.99533,1418.6185323,-11
1660310166.99533,1418.6185351,21
1660310166.99533,1418.6185379,32
1660310166.99533,1418.6185407,21
1660310166.99533,1418.6185435,21
1660310166.99533,1418.6185462,37
1660310166.99533,1418.618549,51
1660310166.99533,1418.6185519,46
1660310166.99533,1418.6185546,42
1660310166.99533,1418.6185574,56
1660310166.99533,1418.6185602,63
1660310166.99533,1418.618563,65
1660310166.99533,1418.6185658,79
1660310166.99533,1418.6185685,95
1660310166.99533,1418.6185714,102
1660310166.99533,1418.6185742,116
1660310166.99533,1418.618577,140
1660310166.99533,1418.6185798,156
1660310166.99533,1418.6185826,170
1660310166.99533,1418.6185853,187
1660310167.71663,1418.6185887,201
1660310167.71663,1418.6185958,210
1660310167.71663,1418.6186024,217
1660310167.71663,1418.618609,240
1660310167.71663,1418.6186141,264
