Time,TimeLsl,Value
1660316070.92223,7320.7737833,77
1660316070.92223,7320.7738023,60
1660316070.92223,7320.7738105,53
1660316070.92223,7320.7738166,56
1660316070.92223,7320.7738502,51
1660316070.92223,7320.7738701,37
1660316070.92223,7320.7738776,37
1660316070.92223,7320.7738859,53
1660316070.92223,7320.773892,35
1660316070.92223,7320.7739,67
1660316070.92223,7320.7739076,401
1660316070.92223,7320.7739122,943
1660316070.92223,7320.7739175,1102
1660316070.92223,7320.7739206,469
1660316070.92223,7320.7739238,-282
1660316070.92223,7320.7739283,-282
1660316070.92223,7320.7739335,4
1660316070.92223,7320.7739381,-30
1660316070.92223,7320.7739413,-72
1660316070.92223,7320.7739446,11
1660316070.92223,7320.7739496,18
1660316070.92223,7320.7739534,-7
1660316070.92223,7320.7739584,21
1660316070.92223,7320.7739616,42
1660316070.92223,7320.7739651,39
1660316070.92223,7320.7739732,49
1660316070.92223,7320.7739793,72
1660316070.92223,7320.7739919,88
1660316070.92223,7320.7739999,95
1660316070.92223,7320.7740048,91
1660316070.92223,7320.7740115,95
1660316070.92223,7320.7740346,130
1660316070.92223,7320.7740473,182
1660316070.92223,7320.7740596,221
1660316070.92223,7320.7740689,238
1660316070.92223,7320.7740909,242
1660316070.92223,7320.7740995,245
1660316070.92223,7320.7741092,235
1660316070.92223,7320.7741139,205
1660316070.92223,7320.7741196,163
1660316070.92223,7320.7741244,114
1660316070.92223,7320.7741286,60
1660316070.92223,7320.7741346,23
1660316070.92223,7320.7741402,4
1660316070.92223,7320.774148,-18
1660316070.92223,7320.7741521,-51
1660316070.92223,7320.774158,-70
1660316070.92223,7320.774163,-74
1660316070.92223,7320.774169,-74
1660316070.92223,7320.774174,-70
1660316071.05408,7320.7741803,-67
1660316071.05408,7320.7741856,-63
1660316071.05408,7320.7741934,-56
1660316071.05408,7320.7742011,-49
1660316071.05408,7320.7742091,-49
1660316071.05408,7320.7742154,-35
1660316071.05408,7320.7742237,-16
1660316071.05408,7320.7742323,-11
1660316071.05408,7320.7742369,-4
1660316071.05408,7320.7742456,7
1660316071.05408,7320.7742536,11
1660316071.05408,7320.7742598,4
1660316071.05408,7320.7742681,2
1660316071.05408,7320.774275,7
1660316071.05408,7320.7742861,7
1660316071.05408,7320.7742969,14
1660316071.05408,7320.774305,23
1660316071.05408,7320.7743129,14
1660316071.05408,7320.7743245,7
1660316071.05408,7320.7743377,21
1660316071.05408,7320.7743524,28
1660316071.05408,7320.7743643,23
1660316071.05408,7320.7743736,25
1660316071.05408,7321.3590467,25
1660316071.05408,7321.3590643,28
1660316071.05408,7321.3590688,46
1660316071.05408,7321.3590723,65
1660316071.05408,7321.3590759,72
1660316071.05408,7321.3590794,84
1660316071.05408,7321.359083,95
1660316071.05408,7321.3590867,74
1660316071.05408,7321.3590904,16
1660316071.05408,7321.3590941,-18
1660316071.05408,7321.3590973,-7
1660316071.05408,7321.3591006,7
1660316071.05408,7321.3591046,23
1660316071.05408,7321.3591079,51
1660316071.05408,7321.3591137,39
1660316071.05408,7321.3591352,-7
1660316071.05408,7321.3591537,7
1660316071.05408,7321.3591608,235
1660316071.05408,7321.3591645,679
1660316071.05408,7321.3591674,962
1660316071.05408,7321.3591703,560
1660316071.05408,7321.3591733,-219
1660316071.05408,7321.3591767,-373
1660316071.05408,7321.3591799,-39
1660316071.05408,7321.3591832,-2
1660316071.05408,7321.3591864,-74
1660316071.05408,7321.3591907,18
1660316071.11093,7321.3591976,44
1660316071.11093,7321.3592005,2
1660316071.11093,7321.3592033,25
1660316071.11093,7321.3592062,56
1660316071.11093,7321.3592089,56
1660316071.11093,7321.359212,70
1660316071.11093,7321.3592151,86
1660316071.11093,7321.3592182,88
1660316071.11093,7321.3592211,100
1660316071.11093,7321.3592242,102
1660316071.11093,7321.3592271,88
1660316071.11093,7321.3592299,84
1660316071.11093,7321.359233,86
1660316071.11093,7321.3592364,107
1660316071.11093,7321.3592396,156
1660316071.11093,7321.359243,191
1660316071.11093,7321.3592473,205
1660316071.11093,7321.3592518,214
1660316071.11093,7321.3592558,191
1660316071.11093,7321.3592613,137
1660316071.11093,7321.3592648,98
1660316071.11093,7321.3592684,72
1660316071.11093,7321.3592719,30
1660316071.11093,7321.3592755,-18
1660316071.11093,7321.3592796,-46
1660316071.11093,7321.3592837,-53
1660316071.11093,7321.3592874,-60
1660316071.11093,7321.3592906,-77
1660316071.11093,7321.359294,-81
1660316071.11093,7321.3592976,-77
1660316071.11093,7321.3593013,-77
1660316071.11093,7321.3593059,-74
1660316071.11093,7321.3593101,-70
1660316071.11093,7321.3593146,-63
1660316071.11093,7321.3593191,-51
1660316071.11093,7321.3593227,-32
1660316071.11093,7321.3593271,-21
1660316071.11093,7321.3593314,-18
1660316071.11093,7321.3593353,-14
1660316071.11093,7321.3593396,0
1660316071.11093,7321.3593433,9
1660316071.11093,7321.3593479,9
1660316071.11093,7321.3593524,7
1660316071.11093,7321.3593561,4
1660316071.11093,7321.3593605,4
1660316071.11093,7321.359365,16
1660316071.11093,7321.8466999,28
1660316071.11093,7321.8467171,23
1660316071.11093,7321.8467244,14
1660316071.11093,7321.8467302,14
1660316071.13287,7321.8467364,23
1660316071.13287,7321.8467424,25
1660316071.13287,7321.8467474,30
1660316071.13287,7321.8467512,39
1660316071.13287,7321.8467578,46
1660316071.13287,7321.8467647,53
1660316071.13287,7321.8467716,63
1660316071.13287,7321.8467765,70
1660316071.13287,7321.8467804,70
1660316071.13287,7321.8467832,60
1660316071.13287,7321.8467865,39
1660316071.13287,7321.8467916,39
1660316071.13287,7321.8467989,51
1660316071.13287,7321.846813,37
1660316071.13287,7321.8468242,16
1660316071.13287,7321.8468366,25
1660316071.13287,7321.8468482,28
1660316071.13287,7321.8468584,-9
1660316071.13287,7321.8469047,77
1660316071.13287,7321.846927,467
1660316071.13287,7321.8469377,910
1660316071.13287,7321.8469472,854
1660316071.13287,7321.8469542,168
1660316071.13287,7321.8469599,-362
1660316071.13287,7321.846966,-172
1660316071.13287,7321.8469708,53
1660316071.13287,7321.8469796,-56
1660316071.13287,7321.8469882,-72
1660316071.13287,7321.8469964,7
1660316071.13287,7321.8470027,4
1660316071.13287,7321.8470077,9
1660316071.13287,7321.8470166,44
1660316071.13287,7321.8470246,42
1660316071.13287,7321.8470319,42
1660316071.13287,7321.8470366,67
1660316071.13287,7321.8470443,86
1660316071.13287,7321.8470536,100
1660316071.13287,7321.8470617,130
1660316071.13287,7321.8470677,149
1660316071.13287,7321.847073,161
1660316071.13287,7321.8470827,191
1660316071.13287,7321.8470907,228
1660316071.13287,7321.8470983,247
1660316071.13287,7321.8471055,259
1660316071.13287,7321.8471153,268
1660316071.13287,7321.8471245,261
1660316071.13287,7321.8471343,238
1660316071.13287,7321.847143,217
1660316071.13287,7321.8471509,193
1660316071.13287,7321.8471582,158
1660316071.14484,7321.8471664,121
1660316071.14484,7321.8471727,91
1660316071.14484,7321.8471761,70
1660316071.14484,7321.8471816,56
1660316071.14484,7321.8471852,44
1660316071.14484,7321.8471905,37
1660316071.14484,7321.8471966,32
1660316071.14484,7321.8472049,30
1660316071.14484,7321.8472107,23
1660316071.14484,7321.847214,23
1660316071.14484,7321.8472192,37
1660316071.14484,7321.8472227,51
1660316071.14484,7321.847228,56
1660316071.14484,7321.8472314,63
1660316071.14484,7321.8472368,70
1660316071.14484,7321.8472415,65
1660316071.14484,7321.8472472,58
1660316071.14484,7321.8472509,53
1660316071.14484,7321.847258,58
1660316071.14484,7322.4315772,53
1660316071.14484,7322.4315976,42
1660316071.14484,7322.4316134,32
1660316071.39317,7322.4316261,23
1660316071.39317,7322.4316348,23
1660316071.39317,7322.4316443,37
1660316071.39317,7322.4316547,42
1660316071.39317,7322.4316628,23
1660316071.39317,7322.4316669,-7
1660316071.39317,7322.4316708,-11
1660316071.39317,7322.4316829,9
1660316071.39317,7322.4316905,23
1660316071.39317,7322.4316946,23
1660316071.39317,7322.4316992,25
1660316071.39317,7322.4317023,25
1660316071.39317,7322.4317053,16
1660316071.39317,7322.4317088,0
1660316071.39317,7322.4317122,-11
1660316071.39317,7322.4317159,-4
1660316071.39317,7322.4317193,4
1660316071.39317,7322.4317223,9
1660316071.39317,7322.4317262,16
1660316071.39317,7322.4317306,14
1660316071.39317,7322.431737,-16
1660316071.39317,7322.4317407,-72
1660316071.39317,7322.4317442,7
1660316071.39317,7322.4317478,406
1660316071.39317,7322.4317517,868
1660316071.39317,7322.4317573,794
1660316071.39317,7322.431761,107
1660316071.39317,7322.4317646,-317
1660316071.39317,7322.4317698,-91
1660316071.39317,7322.4317735,72
1660316071.39317,7322.431777,-11
1660316071.39317,7322.4317823,11
1660316071.39317,7322.431786,60
1660316071.39317,7322.4317897,37
1660316071.39317,7322.4317935,46
1660316071.39317,7322.4317989,77
1660316071.39317,7322.4318026,84
1660316071.39317,7322.4318063,91
1660316071.39317,7322.4318098,109
1660316071.39317,7322.4318189,126
1660316071.39317,7322.4318224,135
1660316071.39317,7322.4318271,151
1660316071.39317,7322.4318308,179
1660316071.39317,7322.4318363,200
1660316071.39317,7322.4318422,219
1660316071.39317,7322.4318473,247
1660316071.39317,7322.4318508,273
1660316071.39317,7322.4318545,284
1660316071.39317,7322.431858,287
1660316071.39317,7322.4318628,270
1660316071.44603,7322.4318681,247
1660316071.44603,7322.4318718,228
1660316071.44603,7322.431877,198
1660316071.44603,7322.4318801,161
1660316071.44603,7322.4318832,130
1660316071.44603,7322.4318868,114
1660316071.44603,7322.4318922,98
1660316071.44603,7322.4319001,81
1660316071.44603,7322.4319135,72
1660316071.44603,7322.4319282,70
1660316071.44603,7322.4319413,60
1660316071.44603,7322.4319544,58
1660316071.44603,7322.4319675,65
1660316071.44603,7322.4319807,67
1660316071.44603,7322.4319939,63
1660316071.44603,7322.432007,65
1660316071.44603,7322.4320206,77
1660316071.44603,7322.4320335,88
1660316071.44603,7322.4320466,95
1660316071.44603,7322.4320598,93
1660316071.44603,7323.0170919,93
1660316071.44603,7323.0171155,95
1660316071.44603,7323.0171228,98
1660316071.44603,7323.0171315,100
1660316071.86581,7323.0171501,98
1660316071.86581,7323.0171625,93
1660316071.86581,7323.0171676,88
1660316071.86581,7323.0171713,79
1660316071.86581,7323.0171761,74
1660316071.86581,7323.0171816,81
1660316071.86581,7323.0171873,91
1660316071.86581,7323.0171916,74
1660316071.86581,7323.0171983,56
1660316071.86581,7323.0172055,65
1660316071.86581,7323.017229,79
1660316071.86581,7323.0172419,77
1660316071.86581,7323.0172524,60
1660316071.86581,7323.0172598,14
1660316071.86581,7323.0172662,-28
1660316071.86581,7323.0172756,-23
1660316071.86581,7323.017318,-14
1660316071.86581,7323.017331,-23
1660316071.86581,7323.0173375,-14
1660316071.86581,7323.017342,-7
1660316071.86581,7323.0173471,-39
1660316071.86581,7323.0173511,-105
1660316071.86581,7323.0173568,-44
1660316071.86581,7323.0173608,326
1660316071.86581,7323.0173662,777
1660316071.86581,7323.0173697,733
1660316071.86581,7323.0173753,81
1660316071.86581,7323.0173792,-359
1660316071.86581,7323.0173849,-137
1660316071.86581,7323.0173884,60
1660316071.86581,7323.0173935,-30
1660316071.86581,7323.0173976,-23
1660316071.86581,7323.0174174,46
1660316071.86581,7323.017428,30
1660316071.86581,7323.0174338,25
1660316071.86581,7323.0174376,63
1660316071.86581,7323.0174437,74
1660316071.86581,7323.0174494,77
1660316071.86581,7323.0174579,93
1660316071.86581,7323.0174648,107
1660316071.86581,7323.0174698,123
1660316071.86581,7323.017474,144
1660316071.86581,7323.0174819,168
1660316071.86581,7323.0174873,189
1660316071.86581,7323.0174918,205
1660316071.86581,7323.0174997,224
1660316071.86581,7323.0175077,242
1660316071.86581,7323.0175378,252
1660316071.86581,7323.0175481,252
1660316071.86581,7323.0175539,247
1660316071.87778,7323.0175586,226
1660316071.87778,7323.0175616,198
1660316071.87778,7323.0175648,175
1660316071.87778,7323.0175683,147
1660316071.87778,7323.0175713,109
1660316071.87778,7323.017575,84
1660316071.87778,7323.0175787,74
1660316071.87778,7323.0175818,63
1660316071.87778,7323.0175861,51
1660316071.87778,7323.0175895,51
1660316071.87778,7323.0175928,58
1660316071.87778,7323.0175976,58
1660316071.87778,7323.0176008,53
1660316071.87778,7323.017604,60
1660316071.87778,7323.0176084,67
1660316071.87778,7323.0176116,72
1660316071.87778,7323.0176153,84
1660316071.87778,7323.0176209,98
1660316071.87778,7323.0176256,102
1660316071.87778,7323.5042134,102
1660316071.87778,7323.5042343,105
1660316071.87778,7323.5042517,102
1660316071.87778,7323.5042664,107
1660316071.87778,7323.5042744,119
1660316072.49846,7323.5042821,114
1660316072.49846,7323.5042891,100
1660316072.49846,7323.5042938,95
1660316072.49846,7323.504298,88
1660316072.49846,7323.5043025,79
1660316072.49846,7323.5043066,84
1660316072.49846,7323.5043124,100
1660316072.49846,7323.5043181,114
1660316072.49846,7323.5043249,116
1660316072.49846,7323.5043324,98
1660316072.49846,7323.5043417,70
1660316072.49846,7323.5043502,49
1660316072.49846,7323.5043542,35
1660316072.49846,7323.5043633,35
1660316072.49846,7323.5043708,39
1660316072.49846,7323.5043746,28
1660316072.49846,7323.5043828,18
1660316072.49846,7323.5043969,28
1660316072.49846,7323.5044097,-9
1660316072.49846,7323.5044196,-93
1660316072.49846,7323.50443,-2
1660316072.49846,7323.5044405,418
1660316072.49846,7323.5044828,833
1660316072.49846,7323.5044955,653
1660316072.49846,7323.5045096,-16
1660316072.49846,7323.5045205,-289
1660316072.49846,7323.5045416,-21
1660316072.49846,7323.5045558,79
1660316072.49846,7323.5045689,-14
1660316072.49846,7323.504582,25
1660316072.49846,7323.5045951,70
1660316072.49846,7323.5046083,39
1660316072.49846,7323.5046203,39
1660316072.49846,7323.5046319,58
1660316072.49846,7323.5046372,53
1660316072.49846,7323.5046404,53
1660316072.49846,7323.5046429,63
1660316072.49846,7323.5046524,79
1660316072.49846,7323.5046624,102
1660316072.49846,7323.5046668,123
1660316072.49846,7323.5046725,144
1660316072.49846,7323.5046829,158
1660316072.49846,7323.5046955,175
1660316072.49846,7323.5047063,191
1660316072.49846,7323.5047153,198
1660316072.49846,7323.5047195,196
1660316072.49846,7323.5047277,189
1660316072.49846,7323.5047349,182
1660316072.49846,7323.504742,170
1660316072.49846,7323.5047456,144
1660316072.50943,7323.5047507,112
1660316072.50943,7323.5047539,86
1660316072.50943,7323.5047591,72
1660316072.50943,7323.5047656,46
1660316072.50943,7323.5047692,28
1660316072.50943,7323.5047739,28
1660316072.50943,7323.5047772,30
1660316072.50943,7323.5047819,30
1660316072.50943,7323.5047872,37
1660316072.50943,7323.5047913,37
1660316072.50943,7323.5047967,30
1660316072.50943,7323.5047999,37
1660316072.50943,7323.5048058,58
1660316072.50943,7323.5048186,74
1660316072.50943,7323.5048321,79
1660316072.50943,7323.5048421,88
1660316072.50943,7323.5048488,93
1660316072.50943,7323.5048554,88
1660316072.50943,7324.1371745,77
1660316072.50943,7324.1371925,63
1660316072.50943,7324.1372013,63
1660316072.50943,7324.1372084,63
1660316072.50943,7324.1372171,44
1660316072.50943,7324.1372242,23
1660316073.08256,7324.1372321,28
1660316073.08256,7324.1372378,46
1660316073.08256,7324.137245,46
1660316073.08256,7324.1372519,46
1660316073.08256,7324.1372585,46
1660316073.08256,7324.1372622,32
1660316073.08256,7324.1372653,21
1660316073.08256,7324.1372686,23
1660316073.08256,7324.1372717,11
1660316073.08256,7324.1372782,7
1660316073.08256,7324.1372813,16
1660316073.08256,7324.1372863,9
1660316073.08256,7324.1373012,2
1660316073.08256,7324.1373109,16
1660316073.08256,7324.1373166,21
1660316073.08256,7324.1373204,-32
1660316073.08256,7324.1373253,-67
1660316073.08256,7324.1373291,140
1660316073.08256,7324.1373341,579
1660316073.08256,7324.1373392,794
1660316073.08256,7324.1373448,390
1660316073.08256,7324.1373484,-168
1660316073.08256,7324.137352,-158
1660316073.08256,7324.137357,86
1660316073.08256,7324.1373607,67
1660316073.08256,7324.137366,30
1660316073.08256,7324.1373698,100
1660316073.08256,7324.1373753,105
1660316073.08256,7324.1373793,84
1660316073.08256,7324.1373845,100
1660316073.08256,7324.1373883,107
1660316073.08256,7324.1373935,105
1660316073.08256,7324.137397,121
1660316073.08256,7324.1374015,135
1660316073.08256,7324.137407,135
1660316073.08256,7324.1374106,144
1660316073.08256,7324.1374174,168
1660316073.08256,7324.1374207,184
1660316073.08256,7324.1374339,203
1660316073.08256,7324.1374473,224
1660316073.08256,7324.1374603,235
1660316073.08256,7324.1374722,235
1660316073.08256,7324.1374802,226
1660316073.08256,7324.1374863,210
1660316073.08256,7324.1374939,186
1660316073.08256,7324.1375,168
1660316073.08256,7324.1375077,147
1660316073.08256,7324.1375151,116
1660316073.08256,7324.1375219,86
1660316073.08256,7324.1375294,60
1660316073.09353,7324.1375362,44
1660316073.09353,7324.1375459,39
1660316073.09353,7324.1375889,39
1660316073.09353,7324.1375964,32
1660316073.09353,7324.1376032,30
1660316073.09353,7324.1376091,25
1660316073.09353,7324.1376125,30
1660316073.09353,7324.1376159,42
1660316073.09353,7324.1376209,51
1660316073.09353,7324.1376243,46
1660316073.09353,7324.137629,44
1660316073.09353,7324.1376326,44
1660316073.09353,7324.1376374,49
1660316073.09353,7324.1376407,49
1660316073.09353,7324.1376455,46
1660316073.09353,7324.1376489,46
1660316073.09353,7324.1376537,42
1660316073.09353,7324.7227677,35
1660316073.09353,7324.7227842,35
1660316073.09353,7324.7227887,39
1660316073.09353,7324.722791,46
1660316073.09353,7324.7227932,58
1660316073.09353,7324.7227965,65
1660316073.09353,7324.722801,72
1660316073.62228,7324.7228074,79
1660316073.62228,7324.7228121,67
1660316073.62228,7324.7228167,39
1660316073.62228,7324.7228213,23
1660316073.62228,7324.7228287,11
1660316073.62228,7324.7228375,16
1660316073.62228,7324.722845,35
1660316073.62228,7324.7228516,30
1660316073.62228,7324.722856,16
1660316073.62228,7324.7228638,28
1660316073.62228,7324.7228683,21
1660316073.62228,7324.7228772,-51
1660316073.62228,7324.7228846,-25
1660316073.62228,7324.722894,287
1660316073.62228,7324.7229016,667
1660316073.62228,7324.7229104,623
1660316073.62228,7324.7229177,67
1660316073.62228,7324.7229259,-277
1660316073.62228,7324.7229332,-72
1660316073.62228,7324.7229442,72
1660316073.62228,7324.7229479,-9
1660316073.62228,7324.7229518,16
1660316073.62228,7324.7229537,72
1660316073.62228,7324.7229583,44
1660316073.62228,7324.7229604,37
1660316073.62228,7324.7229624,63
1660316073.62228,7324.7229644,67
1660316073.62228,7324.7229665,72
1660316073.62228,7324.7229691,95
1660316073.62228,7324.7229718,114
1660316073.62228,7324.722974,126
1660316073.62228,7324.722976,137
1660316073.62228,7324.722978,149
1660316073.62228,7324.72298,165
1660316073.62228,7324.7229821,186
1660316073.62228,7324.7229841,207
1660316073.62228,7324.7229861,219
1660316073.62228,7324.7229881,217
1660316073.62228,7324.7229901,203
1660316073.62228,7324.7229921,189
1660316073.62228,7324.7229941,172
1660316073.62228,7324.7229961,149
1660316073.62228,7324.7229984,135
1660316073.62228,7324.7230004,116
1660316073.62228,7324.7230024,81
1660316073.62228,7324.7230044,65
1660316073.62228,7324.7230065,60
1660316073.62228,7324.7230085,37
1660316073.62228,7324.7230107,14
1660316073.62228,7324.7230128,4
1660316073.63325,7324.7230149,2
1660316073.63325,7324.7230169,-4
1660316073.63325,7324.723019,-11
1660316073.63325,7324.723021,-25
1660316073.63325,7324.7230231,-39
1660316073.63325,7324.7230251,-30
1660316073.63325,7324.7230271,-28
1660316073.63325,7324.7230293,-37
1660316073.63325,7324.7230313,-28
1660316073.63325,7324.7230333,-4
1660316073.63325,7324.7230354,0
1660316073.63325,7324.7230376,-2
1660316073.63325,7324.7230403,0
1660316073.63325,7324.7230425,-4
1660316073.63325,7324.7230445,-9
1660316073.63325,7324.7230465,-2
1660316073.63325,7325.2608043,21
1660316073.63325,7325.2608268,35
1660316073.63325,7325.260835,35
1660316073.63325,7325.2608423,39
1660316073.63325,7325.2608465,49
1660316073.63325,7325.2608521,37
1660316073.63325,7325.2608562,16
1660316073.63325,7325.2608617,9
1660316074.21435,7325.2608657,14
1660316074.21435,7325.2609139,28
1660316074.21435,7325.2609236,18
1660316074.21435,7325.2609311,-2
1660316074.21435,7325.2609371,-2
1660316074.21435,7325.2609418,-11
1660316074.21435,7325.2609473,-60
1660316074.21435,7325.2609509,7
1660316074.21435,7325.260956,336
1660316074.21435,7325.2609611,686
1660316074.21435,7325.2609684,548
1660316074.21435,7325.2609776,-49
1660316074.21435,7325.2609854,-301
1660316074.21435,7325.2609918,-53
1660316074.21435,7325.2609968,42
1660316074.21435,7325.261006,-39
1660316074.21435,7325.2610137,-4
1660316074.21435,7325.261021,35
1660316074.21435,7325.2610279,11
1660316074.21435,7325.2610365,21
1660316074.21435,7325.2610443,44
1660316074.21435,7325.2610519,49
1660316074.21435,7325.261058,67
1660316074.21435,7325.2610658,88
1660316074.21435,7325.2610747,91
1660316074.21435,7325.2610829,102
1660316074.21435,7325.2610891,123
1660316074.21435,7325.2610965,142
1660316074.21435,7325.2611053,165
1660316074.21435,7325.2611138,182
1660316074.21435,7325.2611198,186
1660316074.21435,7325.2611255,207
1660316074.21435,7325.2611346,231
1660316074.21435,7325.2611424,224
1660316074.21435,7325.2611488,196
1660316074.21435,7325.2611542,175
1660316074.21435,7325.2611623,156
1660316074.21435,7325.2611705,137
1660316074.21435,7325.2611782,121
1660316074.21435,7325.2611891,105
1660316074.21435,7325.2611976,81
1660316074.21435,7325.2612051,56
1660316074.21435,7325.2612096,49
1660316074.21435,7325.2612202,51
1660316074.21435,7325.2612301,49
1660316074.21435,7325.2612394,30
1660316074.21435,7325.2612476,7
1660316074.21435,7325.2612583,-4
1660316074.21435,7325.2612685,7
1660316074.21435,7325.2612799,21
1660316074.22533,7325.261289,21
1660316074.22533,7325.2612976,25
1660316074.22533,7325.2613055,37
1660316074.22533,7325.2613118,37
1660316074.22533,7325.261316,30
1660316074.22533,7325.2613216,37
1660316074.22533,7325.2613259,39
1660316074.22533,7325.2613319,32
1660316074.22533,7325.2613377,32
1660316074.22533,7325.2613452,42
1660316074.22533,7325.2613515,39
1660316074.22533,7325.2613605,44
1660316074.22533,7325.2615465,58
1660316074.22533,7325.2615659,67
1660316074.22533,7325.2615749,72
1660316074.22533,7325.8441037,77
1660316074.22533,7325.8441232,56
1660316074.22533,7325.8441341,32
1660316074.22533,7325.8441409,37
1660316074.22533,7325.8441459,46
1660316074.22533,7325.8441522,51
1660316074.22533,7325.8441605,58
1660316074.22533,7325.8441672,53
1660316074.22533,7325.8441711,28
1660316074.79662,7325.8441746,-39
1660316074.79662,7325.8441794,-88
1660316074.79662,7325.8441845,109
1660316074.79662,7325.8441898,562
1660316074.79662,7325.8441935,812
1660316074.79662,7325.8441999,441
1660316074.79662,7325.8442038,-142
1660316074.79662,7325.8442075,-179
1660316074.79662,7325.844213,77
1660316074.79662,7325.84422,70
1660316074.79662,7325.844227,9
1660316074.79662,7325.844235,58
1660316074.79662,7325.8442422,51
1660316074.79662,7325.8442486,28
1660316074.79662,7325.844255,60
1660316074.79662,7325.844262,79
1660316074.79662,7325.8442714,74
1660316074.79662,7325.8442805,84
1660316074.79662,7325.8442882,88
1660316074.79662,7325.8442936,93
1660316074.79662,7325.8442991,116
1660316074.79662,7325.8443042,140
1660316074.79662,7325.8443118,151
1660316074.79662,7325.8443178,168
1660316074.79662,7325.8443233,189
1660316074.79662,7325.8443313,207
1660316074.79662,7325.8443363,219
1660316074.79662,7325.8443451,217
1660316074.79662,7325.8443531,205
1660316074.79662,7325.8443601,193
1660316074.79662,7325.8443671,177
1660316074.79662,7325.8443761,156
1660316074.79662,7325.8443842,142
1660316074.79662,7325.8443916,121
1660316074.79662,7325.8443983,95
1660316074.79662,7325.8444062,84
1660316074.79662,7325.8444134,77
1660316074.79662,7325.8444193,60
1660316074.79662,7325.8444284,51
1660316074.79662,7325.8444359,60
1660316074.79662,7325.8444434,65
1660316074.79662,7325.8444508,63
1660316074.79662,7325.8444571,63
1660316074.79662,7325.844467,65
1660316074.79662,7325.844483,67
1660316074.79662,7325.8444979,74
1660316074.79662,7325.844507,84
1660316074.79662,7325.8445144,86
1660316074.79662,7325.8445191,86
1660316074.79662,7325.8445256,84
1660316074.80759,7325.844529,86
1660316074.80759,7325.8445349,84
1660316074.80759,7325.8445383,74
1660316074.80759,7325.8445442,74
1660316074.80759,7325.8445475,84
1660316074.80759,7325.8445529,91
1660316074.80759,7325.8445559,84
1660316074.80759,7325.8445589,77
1660316074.80759,7325.8445617,81
1660316074.80759,7325.8445646,86
1660316074.80759,7325.8445675,77
1660316074.80759,7325.8445704,53
1660316074.80759,7325.8445733,42
1660316074.80759,7325.8445765,42
1660316074.80759,7326.4291368,44
1660316074.80759,7326.4291505,49
1660316074.80759,7326.4291555,60
1660316074.80759,7326.4291605,53
1660316074.80759,7326.4291648,-18
1660316074.80759,7326.4291687,-112
1660316074.80759,7326.4291713,16
1660316074.80759,7326.4291739,481
1660316074.80759,7326.4291763,875
1660316074.80759,7326.4291789,611
1660316075.33489,7326.4291815,-93
1660316075.33489,7326.4291841,-296
1660316075.33489,7326.4291866,-2
1660316075.33489,7326.4291891,63
1660316075.33489,7326.4291916,-18
1660316075.33489,7326.429194,44
1660316075.33489,7326.4291964,79
1660316075.33489,7326.4291992,44
1660316075.33489,7326.4292045,51
1660316075.33489,7326.4292117,67
1660316075.33489,7326.4292161,70
1660316075.33489,7326.42922,88
1660316075.33489,7326.4292251,107
1660316075.33489,7326.4292326,107
1660316075.33489,7326.4292422,100
1660316075.33489,7326.4292564,112
1660316075.33489,7326.4292696,142
1660316075.33489,7326.4292829,165
1660316075.33489,7326.4292973,179
1660316075.33489,7326.4293105,189
1660316075.33489,7326.429319,191
1660316075.33489,7326.4293215,191
1660316075.33489,7326.4293235,189
1660316075.33489,7326.4293256,170
1660316075.33489,7326.4293277,151
1660316075.33489,7326.4293297,130
1660316075.33489,7326.4293355,93
1660316075.33489,7326.4293466,60
1660316075.33489,7326.4293519,39
1660316075.33489,7326.429354,11
1660316075.33489,7326.429356,4
1660316075.33489,7326.4293582,11
1660316075.33489,7326.4293675,0
1660316075.33489,7326.4293768,-11
1660316075.33489,7326.4293794,-2
1660316075.33489,7326.4293815,11
1660316075.33489,7326.4293836,16
1660316075.33489,7326.4293863,21
1660316075.33489,7326.4293969,25
1660316075.33489,7326.4294051,37
1660316075.33489,7326.4294075,42
1660316075.33489,7326.4294095,44
1660316075.33489,7326.4294116,49
1660316075.33489,7326.4294145,46
1660316075.33489,7326.4294251,35
1660316075.33489,7326.4294323,30
1660316075.33489,7326.4294354,32
1660316075.33489,7326.4294376,37
1660316075.33489,7326.4294397,46
1660316075.33489,7326.4294475,56
1660316075.34586,7326.429458,60
1660316075.34586,7326.4294619,63
1660316075.34586,7326.4294642,65
1660316075.34586,7326.4294663,67
1660316075.34586,7326.4294683,60
1660316075.34586,7326.4294704,39
1660316075.34586,7326.4294725,18
1660316075.34586,7326.4294745,11
1660316075.34586,7326.4294765,7
1660316075.34586,7326.4294786,-4
1660316075.34586,7326.4294806,-2
1660316075.34586,7326.4294826,4
1660316075.34586,7326.4294847,-42
1660316075.34586,7326.9652315,-130
1660316075.34586,7326.9652501,-53
1660316075.34586,7326.9652589,350
1660316075.34586,7326.9652636,756
1660316075.34586,7326.9652699,583
1660316075.34586,7326.9652747,-60
1660316075.34586,7326.9652807,-298
1660316075.34586,7326.9652852,-37
1660316075.34586,7326.9652915,30
1660316075.34586,7326.965302,-58
1660316075.34586,7326.9653055,0
1660316075.81759,7326.9653094,42
1660316075.81759,7326.9653115,11
1660316075.81759,7326.9653134,16
1660316075.81759,7326.9653153,21
1660316075.81759,7326.9653171,11
1660316075.81759,7326.9653191,28
1660316075.81759,7326.965321,51
1660316075.81759,7326.965323,60
1660316075.81759,7326.9653249,79
1660316075.81759,7326.965327,102
1660316075.81759,7326.9653288,126
1660316075.81759,7326.9653306,149
1660316075.81759,7326.9653324,170
1660316075.81759,7326.9653347,186
1660316075.81759,7326.9653412,198
1660316075.81759,7326.965348,200
1660316075.81759,7326.9653523,186
1660316075.81759,7326.9653559,161
1660316075.81759,7326.9653608,142
1660316075.81759,7326.9653662,123
1660316075.81759,7326.9653739,86
1660316075.81759,7326.9653827,58
1660316075.81759,7326.965388,51
1660316075.81759,7326.9653909,35
1660316075.81759,7326.965393,16
1660316075.81759,7326.9653951,18
1660316075.81759,7326.9653971,25
1660316075.81759,7326.9653991,23
1660316075.81759,7326.9654011,25
1660316075.81759,7326.9654031,35
1660316075.81759,7326.9654051,44
1660316075.81759,7326.9654071,51
1660316075.81759,7326.9654091,56
1660316075.81759,7326.965411,65
1660316075.81759,7326.9654131,74
1660316075.81759,7326.9654152,79
1660316075.81759,7326.9654171,81
1660316075.81759,7326.9654191,86
1660316075.81759,7326.965421,86
1660316075.81759,7326.965423,93
1660316075.81759,7326.965425,91
1660316075.81759,7326.9654271,72
1660316075.81759,7326.965429,63
1660316075.81759,7326.965431,79
1660316075.81759,7326.965433,88
1660316075.81759,7326.9654349,95
1660316075.81759,7326.9654369,107
1660316075.81759,7326.9654389,107
1660316075.81759,7326.9654408,93
1660316075.81759,7326.9654429,70
1660316075.82856,7326.9654449,46
1660316075.82856,7326.9654469,42
1660316075.82856,7326.9654492,42
1660316075.82856,7326.9654511,37
1660316075.82856,7326.9654531,28
1660316075.82856,7326.9654551,25
1660316075.82856,7326.9654572,-14
1660316075.82856,7326.9654592,-109
1660316075.82856,7326.9654612,-42
1660316075.82856,7326.9654633,357
1660316075.82856,7326.9654652,759
1660316075.82856,7326.9654672,602
1660316075.82856,7327.4524125,-21
1660316075.82856,7327.4524252,-263
1660316075.82856,7327.4524289,4
1660316075.82856,7327.452432,88
1660316075.82856,7327.4524348,-23
1660316075.82856,7327.4524376,4
1660316075.82856,7327.4524407,46
1660316075.82856,7327.4524433,18
1660316075.82856,7327.4524461,28
1660316075.82856,7327.4524489,65
1660316075.82856,7327.4524517,60
1660316075.82856,7327.4524545,42
1660316076.45724,7327.4524573,49
1660316076.45724,7327.4524601,70
1660316076.45724,7327.4524628,93
1660316076.45724,7327.4524656,105
1660316076.45724,7327.4524683,119
1660316076.45724,7327.4524711,142
1660316076.45724,7327.4524744,147
1660316076.45724,7327.4524774,149
1660316076.45724,7327.4524796,168
1660316076.45724,7327.452482,177
1660316076.45724,7327.4524843,154
1660316076.45724,7327.4524865,140
1660316076.45724,7327.4524887,119
1660316076.45724,7327.452491,84
1660316076.45724,7327.4524936,63
1660316076.45724,7327.4524962,51
1660316076.45724,7327.4525003,32
1660316076.45724,7327.4525028,9
1660316076.45724,7327.4525052,0
1660316076.45724,7327.4525074,2
1660316076.45724,7327.4525097,-7
1660316076.45724,7327.4525119,-16
1660316076.45724,7327.452514,-4
1660316076.45724,7327.4525162,7
1660316076.45724,7327.4525184,9
1660316076.45724,7327.4525207,23
1660316076.45724,7327.4525227,35
1660316076.45724,7327.4525247,37
1660316076.45724,7327.4525268,37
1660316076.45724,7327.4525288,44
1660316076.45724,7327.4525309,49
1660316076.45724,7327.4525329,53
1660316076.45724,7327.4525349,60
1660316076.45724,7327.4525369,56
1660316076.45724,7327.4525389,51
1660316076.45724,7327.4525409,65
1660316076.45724,7327.4525429,70
1660316076.45724,7327.4525449,58
1660316076.45724,7327.4525469,58
1660316076.45724,7327.4525489,63
1660316076.45724,7327.452551,67
1660316076.45724,7327.452553,70
1660316076.45724,7327.4525551,63
1660316076.45724,7327.4525573,39
1660316076.45724,7327.4525594,21
1660316076.45724,7327.4525615,25
1660316076.45724,7327.4525634,35
1660316076.45724,7327.4525654,35
1660316076.45724,7327.4525674,35
1660316076.45724,7327.4525694,21
1660316076.46721,7327.4525716,-44
1660316076.46721,7327.4525738,-95
1660316076.46721,7327.452576,86
1660316076.46721,7327.452578,497
1660316076.46721,7327.4525802,724
1660316076.46721,7327.4525823,333
1660316076.46721,7327.4525845,-268
1660316076.46721,7327.4525872,-259
1660316076.46721,7327.4525893,32
1660316076.46721,7327.4525913,9
1660316076.46721,7327.4525934,-35
1660316076.46721,7328.0873351,63
1660316076.46721,7328.0873575,74
1660316076.46721,7328.08737,44
1660316076.46721,7328.0873757,67
1660316076.46721,7328.0873804,77
1660316076.46721,7328.0873846,77
1660316076.46721,7328.0873901,102
1660316076.46721,7328.0873961,112
1660316076.46721,7328.0874002,86
1660316076.46721,7328.0874038,84
1660316076.46721,7328.0874075,109
1660316076.46721,7328.0874108,130
1660316076.46721,7328.0874141,149
1660316076.93404,7328.0874174,168
1660316076.93404,7328.0874206,170
1660316076.93404,7328.0874239,151
1660316076.93404,7328.0874268,140
1660316076.93404,7328.0874303,130
1660316076.93404,7328.0874337,119
1660316076.93404,7328.087437,100
1660316076.93404,7328.0874403,56
1660316076.93404,7328.0874433,30
1660316076.93404,7328.0874466,37
1660316076.93404,7328.0874501,32
1660316076.93404,7328.0874534,9
1660316076.93404,7328.0874571,2
1660316076.93404,7328.0874604,2
1660316076.93404,7328.0874641,-4
1660316076.93404,7328.0874678,-7
1660316076.93404,7328.0874714,4
1660316076.93404,7328.087475,14
1660316076.93404,7328.0874787,18
1660316076.93404,7328.0874845,28
1660316076.93404,7328.0874892,35
1660316076.93404,7328.0874952,42
1660316076.93404,7328.0874997,56
1660316076.93404,7328.0875031,72
1660316076.93404,7328.0875087,72
1660316076.93404,7328.0875123,67
1660316076.93404,7328.0875165,81
1660316076.93404,7328.0875217,95
1660316076.93404,7328.0875256,86
1660316076.93404,7328.0875308,74
1660316076.93404,7328.0875354,84
1660316076.93404,7328.0875392,105
1660316076.93404,7328.0875447,107
1660316076.93404,7328.0875481,95
1660316076.93404,7328.0875515,98
1660316076.93404,7328.0875567,109
1660316076.93404,7328.0875602,98
1660316076.93404,7328.0875635,72

1660316076.93404,7328.0875667,63
1660316076.93404,7328.08757,65
1660316076.93404,7328.0875743,67
1660316076.93404,7328.0875776,72
1660316076.93404,7328.0875812,77
1660316076.93404,7328.0875862,63
1660316076.93404,7328.0875896,-23
1660316076.93404,7328.0875931,-123
1660316076.93404,7328.0875982,14
1660316076.93404,7328.0876029,462
1660316076.93404,7328.0876077,810
1660316076.93404,7328.087612,560
1660316076.94501,7328.0876173,-30
1660316076.94501,7328.0876217,-177
1660316076.94501,7328.0876276,60
1660316076.94501,7328.0876319,98
1660316076.94501,7328.0876373,32
1660316076.94501,7328.0876506,86
1660316076.94501,7328.0876545,102
1660316076.94501,7328.0876583,67
1660316076.94501,7328.0876638,84
1660316076.94501,7328.0876673,114
1660316076.94501,7328.5736398,114
1660316076.94501,7328.5736596,119
1660316076.94501,7328.5736744,130
1660316076.94501,7328.5736833,142
1660316076.94501,7328.5736859,158
1660316076.94501,7328.573688,177
1660316076.94501,7328.57369,191
1660316076.94501,7328.573692,207
1660316076.94501,7328.5736939,226
1660316076.94501,7328.573696,233
1660316076.94501,7328.573698,219
1660316076.94501,7328.5737,198
1660316076.94501,7328.5737031,189
1660316076.94501,7328.5737113,182
1660316077.52059,7328.5737185,161
1660316077.52059,7328.573726,142
1660316077.52059,7328.5737344,121
1660316077.52059,7328.5737384,102
1660316077.52059,7328.5737406,86
1660316077.52059,7328.5737425,72
1660316077.52059,7328.5737444,60
1660316077.52059,7328.5737462,60
1660316077.52059,7328.5737481,63
1660316077.52059,7328.5737505,51
1660316077.52059,7328.5737586,35
1660316077.52059,7328.5737666,37
1660316077.52059,7328.5737739,46
1660316077.52059,7328.5737783,49
1660316077.52059,7328.5737852,60
1660316077.52059,7328.5737924,67
1660316077.52059,7328.5738054,58
1660316077.52059,7328.5738156,60
1660316077.52059,7328.5738239,70
1660316077.52059,7328.573835,63
1660316077.52059,7328.5738439,58
1660316077.52059,7328.5738527,65
1660316077.52059,7328.5738639,65
1660316077.52059,7328.573872,56
1660316077.52059,7328.5739079,53
1660316077.52059,7328.5739161,63
1660316077.52059,7328.5739273,79
1660316077.52059,7328.5739377,84
1660316077.52059,7328.5739484,81
1660316077.52059,7328.5739572,88
1660316077.52059,7328.5739662,98
1660316077.52059,7328.573975,95
1660316077.52059,7328.573986,79
1660316077.52059,7328.5739939,60
1660316077.52059,7328.5740309,58
1660316077.52059,7328.5740396,65
1660316077.52059,7328.5740534,63
1660316077.52059,7328.5740644,63
1660316077.52059,7328.5740693,65
1660316077.52059,7328.5740713,14
1660316077.52059,7328.5740734,-98
1660316077.52059,7328.5740755,-67
1660316077.52059,7328.5740775,336
1660316077.52059,7328.5740796,857
1660316077.52059,7328.5740844,854
1660316077.52059,7328.5740984,179
1660316077.52059,7328.5741119,-289
1660316077.52059,7328.5741251,-74
1660316077.52059,7328.5741538,102
1660316077.52059,7328.5741612,4
1660316077.53156,7328.5741674,18
1660316077.53156,7328.5741738,79
1660316077.53156,7328.5741783,46
1660316077.53156,7328.5741839,35
1660316077.53156,7328.5741899,67
1660316077.53156,7328.5741944,81
1660316077.53156,7328.5741989,86
1660316077.53156,7328.574205,100
1660316077.53156,7328.5742095,116
1660316077.53156,7329.1588714,130
1660316077.53156,7329.1589215,128
1660316077.53156,7329.1589289,128
1660316077.53156,7329.158933,158
1660316077.53156,7329.1589363,193
1660316077.53156,7329.1589394,212
1660316077.53156,7329.1589423,224
1660316077.53156,7329.1589451,217
1660316077.53156,7329.1589477,186
1660316077.53156,7329.1589503,170
1660316077.53156,7329.158953,149
1660316077.53156,7329.1589556,109
1660316077.53156,7329.1589583,93
1660316077.53156,7329.1589623,81
1660316077.53156,7329.1589656,32
1660316078.05686,7329.1589706,2
1660316078.05686,7329.1589736,14
1660316078.05686,7329.1589765,11
1660316078.05686,7329.1589794,4
1660316078.05686,7329.1589821,11
1660316078.05686,7329.1589848,21
1660316078.05686,7329.1589875,16
1660316078.05686,7329.1589902,21
1660316078.05686,7329.1589927,37
1660316078.05686,7329.1590234,39
1660316078.05686,7329.1590315,37
1660316078.05686,7329.1590357,51
1660316078.05686,7329.159038,65
1660316078.05686,7329.1590405,72
1660316078.05686,7329.1590488,79
1660316078.05686,7329.1590591,91
1660316078.05686,7329.1590667,95
1660316078.05686,7329.1590749,91
1660316078.05686,7329.1590799,93
1660316078.05686,7329.1590864,95
1660316078.05686,7329.1590901,93
1660316078.05686,7329.1590955,88
1660316078.05686,7329.1591045,88
1660316078.05686,7329.1591127,95
1660316078.05686,7329.1591201,102
1660316078.05686,7329.1591288,112
1660316078.05686,7329.1591352,128
1660316078.05686,7329.1591375,137
1660316078.05686,7329.1591395,123
1660316078.05686,7329.1591415,100
1660316078.05686,7329.1591434,86
1660316078.05686,7329.1591454,84
1660316078.05686,7329.1591474,86
1660316078.05686,7329.1591494,81
1660316078.05686,7329.1591513,84
1660316078.05686,7329.1591533,79
1660316078.05686,7329.1591553,9
1660316078.05686,7329.1591574,-81
1660316078.05686,7329.1591594,53
1660316078.05686,7329.1591614,537
1660316078.05686,7329.1591634,966
1660316078.05686,7329.1591654,721
1660316078.05686,7329.1591675,-9
1660316078.05686,7329.1591696,-252
1660316078.05686,7329.1591716,32
1660316078.05686,7329.1591737,95
1660316078.05686,7329.1591757,0
1660316078.05686,7329.1591777,53
1660316078.05686,7329.1591797,93
1660316078.05686,7329.1591817,65
1660316078.06684,7329.1591837,74
1660316078.06684,7329.1591857,93
1660316078.06684,7329.1591877,77
1660316078.06684,7329.1591906,77
1660316078.06684,7329.1591926,109
1660316078.06684,7329.1591946,123
1660316078.06684,7329.1591966,128
1660316078.06684,7329.1591987,149
1660316078.06684,7329.6957208,175
1660316078.06684,7329.6957423,193
1660316078.06684,7329.6957522,214
1660316078.06684,7329.6957624,235
1660316078.06684,7329.6957749,240
1660316078.06684,7329.6957891,233
1660316078.06684,7329.6957984,226
1660316078.06684,7329.6958115,210
1660316078.06684,7329.6958208,193
1660316078.06684,7329.6958256,177
1660316078.06684,7329.695833,140
1660316078.06684,7329.6958399,88
1660316078.06684,7329.6958454,60
1660316078.06684,7329.6958512,60
1660316078.06684,7329.6958575,56
1660316078.06684,7329.6958637,44
1660316078.59837,7329.6958679,35
1660316078.59837,7329.6958747,14
1660316078.59837,7329.6958816,-7
1660316078.59837,7329.6958884,4
1660316078.59837,7329.6958953,23
1660316078.59837,7329.6959026,32
1660316078.59837,7329.695906,39
1660316078.59837,7329.6959185,49
1660316078.59837,7329.6959263,51
1660316078.59837,7329.695931,58
1660316078.59837,7329.6959445,70
1660316078.59837,7329.6959768,79
1660316078.59837,7329.6959859,86
1660316078.59837,7329.6959906,86
1660316078.59837,7329.6959947,79
1660316078.59837,7329.6959996,79
1660316078.59837,7329.6960049,86
1660316078.59837,7329.6960096,81
1660316078.59837,7329.6960138,67
1660316078.59837,7329.6960179,63
1660316078.59837,7329.6960221,65
1660316078.59837,7329.6960265,67
1660316078.59837,7329.6960308,79
1660316078.59837,7329.6960347,93
1660316078.59837,7329.6960389,107
1660316078.59837,7329.6960433,121
1660316078.59837,7329.6960474,109
1660316078.59837,7329.6960517,72
1660316078.59837,7329.6960566,56
1660316078.59837,7329.6960611,56
1660316078.59837,7329.6960655,42
1660316078.59837,7329.6960694,23
1660316078.59837,7329.6960731,30
1660316078.59837,7329.6960773,39
1660316078.59837,7329.6960816,18
1660316078.59837,7329.6960857,-60
1660316078.59837,7329.6960902,-107
1660316078.59837,7329.6960946,130
1660316078.59837,7329.6960994,660
1660316078.59837,7329.6961047,969
1660316078.59837,7329.6961089,534
1660316078.59837,7329.6961131,-163
1660316078.59837,7329.6961174,-224
1660316078.59837,7329.6961227,39
1660316078.59837,7329.6961274,0
1660316078.59837,7329.6961345,-56
1660316078.59837,7329.6961391,28
1660316078.59837,7329.6961433,35
1660316078.59837,7329.696148,7
1660316078.59837,7329.6961525,37
1660316078.61134,7329.6961573,58
1660316078.61134,7329.6961638,51
1660316078.61134,7329.6961686,65
1660316078.61134,7329.6961732,95
1660316078.61134,7329.6961779,109
1660316078.61134,7329.6961843,116
1660316078.61134,7329.696189,133
1660316078.61134,7330.2312637,154
1660316078.61134,7330.2312827,172
1660316078.61134,7330.2312938,196
1660316078.61134,7330.2312984,217
1660316078.61134,7330.2313025,226
1660316078.61134,7330.2313063,221
1660316078.61134,7330.23131,198
1660316078.61134,7330.2313137,154
1660316078.61134,7330.2313172,102
1660316078.61134,7330.2313203,74
1660316078.61134,7330.2313235,58
1660316078.61134,7330.2313269,35
1660316078.61134,7330.2313304,23
1660316078.61134,7330.2313337,7
1660316078.61134,7330.2313371,-21
1660316078.61134,7330.2313405,-35
1660316078.61134,7330.2313442,-35
1660316079.2326,7330.2313486,-37
1660316079.2326,7330.2313522,-39
1660316079.2326,7330.2313558,-35
1660316079.2326,7330.2313598,-28
1660316079.2326,7330.2313632,-14
1660316079.2326,7330.2313668,2
1660316079.2326,7330.2313703,9
1660316079.2326,7330.2313739,28
1660316079.2326,7330.2313772,35
1660316079.2326,7330.2313805,16
1660316079.2326,7330.2313837,4
1660316079.2326,7330.2313871,11
1660316079.2326,7330.231391,23
1660316079.2326,7330.2313947,30
1660316079.2326,7330.2314005,23
1660316079.2326,7330.2314057,23
1660316079.2326,7330.2314114,30
1660316079.2326,7330.2314153,23
1660316079.2326,7330.2314188,14
1660316079.2326,7330.2314243,30
1660316079.2326,7330.2314281,46
1660316079.2326,7330.2314337,30
1660316079.2326,7330.2314386,14
1660316079.2326,7330.2314439,32
1660316079.2326,7330.2314496,39
1660316079.2326,7330.2314573,18
1660316079.2326,7330.2314655,7
1660316079.2326,7330.2314794,2
1660316079.2326,7330.2315232,-11
1660316079.2326,7330.2315344,-18
1660316079.2326,7330.2315441,-4
1660316079.2326,7330.2315549,-2
1660316079.2326,7330.231564,-4
1660316079.2326,7330.231572,-11
1660316079.2326,7330.2315804,-74
1660316079.2326,7330.2315916,-23
1660316079.2326,7330.2316001,359
1660316079.2326,7330.2316107,782
1660316079.2326,7330.2316214,642
1660316079.2326,7330.2316302,-53
1660316079.2326,7330.2316369,-390
1660316079.2326,7330.2316413,-100
1660316079.2326,7330.2316434,35
1660316079.2326,7330.2316455,-53
1660316079.2326,7330.2316475,11
1660316079.2326,7330.2316496,70
1660316079.2326,7330.2316515,28
1660316079.2326,7330.2316536,32
1660316079.2326,7330.2316555,63
1660316079.2326,7330.2316575,63
1660316079.24457,7330.2316595,77
1660316079.24457,7330.2316615,105
1660316079.24457,7330.2316635,114
1660316079.24457,7330.2316655,112
1660316079.24457,7330.2316675,121
1660316079.24457,7330.2316695,142
1660316079.24457,7330.8653407,161
1660316079.24457,7330.8653626,184
1660316079.24457,7330.8653773,217
1660316079.24457,7330.8653916,233
1660316079.24457,7330.8654033,212
1660316079.24457,7330.8654105,177
1660316079.24457,7330.8654167,161
1660316079.24457,7330.8654273,149
1660316079.24457,7330.8654381,128
1660316079.24457,7330.865446,109
1660316079.24457,7330.8654588,72
1660316079.24457,7330.8654684,14
1660316079.24457,7330.8654849,-7
1660316079.24457,7330.865487,0
1660316079.24457,7330.8654889,-7
1660316079.24457,7330.8654907,-18
1660316079.24457,7330.8654926,-14
1660316079.24457,7330.8655085,-14
1660316079.8121,7330.8655105,-18
1660316079.8121,7330.8655123,-18
1660316079.8121,7330.8655142,-11
1660316079.8121,7330.8655161,-2
1660316079.8121,7330.8655181,2
1660316079.8121,7330.8655201,7
1660316079.8121,7330.8655219,18
1660316079.8121,7330.8655238,32
1660316079.8121,7330.8655257,44
1660316079.8121,7330.8655276,51
1660316079.8121,7330.8655294,53
1660316079.8121,7330.8655313,53
1660316079.8121,7330.8655332,49
1660316079.8121,7330.8655368,51
1660316079.8121,7330.8655481,51
1660316079.8121,7330.8655552,39
1660316079.8121,7330.8655646,30
1660316079.8121,7330.865573,30
1660316079.8121,7330.865586,30
1660316079.8121,7330.8656082,37
1660316079.8121,7330.8656106,51
1660316079.8121,7330.8656125,51
1660316079.8121,7330.8656144,51
1660316079.8121,7330.8656162,63
1660316079.8121,7330.8656314,58
1660316079.8121,7330.8656332,21
1660316079.8121,7330.8656353,-11
1660316079.8121,7330.8656373,-4
1660316079.8121,7330.8656392,4
1660316079.8121,7330.8656413,4
1660316079.8121,7330.8656434,11
1660316079.8121,7330.8656454,9
1660316079.8121,7330.8656474,-23
1660316079.8121,7330.8656494,-67
1660316079.8121,7330.8656513,63
1660316079.8121,7330.8656533,499
1660316079.8121,7330.8656553,887
1660316079.8121,7330.8656573,667
1660316079.8121,7330.8656593,-9
1660316079.8121,7330.8656613,-261
1660316079.8121,7330.8656634,0
1660316079.8121,7330.8656654,88
1660316079.8121,7330.8656676,4
1660316079.8121,7330.8656696,53
1660316079.8121,7330.8656715,84
1660316079.8121,7330.8656735,51
1660316079.8121,7330.8656766,63
1660316079.8121,7330.8656898,98
1660316079.8121,7330.8656959,102
1660316079.8121,7330.8656981,109
1660316079.82108,7330.8657001,128
1660316079.82108,7330.8657021,147
1660316079.82108,7330.8657059,163
1660316079.82108,7330.865708,175
1660316079.82108,7330.8657107,193
1660316079.82108,7331.4508635,219
1660316079.82108,7331.4508813,240
1660316079.82108,7331.450888,256
1660316079.82108,7331.4508929,268
1660316079.82108,7331.4508969,268
1660316079.82108,7331.4509007,261
1660316079.82108,7331.4509044,242
1660316079.82108,7331.4509083,207
1660316079.82108,7331.4509121,163
1660316079.82108,7331.4509157,128
1660316079.82108,7331.4509194,105
1660316079.82108,7331.4509231,81
1660316079.82108,7331.4509266,63
1660316079.82108,7331.4509304,39
1660316079.82108,7331.450934,7
1660316079.82108,7331.4509375,-4
1660316079.82108,7331.4509413,4
1660316079.82108,7331.4509447,2
1660316079.82108,7331.4509484,2
1660316080.39629,7331.4509519,9
1660316080.39629,7331.4509555,4
1660316080.39629,7331.4509589,-2
1660316080.39629,7331.4509624,14
1660316080.39629,7331.4509659,37
1660316080.39629,7331.4509693,44
1660316080.39629,7331.4509728,44
1660316080.39629,7331.4509763,44
1660316080.39629,7331.4509797,49
1660316080.39629,7331.4509833,51
1660316080.39629,7331.4509868,51
1660316080.39629,7331.4509902,49
1660316080.39629,7331.4509938,44
1660316080.39629,7331.4509972,39
1660316080.39629,7331.4510007,35
1660316080.39629,7331.4510041,35
1660316080.39629,7331.4510076,28
1660316080.39629,7331.4510112,9
1660316080.39629,7331.4510148,2
1660316080.39629,7331.4510183,21
1660316080.39629,7331.4510219,28
1660316080.39629,7331.4510254,28
1660316080.39629,7331.4510291,44
1660316080.39629,7331.4510328,67
1660316080.39629,7331.4510385,65
1660316080.39629,7331.4510421,44
1660316080.39629,7331.4510473,30
1660316080.39629,7331.4510509,32
1660316080.39629,7331.4510546,37
1660316080.39629,7331.4510584,44
1660316080.39629,7331.4510637,53
1660316080.39629,7331.4510674,60
1660316080.39629,7331.4510726,35
1660316080.39629,7331.4510764,-42
1660316080.39629,7331.4510802,0
1660316080.39629,7331.4510839,394
1660316080.39629,7331.4510875,927
1660316080.39629,7331.4510911,978
1660316080.39629,7331.4510962,312
1660316080.39629,7331.4510998,-268
1660316080.39629,7331.4511051,-114
1660316080.39629,7331.4511101,119
1660316080.39629,7331.4511137,32
1660316080.39629,7331.4511174,25
1660316080.39629,7331.4511224,102
1660316080.39629,7331.451127,81
1660316080.39629,7331.4511308,67
1660316080.39629,7331.4511381,105
1660316080.39629,7331.4511471,116
1660316080.39629,7331.4511609,119
1660316080.40826,7331.4511706,135
1660316080.40826,7331.4511769,147
1660316080.40826,7331.4511806,154
1660316080.40826,7331.4511865,170
1660316080.40826,7332.0353635,196
1660316080.40826,7332.035381,224
1660316080.40826,7332.0353909,242
1660316080.40826,7332.0354092,254
1660316080.40826,7332.0354213,266
1660316080.40826,7332.0354289,273
1660316080.40826,7332.0354332,266
1660316080.40826,7332.0354408,247
1660316080.40826,7332.0354463,224
1660316080.40826,7332.0354516,196
1660316080.40826,7332.035459,168
1660316080.40826,7332.0354629,133
1660316080.40826,7332.0354772,86
1660316080.40826,7332.0354899,58
1660316080.40826,7332.0354948,51
1660316080.40826,7332.035497,44
1660316080.40826,7332.0354991,23
1660316080.40826,7332.0355013,-2
1660316080.40826,7332.0355035,-9
1660316080.40826,7332.0355056,0
1660316080.8866,7332.0355076,0
1660316080.8866,7332.0355096,0
1660316080.8866,7332.0355116,2
1660316080.8866,7332.0355136,-21
1660316080.8866,7332.0355156,-32
1660316080.8866,7332.0355174,-21
1660316080.8866,7332.0355193,-25
1660316080.8866,7332.0355213,-32
1660316080.8866,7332.0355244,-25
1660316080.8866,7332.0355327,-32
1660316080.8866,7332.0355381,-51
1660316080.8866,7332.0355428,-46
1660316080.8866,7332.0355506,-39
1660316080.8866,7332.0355551,-39
1660316080.8866,7332.0355658,-35
1660316080.8866,7332.035573,-32
1660316080.8866,7332.0355754,-35
1660316080.8866,7332.0355775,-35
1660316080.8866,7332.0355794,-42
1660316080.8866,7332.0355814,-42
1660316080.8866,7332.0355834,-16
1660316080.8866,7332.0355854,9
1660316080.8866,7332.0355874,16
1660316080.8866,7332.0355894,14
1660316080.8866,7332.0355914,16
1660316080.8866,7332.0355934,18
1660316080.8866,7332.0355955,7
1660316080.8866,7332.0355975,-7
1660316080.8866,7332.0355995,-7
1660316080.8866,7332.0356015,0
1660316080.8866,7332.0356035,2
1660316080.8866,7332.0356055,11
1660316080.8866,7332.0356075,23
1660316080.8866,7332.0356095,-9
1660316080.8866,7332.0356115,-86
1660316080.8866,7332.0356135,-23
1660316080.8866,7332.0356157,404
1660316080.8866,7332.0356177,943
1660316080.8866,7332.0356197,915
1660316080.8866,7332.0356217,186
1660316080.8866,7332.0356238,-305
1660316080.8866,7332.0356259,-91
1660316080.8866,7332.0356279,86
1660316080.8866,7332.0356299,-11
1660316080.8866,7332.0356319,11
1660316080.8866,7332.0356338,86
1660316080.8866,7332.0356357,58
1660316080.8866,7332.0356377,49
1660316080.8866,7332.0356397,81
1660316080.8866,7332.0356485,91
1660316080.89757,7332.0356506,93
1660316080.89757,7332.0356536,114
1660316080.89757,7332.0356557,135
1660316080.89757,7332.5231966,154
1660316080.89757,7332.5232932,170
1660316080.89757,7332.523302,184
1660316080.89757,7332.523307,198
1660316080.89757,7332.5233116,210
1660316080.89757,7332.5233195,240
1660316080.89757,7332.5233265,268
1660316080.89757,7332.5233323,247
1660316080.89757,7332.5233391,189
1660316080.89757,7332.5233459,163
1660316080.89757,7332.5233528,172
1660316080.89757,7332.523361,158
1660316080.89757,7332.5233652,126
1660316080.89757,7332.5233684,98
1660316080.89757,7332.5233721,65
1660316080.89757,7332.5233778,42
1660316080.89757,7332.5233835,37
1660316080.89757,7332.5233868,32
1660316080.89757,7332.5233909,28
1660316080.89757,7332.5233955,25
1660316080.89757,7332.5234019,16
1660316081.42156,7332.5234092,0
1660316081.42156,7332.5234147,-4
1660316081.42156,7332.5234202,-4
1660316081.42156,7332.5234251,-9
1660316081.42156,7332.5234306,-11
1660316081.42156,7332.5234375,-18
1660316081.42156,7332.5234445,-30
1660316081.42156,7332.5234498,-21
1660316081.42156,7332.5234559,9
1660316081.42156,7332.5234608,18
1660316081.42156,7332.5234679,16
1660316081.42156,7332.5234747,23
1660316081.42156,7332.5234804,21
1660316081.42156,7332.5234864,11
1660316081.42156,7332.5234915,14
1660316081.42156,7332.523499,25
1660316081.42156,7332.5235073,28
1660316081.42156,7332.5235137,18
1660316081.42156,7332.5235204,11
1660316081.42156,7332.5235263,7
1660316081.42156,7332.5235352,7
1660316081.42156,7332.5235436,23
1660316081.42156,7332.5235487,49
1660316081.42156,7332.5235578,58
1660316081.42156,7332.5235643,63
1660316081.42156,7332.5235699,81
1660316081.42156,7332.5235771,102
1660316081.42156,7332.523585,93
1660316081.42156,7332.5235932,65
1660316081.42156,7332.523599,53
1660316081.42156,7332.5236075,58
1660316081.42156,7332.5236158,67
1660316081.42156,7332.5236211,74
1660316081.42156,7332.5236298,81
1660316081.42156,7332.523636,88
1660316081.42156,7332.5236441,77
1660316081.42156,7332.5236523,14
1660316081.42156,7332.5236599,51
1660316081.42156,7332.5236649,436
1660316081.42156,7332.5236738,957
1660316081.42156,7332.5236809,969
1660316081.42156,7332.5236873,282
1660316081.42156,7332.5237269,-228
1660316081.42156,7332.5237422,-39
1660316081.42156,7332.5237474,137
1660316081.42156,7332.5237512,35
1660316081.42156,7332.5237743,49
1660316081.42156,7332.5237834,112
1660316081.42156,7332.5237872,81
1660316081.42156,7332.5237905,72
1660316081.43253,7332.5237938,107
1660316081.43253,7332.5237971,121
1660316081.43253,7333.0595356,116
1660316081.43253,7333.0595643,135
1660316081.43253,7333.059575,158
1660316081.43253,7333.0595844,163
1660316081.43253,7333.0595884,172
1660316081.43253,7333.0595906,198
1660316081.43253,7333.0595926,214
1660316081.43253,7333.0595946,217
1660316081.43253,7333.0595966,235
1660316081.43253,7333.0595986,254
1660316081.43253,7333.0596005,242
1660316081.43253,7333.0596025,205
1660316081.43253,7333.0596045,186
1660316081.43253,7333.0596064,184
1660316081.43253,7333.0596085,151
1660316081.43253,7333.0596104,102
1660316081.43253,7333.0596123,65
1660316081.43253,7333.0596144,11
1660316081.43253,7333.0596165,-28
1660316081.43253,7333.0596186,-35
1660316081.43253,7333.0596206,-49
1660316081.43253,7333.0596227,-65
1660316082.0095,7333.0596247,-56
1660316082.0095,7333.0596266,-56
1660316082.0095,7333.0596285,-79
1660316082.0095,7333.0596311,-86
1660316082.0095,7333.059638,-79
1660316082.0095,7333.0596486,-74
1660316082.0095,7333.059696,-56
1660316082.0095,7333.0597043,-44
1660316082.0095,7333.0597103,-51
1660316082.0095,7333.059714,-46
1660316082.0095,7333.0597175,-30
1660316082.0095,7333.0597212,-18
1660316082.0095,7333.0597242,-11
1660316082.0095,7333.0597284,-9
1660316082.0095,7333.0597339,-7
1660316082.0095,7333.0597374,11
1660316082.0095,7333.0597401,18
1660316082.0095,7333.0597428,-2
1660316082.0095,7333.0597456,-2
1660316082.0095,7333.0597486,14
1660316082.0095,7333.0597517,9
1660316082.0095,7333.0597547,9
1660316082.0095,7333.0597591,30
1660316082.0095,7333.0597622,46
1660316082.0095,7333.0597652,58
1660316082.0095,7333.0597683,60
1660316082.0095,7333.0597713,51
1660316082.0095,7333.0597741,58
1660316082.0095,7333.0597774,72
1660316082.0095,7333.0597806,51
1660316082.0095,7333.0597838,37
1660316082.0095,7333.059787,51
1660316082.0095,7333.0597901,44
1660316082.0095,7333.0597934,42
1660316082.0095,7333.0597966,67
1660316082.0095,7333.0598022,65
1660316082.0095,7333.0598083,25
1660316082.0095,7333.0598132,4
1660316082.0095,7333.0598162,151
1660316082.0095,7333.0598193,555
1660316082.0095,7333.0598225,882
1660316082.0095,7333.0598253,576
1660316082.0095,7333.0598283,-144
1660316082.0095,7333.0598313,-310
1660316082.0095,7333.0598354,16
1660316082.0095,7333.05984,63
1660316082.0095,7333.0598459,-16
1660316082.0095,7333.0598493,70
1660316082.0095,7333.0598544,105
1660316082.0095,7333.0598573,63
1660316082.02047,7333.0598602,84
1660316082.02047,7333.6436328,112
1660316082.02047,7333.6436533,100
1660316082.02047,7333.6436686,107
1660316082.02047,7333.6436855,135
1660316082.02047,7333.643698,151
1660316082.02047,7333.6437096,161
1660316082.02047,7333.6437174,149
1660316082.02047,7333.6437253,121
1660316082.02047,7333.6437352,126
1660316082.02047,7333.6437383,170
1660316082.02047,7333.6437405,196
1660316082.02047,7333.6437427,198
1660316082.02047,7333.64375,203
1660316082.02047,7333.6437611,186
1660316082.02047,7333.6437642,149
1660316082.02047,7333.6437664,119
1660316082.02047,7333.6437686,95
1660316082.02047,7333.6437706,58
1660316082.02047,7333.6437726,25
1660316082.02047,7333.6437747,2
1660316082.02047,7333.6437803,-28
1660316082.02047,7333.6437922,-44
1660316082.02047,7333.6437973,-46
1660316082.54707,7333.6437994,-56
1660316082.54707,7333.6438014,-65
1660316082.54707,7333.6438032,-60
1660316082.54707,7333.6438051,-53
1660316082.54707,7333.643807,-51
1660316082.54707,7333.6438088,-46
1660316082.54707,7333.6438107,-44
1660316082.54707,7333.643813,-35
1660316082.54707,7333.6438191,-14
1660316082.54707,7333.6438261,4
1660316082.54707,7333.6438315,16
1660316082.54707,7333.643836,23
1660316082.54707,7333.6438434,28
1660316082.54707,7333.6438477,32
1660316082.54707,7333.6438586,49
1660316082.54707,7333.6438625,53
1660316082.54707,7333.6438646,51
1660316082.54707,7333.6438667,56
1660316082.54707,7333.6438688,58
1660316082.54707,7333.6438707,51
1660316082.54707,7333.6438728,51
1660316082.54707,7333.6438748,58
1660316082.54707,7333.6438768,63
1660316082.54707,7333.6438789,70
1660316082.54707,7333.6438809,77
1660316082.54707,7333.643887,79
1660316082.54707,7333.6438983,81
1660316082.54707,7333.6439034,93
1660316082.54707,7333.643907,91
1660316082.54707,7333.6439091,58
1660316082.54707,7333.6439112,39
1660316082.54707,7333.6439176,58
1660316082.54707,7333.6439286,72
1660316082.54707,7333.6439331,72
1660316082.54707,7333.6439352,79
1660316082.54707,7333.6439372,79
1660316082.54707,7333.6439406,35
1660316082.54707,7333.6439537,-4
1660316082.54707,7333.6439594,168
1660316082.54707,7333.6439616,623
1660316082.54707,7333.6439636,964
1660316082.54707,7333.6439657,677
1660316082.54707,7333.6439677,4
1660316082.54707,7333.643973,-196
1660316082.54707,7333.6439843,67
1660316082.54707,7333.6439897,128
1660316082.54707,7333.6439918,56
1660316082.54707,7333.6439939,114
1660316082.54707,7333.6439966,135
1660316082.54707,7333.6440068,86
1660316082.56004,7334.1826595,105
1660316082.56004,7334.1826778,135
1660316082.56004,7334.1826836,126
1660316082.56004,7334.1826907,128
1660316082.56004,7334.1826959,130
1660316082.56004,7334.1827028,109
1660316082.56004,7334.1827077,119
1660316082.56004,7334.1827137,149
1660316082.56004,7334.1827185,161
1660316082.56004,7334.1827232,165
1660316082.56004,7334.18273,186
1660316082.56004,7334.1827348,203
1660316082.56004,7334.1827393,210
1660316082.56004,7334.182746,217
1660316082.56004,7334.1827524,212
1660316082.56004,7334.1827587,193
1660316082.56004,7334.1827649,156
1660316082.56004,7334.1827695,102
1660316082.56004,7334.1827758,67
1660316082.56004,7334.1827817,46
1660316082.56004,7334.182786,14
1660316082.56004,7334.1827918,-7
1660316082.56004,7334.1827962,-11
1660316082.56004,7334.182802,-25
1660316083.13085,7334.1828064,-32
1660316083.13085,7334.1828106,-21
1660316083.13085,7334.1828147,-7
1660316083.13085,7334.1828189,-7
1660316083.13085,7334.1828229,-14
1660316083.13085,7334.182827,-7
1660316083.13085,7334.1828314,7
1660316083.13085,7334.1828356,18
1660316083.13085,7334.1828397,25
1660316083.13085,7334.182844,37
1660316083.13085,7334.1828482,51
1660316083.13085,7334.1828546,53
1660316083.13085,7334.1828602,51
1660316083.13085,7334.1828663,53
1660316083.13085,7334.1828705,67
1660316083.13085,7334.1828761,74
1660316083.13085,7334.18288,60
1660316083.13085,7334.1828843,60
1660316083.13085,7334.1828885,67
1660316083.13085,7334.1828928,60
1660316083.13085,7334.1828986,58
1660316083.13085,7334.1829026,74
1660316083.13085,7334.1829086,86
1660316083.13085,7334.1829127,86
1660316083.13085,7334.1829188,86
1660316083.13085,7334.1829245,93
1660316083.13085,7334.1829285,109
1660316083.13085,7334.1829331,109
1660316083.13085,7334.1829374,86
1660316083.13085,7334.1829415,72
1660316083.13085,7334.1829457,84
1660316083.13085,7334.1829496,91
1660316083.13085,7334.1829537,95
1660316083.13085,7334.1829579,98
1660316083.13085,7334.182962,91
1660316083.13085,7334.1829663,46
1660316083.13085,7334.1829705,-14
1660316083.13085,7334.1829747,126
1660316083.13085,7334.1829793,614
1660316083.13085,7334.1829837,1053
1660316083.13085,7334.182988,817
1660316083.13085,7334.1829923,60
1660316083.13085,7334.1829965,-245
1660316083.13085,7334.183001,35
1660316083.13085,7334.1830055,133
1660316083.13085,7334.1830099,30
1660316083.13085,7334.1830146,63
1660316083.13085,7334.1830192,102
1660316083.13085,7334.1830235,67
1660316083.13085,7334.7655823,72
1660316083.13983,7334.7655938,102
1660316083.13983,7334.7655975,109
1660316083.13983,7334.7656003,119
1660316083.13983,7334.7656028,130
1660316083.13983,7334.7656051,126
1660316083.13983,7334.7656073,133
1660316083.13983,7334.7656095,142
1660316083.13983,7334.7656118,142
1660316083.13983,7334.765614,156
1660316083.13983,7334.7656163,182
1660316083.13983,7334.7656185,203
1660316083.13983,7334.7656207,219
1660316083.13983,7334.7656229,224
1660316083.13983,7334.7656252,207
1660316083.13983,7334.7656274,184
1660316083.13983,7334.7656296,163
1660316083.13983,7334.7656319,137
1660316083.13983,7334.7656342,112
1660316083.13983,7334.7656365,74
1660316083.13983,7334.7656388,21
1660316083.13983,7334.7656411,-14
1660316083.13983,7334.7656434,-11
1660316083.13983,7334.7656456,-9
1660316083.13983,7334.7656477,-9
1660316083.76367,7334.76565,-9
1660316083.76367,7334.7656521,-14
1660316083.76367,7334.7656542,-16
1660316083.76367,7334.7656562,-9
1660316083.76367,7334.7656583,-2
1660316083.76367,7334.7656604,4
1660316083.76367,7334.7656631,9
1660316083.76367,7334.7656681,7
1660316083.76367,7334.7656752,9
1660316083.76367,7334.7656816,16
1660316083.76367,7334.7656854,35
1660316083.76367,7334.7656928,46
1660316083.76367,7334.7656973,44
1660316083.76367,7334.7657079,46
1660316083.76367,7334.765713,49
1660316083.76367,7334.7657172,46
1660316083.76367,7334.7657194,56
1660316083.76367,7334.7657216,65
1660316083.76367,7334.7657237,60
1660316083.76367,7334.7657258,58
1660316083.76367,7334.7657278,65
1660316083.76367,7334.7657299,77
1660316083.76367,7334.765732,88
1660316083.76367,7334.765734,95
1660316083.76367,7334.7657361,105
1660316083.76367,7334.7657381,121
1660316083.76367,7334.7657402,114
1660316083.76367,7334.7657423,74
1660316083.76367,7334.7657444,53
1660316083.76367,7334.7657465,79
1660316083.76367,7334.7657486,100
1660316083.76367,7334.7657507,93
1660316083.76367,7334.7657528,81
1660316083.76367,7334.7657549,63
1660316083.76367,7334.765757,-4
1660316083.76367,7334.7657592,-46
1660316083.76367,7334.7657613,184
1660316083.76367,7334.7657633,721
1660316083.76367,7334.7657653,1037
1660316083.76367,7334.7657674,593
1660316083.76367,7334.7657696,-119
1660316083.76367,7334.7657717,-189
1660316083.76367,7334.7657738,88
1660316083.76367,7334.7657759,77
1660316083.76367,7334.765778,16
1660316083.76367,7334.76578,86
1660316083.76367,7334.7657821,95
1660316083.76367,7334.7657841,74
1660316083.76367,7335.3997166,105
1660316083.76367,7335.3997343,121
1660316083.77364,7335.3997447,121
1660316083.77364,7335.3997518,137
1660316083.77364,7335.3997558,151
1660316083.77364,7335.3997594,163
1660316083.77364,7335.3997632,177
1660316083.77364,7335.3997709,186
1660316083.77364,7335.3997774,200
1660316083.77364,7335.3997804,226
1660316083.77364,7335.3998001,238
1660316083.77364,7335.3998181,235
1660316083.77364,7335.3998251,245
1660316083.77364,7335.3998314,240
1660316083.77364,7335.3998384,221
1660316083.77364,7335.3998417,200
1660316083.77364,7335.3998457,170
1660316083.77364,7335.3998507,121
1660316083.77364,7335.3998538,81
1660316083.77364,7335.3998582,56
1660316083.77364,7335.3998625,21
1660316083.77364,7335.3998667,4
1660316083.77364,7335.3998709,0
1660316083.77364,7335.3998756,-23
1660316083.77364,7335.3998809,-39
1660316083.77364,7335.3998854,-32
1660316084.25236,7335.3998901,-28
1660316084.25236,7335.3998943,-30
1660316084.25236,7335.3998977,-23
1660316084.25236,7335.3999009,-14
1660316084.25236,7335.3999044,0
1660316084.25236,7335.3999077,16
1660316084.25236,7335.3999138,25
1660316084.25236,7335.3999187,23
1660316084.25236,7335.399922,35
1660316084.25236,7335.3999254,46
1660316084.25236,7335.3999291,44
1660316084.25236,7335.3999325,39
1660316084.25236,7335.3999363,44
1660316084.25236,7335.399941,49
1660316084.25236,7335.3999453,56
1660316084.25236,7335.3999499,56
1660316084.25236,7335.3999568,49
1660316084.25236,7335.3999637,49
1660316084.25236,7335.3999696,60
1660316084.25236,7335.3999736,77
1660316084.25236,7335.3999782,95
1660316084.25236,7335.3999843,107
1660316084.25236,7335.3999879,123
1660316084.25236,7335.3999919,135
1660316084.25236,7335.3999949,114
1660316084.25236,7335.399998,86
1660316084.25236,7335.4000013,93
1660316084.25236,7335.4000043,100
1660316084.25236,7335.400008,77
1660316084.25236,7335.4000109,58
1660316084.25236,7335.4000157,58
1660316084.25236,7335.4000214,44
1660316084.25236,7335.4000252,-18
1660316084.25236,7335.400031,-53
1660316084.25236,7335.4000342,168
1660316084.25236,7335.4000373,649
1660316084.25236,7335.4000402,894
1660316084.25236,7335.4000437,471
1660316084.25236,7335.4000482,-130
1660316084.25236,7335.4000544,-142
1660316084.25236,7335.4000578,105
1660316084.25236,7335.4000608,74
1660316084.25236,7335.4000637,14
1660316084.25236,7335.4000666,77
1660316084.25236,7335.4000697,100
1660316084.25236,7335.4000748,79
1660316084.25236,7335.4000778,91
1660316084.25236,7335.8867682,112
1660316084.25236,7335.886788,109
1660316084.25236,7335.8868029,109
1660316084.26433,7335.8868162,126
1660316084.26433,7335.8868292,142
1660316084.26433,7335.8868393,161
1660316084.26433,7335.8868492,175
1660316084.26433,7335.886857,184
1660316084.26433,7335.8868633,205
1660316084.26433,7335.8868719,224
1660316084.26433,7335.8868802,231
1660316084.26433,7335.8868881,240
1660316084.26433,7335.8868907,240
1660316084.26433,7335.8868928,214
1660316084.26433,7335.8868947,184
1660316084.26433,7335.8868967,163
1660316084.26433,7335.8868987,130
1660316084.26433,7335.8869007,107
1660316084.26433,7335.8869028,100
1660316084.26433,7335.8869047,58
1660316084.26433,7335.8869069,-16
1660316084.26433,7335.8869089,-39
1660316084.26433,7335.8869109,-25
1660316084.26433,7335.8869129,-39
1660316084.26433,7335.8869149,-60
1660316084.26433,7335.8869169,-65
1660316084.26433,7335.8869189,-79
1660316084.83289,7335.8869214,-84
1660316084.83289,7335.8869312,-77

1660316084.83289,7335.8869428,-72
1660316084.83289,7335.8869554,-63
1660316084.83289,7335.8869648,-63
1660316084.83289,7335.886974,-72
1660316084.83289,7335.8869806,-74
1660316084.83289,7335.8869885,-56
1660316084.83289,7335.8869949,-35
1660316084.83289,7335.8870031,-39
1660316084.83289,7335.88701,-51
1660316084.83289,7335.8870187,-39
1660316084.83289,7335.8870256,-35
1660316084.83289,7335.8870339,-44
1660316084.83289,7335.8870424,-21
1660316084.83289,7335.8870497,-4
1660316084.83289,7335.8870578,-37
1660316084.83289,7335.8870656,-44
1660316084.83289,7335.8870737,-23
1660316084.83289,7335.8870796,-25
1660316084.83289,7335.8870882,-16
1660316084.83289,7335.887096,-2
1660316084.83289,7335.8871039,-23
1660316084.83289,7335.8871104,-42
1660316084.83289,7335.8871203,-25
1660316084.83289,7335.8871264,-14
1660316084.83289,7335.8871359,-16
1660316084.83289,7335.8871435,-4
1660316084.83289,7335.8871564,0
1660316084.83289,7335.8871695,-28
1660316084.83289,7335.8871778,-56
1660316084.83289,7335.887181,102
1660316084.83289,7335.8871832,516
1660316084.83289,7335.8871853,787
1660316084.83289,7335.8871874,404
1660316084.83289,7335.8871895,-249
1660316084.83289,7335.8871916,-284
1660316084.83289,7335.8871936,14
1660316084.83289,7335.8871956,2
1660316084.83289,7335.8871976,-39
1660316084.83289,7335.8871997,53
1660316084.83289,7335.8872024,60
1660316084.83289,7335.8872046,39
1660316084.83289,7335.8872125,63
1660316084.83289,7335.8872144,67
1660316084.83289,7335.8872164,67
1660316084.83289,7336.4733803,86
1660316084.83289,7336.4733973,95
1660316084.83289,7336.4734013,102
1660316084.83289,7336.4734077,126
1660316084.84286,7336.4734113,144
1660316084.84286,7336.4734161,149
1660316084.84286,7336.4734206,161
1660316084.84286,7336.4734257,184
1660316084.84286,7336.4734301,210
1660316084.84286,7336.4734345,212
1660316084.84286,7336.4734409,189
1660316084.84286,7336.4734458,156
1660316084.84286,7336.473451,130
1660316084.84286,7336.473456,109
1660316084.84286,7336.4734617,98
1660316084.84286,7336.4734674,70
1660316084.84286,7336.4734715,23
1660316084.84286,7336.4734774,-18
1660316084.84286,7336.473482,-37
1660316084.84286,7336.4734877,-51
1660316084.84286,7336.4734917,-58
1660316084.84286,7336.4734962,-49
1660316084.84286,7336.4734999,-56
1660316084.84286,7336.4735056,-72
1660316084.84286,7336.4735105,-77
1660316084.84286,7336.4735182,-74
1660316084.84286,7336.4735233,-79
1660316084.84286,7336.4735276,-81
1660316085.4697,7336.4735329,-65
1660316085.4697,7336.4735363,-58
1660316085.4697,7336.4735395,-53
1660316085.4697,7336.4735432,-32
1660316085.4697,7336.4735469,-23
1660316085.4697,7336.4735505,-25
1660316085.4697,7336.4735542,-11
1660316085.4697,7336.4735577,-7
1660316085.4697,7336.4735613,-30
1660316085.4697,7336.4735649,-44
1660316085.4697,7336.4735684,-32
1660316085.4697,7336.4735719,-23
1660316085.4697,7336.4735758,-18
1660316085.4697,7336.4735797,-9
1660316085.4697,7336.4735834,-9
1660316085.4697,7336.4735909,-2
1660316085.4697,7336.4735945,11
1660316085.4697,7336.4735999,21
1660316085.4697,7336.4736041,7
1660316085.4697,7336.4736084,-16
1660316085.4697,7336.473615,-18
1660316085.4697,7336.47362,-11
1660316085.4697,7336.4736237,-11
1660316085.4697,7336.4736274,2
1660316085.4697,7336.4736322,21
1660316085.4697,7336.4736367,4
1660316085.4697,7336.4736412,-63
1660316085.4697,7336.4736462,-93
1660316085.4697,7336.4736512,133
1660316085.4697,7336.4736562,576
1660316085.4697,7336.473661,768
1660316085.4697,7336.4736644,357
1660316085.4697,7336.4736692,-177
1660316085.4697,7336.4736741,-170
1660316085.4697,7336.4736822,46
1660316085.4697,7336.4736857,32
1660316085.4697,7336.4736891,14
1660316085.4697,7336.4736923,63
1660316085.4697,7336.4736953,53
1660316085.4697,7336.4736985,51
1660316085.4697,7336.4737037,84
1660316085.4697,7336.473708,79
1660316085.4697,7336.4737114,67
1660316085.4697,7336.4737147,88
1660316085.4697,7336.473718,109
1660316085.4697,7337.1058732,112
1660316085.4697,7337.1058878,116
1660316085.4697,7337.1058923,135
1660316085.4697,7337.1058975,158
1660316085.4697,7337.105901,179
1660316085.48167,7337.1059057,193
1660316085.48167,7337.1059103,210
1660316085.48167,7337.1059139,212
1660316085.48167,7337.105917,203
1660316085.48167,7337.1059204,196
1660316085.48167,7337.1059237,182
1660316085.48167,7337.1059269,154
1660316085.48167,7337.1059303,130
1660316085.48167,7337.1059337,100
1660316085.48167,7337.1059403,60
1660316085.48167,7337.1059437,44
1660316085.48167,7337.1059466,46
1660316085.48167,7337.1059495,32
1660316085.48167,7337.1059523,16
1660316085.48167,7337.1059552,9
1660316085.48167,7337.1059581,-16
1660316085.48167,7337.1059608,-28
1660316085.48167,7337.1059637,-9
1660316085.48167,7337.1059671,-9
1660316085.48167,7337.1059728,-18
1660316085.48167,7337.105976,-14
1660316085.48167,7337.1059791,-25
1660316085.48167,7337.1059821,-46
1660316085.48167,7337.105985,-49
1660316086.0029,7337.1059882,-44
1660316086.0029,7337.1059911,-44
1660316086.0029,7337.1059943,-37
1660316086.0029,7337.1059972,-32
1660316086.0029,7337.1060003,-28
1660316086.0029,7337.1060034,-23
1660316086.0029,7337.1060065,-25
1660316086.0029,7337.1060095,-21
1660316086.0029,7337.1060126,-2
1660316086.0029,7337.1060156,9
1660316086.0029,7337.1060187,11
1660316086.0029,7337.1060221,18
1660316086.0029,7337.1060272,30
1660316086.0029,7337.1060309,39
1660316086.0029,7337.1060355,44
1660316086.0029,7337.1060388,25
1660316086.0029,7337.1060421,7
1660316086.0029,7337.1060455,14
1660316086.0029,7337.1060488,23
1660316086.0029,7337.1060522,30
1660316086.0029,7337.1060555,42
1660316086.0029,7337.106059,42
1660316086.0029,7337.1060621,-16
1660316086.0029,7337.1060656,-95
1660316086.0029,7337.1060692,46
1660316086.0029,7337.1060727,511
1660316086.0029,7337.1060763,889
1660316086.0029,7337.1060797,637
1660316086.0029,7337.1060834,-30
1660316086.0029,7337.1060873,-245
1660316086.0029,7337.1060913,25
1660316086.0029,7337.1060978,102
1660316086.0029,7337.1061035,18
1660316086.0029,7337.1061074,67
1660316086.0029,7337.1061108,107
1660316086.0029,7337.1061156,74
1660316086.0029,7337.1061221,77
1660316086.0029,7337.1061275,107
1660316086.0029,7337.1061327,123
1660316086.0029,7337.1061359,137
1660316086.0029,7337.1061389,156
1660316086.0029,7337.1061432,163
1660316086.0029,7337.1061483,172
1660316086.0029,7337.1061526,193
1660316086.0029,7337.6426761,219
1660316086.0029,7337.6426931,235
1660316086.0029,7337.6426967,254
1660316086.0029,7337.6427034,275
1660316086.0029,7337.64271,284
1660316086.0029,7337.642718,280
1660316086.01444,7337.6427248,270
1660316086.01444,7337.6427294,254
1660316086.01444,7337.6427332,242
1660316086.01444,7337.6427364,212
1660316086.01444,7337.6427398,154
1660316086.01444,7337.6427427,102
1660316086.01444,7337.6427482,91
1660316086.01444,7337.6427535,88
1660316086.01444,7337.6427585,74
1660316086.01444,7337.6427617,63
1660316086.01444,7337.6427646,51
1660316086.01444,7337.6427675,28
1660316086.01444,7337.6427705,23
1660316086.01444,7337.6427733,18
1660316086.01444,7337.642776,2
1660316086.01444,7337.642779,-4
1660316086.01444,7337.6427819,0
1660316086.01444,7337.6427853,-4
1660316086.01444,7337.6427988,-2
1660316086.01444,7337.6428107,9
1660316086.01444,7337.6428205,14
1660316086.01444,7337.6428287,14
1660316086.01444,7337.6428414,9
1660316086.01444,7337.6428547,0
1660316086.49656,7337.6428682,-9
1660316086.49656,7337.6428762,-4
1660316086.49656,7337.6428824,2
1660316086.49656,7337.642887,-2
1660316086.49656,7337.6428909,-2
1660316086.49656,7337.6428946,16
1660316086.49656,7337.6428981,30
1660316086.49656,7337.6429016,32
1660316086.49656,7337.6429054,42
1660316086.49656,7337.6429094,60
1660316086.49656,7337.6429129,63
1660316086.49656,7337.642917,42
1660316086.49656,7337.6429208,18
1660316086.49656,7337.6429277,21
1660316086.49656,7337.6429309,42
1660316086.49656,7337.6429442,49
1660316086.49656,7337.642957,42
1660316086.49656,7337.6429703,49
1660316086.49656,7337.6429833,28
1660316086.49656,7337.6429979,-56
1660316086.49656,7337.6430057,-16
1660316086.49656,7337.6430092,378
1660316086.49656,7337.6430175,894
1660316086.49656,7337.6430251,857
1660316086.49656,7337.6430302,154
1660316086.49656,7337.6430359,-280
1660316086.49656,7337.6430427,-42
1660316086.49656,7337.6430457,116
1660316086.49656,7337.6430487,14
1660316086.49656,7337.6430516,44
1660316086.49656,7337.6430546,112
1660316086.49656,7337.6430574,88
1660316086.49656,7337.6430603,88
1660316086.49656,7337.6430631,121
1660316086.49656,7337.6430659,126
1660316086.49656,7337.6430688,128
1660316086.49656,7337.6430717,149
1660316086.49656,7337.6430747,165
1660316086.49656,7337.6430775,175
1660316086.49656,7337.6430803,189
1660316086.49656,7337.6430832,212
1660316086.49656,7337.6430862,240
1660316086.49656,7337.643089,263
1660316086.49656,7338.1294656,282
1660316086.49656,7338.1294828,287
1660316086.49656,7338.1294868,282
1660316086.49656,7338.1294909,280
1660316086.49656,7338.129493,273
1660316086.49656,7338.1294969,249
1660316086.49656,7338.1294989,219
1660316086.50817,7338.1295009,177
1660316086.50817,7338.1295029,128
1660316086.50817,7338.129505,98
1660316086.50817,7338.129507,81
1660316086.50817,7338.1295091,67
1660316086.50817,7338.1295112,65
1660316086.50817,7338.1295131,53
1660316086.50817,7338.1295152,28
1660316086.50817,7338.1295173,21
1660316086.50817,7338.1295194,32
1660316086.50817,7338.1295214,37
1660316086.50817,7338.1295235,44
1660316086.50817,7338.1295255,56
1660316086.50817,7338.1295275,60
1660316086.50817,7338.1295296,65
1660316086.50817,7338.1295317,79
1660316086.50817,7338.1295338,91
1660316086.50817,7338.1295358,91
1660316086.50817,7338.1295378,84
1660316086.50817,7338.1295398,63
1660316086.50817,7338.1295419,44
1660316086.50817,7338.1295439,39
1660316086.50817,7338.1295459,35
1660316086.50817,7338.129549,30
1660316087.13015,7338.1295622,35
1660316087.13015,7338.1295661,37
1660316087.13015,7338.1295682,37
1660316087.13015,7338.1295701,42
1660316087.13015,7338.129572,58
1660316087.13015,7338.1295742,72
1660316087.13015,7338.1295854,74
1660316087.13015,7338.1295971,56
1660316087.13015,7338.1296102,28
1660316087.13015,7338.1296177,28
1660316087.13015,7338.12962,39
1660316087.13015,7338.1296235,35
1660316087.13015,7338.1296256,37
1660316087.13015,7338.1296275,46
1660316087.13015,7338.1296295,25
1660316087.13015,7338.1296316,-46
1660316087.13015,7338.1296335,-46
1660316087.13015,7338.1296355,256
1660316087.13015,7338.1296376,752
1660316087.13015,7338.1296395,871
1660316087.13015,7338.1296457,296
1660316087.13015,7338.1296555,-247
1660316087.13015,7338.1296609,-105
1660316087.13015,7338.1296735,126
1660316087.13015,7338.1296789,49
1660316087.13015,7338.1296886,39
1660316087.13015,7338.1296968,114
1660316087.13015,7338.1297034,91
1660316087.13015,7338.1297086,77
1660316087.13015,7338.1297132,119
1660316087.13015,7338.1297176,128
1660316087.13015,7338.129724,121
1660316087.13015,7338.1297276,137
1660316087.13015,7338.1297311,154
1660316087.13015,7338.1297347,163
1660316087.13015,7338.1297383,189
1660316087.13015,7338.1297572,214
1660316087.13015,7338.1297621,226
1660316087.13015,7338.1297659,238
1660316087.13015,7338.1297703,259
1660316087.13015,7338.1297744,270
1660316087.13015,7338.1297823,270
1660316087.13015,7338.7632756,268
1660316087.13015,7338.7632944,249
1660316087.13015,7338.7633003,214
1660316087.13015,7338.7633067,186
1660316087.13015,7338.7633102,165
1660316087.13015,7338.7633134,135
1660316087.13015,7338.7633167,102
1660316087.13015,7338.76332,67
1660316087.14012,7338.7633235,39
1660316087.14012,7338.763327,28
1660316087.14012,7338.7633303,11
1660316087.14012,7338.7633398,-7
1660316087.14012,7338.7633473,-2
1660316087.14012,7338.7633516,-2
1660316087.14012,7338.7633598,-18
1660316087.14012,7338.7633649,-18
1660316087.14012,7338.7633689,-18
1660316087.14012,7338.7633731,-37
1660316087.14012,7338.7633777,-42
1660316087.14012,7338.7633856,-21
1660316087.14012,7338.7633951,-9
1660316087.14012,7338.7634008,-9
1660316087.14012,7338.763405,0
1660316087.14012,7338.7634087,2
1660316087.14012,7338.7634121,-7
1660316087.14012,7338.7634174,-9
1660316087.14012,7338.7634221,-7
1660316087.14012,7338.7634262,-18
1660316087.14012,7338.7634316,-35
1660316087.14012,7338.7634353,-39
1660316087.14012,7338.7634399,-23
1660316087.14012,7338.7634455,0
1660316087.61766,7338.7634511,-2
1660316087.61766,7338.7634576,-16
1660316087.61766,7338.7634631,-9
1660316087.61766,7338.7634677,4
1660316087.61766,7338.7634715,-11
1660316087.61766,7338.7634751,-42
1660316087.61766,7338.7634804,-44
1660316087.61766,7338.7634843,-32
1660316087.61766,7338.7634878,-28
1660316087.61766,7338.7634913,-25
1660316087.61766,7338.7634947,-16
1660316087.61766,7338.763498,-23
1660316087.61766,7338.7635018,-81
1660316087.61766,7338.763506,-116
1660316087.61766,7338.7635098,109
1660316087.61766,7338.7635134,579
1660316087.61766,7338.763517,805
1660316087.61766,7338.7635207,352
1660316087.61766,7338.7635244,-277
1660316087.61766,7338.7635289,-263
1660316087.61766,7338.763533,21
1660316087.61766,7338.7635381,-11
1660316087.61766,7338.7635422,-51
1660316087.61766,7338.7635469,30
1660316087.61766,7338.7635515,23
1660316087.61766,7338.7635555,-9
1660316087.61766,7338.76356,21
1660316087.61766,7338.7635644,46
1660316087.61766,7338.7635687,51
1660316087.61766,7338.7635731,49
1660316087.61766,7338.763577,56
1660316087.61766,7338.7635817,81
1660316087.61766,7338.7635861,98
1660316087.61766,7338.7635905,93
1660316087.61766,7338.7635948,109
1660316087.61766,7338.7635995,133
1660316087.61766,7338.7636041,149
1660316087.61766,7338.7636083,172
1660316087.61766,7338.7636127,175
1660316087.61766,7338.7636178,158
1660316087.61766,7338.7636218,154
1660316087.61766,7339.2502639,121
1660316087.61766,7339.2502758,81
1660316087.61766,7339.2502787,84
1660316087.61766,7339.2502809,77
1660316087.61766,7339.2502829,32
1660316087.61766,7339.2502849,11
1660316087.61766,7339.2502868,7
1660316087.61766,7339.2502888,-28
1660316087.61766,7339.2502908,-60
1660316087.62963,7339.2502928,-42
1660316087.62963,7339.2502947,-21
1660316087.62963,7339.2502967,-37
1660316087.62963,7339.2502987,-49
1660316087.62963,7339.2503007,-49
1660316087.62963,7339.2503026,-56
1660316087.62963,7339.2503046,-49
1660316087.62963,7339.2503067,-37
1660316087.62963,7339.2503086,-28
1660316087.62963,7339.2503111,-11
1660316087.62963,7339.250319,-16
1660316087.62963,7339.2503299,-44
1660316087.62963,7339.2503349,-44
1660316087.62963,7339.250337,-16
1660316087.62963,7339.2503397,-14
1660316087.62963,7339.2503419,-44
1660316087.62963,7339.250344,-67
1660316087.62963,7339.250346,-60
1660316087.62963,7339.250348,-51
1660316087.62963,7339.2503501,-51
1660316087.62963,7339.2503521,-39
1660316087.62963,7339.2503548,-25
1660316087.62963,7339.2503569,-23
1660316087.62963,7339.2503589,-37
1660316088.15176,7339.2503609,-53
1660316088.15176,7339.2503628,-65
1660316088.15176,7339.2503648,-72
1660316088.15176,7339.2503667,-65
1660316088.15176,7339.2503686,-46
1660316088.15176,7339.2503705,-42
1660316088.15176,7339.2503724,-42
1660316088.15176,7339.2503742,-37
1660316088.15176,7339.2503761,-77
1660316088.15176,7339.250378,-98
1660316088.15176,7339.2503799,123
1660316088.15176,7339.250382,544
1660316088.15176,7339.2503839,721
1660316088.15176,7339.2503857,282
1660316088.15176,7339.2503876,-289
1660316088.15176,7339.2503896,-254
1660316088.15176,7339.2503915,11
1660316088.15176,7339.2503936,-7
1660316088.15176,7339.2503956,-23
1660316088.15176,7339.2503976,60
1660316088.15176,7339.2503997,63
1660316088.15176,7339.2504017,39
1660316088.15176,7339.2504037,63
1660316088.15176,7339.2504057,70
1660316088.15176,7339.2504078,65
1660316088.15176,7339.2504098,84
1660316088.15176,7339.2504124,105
1660316088.15176,7339.2504144,119
1660316088.15176,7339.2504164,133
1660316088.15176,7339.2504184,151
1660316088.15176,7339.2504205,177
1660316088.15176,7339.2504225,196
1660316088.15176,7339.2504245,203
1660316088.15176,7339.2504266,214
1660316088.15176,7339.2504286,231
1660316088.15176,7339.2504307,228
1660316088.15176,7339.2504327,217
1660316088.15176,7339.2504347,198
1660316088.15176,7339.2504367,170
1660316088.15176,7339.2504387,147
1660316088.15176,7339.7876344,123
1660316088.15176,7339.7876527,100
1660316088.15176,7339.7876602,86
1660316088.15176,7339.787666,72
1660316088.15176,7339.7876695,51
1660316088.15176,7339.7876743,39
1660316088.15176,7339.787681,39
1660316088.15176,7339.7876881,44
1660316088.15176,7339.7876948,53
1660316088.15176,7339.7877012,51
1660316088.16771,7339.7877074,30
1660316088.16771,7339.7877139,2
1660316088.16771,7339.7877203,-2
1660316088.16771,7339.7877271,18
1660316088.16771,7339.7877338,30
1660316088.16771,7339.787738,25
1660316088.16771,7339.7877419,14
1660316088.16771,7339.7877449,2
1660316088.16771,7339.7877481,4
1660316088.16771,7339.7877517,23
1660316088.16771,7339.7877575,35
1660316088.16771,7339.7877623,30
1660316088.16771,7339.7877664,21
1660316088.16771,7339.7877704,11
1660316088.16771,7339.7877761,4
1660316088.16771,7339.7877811,9
1660316088.16771,7339.7877855,21
1660316088.16771,7339.7877925,18
1660316088.16771,7339.7878004,21
1660316088.16771,7339.787809,37
1660316088.16771,7339.7878156,30
1660316088.16771,7339.787822,4
1660316088.16771,7339.7878252,-11
1660316088.16771,7339.7878296,-7
1660316088.73892,7339.7878356,-4
1660316088.73892,7339.7878425,-14
1660316088.73892,7339.7878495,-7
1660316088.73892,7339.787856,14
1660316088.73892,7339.7878633,7
1660316088.73892,7339.7879604,-67
1660316088.73892,7339.7879683,-93
1660316088.73892,7339.7879733,177
1660316088.73892,7339.7879779,665
1660316088.73892,7339.7879822,840
1660316088.73892,7339.7879863,350
1660316088.73892,7339.7879904,-235
1660316088.73892,7339.7879957,-191
1660316088.73892,7339.788,60
1660316088.73892,7339.7880043,21
1660316088.73892,7339.7880121,-16
1660316088.73892,7339.7880185,63
1660316088.73892,7339.7880317,72
1660316088.73892,7339.7880367,51
1660316088.73892,7339.7880413,72
1660316088.73892,7339.7880457,88
1660316088.73892,7339.7880502,95
1660316088.73892,7339.7880546,112
1660316088.73892,7339.7880595,121
1660316088.73892,7339.7880647,119
1660316088.73892,7339.7880703,130
1660316088.73892,7339.7880753,154
1660316088.73892,7339.7880798,170
1660316088.73892,7339.7880844,189
1660316088.73892,7339.7880903,214
1660316088.73892,7339.7880964,231
1660316088.73892,7339.788101,233
1660316088.73892,7339.7881056,228
1660316088.73892,7339.78811,217
1660316088.73892,7339.7881139,200
1660316088.73892,7339.7881181,184
1660316088.73892,7339.7881219,161
1660316088.73892,7339.7881332,133
1660316088.73892,7339.7881374,107
1660316088.73892,7340.372133,91
1660316088.73892,7340.3721567,70
1660316088.73892,7340.3721659,58
1660316088.73892,7340.3721728,65
1660316088.73892,7340.3721798,72
1660316088.73892,7340.3721899,63
1660316088.73892,7340.3721958,49
1660316088.73892,7340.3722003,35
1660316088.73892,7340.3722044,14
1660316088.73892,7340.3722085,9
1660316088.73892,7340.3722129,28
1660316088.75139,7340.3722177,44
1660316088.75139,7340.3722222,49
1660316088.75139,7340.3722283,35
1660316088.75139,7340.3722346,18
1660316088.75139,7340.3722439,23
1660316088.75139,7340.372252,39
1660316088.75139,7340.3722575,42
1660316088.75139,7340.3722637,49
1660316088.75139,7340.3722673,51
1660316088.75139,7340.3722726,35
1660316088.75139,7340.3722764,21
1660316088.75139,7340.3722818,21
1660316088.75139,7340.3722865,18
1660316088.75139,7340.3722963,21
1660316088.75139,7340.3723059,32
1660316088.75139,7340.3723159,39
1660316088.75139,7340.372323,49
1660316088.75139,7340.3723327,53
1660316088.75139,7340.3723436,51
1660316088.75139,7340.372353,46
1660316088.75139,7340.3723627,35
1660316088.75139,7340.3723692,30
1660316088.75139,7340.3723771,39
1660316088.75139,7340.3723851,37
1660316089.31738,7340.3723934,32
1660316089.31738,7340.3724026,49
1660316089.31738,7340.3724093,51
1660316089.31738,7340.3724144,-32
1660316089.31738,7340.3724193,-95
1660316089.31738,7340.3724254,135
1660316089.31738,7340.3724331,660
1660316089.31738,7340.3724381,931
1660316089.31738,7340.3724467,469
1660316089.31738,7340.3724555,-154
1660316089.31738,7340.372461,-121
1660316089.31738,7340.3724655,135
1660316089.31738,7340.372473,86
1660316089.31738,7340.3724782,44
1660316089.31738,7340.3724886,121
1660316089.31738,7340.3724952,100
1660316089.31738,7340.3725033,44
1660316089.31738,7340.3725104,67
1660316089.31738,7340.3725192,95
1660316089.31738,7340.372526,100
1660316089.31738,7340.3725327,114
1660316089.31738,7340.3725391,130
1660316089.31738,7340.3725469,147
1660316089.31738,7340.3725558,161
1660316089.31738,7340.3725602,172
1660316089.31738,7340.3725662,193
1660316089.31738,7340.3725743,228
1660316089.31738,7340.3725823,247
1660316089.31738,7340.3725884,249
1660316089.31738,7340.3725977,245
1660316089.31738,7340.3726063,233
1660316089.31738,7340.3726163,228
1660316089.31738,7340.3726243,233
1660316089.31738,7340.3726295,226
1660316089.31738,7340.3726414,184
1660316089.31738,7340.3726563,142
1660316089.31738,7340.3726696,126
1660316089.31738,7340.3726829,105
1660316089.31738,7340.9571746,67
1660316089.31738,7340.9571938,42
1660316089.31738,7340.9572125,42
1660316089.31738,7340.9572287,44
1660316089.31738,7340.9572435,42
1660316089.31738,7340.9572575,53
1660316089.31738,7340.957271,49
1660316089.31738,7340.9572837,28
1660316089.31738,7340.9572936,30
1660316089.31738,7340.9572975,49
1660316089.31738,7340.9573003,49
1660316089.31738,7340.9573031,37
1660316089.32795,7340.9573064,42
1660316089.32795,7340.9573164,56
1660316089.32795,7340.9573258,67
1660316089.32795,7340.9573343,81
1660316089.32795,7340.9573461,67
1660316089.32795,7340.9573602,25
1660316089.32795,7340.9573677,9
1660316089.32795,7340.9573729,16
1660316089.32795,7340.9573781,9
1660316089.32795,7340.9573834,4
1660316089.32795,7340.9573885,0
1660316089.32795,7340.9573956,-9
1660316089.32795,7340.9574066,2
1660316089.32795,7340.9574136,23
1660316089.32795,7340.9574185,23
1660316089.32795,7340.9574231,28
1660316089.32795,7340.9574277,53
1660316089.32795,7340.9574325,44
1660316089.32795,7340.9574375,16
1660316089.32795,7340.9574428,9
1660316089.32795,7340.9574479,9
1660316089.32795,7340.9574528,9
1660316089.32795,7340.9574559,18
1660316089.32795,7340.9574587,28
1660316089.86368,7340.9574616,32
1660316089.86368,7340.9574644,30
1660316089.86368,7340.9574673,-2
1660316089.86368,7340.95747,-60
1660316089.86368,7340.9574727,28
1660316089.86368,7340.9574775,425
1660316089.86368,7340.9574799,854
1660316089.86368,7340.9574855,693
1660316089.86368,7340.957495,-21
1660316089.86368,7340.9575003,-326
1660316089.86368,7340.957505,-51
1660316089.86368,7340.9575109,49
1660316089.86368,7340.9575201,-21
1660316089.86368,7340.957526,39
1660316089.86368,7340.9575359,79
1660316089.86368,7340.9575488,46
1660316089.86368,7340.957562,58
1660316089.86368,7340.9575696,84
1660316089.86368,7340.957572,86
1660316089.86368,7340.9575741,91
1660316089.86368,7340.957576,109
1660316089.86368,7340.957578,130
1660316089.86368,7340.95758,137
1660316089.86368,7340.9575819,149
1660316089.86368,7340.9575841,186
1660316089.86368,7340.9575861,207
1660316089.86368,7340.9575881,207
1660316089.86368,7340.9575901,233
1660316089.86368,7340.957592,254
1660316089.86368,7340.957594,249
1660316089.86368,7340.957596,245
1660316089.86368,7340.957598,224
1660316089.86368,7340.9576,198
1660316089.86368,7340.957602,184
1660316089.86368,7340.957604,154
1660316089.86368,7340.9576059,114
1660316089.86368,7340.957608,107
1660316089.86368,7341.4930755,91
1660316089.86368,7341.4930971,56
1660316089.86368,7341.4931077,37
1660316089.86368,7341.4931174,32
1660316089.86368,7341.493125,14
1660316089.86368,7341.4931369,-4
1660316089.86368,7341.4931477,-2
1660316089.86368,7341.4931558,-7
1660316089.86368,7341.4931673,-23
1660316089.86368,7341.4931776,-21
1660316089.86368,7341.4931868,7
1660316089.86368,7341.4931939,25
1660316089.86368,7341.4931984,21
1660316089.87472,7341.4932004,4
1660316089.87472,7341.4932025,-9
1660316089.87472,7341.4932045,-9
1660316089.87472,7341.4932065,4
1660316089.87472,7341.4932085,-11
1660316089.87472,7341.4932105,-32
1660316089.87472,7341.4932125,-4
1660316089.87472,7341.4932144,7
1660316089.87472,7341.4932164,-35
1660316089.87472,7341.4932183,-35
1660316089.87472,7341.4932203,14
1660316089.87472,7341.4932223,30
1660316089.87472,7341.4932243,14
1660316089.87472,7341.4932263,14
1660316089.87472,7341.4932283,28
1660316089.87472,7341.4932304,42
1660316089.87472,7341.4932323,56
1660316089.87472,7341.4932343,72
1660316089.87472,7341.4932363,51
1660316089.87472,7341.4932382,16
1660316089.87472,7341.4932408,18
1660316089.87472,7341.4932498,32
1660316089.87472,7341.4932605,16
1660316089.87472,7341.4932698,4
1660316090.49411,7341.4932765,14
1660316090.49411,7341.493279,7
1660316090.49411,7341.4932811,-39
1660316090.49411,7341.493283,-67
1660316090.49411,7341.493285,121
1660316090.49411,7341.4932869,569
1660316090.49411,7341.4932891,878
1660316090.49411,7341.4932971,509
1660316090.49411,7341.4933106,-210
1660316090.49411,7341.4933178,-301
1660316090.49411,7341.4933281,25
1660316090.49411,7341.4933366,25
1660316090.49411,7341.4933398,-28
1660316090.49411,7341.4933428,81
1660316090.49411,7341.4933544,86
1660316090.49411,7341.4933644,25
1660316090.49411,7341.493371,44
1660316090.49411,7341.4933742,79
1660316090.49411,7341.4933762,84
1660316090.49411,7341.4933789,95
1660316090.49411,7341.4933878,112
1660316090.49411,7341.4933993,119
1660316090.49411,7341.4934087,135
1660316090.49411,7341.4934191,156
1660316090.49411,7341.4934247,177
1660316090.49411,7341.4934289,210
1660316090.49411,7341.4934362,240
1660316090.49411,7341.4934414,254
1660316090.49411,7341.4934473,256
1660316090.49411,7341.4934506,263
1660316090.49411,7341.4934544,259
1660316090.49411,7341.4934598,233
1660316090.49411,7341.493464,205
1660316090.49411,7341.4934692,186
1660316090.49411,7341.493473,163
1660316090.49411,7341.4934787,121
1660316090.49411,7342.1270437,86
1660316090.49411,7342.1270556,60
1660316090.49411,7342.1270588,35
1660316090.49411,7342.127061,21
1660316090.49411,7342.1270631,14
1660316090.49411,7342.1270652,11
1660316090.49411,7342.1270674,16
1660316090.49411,7342.1270694,23
1660316090.49411,7342.1270712,23
1660316090.49411,7342.1270733,0
1660316090.49411,7342.1270754,-30
1660316090.49411,7342.1270774,-42
1660316090.49411,7342.1270792,-28
1660316090.49411,7342.1270811,-9
1660316090.50607,7342.1270829,-7
1660316090.50607,7342.1270849,-23
1660316090.50607,7342.1270868,-35
1660316090.50607,7342.1270886,-42
1660316090.50607,7342.1270906,-39
1660316090.50607,7342.1270925,-28
1660316090.50607,7342.1270949,-25
1660316090.50607,7342.1271029,-28
1660316090.50607,7342.1271126,-28
1660316090.50607,7342.1271183,-28
1660316090.50607,7342.1271204,-16
1660316090.50607,7342.1271232,7
1660316090.50607,7342.1271252,28
1660316090.50607,7342.1271272,23
1660316090.50607,7342.1271292,2
1660316090.50607,7342.1271313,-2
1660316090.50607,7342.1271333,2
1660316090.50607,7342.1271353,-23
1660316090.50607,7342.1271373,-42
1660316090.50607,7342.1271393,-23
1660316090.50607,7342.1271414,-7
1660316090.50607,7342.1271435,-2
1660316090.50607,7342.1271455,2
1660316090.50607,7342.1271475,0
1660316090.98046,7342.1271496,-30
1660316090.98046,7342.1271516,-39
1660316090.98046,7342.1271535,158
1660316090.98046,7342.1271554,597
1660316090.98046,7342.1271574,885
1660316090.98046,7342.1271594,539
1660316090.98046,7342.1271613,-147
1660316090.98046,7342.1271632,-282
1660316090.98046,7342.1271651,0
1660316090.98046,7342.1271671,25
1660316090.98046,7342.1271748,-25
1660316090.98046,7342.1271842,51
1660316090.98046,7342.1271896,67
1660316090.98046,7342.1271915,44
1660316090.98046,7342.1271945,74
1660316090.98046,7342.1271965,95
1660316090.98046,7342.1271986,93
1660316090.98046,7342.1272006,114
1660316090.98046,7342.1272026,137
1660316090.98046,7342.1272046,149
1660316090.98046,7342.1272066,161
1660316090.98046,7342.1272086,184
1660316090.98046,7342.1272106,217
1660316090.98046,7342.1272126,235
1660316090.98046,7342.1272146,245
1660316090.98046,7342.1272167,275
1660316090.98046,7342.1272187,305
1660316090.98046,7342.1272228,298
1660316090.98046,7342.1272248,282
1660316090.98046,7342.127228,261
1660316090.98046,7342.1272402,235
1660316090.98046,7342.1272514,205
1660316090.98046,7342.1272636,182
1660316090.98046,7342.1272728,158
1660316090.98046,7342.1272811,119
1660316090.98046,7342.616469,74
1660316090.98046,7342.6164822,53
1660316090.98046,7342.6164869,46
1660316090.98046,7342.6164914,42
1660316090.98046,7342.6164942,35
1660316090.98046,7342.6164969,28
1660316090.98046,7342.6164997,28
1660316090.98046,7342.6165024,28
1660316090.98046,7342.6165051,28
1660316090.98046,7342.6165078,32
1660316090.98046,7342.6165104,35
1660316090.98046,7342.616513,30
1660316090.98046,7342.6165156,18
1660316090.98046,7342.6165183,-7
1660316090.98046,7342.6165209,-14
1660316090.99542,7342.6165235,7
1660316090.99542,7342.6165261,18
1660316090.99542,7342.6165287,11
1660316090.99542,7342.6165314,14
1660316090.99542,7342.616534,28
1660316090.99542,7342.6165366,23
1660316090.99542,7342.6165392,4
1660316090.99542,7342.6165418,9
1660316090.99542,7342.6165444,25
1660316090.99542,7342.616547,28
1660316090.99542,7342.6165496,11
1660316090.99542,7342.6165522,-11
1660316090.99542,7342.6165549,-7
1660316090.99542,7342.6165575,16
1660316090.99542,7342.6165599,14
1660316090.99542,7342.6165678,0
1660316090.99542,7342.6165792,-11
1660316090.99542,7342.6165871,-16
1660316090.99542,7342.616596,-14
1660316090.99542,7342.6166028,-9
1660316090.99542,7342.6166087,-7
1660316090.99542,7342.6166124,0
1660316090.99542,7342.6166162,-11
1660316090.99542,7342.6166199,-72
1660316091.51249,7342.6166252,-86
1660316091.51249,7342.616632,168
1660316091.51249,7342.6166408,653
1660316091.51249,7342.6166434,910
1660316091.51249,7342.6166454,490
1660316091.51249,7342.6166474,-170
1660316091.51249,7342.6166494,-245
1660316091.51249,7342.6166513,18
1660316091.51249,7342.6166533,28
1660316091.51249,7342.6166593,-16
1660316091.51249,7342.6166678,56
1660316091.51249,7342.6166811,60
1660316091.51249,7342.6166945,28
1660316091.51249,7342.616706,67
1660316091.51249,7342.6167189,98
1660316091.51249,7342.6167269,91
1660316091.51249,7342.6167318,98
1660316091.51249,7342.6167415,119
1660316091.51249,7342.616753,140
1660316091.51249,7342.6167629,158
1660316091.51249,7342.6167713,170
1660316091.51249,7342.6167831,193
1660316091.51249,7342.6167965,228
1660316091.51249,7342.6168095,254
1660316091.51249,7342.6168232,268
1660316091.51249,7342.6168363,282
1660316091.51249,7342.6168494,284
1660316091.51249,7342.6168631,266
1660316091.51249,7342.6168768,235
1660316091.51249,7342.6168912,193
1660316091.51249,7342.6169031,158
1660316091.51249,7342.6169183,130
1660316091.51249,7342.6169318,93
1660316091.51249,7342.616946,53
1660316091.51249,7343.1508089,32
1660316091.51249,7343.1508271,23
1660316091.51249,7343.1508363,7
1660316091.51249,7343.1508442,2
1660316091.51249,7343.1508492,4
1660316091.51249,7343.1508555,7
1660316091.51249,7343.1508596,14
1660316091.51249,7343.1508659,11
1660316091.51249,7343.1508701,4
1660316091.51249,7343.1508749,-4
1660316091.51249,7343.1508809,-25
1660316091.51249,7343.1508846,-30
1660316091.51249,7343.1508896,-25
1660316091.51249,7343.1508933,-39
1660316091.51249,7343.150897,-44
1660316091.51249,7343.1509006,-28
1660316091.52346,7343.1509043,-25
1660316091.52346,7343.1509079,-28
1660316091.52346,7343.1509172,-23
1660316091.52346,7343.1509229,-25
1660316091.52346,7343.150929,-23
1660316091.52346,7343.150932,-7
1660316091.52346,7343.1509354,-4
1660316091.52346,7343.1509404,-32
1660316091.52346,7343.1509435,-44
1660316091.52346,7343.1509468,-35
1660316091.52346,7343.1509503,-28
1660316091.52346,7343.1509535,-16
1660316091.52346,7343.1509607,4
1660316091.52346,7343.150975,7
1660316091.52346,7343.1509859,2
1660316091.52346,7343.1509942,2
1660316091.52346,7343.1510023,-9
1660316091.52346,7343.1510082,-18
1660316091.52346,7343.1510113,-11
1660316091.52346,7343.1510133,-2
1660316091.52346,7343.1510154,7
1660316091.52346,7343.1510175,21
1660316091.52346,7343.1510195,16
1660316091.52346,7343.1510215,-18
1660316092.1046,7343.1510236,-65
1660316092.1046,7343.1510256,7
1660316092.1046,7343.1510288,378
1660316092.1046,7343.15104,906
1660316092.1046,7343.1510498,990
1660316092.1046,7343.1510552,355
1660316092.1046,7343.1510592,-231
1660316092.1046,7343.1510637,-121
1660316092.1046,7343.1510714,102
1660316092.1046,7343.1510762,39
1660316092.1046,7343.151087,25
1660316092.1046,7343.1510908,86
1660316092.1046,7343.1510948,65
1660316092.1046,7343.1510967,51
1660316092.1046,7343.1510987,88
1660316092.1046,7343.1511008,107
1660316092.1046,7343.1511027,114
1660316092.1046,7343.1511058,142
1660316092.1046,7343.1511078,158
1660316092.1046,7343.1511099,154
1660316092.1046,7343.1511119,156
1660316092.1046,7343.1511139,170
1660316092.1046,7343.1511159,205
1660316092.1046,7343.1511179,242
1660316092.1046,7343.1511199,261
1660316092.1046,7343.1511219,275
1660316092.1046,7343.1511239,287
1660316092.1046,7343.1511258,270
1660316092.1046,7343.1511279,249
1660316092.1046,7343.1511299,231
1660316092.1046,7343.1511319,210
1660316092.1046,7343.1511339,177
1660316092.1046,7343.1511358,137
1660316092.1046,7343.7358178,98
1660316092.1046,7343.7358393,67
1660316092.1046,7343.7358493,60
1660316092.1046,7343.7358555,63
1660316092.1046,7343.7358608,37
1660316092.1046,7343.7358648,2
1660316092.1046,7343.7358702,-25

1660316092.1046,7343.7358741,-42
1660316092.1046,7343.7358795,-46
1660316092.1046,7343.7358831,-46
1660316092.1046,7343.735887,-42
1660316092.1046,7343.7358932,-32
1660316092.1046,7343.7358972,-30
1660316092.1046,7343.7359029,-46
1660316092.1046,7343.7359085,-60
1660316092.1046,7343.7359125,-37
1660316092.1046,7343.7359181,-18
1660316092.11558,7343.7359217,-32
1660316092.11558,7343.7359255,-39
1660316092.11558,7343.735931,-32
1660316092.11558,7343.7359346,-25
1660316092.11558,7343.735938,-23
1660316092.11558,7343.7359414,-14
1660316092.11558,7343.7359468,0
1660316092.11558,7343.7359508,-4
1660316092.11558,7343.7359544,-11
1660316092.11558,7343.7359581,-9
1660316092.11558,7343.7359638,-7
1660316092.11558,7343.7359747,4
1660316092.11558,7343.7359814,25
1660316092.11558,7343.7359889,37
1660316092.11558,7343.7359939,44
1660316092.11558,7343.736001,46
1660316092.11558,7343.7360126,53
1660316092.11558,7343.7360226,67
1660316092.11558,7343.7360279,72
1660316092.11558,7343.7360387,60
1660316092.11558,7343.7360481,46
1660316092.11558,7343.7360573,42
1660316092.11558,7343.7360631,44
1660316092.11558,7343.7360652,44
1660316092.68222,7343.7360671,44
1660316092.68222,7343.7360711,58
1660316092.68222,7343.7360811,60
1660316092.68222,7343.7360871,37
1660316092.68222,7343.7360894,11
1660316092.68222,7343.7360953,98
1660316092.68222,7343.7361039,457
1660316092.68222,7343.7361103,929
1660316092.68222,7343.7361219,936
1660316092.68222,7343.7361352,245
1660316092.68222,7343.73615,-315
1660316092.68222,7343.736158,-156
1660316092.68222,7343.7361605,63
1660316092.68222,7343.7361626,9
1660316092.68222,7343.7361646,32
1660316092.68222,7343.7361666,98
1660316092.68222,7343.7361691,72
1660316092.68222,7343.7361792,63
1660316092.68222,7343.7361868,100
1660316092.68222,7343.7361893,112
1660316092.68222,7343.7361913,112
1660316092.68222,7343.7361933,137
1660316092.68222,7343.7361974,156
1660316092.68222,7343.7362037,161
1660316092.68222,7343.7362086,170
1660316092.68222,7343.7362132,193
1660316092.68222,7343.7362233,210
1660316092.68222,7343.736231,231
1660316092.68222,7343.7362352,259
1660316092.68222,7343.7362404,284
1660316092.68222,7343.7362443,287
1660316092.68222,7343.7362567,275
1660316092.68222,7344.3219359,259
1660316092.68222,7344.321957,242
1660316092.68222,7344.3219716,224
1660316092.68222,7344.3219803,191
1660316092.68222,7344.3219829,142
1660316092.68222,7344.3219851,98
1660316092.68222,7344.3219872,60
1660316092.68222,7344.3219892,30
1660316092.68222,7344.3219912,9
1660316092.68222,7344.3219932,-21
1660316092.68222,7344.3219952,-60
1660316092.68222,7344.3219972,-74
1660316092.68222,7344.3219993,-65
1660316092.68222,7344.3220014,-58
1660316092.68222,7344.3220034,-46
1660316092.68222,7344.3220054,-39
1660316092.68222,7344.322008,-51
1660316092.68222,7344.32201,-63
1660316092.69319,7344.3220121,-56
1660316092.69319,7344.3220141,-35
1660316092.69319,7344.322016,-23
1660316092.69319,7344.322018,-21
1660316092.69319,7344.3220199,-14
1660316092.69319,7344.3220219,-7
1660316092.69319,7344.3220239,-2
1660316092.69319,7344.3220258,16
1660316092.69319,7344.3220325,25
1660316092.69319,7344.3220441,11
1660316092.69319,7344.3220492,4
1660316092.69319,7344.3220512,9
1660316092.69319,7344.3220539,11
1660316092.69319,7344.322056,25
1660316092.69319,7344.3220579,39
1660316092.69319,7344.3220599,28
1660316092.69319,7344.3220619,14
1660316092.69319,7344.3220639,37
1660316092.69319,7344.3220661,56
1660316092.69319,7344.3220759,46
1660316092.69319,7344.3220845,56
1660316092.69319,7344.3220869,93
1660316092.69319,7344.322089,98
1660316092.69319,7344.322091,58
1660316093.27088,7344.3220965,49
1660316093.27088,7344.3221064,56
1660316093.27088,7344.3221107,44
1660316093.27088,7344.3221127,46
1660316093.27088,7344.3221147,60
1660316093.27088,7344.3221166,56
1660316093.27088,7344.3221184,53
1660316093.27088,7344.3221236,70
1660316093.27088,7344.3221332,60
1660316093.27088,7344.3221462,63
1660316093.27088,7344.3221545,298
1660316093.27088,7344.322157,782
1660316093.27088,7344.3221591,1051
1660316093.27088,7344.3221612,602
1660316093.27088,7344.3221631,-149
1660316093.27088,7344.3221652,-259
1660316093.27088,7344.3221672,44
1660316093.27088,7344.3221693,63
1660316093.27088,7344.3221713,9
1660316093.27088,7344.3221733,91
1660316093.27088,7344.3221753,100
1660316093.27088,7344.3221774,53
1660316093.27088,7344.3221794,74
1660316093.27088,7344.3221814,100
1660316093.27088,7344.3221834,79
1660316093.27088,7344.3221854,81
1660316093.27088,7344.3221877,112
1660316093.27088,7344.3221897,123
1660316093.27088,7344.3221918,133
1660316093.27088,7344.3221938,149
1660316093.27088,7344.3221958,170
1660316093.27088,7344.9056658,205
1660316093.27088,7344.9056847,233
1660316093.27088,7344.9056962,245
1660316093.27088,7344.9057049,247
1660316093.27088,7344.9057114,242
1660316093.27088,7344.9057166,221
1660316093.27088,7344.9057265,207
1660316093.27088,7344.9057359,191
1660316093.27088,7344.9057481,130
1660316093.27088,7344.905756,84
1660316093.27088,7344.9057623,65
1660316093.27088,7344.9057705,32
1660316093.27088,7344.9057764,-4
1660316093.27088,7344.9057832,-25
1660316093.27088,7344.9057888,-46
1660316093.27088,7344.9057954,-56
1660316093.27088,7344.905801,-53
1660316093.27088,7344.9058055,-51
1660316093.27088,7344.9058117,-46
1660316093.28085,7344.9058161,-44
1660316093.28085,7344.905822,-46
1660316093.28085,7344.9058257,-30
1660316093.28085,7344.9058307,-14
1660316093.28085,7344.9058354,-9
1660316093.28085,7344.9058405,2
1660316093.28085,7344.9058455,9
1660316093.28085,7344.9058494,-7
1660316093.28085,7344.9058545,-11
1660316093.28085,7344.905859,7
1660316093.28085,7344.905864,23
1660316093.28085,7344.9058686,30
1660316093.28085,7344.9058737,32
1660316093.28085,7344.9058773,21
1660316093.28085,7344.9058822,16
1660316093.28085,7344.9058865,28
1660316093.28085,7344.9058902,30
1660316093.28085,7344.9058953,28
1660316093.28085,7344.9058994,39
1660316093.28085,7344.9059044,42
1660316093.28085,7344.9059088,23
1660316093.28085,7344.9059137,25
1660316093.28085,7344.905918,46
1660316093.28085,7344.9059234,67
1660316093.85965,7344.9059284,86
1660316093.85965,7344.9059328,86
1660316093.85965,7344.9059363,84
1660316093.85965,7344.9059398,91
1660316093.85965,7344.9059433,88
1660316093.85965,7344.9059469,70
1660316093.85965,7344.9059504,67
1660316093.85965,7344.905954,74
1660316093.85965,7344.9059575,70
1660316093.85965,7344.9059611,70
1660316093.85965,7344.9059647,81
1660316093.85965,7344.9059691,93
1660316093.85965,7344.9059727,81
1660316093.85965,7344.9059762,58
1660316093.85965,7344.9059813,156
1660316093.85965,7344.9059861,532
1660316093.85965,7344.906038,1004
1660316093.85965,7344.9060478,997
1660316093.85965,7344.9060517,296
1660316093.85965,7344.9060554,-266
1660316093.85965,7344.9060592,-119
1660316093.85965,7344.9060629,65
1660316093.85965,7344.9060664,-16
1660316093.85965,7344.9060716,4
1660316093.85965,7344.9060763,70
1660316093.85965,7344.9060816,42
1660316093.85965,7344.9060887,44
1660316093.85965,7344.9060941,79
1660316093.85965,7344.9060983,74
1660316093.85965,7344.9061026,79
1660316093.85965,7345.493055,105
1660316093.85965,7345.493078,119
1660316093.85965,7345.4930934,126
1660316093.85965,7345.4931086,137
1660316093.85965,7345.4931189,151
1660316093.85965,7345.4931284,170
1660316093.85965,7345.4931363,191
1660316093.85965,7345.4931411,210
1660316093.85965,7345.493147,224
1660316093.85965,7345.4931534,221
1660316093.85965,7345.4931598,198
1660316093.85965,7345.4931663,177
1660316093.85965,7345.4931748,165
1660316093.85965,7345.4931898,142
1660316093.85965,7345.4932004,105
1660316093.85965,7345.4932089,63
1660316093.85965,7345.4932171,7
1660316093.85965,7345.4932249,-42
1660316093.85965,7345.493231,-53
1660316093.85965,7345.4932368,-58
1660316093.87062,7345.4932447,-67
1660316093.87062,7345.4932523,-65
1660316093.87062,7345.4932611,-65
1660316093.87062,7345.4932675,-67
1660316093.87062,7345.493275,-63
1660316093.87062,7345.4932836,-58
1660316093.87062,7345.4932909,-51
1660316093.87062,7345.4932977,-37
1660316093.87062,7345.4933058,-28
1660316093.87062,7345.4933115,-21
1660316093.87062,7345.4933253,-2
1660316093.87062,7345.4933375,7
1660316093.87062,7345.4933451,7
1660316093.87062,7345.49336,21
1660316093.87062,7345.4933685,35
1660316093.87062,7345.4933739,35
1660316093.87062,7345.4933798,30
1660316093.87062,7345.4933872,37
1660316093.87062,7345.493393,49
1660316093.87062,7345.4933997,53
1660316093.87062,7345.4934063,56
1660316093.87062,7345.4934145,58
1660316093.87062,7345.4934189,53
1660316093.87062,7345.4934221,51
1660316094.34379,7345.4934374,49
1660316094.34379,7345.4934498,56
1660316094.34379,7345.4934581,70
1660316094.34379,7345.4934644,84
1660316094.34379,7345.4934709,86
1660316094.34379,7345.4934845,79
1660316094.34379,7345.4934949,74
1660316094.34379,7345.4935003,81
1660316094.34379,7345.4935084,84
1660316094.34379,7345.4935146,63
1660316094.34379,7345.493524,44
1660316094.34379,7345.4935299,44
1660316094.34379,7345.4935368,49
1660316094.34379,7345.4935407,53
1660316094.34379,7345.4935465,63
1660316094.34379,7345.4935517,74
1660316094.34379,7345.4935598,58
1660316094.34379,7345.4935687,18
1660316094.34379,7345.4935772,137
1660316094.34379,7345.4935826,586
1660316094.34379,7345.4935918,1097
1660316094.34379,7345.4935973,1058
1660316094.34379,7345.4936067,303
1660316094.34379,7345.4936152,-291
1660316094.34379,7345.4936237,-123
1660316094.34379,7345.4936303,105
1660316094.34379,7345.4936379,18
1660316094.34379,7345.493646,11
1660316094.34379,7345.4936538,86
1660316094.34379,7345.9785759,65
1660316094.34379,7345.9785964,49
1660316094.34379,7345.9786144,81
1660316094.34379,7345.9786273,95
1660316094.34379,7345.9786404,95
1660316094.34379,7345.9786536,123
1660316094.34379,7345.9786667,128
1660316094.34379,7345.9786798,95
1660316094.34379,7345.9786916,105
1660316094.34379,7345.9786989,147
1660316094.34379,7345.9787025,158
1660316094.34379,7345.9787069,170
1660316094.34379,7345.9787159,203
1660316094.34379,7345.9787222,221
1660316094.34379,7345.9787335,217
1660316094.34379,7345.9787467,214
1660316094.34379,7345.9787556,214
1660316094.34379,7345.9787622,205
1660316094.34379,7345.9787719,179
1660316094.34379,7345.9787824,130
1660316094.34379,7345.9787911,81
1660316094.35575,7345.9788015,63
1660316094.35575,7345.978812,39
1660316094.35575,7345.9788192,0
1660316094.35575,7345.9788266,-4
1660316094.35575,7345.9788388,-2
1660316094.35575,7345.9788465,-23
1660316094.35575,7345.9788527,-21
1660316094.35575,7345.9788559,4
1660316094.35575,7345.9788609,2
1660316094.35575,7345.9788668,-11
1660316094.35575,7345.9788698,-14
1660316094.35575,7345.9788728,-25
1660316094.35575,7345.9788757,-23
1660316094.35575,7345.9788786,0
1660316094.35575,7345.9788814,4
1660316094.35575,7345.9788843,2
1660316094.35575,7345.9788871,23
1660316094.35575,7345.9788898,35
1660316094.35575,7345.9788927,28
1660316094.35575,7345.9788955,32
1660316094.35575,7345.9789008,39
1660316094.35575,7345.9789039,18
1660316094.35575,7345.9789068,2
1660316094.35575,7345.9789104,11
1660316094.8812,7345.9789137,25
1660316094.8812,7345.9789173,25
1660316094.8812,7345.9789214,18
1660316094.8812,7345.9789272,23
1660316094.8812,7345.978934,30
1660316094.8812,7345.9789408,37
1660316094.8812,7345.9789466,37
1660316094.8812,7345.9789505,32
1660316094.8812,7345.9789534,46
1660316094.8812,7345.9789567,72
1660316094.8812,7345.9789599,79
1660316094.8812,7345.9789637,79
1660316094.8812,7345.9789688,91
1660316094.8812,7345.9789725,102
1660316094.8812,7345.9789775,105
1660316094.8812,7345.9789831,88
1660316094.8812,7345.9789897,63
1660316094.8812,7345.9789967,67
1660316094.8812,7345.9790031,81
1660316094.8812,7345.9790094,84
1660316094.8812,7345.9790183,86
1660316094.8812,7345.9790297,86
1660316094.8812,7345.9790351,79
1660316094.8812,7345.9790438,60
1660316094.8812,7345.9790562,112
1660316094.8812,7345.9790651,434
1660316094.8812,7345.9790699,936
1660316094.8812,7345.9790767,1048
1660316094.8812,7346.5144723,404
1660316094.8812,7346.5144843,-277
1660316094.8812,7346.5144886,-210
1660316094.8812,7346.5144925,63
1660316094.8812,7346.5144946,11
1660316094.8812,7346.5144966,-21
1660316094.8812,7346.5144986,51
1660316094.8812,7346.5145006,35
1660316094.8812,7346.5145026,9
1660316094.8812,7346.5145046,35
1660316094.8812,7346.5145065,35
1660316094.8812,7346.5145085,28
1660316094.8812,7346.5145105,42
1660316094.8812,7346.5145125,60
1660316094.8812,7346.5145145,74
1660316094.8812,7346.5145165,81
1660316094.8812,7346.5145193,84
1660316094.8812,7346.5145259,91
1660316094.8812,7346.5145371,114
1660316094.8812,7346.5145402,144
1660316094.8812,7346.5145423,177
1660316094.8812,7346.5145443,210
1660316094.89317,7346.5145463,207
1660316094.89317,7346.5145483,184
1660316094.89317,7346.5145503,177
1660316094.89317,7346.5145561,161
1660316094.89317,7346.5145678,123
1660316094.89317,7346.5145714,93
1660316094.89317,7346.5145735,70
1660316094.89317,7346.5145756,39
1660316094.89317,7346.5145775,11
1660316094.89317,7346.5145795,-2
1660316094.89317,7346.5145817,-4
1660316094.89317,7346.5145894,-9
1660316094.89317,7346.5146,-18
1660316094.89317,7346.5146034,-25
1660316094.89317,7346.514607,-39
1660316094.89317,7346.5146094,-53
1660316094.89317,7346.51462,-42
1660316094.89317,7346.5146285,-21
1660316094.89317,7346.5146311,-11
1660316094.89317,7346.5146331,-11
1660316094.89317,7346.5146352,-2
1660316094.89317,7346.5146419,14
1660316094.89317,7346.5146529,25
1660316094.89317,7346.5146577,35
1660316095.46023,7346.5146605,46
1660316095.46023,7346.5146625,51
1660316095.46023,7346.5146681,39
1660316095.46023,7346.514678,37
1660316095.46023,7346.514682,56
1660316095.46023,7346.5146841,65
1660316095.46023,7346.5146861,58
1660316095.46023,7346.5146881,58
1660316095.46023,7346.5146921,53
1660316095.46023,7346.5146966,51
1660316095.46023,7346.5147005,60
1660316095.46023,7346.5147027,63
1660316095.46023,7346.5147094,58
1660316095.46023,7346.5147157,60
1660316095.46023,7346.5147222,74
1660316095.46023,7346.5147269,84
1660316095.46023,7346.5147311,91
1660316095.46023,7346.5147376,102
1660316095.46023,7346.5147459,116
1660316095.46023,7346.5147527,114
1660316095.46023,7346.514759,93
1660316095.46023,7346.5147631,65
1660316095.46023,7346.5147712,56
1660316095.46023,7346.5147833,53
1660316095.46023,7346.5147931,46
1660316095.46023,7346.5147975,56
1660316095.46023,7346.5148032,67
1660316095.46023,7347.0995508,49
1660316095.46023,7347.0995625,23
1660316095.46023,7347.099565,32
1660316095.46023,7347.0995681,214
1660316095.46023,7347.0995703,670
1660316095.46023,7347.0995724,1037
1660316095.46023,7347.0995744,707
1660316095.46023,7347.0995765,-107
1660316095.46023,7347.0995786,-387
1660316095.46023,7347.0995806,-81
1660316095.46023,7347.0995826,11
1660316095.46023,7347.0995846,-72
1660316095.46023,7347.0995866,-23
1660316095.46023,7347.0995887,-11
1660316095.46023,7347.0995907,-51
1660316095.46023,7347.0995927,-16
1660316095.46023,7347.0995946,16
1660316095.46023,7347.0995972,7
1660316095.46023,7347.0996018,18
1660316095.46023,7347.0996084,44
1660316095.46023,7347.0996132,56
1660316095.46023,7347.0996198,77
1660316095.46023,7347.0996254,98
1660316095.47021,7347.0996321,100
1660316095.47021,7347.099637,114
1660316095.47021,7347.0996437,151
1660316095.47021,7347.0996486,184
1660316095.47021,7347.0996535,200
1660316095.47021,7347.09966,198
1660316095.47021,7347.0996648,198
1660316095.47021,7347.0996712,200
1660316095.47021,7347.0996761,163
1660316095.47021,7347.099681,102
1660316095.47021,7347.0996859,63
1660316095.47021,7347.0996928,37
1660316095.47021,7347.099696,30
1660316095.47021,7347.0996995,56
1660316095.47021,7347.0997126,60
1660316095.47021,7347.0997185,25
1660316095.47021,7347.0997206,4
1660316095.47021,7347.0997233,11
1660316095.47021,7347.0997259,9
1660316095.47021,7347.0997361,4
1660316095.47021,7347.0997441,9
1660316095.47021,7347.0997465,4
1660316095.47021,7347.0997486,7
1660316095.47021,7347.0997506,23
1660316096.04655,7347.0997526,30
1660316096.04655,7347.0997551,42
1660316096.04655,7347.099765,86
1660316096.04655,7347.0997712,107
1660316096.04655,7347.0997735,88
1660316096.04655,7347.0997755,81
1660316096.04655,7347.0997776,86
1660316096.04655,7347.0997857,79
1660316096.04655,7347.0997923,88
1660316096.04655,7347.0997959,105
1660316096.04655,7347.0998062,98
1660316096.04655,7347.0998162,84
1660316096.04655,7347.0998247,91
1660316096.04655,7347.0998272,105
1660316096.04655,7347.0998293,100
1660316096.04655,7347.0998313,77
1660316096.04655,7347.0998334,70
1660316096.04655,7347.0998406,84
1660316096.04655,7347.0998522,105
1660316096.04655,7347.0998595,116
1660316096.04655,7347.0998645,112
1660316096.04655,7347.0998709,126
1660316096.04655,7347.0998758,147
1660316096.04655,7347.0998823,144
1660316096.04655,7347.0998873,144
1660316096.04655,7347.0998939,142
1660316096.04655,7347.6842912,116
1660316096.04655,7347.6843092,93
1660316096.04655,7347.68432,98
1660316096.04655,7347.684329,100
1660316096.04655,7347.6843358,102
1660316096.04655,7347.6843425,102
1660316096.04655,7347.6843521,105
1660316096.04655,7347.6843585,109
1660316096.04655,7347.6843664,74
1660316096.04655,7347.6843776,49
1660316096.04655,7347.6843902,259
1660316096.04655,7347.684399,738
1660316096.04655,7347.684407,1004
1660316096.04655,7347.6844149,530
1660316096.04655,7347.6844212,-221
1660316096.04655,7347.6844293,-291
1660316096.04655,7347.6844365,-16
1660316096.04655,7347.6844451,-49
1660316096.04655,7347.6844524,-86
1660316096.04655,7347.6844617,-7
1660316096.04655,7347.6844695,-21
1660316096.04655,7347.684477,-58
1660316096.04655,7347.6844857,-51
1660316096.04655,7347.6844937,-49
1660316096.05852,7347.6845007,-25
1660316096.05852,7347.6845087,18
1660316096.05852,7347.6845148,42
1660316096.05852,7347.6845237,51
1660316096.05852,7347.6845297,58
1660316096.05852,7347.684542,74
1660316096.05852,7347.6845522,119
1660316096.05852,7347.6845599,161
1660316096.05852,7347.6845639,177
1660316096.05852,7347.6845695,186
1660316096.05852,7347.6845732,189
1660316096.05852,7347.6845787,193
1660316096.05852,7347.6845824,214
1660316096.05852,7347.6845878,207
1660316096.05852,7347.6845994,175
1660316096.05852,7347.6846056,154
1660316096.05852,7347.6846145,142
1660316096.05852,7347.6846215,109
1660316096.05852,7347.6846304,77
1660316096.05852,7347.6846352,53
1660316096.05852,7347.6846405,14
1660316096.05852,7347.6846443,2
1660316096.05852,7347.68465,37
1660316096.05852,7347.6846538,51
1660316096.5875,7347.6846619,25
1660316096.5875,7347.6846975,21
1660316096.5875,7347.684717,37
1660316096.5875,7347.6847245,28
1660316096.5875,7347.6847337,11
1660316096.5875,7347.6847407,28
1660316096.5875,7347.6847479,49
1660316096.5875,7347.6847537,60
1660316096.5875,7347.6847604,74
1660316096.5875,7347.6847689,84
1660316096.5875,7347.6847763,77
1660316096.5875,7347.6847813,70
1660316096.5875,7347.6847866,74
1660316096.5875,7347.6847944,93
1660316096.5875,7347.6848016,102
1660316096.5875,7347.6848064,107
1660316096.5875,7347.6848109,100
1660316096.5875,7347.684816,79
1660316096.5875,7347.6848228,70
1660316096.5875,7347.6848292,86
1660316096.5875,7347.6848355,112
1660316096.5875,7347.6848412,119
1660316096.5875,7347.6848459,123
1660316096.5875,7347.6848504,140
1660316096.5875,7347.6848554,140
1660316096.5875,7348.2223217,119
1660316096.5875,7348.2223349,109
1660316096.5875,7348.2223385,112
1660316096.5875,7348.2223416,102
1660316096.5875,7348.2223445,100
1660316096.5875,7348.2223472,109
1660316096.5875,7348.2223497,86
1660316096.5875,7348.2223522,60
1660316096.5875,7348.2223548,67
1660316096.5875,7348.2223573,70
1660316096.5875,7348.2223599,35
1660316096.5875,7348.2223624,-39
1660316096.5875,7348.2223651,23
1660316096.5875,7348.2223677,399
1660316096.5875,7348.2223748,850
1660316096.5875,7348.2223865,852
1660316096.5875,7348.222392,228
1660316096.5875,7348.2223954,-301
1660316096.5875,7348.2223977,-151
1660316096.5875,7348.2223998,35
1660316096.5875,7348.2224019,-95
1660316096.5875,7348.2224038,-86
1660316096.5875,7348.2224062,51
1660316096.5875,7348.2224083,39
1660316096.5875,7348.2224133,0
1660316096.59947,7348.2224248,28
1660316096.59947,7348.2224301,44
1660316096.59947,7348.2224323,53
1660316096.59947,7348.2224343,65
1660316096.59947,7348.2224363,77
1660316096.59947,7348.2224384,114
1660316096.59947,7348.2224438,142
1660316096.59947,7348.2224549,140
1660316096.59947,7348.22246,140
1660316096.59947,7348.2224622,149
1660316096.59947,7348.2224643,189
1660316096.59947,7348.2224677,263
1660316096.59947,7348.2224802,305
