Time,TimeLsl,Value
1660315243.38628,6492.925288,65
1660315243.38628,6492.9253058,72
1660315243.38628,6492.9253139,79
1660315243.38628,6492.9253207,79
1660315243.38628,6492.9253247,74
1660315243.38628,6492.9253289,63
1660315243.38628,6492.9253338,32
1660315243.38628,6492.9253392,21
1660315243.38628,6492.9253454,46
1660315243.38628,6492.9253521,58
1660315243.38628,6492.9253567,49
1660315243.38628,6492.9253607,44
1660315243.38628,6492.9253641,39
1660315243.38628,6492.9253671,7
1660315243.38628,6492.9253701,-35
1660315243.38628,6492.925373,-39
1660315243.38628,6492.9253759,-18
1660315243.38628,6492.9253787,-18
1660315243.38628,6492.9253817,-28
1660315243.38628,6492.9253851,-25
1660315243.38628,6492.9253914,-4
1660315243.38628,6492.9253946,-4
1660315243.38628,6492.9253997,-37
1660315243.38628,6492.9254034,7
1660315243.38628,6492.9254069,289
1660315243.38628,6492.9254104,719
1660315243.38628,6492.925414,847
1660315243.38628,6492.9254185,343
1660315243.38628,6492.9254227,-242
1660315243.38628,6492.9254256,-214
1660315243.38628,6492.9254286,-4
1660315243.38628,6492.9254314,-46
1660315243.38628,6492.9254343,-49
1660315243.38628,6492.9254371,23
1660315243.38628,6492.92544,-7
1660315243.38628,6492.9254428,-28
1660315243.38628,6492.9254456,21
1660315243.38628,6492.9254483,42
1660315243.38628,6492.9254511,28
1660315243.38628,6492.9254539,37
1660315243.38628,6492.9254568,60
1660315243.38628,6492.9254598,74
1660315243.38628,6492.9254626,86
1660315243.38628,6492.9254654,98
1660315243.38628,6492.9254703,121
1660315243.38628,6492.9254738,151
1660315243.38628,6492.9254802,163
1660315243.38628,6492.9254874,163
1660315243.38628,6492.9254905,186
1660315243.38628,6492.9254963,198
1660315243.53548,6492.9255012,179
1660315243.53548,6492.9255068,158
1660315243.53548,6492.9255107,130
1660315243.53548,6492.9255181,112
1660315243.53548,6492.9255251,116
1660315243.53548,6492.9255321,107
1660315243.53548,6492.9255412,70
1660315243.53548,6492.9255797,42
1660315243.53548,6492.9256242,23
1660315243.53548,6492.9256291,4
1660315243.53548,6492.9256319,9
1660315243.53548,6492.9256345,21
1660315243.53548,6492.9256371,14
1660315243.53548,6492.9256396,23
1660315243.53548,6492.9256423,39
1660315243.53548,6492.9256449,35
1660315243.53548,6492.9256474,42
1660315243.53548,6492.92565,58
1660315243.53548,6492.9256526,53
1660315243.53548,6492.9256552,60
1660315243.53548,6492.9256578,88
1660315243.53548,6492.9256604,112
1660315243.53548,6492.9256631,116
1660315243.53548,6493.4607795,126
1660315243.53548,6493.4607987,137
1660315243.53548,6493.4608066,128
1660315243.53548,6493.4608135,107
1660315243.53548,6493.4608206,91
1660315243.53548,6493.4608274,93
1660315243.53548,6493.4608318,105
1660315243.53548,6493.4608354,93
1660315243.53548,6493.4608392,70
1660315243.53548,6493.4608441,74
1660315243.53548,6493.4608503,93
1660315243.53548,6493.4608553,98
1660315243.53548,6493.4608605,88
1660315243.53548,6493.460867,98
1660315243.53548,6493.4608737,114
1660315243.53548,6493.4608807,95
1660315243.53548,6493.4608877,58
1660315243.53548,6493.460894,46
1660315243.53548,6493.4609009,65
1660315243.53548,6493.4609052,74
1660315243.53548,6493.4609102,72
1660315243.53548,6493.4609163,63
1660315243.53548,6493.4609212,39
1660315243.53548,6493.4609265,23
1660315243.53548,6493.4609352,4
1660315243.53548,6493.4609426,9
1660315243.53548,6493.4609536,231
1660315243.59532,6493.4609595,705
1660315243.59532,6493.4609647,957
1660315243.59532,6493.460972,516
1660315243.59532,6493.460977,-175
1660315243.59532,6493.460984,-277
1660315243.59532,6493.4609888,-7
1660315243.59532,6493.4609932,30
1660315243.59532,6493.4609981,-25
1660315243.59532,6493.4610045,28
1660315243.59532,6493.4610091,51
1660315243.59532,6493.461014,28
1660315243.59532,6493.4610209,25
1660315243.59532,6493.4610257,18
1660315243.59532,6493.4610325,18
1660315243.59532,6493.4610395,32
1660315243.59532,6493.4610441,39
1660315243.59532,6493.4610488,53
1660315243.59532,6493.4610535,74
1660315243.59532,6493.4610582,98
1660315243.59532,6493.461063,126
1660315243.59532,6493.4610674,147
1660315243.59532,6493.4610727,151
1660315243.59532,6493.46108,175
1660315243.59532,6493.4610866,214
1660315243.59532,6493.4610928,224
1660315243.59532,6493.4610962,210
1660315243.59532,6493.4611021,191
1660315243.59532,6493.4611076,175
1660315243.59532,6493.4611106,154
1660315243.59532,6493.4611136,128
1660315243.59532,6493.4611168,100
1660315243.59532,6493.4611221,72
1660315243.59532,6493.461125,65
1660315243.59532,6493.461128,67
1660315243.59532,6493.4611317,58
1660315243.59532,6493.4611365,53
1660315243.59532,6493.4611395,37
1660315243.59532,6493.4611424,21
1660315243.59532,6493.4611452,49
1660315243.59532,6493.4611485,74
1660315243.59532,6493.4611539,81
1660315243.59532,6493.4611569,77
1660315243.59532,6493.4611598,56
1660315243.59532,6493.4611627,37
1660315243.59532,6493.4611656,44
1660315243.59532,6493.4611685,60
1660315243.59532,6493.9983487,44
1660315243.59532,6493.9983672,44
1660315243.59532,6493.9983767,84
1660315243.59532,6493.9983818,72
1660315243.61627,6493.9983868,32
1660315243.61627,6493.9983919,70
1660315243.61627,6493.9983966,109
1660315243.61627,6493.9984013,67
1660315243.61627,6493.9984059,74
1660315243.61627,6493.9984106,116
1660315243.61627,6493.9984152,65
1660315243.61627,6493.9984199,63
1660315243.61627,6493.9984262,123
1660315243.61627,6493.9984309,77
1660315243.61627,6493.9984356,-2
1660315243.61627,6493.9984402,39
1660315243.61627,6493.9984448,123
1660315243.61627,6493.9984493,93
1660315243.61627,6493.9984542,-14
1660315243.61627,6493.9984684,-39
1660315243.61627,6493.998481,56
1660315243.61627,6493.9984889,84
1660315243.61627,6493.9984947,-28
1660315243.61627,6493.9985043,-74
1660315243.61627,6493.9985135,-30
1660315243.61627,6493.9985186,-46
1660315243.61627,6493.9985234,-39
1660315243.61627,6493.9985271,37
1660315243.61627,6493.9985335,0
1660315243.61627,6493.998539,42
1660315243.61627,6493.9985422,483
1660315243.61627,6493.9985475,943
1660315243.61627,6493.9985504,747
1660315243.61627,6493.9985533,-7
1660315243.61627,6493.9985562,-383
1660315243.61627,6493.998559,-149
1660315243.61627,6493.9985618,-18
1660315243.61627,6493.9985646,-77
1660315243.61627,6493.9985675,-16
1660315243.61627,6493.9985704,21
1660315243.61627,6493.9985732,-18
1660315243.61627,6493.9985761,4
1660315243.61627,6493.9985792,51
1660315243.61627,6493.9985821,32
1660315243.61627,6493.9985849,2
1660315243.61627,6493.9985877,32
1660315243.61627,6493.9985906,63
1660315243.61627,6493.9985934,60
1660315243.61627,6493.9985962,84
1660315243.61627,6493.998599,109
1660315243.61627,6493.9986018,123
1660315243.61627,6493.9986046,154
1660315243.61627,6493.9986074,170
1660315243.61627,6493.9986103,179
1660315243.63322,6493.998613,219
1660315243.63322,6493.9986158,224
1660315243.63322,6493.9986186,186
1660315243.63322,6493.9986213,191
1660315243.63322,6493.9986241,214
1660315243.63322,6493.9986268,184
1660315243.63322,6493.9986297,128
1660315243.63322,6493.9986325,65
1660315243.63322,6493.9986354,-14
1660315243.63322,6493.9986382,-30
1660315243.63322,6493.998641,11
1660315243.63322,6493.9986439,2
1660315243.63322,6493.9986468,-25
1660315243.63322,6493.9986498,0
1660315243.63322,6493.9986526,-2
1660315243.63322,6493.9986553,-37
1660315243.63322,6493.9986582,-9
1660315243.63322,6493.9986609,39
1660315243.63322,6493.9986637,21
1660315243.63322,6494.631007,-4
1660315243.63322,6494.6310238,35
1660315243.63322,6494.6310289,84
1660315243.63322,6494.6310352,63
1660315243.63322,6494.6310394,63
1660315243.63322,6494.6310473,109
1660315243.63322,6494.6310513,88
1660315243.63322,6494.6310551,56
1660315243.63322,6494.6310589,98
1660315243.63322,6494.6310645,114
1660315243.63322,6494.6310707,84
1660315243.63322,6494.6310801,86
1660315243.63322,6494.631091,100
1660315243.63322,6494.6310975,81
1660315243.63322,6494.6311017,77
1660315243.63322,6494.6311067,74
1660315243.63322,6494.6311109,51
1660315243.63322,6494.6311167,51
1660315243.63322,6494.6311208,81
1660315243.63322,6494.6311249,77
1660315243.63322,6494.6311308,63
1660315243.63322,6494.6311349,72
1660315243.63322,6494.6311406,63
1660315243.63322,6494.6311447,37
1660315243.63322,6494.6311504,16
1660315243.63322,6494.6311548,16
1660315243.63322,6494.6311603,28
1660315243.63322,6494.6311644,23
1660315243.63322,6494.63117,16
1660315243.63322,6494.6311753,23
1660315243.63322,6494.6311809,30
1660315243.64918,6494.6311855,49
1660315243.64918,6494.6311912,44
1660315243.64918,6494.6311953,11
1660315243.64918,6494.6312007,107
1660315243.64918,6494.6312047,497
1660315243.64918,6494.6312089,992
1660315243.64918,6494.6312146,1027
1660315243.64918,6494.6312187,326
1660315243.64918,6494.6312248,-319
1660315243.64918,6494.631229,-182
1660315243.64918,6494.631235,98
1660315243.64918,6494.6312422,39
1660315243.64918,6494.6312493,18
1660315243.64918,6494.6312522,84
1660315243.64918,6494.631255,60
1660315243.64918,6494.6312581,39
1660315243.64918,6494.6312651,67
1660315243.64918,6494.6312723,74
1660315243.64918,6494.6312769,70
1660315243.64918,6494.6312829,84
1660315243.64918,6494.6312878,93
1660315243.64918,6494.6312924,95
1660315243.64918,6494.6312975,105
1660315243.64918,6494.6313054,105
1660315243.64918,6494.6313097,91
1660315243.64918,6494.6313142,121
1660315243.64918,6494.6313186,184
1660315243.64918,6494.631323,205
1660315243.64918,6494.6313272,207
1660315243.64918,6494.6313319,224
1660315243.64918,6494.6313379,205
1660315243.64918,6494.6313425,168
1660315243.64918,6494.6313489,149
1660315243.64918,6494.6313549,140
1660315243.64918,6494.6313593,112
1660315243.64918,6494.6313652,70
1660315243.64918,6494.6313714,32
1660315243.64918,6494.6313775,21
1660315243.64918,6494.6313836,21
1660315243.64918,6494.6313882,25
1660315243.64918,6494.6313942,23
1660315243.64918,6494.6313986,2
1660315243.64918,6495.1180411,0
1660315243.64918,6495.1180626,18
1660315243.64918,6495.1180698,23
1660315243.64918,6495.1180777,18
1660315244.02228,6495.118086,28
1660315244.02228,6495.1180924,39
1660315244.02228,6495.1180994,46
1660315244.02228,6495.1181053,51
1660315244.02228,6495.1181111,65
1660315244.02228,6495.1181186,88
1660315244.02228,6495.1181262,91
1660315244.02228,6495.1181338,74
1660315244.02228,6495.1181394,67
1660315244.02228,6495.1181442,77
1660315244.02228,6495.11815,88
1660315244.02228,6495.118154,93
1660315244.02228,6495.1181605,91
1660315244.02228,6495.1181665,84
1660315244.02228,6495.1181721,72
1660315244.02228,6495.1181761,49
1660315244.02228,6495.1181793,46
1660315244.02228,6495.1181824,65
1660315244.02228,6495.1181878,65
1660315244.02228,6495.1181945,51
1660315244.02228,6495.1181988,53
1660315244.02228,6495.1182071,53
1660315244.02228,6495.1182146,44
1660315244.02228,6495.1182209,56
1660315244.02228,6495.1182257,70
1660315244.02228,6495.1182346,67
1660315244.02228,6495.1182419,72
1660315244.02228,6495.1182491,72
1660315244.02228,6495.1182557,49
1660315244.02228,6495.1182598,44
1660315244.02228,6495.1182636,72
1660315244.02228,6495.1182673,88
1660315244.02228,6495.118271,81
1660315244.02228,6495.1182748,77
1660315244.02228,6495.1182787,79
1660315244.02228,6495.1182822,79
1660315244.02228,6495.1182862,60
1660315244.02228,6495.118293,133
1660315244.02228,6495.1182961,502
1660315244.02228,6495.1183007,999
1660315244.02228,6495.1183059,1058
1660315244.02228,6495.1183093,387
1660315244.02228,6495.1183124,-294
1660315244.02228,6495.1183164,-207
1660315244.02228,6495.1183211,67
1660315244.02228,6495.1183269,-4
1660315244.02228,6495.1183302,-37
1660315244.02228,6495.1183332,46
1660315244.02228,6495.1183361,35
1660315244.02228,6495.1183391,16
1660315244.03425,6495.1183419,46
1660315244.03425,6495.1183448,56
1660315244.03425,6495.1183476,46
1660315244.03425,6495.1183504,51
1660315244.03425,6495.1183534,74
1660315244.03425,6495.1183564,95
1660315244.03425,6495.1183594,102
1660315244.03425,6495.1183625,119
1660315244.03425,6495.1183728,149
1660315244.03425,6495.1183791,163
1660315244.03425,6495.1183854,175
1660315244.03425,6495.118392,203
1660315244.03425,6495.118397,231
1660315244.03425,6495.1184041,233
1660315244.03425,6495.1184088,228
1660315244.03425,6495.1184132,212
1660315244.03425,6495.1184175,189
1660315244.03425,6495.1184219,170
1660315244.03425,6495.1184267,147
1660315244.03425,6495.6570797,102
1660315244.03425,6495.6570966,63
1660315244.03425,6495.6571014,46
1660315244.03425,6495.6571059,30
1660315244.03425,6495.6571105,9
1660315244.70685,6495.6571149,0
1660315244.70685,6495.6571194,11
1660315244.70685,6495.6571238,21
1660315244.70685,6495.6571283,11
1660315244.70685,6495.6571327,2
1660315244.70685,6495.6571378,0
1660315244.70685,6495.6571423,7
1660315244.70685,6495.6571467,11
1660315244.70685,6495.6571512,21
1660315244.70685,6495.6571556,37
1660315244.70685,6495.6571599,32
1660315244.70685,6495.6571644,9
1660315244.70685,6495.6571687,16
1660315244.70685,6495.657173,51
1660315244.70685,6495.6571776,49
1660315244.70685,6495.657182,35
1660315244.70685,6495.6571864,44
1660315244.70685,6495.6571908,46
1660315244.70685,6495.6571951,39
1660315244.70685,6495.6571994,56
1660315244.70685,6495.6572038,63
1660315244.70685,6495.6572082,39
1660315244.70685,6495.6572124,25
1660315244.70685,6495.6572168,37
1660315244.70685,6495.6572212,49
1660315244.70685,6495.6572255,58
1660315244.70685,6495.6572298,70
1660315244.70685,6495.6572343,77
1660315244.70685,6495.6572387,81
1660315244.70685,6495.657243,65
1660315244.70685,6495.6572472,51
1660315244.70685,6495.6572516,60
1660315244.70685,6495.6572561,84
1660315244.70685,6495.6572604,107
1660315244.70685,6495.6572647,116
1660315244.70685,6495.6572691,102
1660315244.70685,6495.6572734,86
1660315244.70685,6495.6572779,84
1660315244.70685,6495.6572823,70
1660315244.70685,6495.6572867,53
1660315244.70685,6495.657291,58
1660315244.70685,6495.6572955,67
1660315244.70685,6495.6572999,53
1660315244.70685,6495.6573043,44
1660315244.70685,6495.6573085,56
1660315244.70685,6495.657313,81
1660315244.70685,6495.6573173,88
1660315244.70685,6495.6573218,114
1660315244.70685,6495.6573262,366
1660315244.70685,6495.6573305,847
1660315244.71982,6495.6573348,1079
1660315244.71982,6495.6573395,586
1660315244.71982,6495.6573441,-184
1660315244.71982,6495.6573484,-308
1660315244.71982,6495.6573527,2
1660315244.71982,6495.657357,32
1660315244.71982,6495.6573618,-39
1660315244.71982,6495.6573664,30
1660315244.71982,6495.6573714,60
1660315244.71982,6495.6573759,35
1660315244.71982,6495.6573802,53
1660315244.71982,6495.6573846,65
1660315244.71982,6495.657389,58
1660315244.71982,6495.6573934,74
1660315244.71982,6495.6573976,100
1660315244.71982,6495.657403,109
1660315244.71982,6495.6574073,121
1660315244.71982,6495.6574116,142
1660315244.71982,6496.3381876,158
1660315244.71982,6496.3382085,175
1660315244.71982,6496.3382177,212
1660315244.71982,6496.3382269,245
1660315244.71982,6496.3382349,261
1660315244.71982,6496.3382743,261
1660315245.23751,6496.3382838,238
1660315245.23751,6496.3382901,210
1660315245.23751,6496.3382964,200
1660315245.23751,6496.338303,193
1660315245.23751,6496.3383094,163
1660315245.23751,6496.3383362,126
1660315245.23751,6496.3383451,93
1660315245.23751,6496.3383681,63
1660315245.23751,6496.338382,42
1660315245.23751,6496.3383909,30
1660315245.23751,6496.3383985,25
1660315245.23751,6496.3384053,35
1660315245.23751,6496.3384107,37
1660315245.23751,6496.338415,18
1660315245.23751,6496.3384187,4
1660315245.23751,6496.3384224,14
1660315245.23751,6496.3384261,37
1660315245.23751,6496.3384299,56
1660315245.23751,6496.3384334,60
1660315245.23751,6496.3384372,60
1660315245.23751,6496.338441,67
1660315245.23751,6496.3384449,67
1660315245.23751,6496.3384487,72
1660315245.23751,6496.3384524,93
1660315245.23751,6496.3384577,105
1660315245.23751,6496.3384613,98
1660315245.23751,6496.3384649,93
1660315245.23751,6496.3384685,81
1660315245.23751,6496.3384721,63
1660315245.23751,6496.3384767,65
1660315245.23751,6496.3384801,77
1660315245.23751,6496.3384831,70
1660315245.23751,6496.338486,51
1660315245.23751,6496.3384887,60
1660315245.23751,6496.3384915,88
1660315245.23751,6496.3384945,93
1660315245.23751,6496.3384973,79
1660315245.23751,6496.3385001,81
1660315245.23751,6496.3385028,86
1660315245.23751,6496.3385056,81
1660315245.23751,6496.3385086,88
1660315245.23751,6496.3385113,93
1660315245.23751,6496.3385141,84
1660315245.23751,6496.3385169,81
1660315245.23751,6496.3385196,93
1660315245.23751,6496.3385224,102
1660315245.23751,6496.3385255,112
1660315245.23751,6496.3385282,128
1660315245.23751,6496.338531,135
1660315245.23751,6496.3385338,116
1660315245.24824,6496.3385365,93
1660315245.24824,6496.3385392,91
1660315245.24824,6496.3385422,86
1660315245.24824,6496.3385452,60
1660315245.24824,6496.3385483,56
1660315245.24824,6496.338551,79
1660315245.24824,6496.3385538,91
1660315245.24824,6496.3385687,70
1660315245.24824,6496.3385739,37
1660315245.24824,6496.3385784,100
1660315245.24824,6496.3385832,446
1660315245.24824,6496.3385874,929
1660315245.24824,6496.3385918,999
1660315245.24824,6496.3385961,350
1660315245.24824,6496.3386004,-315
1660315245.24824,6496.3386048,-242
1660315245.24824,6496.3386109,35
1660315245.24824,6496.8746837,11
1660315245.24824,6496.8747139,4
1660315245.24824,6496.8747219,72
1660315245.24824,6496.8747304,56
1660315245.24824,6496.8747369,28
1660315245.24824,6496.8747417,60
1660315245.24824,6496.874747,88
1660315245.72382,6496.8747549,95
1660315245.72382,6496.8747619,102
1660315245.72382,6496.8747683,98
1660315245.72382,6496.8747743,95
1660315245.72382,6496.8747813,119
1660315245.72382,6496.8747906,135
1660315245.72382,6496.8747982,147
1660315245.72382,6496.8748039,182
1660315245.72382,6496.8748104,210
1660315245.72382,6496.8748176,221
1660315245.72382,6496.8748247,226
1660315245.72382,6496.8748299,231
1660315245.72382,6496.8748349,240
1660315245.72382,6496.8748397,228
1660315245.72382,6496.8748443,196
1660315245.72382,6496.8748503,163
1660315245.72382,6496.8748548,133
1660315245.72382,6496.8748591,98
1660315245.72382,6496.8748632,63
1660315245.72382,6496.8748674,28
1660315245.72382,6496.874872,-11
1660315245.72382,6496.8748766,-49
1660315245.72382,6496.8748814,-67
1660315245.72382,6496.8748861,-65
1660315245.72382,6496.8748909,-65
1660315245.72382,6496.874896,-72
1660315245.72382,6496.8749007,-65
1660315245.72382,6496.8749055,-60
1660315245.72382,6496.8749105,-70
1660315245.72382,6496.8749152,-70
1660315245.72382,6496.8749197,-51
1660315245.72382,6496.8749244,-37
1660315245.72382,6496.8749288,-30
1660315245.72382,6496.8749333,-23
1660315245.72382,6496.8749379,-16
1660315245.72382,6496.8749436,-7
1660315245.72382,6496.8749482,2
1660315245.72382,6496.8749528,4
1660315245.72382,6496.8749577,7
1660315245.72382,6496.8749627,14
1660315245.72382,6496.8749675,9
1660315245.72382,6496.8749723,-2
1660315245.72382,6496.874978,-14
1660315245.72382,6496.8749823,-18
1660315245.72382,6496.8749869,-18
1660315245.72382,6496.8749916,-21
1660315245.72382,6496.874996,-23
1660315245.72382,6496.8750007,-23
1660315245.72382,6496.8750053,-21
1660315245.72382,6496.8750102,-16
1660315245.73579,6496.8750148,-9
1660315245.73579,6496.8750191,-7
1660315245.73579,6496.8750237,-18
1660315245.73579,6496.8750286,-21
1660315245.73579,6496.8750336,-2
1660315245.73579,6496.8750385,4
1660315245.73579,6496.875043,7
1660315245.73579,6496.875048,21
1660315245.73579,6496.8750528,25
1660315245.73579,6496.8750575,7
1660315245.73579,6496.8750624,-14
1660315245.73579,6496.875067,-23
1660315245.73579,6496.8750716,-25
1660315245.73579,6496.875076,-21
1660315245.73579,6496.8750805,-21
1660315245.73579,6496.8750863,-25
1660315245.73579,6497.3607281,-25
1660315245.73579,6497.3607501,-16
1660315245.73579,6497.360759,-16
1660315245.73579,6497.3607641,-25
1660315245.73579,6497.3607728,60
1660315245.73579,6497.3607813,415
1660315245.73579,6497.3607883,903
1660315245.73579,6497.3607965,936
1660315246.36707,6497.3608031,231
1660315246.36707,6497.3608098,-397
1660315246.36707,6497.3608148,-254
1660315246.36707,6497.36082,0
1660315246.36707,6497.3608245,-79
1660315246.36707,6497.3608306,-102
1660315246.36707,6497.3608394,-30
1660315246.36707,6497.3608464,-46
1660315246.36707,6497.3608508,-58
1660315246.36707,6497.3608553,-14
1660315246.36707,6497.3608594,-11
1660315246.36707,6497.3608645,-32
1660315246.36707,6497.3608701,-11
1660315246.36707,6497.360875,23
1660315246.36707,6497.360882,39
1660315246.36707,6497.360889,51
1660315246.36707,6497.3608944,67
1660315246.36707,6497.3609003,72
1660315246.36707,6497.3609079,70
1660315246.36707,6497.360918,86
1660315246.36707,6497.3609291,123
1660315246.36707,6497.3609384,165
1660315246.36707,6497.3609465,182
1660315246.36707,6497.360951,163
1660315246.36707,6497.3609613,137
1660315246.36707,6497.3609719,130
1660315246.36707,6497.3609857,114
1660315246.36707,6497.3609953,79
1660315246.36707,6497.3610052,42
1660315246.36707,6497.3610139,4
1660315246.36707,6497.3610178,-25
1660315246.36707,6497.3610311,-46
1660315246.36707,6497.3610377,-60
1660315246.36707,6497.3610422,-63
1660315246.36707,6497.3610492,-56
1660315246.36707,6497.3610571,-56
1660315246.36707,6497.3610646,-65
1660315246.36707,6497.3610732,-60
1660315246.36707,6497.3610805,-46
1660315246.36707,6497.361087,-39
1660315246.36707,6497.3610904,-28
1660315246.36707,6497.3611035,-14
1660315246.36707,6497.3611164,-9
1660315246.36707,6497.3611296,-4
1660315246.36707,6497.3611429,9
1660315246.36707,6497.3611561,23
1660315246.36707,6497.3611693,30
1660315246.36707,6497.3611823,28
1660315246.36707,6497.3611951,28
1660315246.36707,6497.3612085,28
1660315246.38801,6497.3612208,21
1660315246.38801,6497.3612298,28
1660315246.38801,6497.3612369,46
1660315246.38801,6497.3612456,46
1660315246.38801,6497.3612528,23
1660315246.38801,6497.3612589,14
1660315246.38801,6497.3612683,25
1660315246.38801,6497.3612748,21
1660315246.38801,6497.3612822,11
1660315246.38801,6497.3612887,21
1660315246.38801,6497.3612947,18
1660315246.38801,6497.3612983,-9
1660315246.38801,6497.3613017,-4
1660315246.38801,6497.361306,14
1660315246.38801,6497.3613098,7
1660315246.38801,6497.9953057,14
1660315246.38801,6497.9953245,44
1660315246.38801,6497.9953343,39
1660315246.38801,6497.9953465,2
1660315246.38801,6497.9953552,-14
1660315246.38801,6497.9953683,2
1660315246.38801,6497.995376,11
1660315246.38801,6497.9953817,2
1660315246.38801,6497.9953875,-9
1660315246.84449,6497.9953911,-23
1660315246.84449,6497.9953947,-30
1660315246.84449,6497.9953984,-32
1660315246.84449,6497.995403,-39
1660315246.84449,6497.9954068,77
1660315246.84449,6497.9954126,455
1660315246.84449,6497.9954195,875
1660315246.84449,6497.9954256,787
1660315246.84449,6497.9954314,51
1660315246.84449,6497.9954375,-450
1660315246.84449,6497.9954434,-214
1660315246.84449,6497.9954513,-14
1660315246.84449,6497.995459,-105
1660315246.84449,6497.9954668,-65
1660315246.84449,6497.9954744,16
1660315246.84449,6497.9954802,-9
1660315246.84449,6497.9954859,-7
1660315246.84449,6497.9954927,32
1660315246.84449,6497.9954989,39
1660315246.84449,6497.9955065,42
1660315246.84449,6497.995514,63
1660315246.84449,6497.9955215,81
1660315246.84449,6497.9955274,88
1660315246.84449,6497.995535,105
1660315246.84449,6497.995541,135
1660315246.84449,6497.9955489,156
1660315246.84449,6497.9955548,177
1660315246.84449,6497.9955624,207
1660315246.84449,6497.9955684,235
1660315246.84449,6497.9955761,249
1660315246.84449,6497.9955819,240
1660315246.84449,6497.9955894,231
1660315246.84449,6497.9955954,228
1660315246.84449,6497.9956031,214
1660315246.84449,6497.9956119,184
1660315246.84449,6497.9956215,163
1660315246.84449,6497.9956275,140
1660315246.84449,6497.9956333,107
1660315246.84449,6497.995638,74
1660315246.84449,6497.9956436,51
1660315246.84449,6497.9956492,46
1660315246.84449,6497.9956536,46
1660315246.84449,6497.9956573,44
1660315246.84449,6497.9956613,56
1660315246.84449,6497.9956669,67
1660315246.84449,6497.9956704,58
1660315246.84449,6497.9956737,49
1660315246.84449,6497.9956771,60
1660315246.84449,6497.9956808,77
1660315246.84449,6497.9956864,77
1660315246.86544,6497.9956899,74
1660315246.86544,6497.9956946,86
1660315246.86544,6497.9956997,93
1660315246.86544,6497.995703,93
1660315246.86544,6497.9957063,84
1660315246.86544,6497.9957096,72
1660315246.86544,6497.9957131,81
1660315246.86544,6497.9957165,102
1660315246.86544,6497.99572,91
1660315246.86544,6497.9957233,77
1660315246.86544,6497.9957266,91
1660315246.86544,6497.9957297,95
1660315246.86544,6497.9957329,81
1660315246.86544,6497.9957362,77
1660315246.86544,6498.4822955,65
1660315246.86544,6498.4823154,46
1660315246.86544,6498.4823318,44
1660315246.86544,6498.4823404,49
1660315246.86544,6498.482346,49
1660315246.86544,6498.482351,39
1660315246.86544,6498.4823545,39
1660315246.86544,6498.4823577,53
1660315246.86544,6498.482361,67
1660315246.86544,6498.4823642,65
1660315247.37802,6498.4823675,53
1660315247.37802,6498.4823711,37
1660315247.37802,6498.4823749,16
1660315247.37802,6498.4823835,9
1660315247.37802,6498.4823942,21
1660315247.37802,6498.4824011,37
1660315247.37802,6498.4824057,42
1660315247.37802,6498.4824118,49
1660315247.37802,6498.4824153,35
1660315247.37802,6498.4824206,25
1660315247.37802,6498.4824273,182
1660315247.37802,6498.4824353,593
1660315247.37802,6498.4824393,962
1660315247.37802,6498.4824426,768
1660315247.37802,6498.4824457,35
1660315247.37802,6498.4824489,-357
1660315247.37802,6498.482452,-116
1660315247.37802,6498.4824551,32
1660315247.37802,6498.4824581,-37
1660315247.37802,6498.4824611,9
1660315247.37802,6498.482464,60
1660315247.37802,6498.4824672,18
1660315247.37802,6498.4824701,18
1660315247.37802,6498.4824729,60
1660315247.37802,6498.4824758,74
1660315247.37802,6498.4824786,79
1660315247.37802,6498.4824814,93
1660315247.37802,6498.4824844,109
1660315247.37802,6498.4824871,128
1660315247.37802,6498.48249,151
1660315247.37802,6498.4824928,172
1660315247.37802,6498.4824956,184
1660315247.37802,6498.4824983,203
1660315247.37802,6498.4825011,238
1660315247.37802,6498.4825041,266
1660315247.37802,6498.4825071,280
1660315247.37802,6498.4825101,284
1660315247.37802,6498.482513,270
1660315247.37802,6498.4825159,249
1660315247.37802,6498.482519,235
1660315247.37802,6498.482522,214
1660315247.37802,6498.4825249,179
1660315247.37802,6498.4825277,144
1660315247.37802,6498.4825306,114
1660315247.37802,6498.4825335,84
1660315247.37802,6498.4825364,70
1660315247.37802,6498.4825392,72
1660315247.37802,6498.4825421,67
1660315247.37802,6498.4825449,58
1660315247.37802,6498.4825476,63
1660315247.39099,6498.4825507,70
1660315247.39099,6498.4825536,77
1660315247.39099,6498.4825565,91
1660315247.39099,6498.4825595,91
1660315247.39099,6498.4825623,84
1660315247.39099,6498.4825652,93
1660315247.39099,6498.4825681,105
1660315247.39099,6498.482571,100
1660315247.39099,6498.4825738,105
1660315247.39099,6498.4825766,112
1660315247.39099,6498.4825795,102
1660315247.39099,6498.4825827,88
1660315247.39099,6498.4825951,95
1660315247.39099,6499.0179364,102
1660315247.39099,6499.0179557,102
1660315247.39099,6499.0179616,95
1660315247.39099,6499.0179664,88
1660315247.39099,6499.0179746,88
1660315247.39099,6499.0179831,93
1660315247.39099,6499.0179901,86
1660315247.39099,6499.0179969,70
1660315247.39099,6499.0180012,46
1660315247.39099,6499.018005,23
1660315247.39099,6499.0180081,11
1660315247.97942,6499.018012,25
1660315247.97942,6499.0180187,37
1660315247.97942,6499.0180256,37
1660315247.97942,6499.018031,44
1660315247.97942,6499.0180356,46
1660315247.97942,6499.0180409,25
1660315247.97942,6499.0180448,2
1660315247.97942,6499.0180515,-16
1660315247.97942,6499.0180566,-11
1660315247.97942,6499.0180656,4
1660315247.97942,6499.0180733,-2
1660315247.97942,6499.0180798,-7
1660315247.97942,6499.018089,21
1660315247.97942,6499.0180937,32
1660315247.97942,6499.0181004,16
1660315247.97942,6499.0181035,-9
1660315247.97942,6499.0181065,84
1660315247.97942,6499.0181095,469
1660315247.97942,6499.0181124,957
1660315247.97942,6499.0181154,971
1660315247.97942,6499.0181183,305
1660315247.97942,6499.0181211,-266
1660315247.97942,6499.018124,-137
1660315247.97942,6499.0181269,81
1660315247.97942,6499.0181297,16
1660315247.97942,6499.0181326,18
1660315247.97942,6499.0181354,86
1660315247.97942,6499.0181382,67
1660315247.97942,6499.0181409,70
1660315247.97942,6499.0181438,109
1660315247.97942,6499.0181465,105
1660315247.97942,6499.0181494,93
1660315247.97942,6499.0181522,130
1660315247.97942,6499.0181551,154
1660315247.97942,6499.018158,142
1660315247.97942,6499.0181608,151
1660315247.97942,6499.0181637,179
1660315247.97942,6499.0181665,198
1660315247.97942,6499.0181693,217
1660315247.97942,6499.0181721,245
1660315247.97942,6499.018175,268
1660315247.97942,6499.018178,282
1660315247.97942,6499.0181809,287
1660315247.97942,6499.0181837,280
1660315247.97942,6499.0181866,266
1660315247.97942,6499.0181894,254
1660315247.97942,6499.0181924,231
1660315247.97942,6499.0181952,193
1660315247.97942,6499.018198,151
1660315247.97942,6499.0182009,123
1660315248.00436,6499.0182037,109
1660315248.00436,6499.0182067,95
1660315248.00436,6499.0182095,72
1660315248.00436,6499.0182123,49
1660315248.00436,6499.0182152,46
1660315248.00436,6499.0182181,46
1660315248.00436,6499.018221,44
1660315248.00436,6499.0182239,56
1660315248.00436,6499.0182267,74
1660315248.00436,6499.0182297,74
1660315248.00436,6499.0182325,70
1660315248.00436,6499.0182355,84
1660315248.00436,6499.6038021,95
1660315248.00436,6499.603822,107
1660315248.00436,6499.6038278,114
1660315248.00436,6499.6038338,109
1660315248.00436,6499.6038378,100
1660315248.00436,6499.6038429,79
1660315248.00436,6499.6038474,46
1660315248.00436,6499.6038523,39
1660315248.00436,6499.6038577,58
1660315248.00436,6499.6038643,65
1660315248.00436,6499.6038701,58
1660315248.00436,6499.6038751,46
1660315248.6537,6499.6038796,25
1660315248.6537,6499.6038842,9
1660315248.6537,6499.6038884,16
1660315248.6537,6499.6038924,23
1660315248.6537,6499.6038959,11
1660315248.6537,6499.6038992,9
1660315248.6537,6499.6039029,30
1660315248.6537,6499.6039061,42
1660315248.6537,6499.6039094,30
1660315248.6537,6499.6039137,37
1660315248.6537,6499.6039184,53
1660315248.6537,6499.6039226,42
1660315248.6537,6499.6039264,7
1660315248.6537,6499.6039297,-7
1660315248.6537,6499.6039333,7
1660315248.6537,6499.6039369,23
1660315248.6537,6499.6039407,25
1660315248.6537,6499.6039464,32
1660315248.6537,6499.6039503,46
1660315248.6537,6499.603956,25
1660315248.6537,6499.6039617,-30
1660315248.6537,6499.6039658,39
1660315248.6537,6499.6039707,439
1660315248.6537,6499.6039747,957
1660315248.6537,6499.6039806,962
1660315248.6537,6499.6039858,254
1660315248.6537,6499.6039921,-301
1660315248.6537,6499.6039988,-128
1660315248.6537,6499.6040057,77
1660315248.6537,6499.6040152,-9
1660315248.6537,6499.6040211,9
1660315248.6537,6499.604025,88
1660315248.6537,6499.6040291,63
1660315248.6537,6499.6040321,53
1660315248.6537,6499.6040351,93
1660315248.6537,6499.604042,102
1660315248.6537,6499.6040451,100
1660315248.6537,6499.604048,116
1660315248.6537,6499.6040509,135
1660315248.6537,6499.6040537,144
1660315248.6537,6499.6040565,156
1660315248.6537,6499.6040593,175
1660315248.6537,6499.6040622,198
1660315248.6537,6499.604065,224
1660315248.6537,6499.6040679,242
1660315248.6537,6499.6040709,252
1660315248.6537,6499.6040738,261
1660315248.6537,6499.6040766,256
1660315248.6537,6499.6040795,245
1660315248.6537,6499.6040826,254
1660315248.66567,6499.6040855,249
1660315248.66567,6499.6040886,203
1660315248.66567,6499.6040914,151
1660315248.66567,6499.6040942,128
1660315248.66567,6499.6040971,114
1660315248.66567,6499.6040999,93
1660315248.66567,6499.6041027,67
1660315248.66567,6499.6041056,49
1660315248.66567,6499.6041085,39
1660315248.66567,6499.6041113,32
1660315248.66567,6499.6041142,37
1660315248.66567,6500.2862241,51
1660315248.66567,6500.2862397,58
1660315248.66567,6500.2862439,60
1660315248.66567,6500.2862473,65
1660315248.66567,6500.2862509,74
1660315248.66567,6500.2862544,91
1660315248.66567,6500.2862579,91
1660315248.66567,6500.2862613,77
1660315248.66567,6500.2862648,79
1660315248.66567,6500.2862682,84
1660315248.66567,6500.2862717,74
1660315248.66567,6500.2862751,72
1660315248.66567,6500.2862786,77
1660315249.2862,6500.2862821,84
1660315249.2862,6500.2862862,91
1660315249.2862,6500.2862896,67
1660315249.2862,6500.2862937,37
1660315249.2862,6500.2862977,39
1660315249.2862,6500.2863013,39
1660315249.2862,6500.2863047,35
1660315249.2862,6500.2863082,46
1660315249.2862,6500.2863116,32
1660315249.2862,6500.286315,2
1660315249.2862,6500.2863184,16
1660315249.2862,6500.2863218,46
1660315249.2862,6500.2863254,56
1660315249.2862,6500.2863289,60
1660315249.2862,6500.2863323,60
1660315249.2862,6500.2863358,63
1660315249.2862,6500.2863392,63
1660315249.2862,6500.2863426,35
1660315249.2862,6500.2863462,4
1660315249.2862,6500.2863496,4
1660315249.2862,6500.2863531,14
1660315249.2862,6500.2863565,7
1660315249.2862,6500.28636,7
1660315249.2862,6500.2863636,21
1660315249.2862,6500.286367,23
1660315249.2862,6500.2863706,-4
1660315249.2862,6500.2863741,-35
1660315249.2862,6500.2863776,123
1660315249.2862,6500.2863816,607
1660315249.2862,6500.2863851,1032
1660315249.2862,6500.2863886,782
1660315249.2862,6500.286392,4
1660315249.2862,6500.2863956,-322
1660315249.2862,6500.2863994,-37
1660315249.2862,6500.2864028,84
1660315249.2862,6500.2864063,-18
1660315249.2862,6500.2864097,9
1660315249.2862,6500.2864132,46

1660315249.2862,6500.2864169,16
1660315249.2862,6500.2864207,21
1660315249.2862,6500.2864252,46
1660315249.2862,6500.286429,53
1660315249.2862,6500.2864337,67
1660315249.2862,6500.2864376,93
1660315249.2862,6500.2864406,107
1660315249.2862,6500.2864434,116
1660315249.2862,6500.2864463,116
1660315249.2862,6500.286452,126
1660315249.2862,6500.2864601,158
1660315249.2862,6500.2864651,186
1660315249.29816,6500.2864689,200
1660315249.29816,6500.2864789,219
1660315249.29816,6500.286485,233
1660315249.29816,6500.2864913,238
1660315249.29816,6500.2864961,235
1660315249.29816,6500.2865029,221
1660315249.29816,6500.2865071,196
1660315249.29816,6500.2865102,172
1660315249.29816,6500.2865133,142
1660315249.29816,6500.2865163,102
1660315249.29816,6500.919129,84
1660315249.29816,6500.9191507,79
1660315249.29816,6500.9191582,56
1660315249.29816,6500.9191634,42
1660315249.29816,6500.919169,51
1660315249.29816,6500.9191738,49
1660315249.29816,6500.91918,39
1660315249.29816,6500.9191851,51
1660315249.29816,6500.9191912,65
1660315249.29816,6500.9191948,67
1660315249.29816,6500.9191986,70
1660315249.29816,6500.9192021,79
1660315249.29816,6500.9192055,91
1660315249.29816,6500.9192089,98
1660315249.68122,6500.9192124,98
1660315249.68122,6500.9192168,95
1660315249.68122,6500.9192203,102
1660315249.68122,6500.9192237,105
1660315249.68122,6500.9192278,91
1660315249.68122,6500.9192313,81
1660315249.68122,6500.919235,91
1660315249.68122,6500.9192386,95
1660315249.68122,6500.9192422,93
1660315249.68122,6500.9192462,98
1660315249.68122,6500.9192499,98
1660315249.68122,6500.919253,86
1660315249.68122,6500.9192614,79
1660315249.68122,6500.9192684,79
1660315249.68122,6500.9192734,88
1660315249.68122,6500.9192825,93
1660315249.68122,6500.919289,79
1660315249.68122,6500.9192957,56
1660315249.68122,6500.9193036,56
1660315249.68122,6500.9193259,77
1660315249.68122,6500.9193376,77
1660315249.68122,6500.9193503,65
1660315249.68122,6500.9193602,53
1660315249.68122,6500.9193732,39
1660315249.68122,6500.9193864,28
1660315249.68122,6500.9193995,30
1660315249.68122,6500.9194081,35
1660315249.68122,6500.9194106,30
1660315249.68122,6500.9194127,28
1660315249.68122,6500.9194153,11
1660315249.68122,6500.9194253,-56
1660315249.68122,6500.9194384,-93
1660315249.68122,6500.9194517,121
1660315249.68122,6500.919465,635
1660315249.68122,6500.9194781,1025
1660315249.68122,6500.9194913,691
1660315249.68122,6500.9195046,-114
1660315249.68122,6500.9195183,-355
1660315249.68122,6500.9195311,-44
1660315249.68122,6500.9195448,14
1660315249.68122,6500.9195576,-79
1660315249.68122,6500.919571,-11
1660315249.68122,6500.9195843,16
1660315249.68122,6500.9195975,-23
1660315249.68122,6500.9196108,2
1660315249.68122,6500.9196241,44
1660315249.68122,6500.9196371,46
1660315249.68122,6500.9196502,46
1660315249.68122,6500.9196634,65
1660315249.68122,6500.9196763,86
1660315249.69917,6500.9196897,100
1660315249.69917,6500.9197026,112
1660315249.69917,6500.9197155,133
1660315249.69917,6500.9197288,154
1660315249.69917,6500.919742,170
1660315249.69917,6500.919755,191
1660315249.69917,6500.9197681,214
1660315249.69917,6500.9197765,224
1660315249.69917,6500.919779,228
1660315249.69917,6501.3115995,228
1660315249.69917,6501.3116189,210
1660315249.69917,6501.3116279,168
1660315249.69917,6501.3116358,130
1660315249.69917,6501.3116416,112
1660315249.69917,6501.3116486,95
1660315249.69917,6501.3116541,72
1660315249.69917,6501.3116609,42
1660315249.69917,6501.3116661,23
1660315249.69917,6501.3116727,21
1660315249.69917,6501.311677,11
1660315249.69917,6501.3116828,-4
1660315249.69917,6501.3116872,2
1660315249.69917,6501.3116932,14
1660315249.69917,6501.3117033,0
1660315250.25837,6501.3117157,-18
1660315250.25837,6501.3117255,-14
1660315250.25837,6501.3117349,0
1660315250.25837,6501.3117407,7
1660315250.25837,6501.3117451,9
1660315250.25837,6501.3117508,9
1660315250.25837,6501.3117565,-4
1660315250.25837,6501.311763,-16
1660315250.25837,6501.3117774,-4
1660315250.25837,6501.3117883,4
1660315250.25837,6501.3117918,-2
1660315250.25837,6501.3118022,-4
1660315250.25837,6501.3118144,2
1660315250.25837,6501.3118205,4
1660315250.25837,6501.311823,-2
1660315250.25837,6501.3118308,7
1660315250.25837,6501.3118433,18
1660315250.25837,6501.3118494,9
1660315250.25837,6501.3118606,0
1660315250.25837,6501.3118728,16
1660315250.25837,6501.3118781,28
1660315250.25837,6501.3118806,14
1660315250.25837,6501.3118888,7
1660315250.25837,6501.3119013,25
1660315250.25837,6501.3119128,35
1660315250.25837,6501.311926,23
1660315250.25837,6501.311936,-2
1660315250.25837,6501.3119394,-23
1660315250.25837,6501.311943,-25
1660315250.25837,6501.311945,-14
1660315250.25837,6501.3119487,-9
1660315250.25837,6501.3119509,-9
1660315250.25837,6501.3119529,-7
1660315250.25837,6501.3119554,-4
1660315250.25837,6501.3119575,-35
1660315250.25837,6501.3119595,-46
1660315250.25837,6501.3119616,163
1660315250.25837,6501.3120522,616
1660315250.25837,6501.3120627,896
1660315250.25837,6501.3120671,495
1660315250.25837,6501.3120713,-247
1660315250.25837,6501.3120753,-371
1660315250.25837,6501.3120802,-58
1660315250.25837,6501.3120846,-35
1660315250.25837,6501.3120908,-93
1660315250.25837,6501.3120952,-14
1660315250.25837,6501.3120996,-7
1660315250.25837,6501.3121046,-39
1660315250.25837,6501.31211,-4
1660315250.25837,6501.3121145,28
1660315250.27185,6501.3121188,28
1660315250.27185,6501.3121252,23
1660315250.27185,6501.3121364,37
1660315250.27185,6501.3121417,56
1660315250.27185,6501.3121452,74
1660315250.27185,6501.3121498,91
1660315250.27185,6501.312323,114
1660315250.27185,6501.3124202,133
1660315250.27185,6501.8955151,140
1660315250.27185,6501.8955353,158
1660315250.27185,6501.8955454,189
1660315250.27185,6501.8955533,203
1660315250.27185,6501.8955606,200
1660315250.27185,6501.8955656,193
1660315250.27185,6501.8955726,165
1660315250.27185,6501.895581,133
1660315250.27185,6501.8955935,114
1660315250.27185,6501.8956017,93
1660315250.27185,6501.8956064,63
1660315250.27185,6501.8956128,35
1660315250.27185,6501.8956186,9
1660315250.27185,6501.8956251,-7
1660315250.27185,6501.8956295,-2
1660315250.27185,6501.8956351,2
1660315250.80146,6501.8956401,0
1660315250.80146,6501.8956437,-4
1660315250.80146,6501.8956473,-30
1660315250.80146,6501.8956508,-56
1660315250.80146,6501.8956545,-42
1660315250.80146,6501.895658,-11
1660315250.80146,6501.8956617,0
1660315250.80146,6501.8956655,2
1660315250.80146,6501.8956693,-7
1660315250.80146,6501.8956728,-18
1660315250.80146,6501.8956763,-18
1660315250.80146,6501.8956801,-14
1660315250.80146,6501.8956837,-23
1660315250.80146,6501.8956876,-16
1660315250.80146,6501.8956911,0
1660315250.80146,6501.8956944,-2
1660315250.80146,6501.8956977,-11
1660315250.80146,6501.8957013,-11
1660315250.80146,6501.8957047,-2
1660315250.80146,6501.8957083,2
1660315250.80146,6501.8957118,2
1660315250.80146,6501.8957154,-7
1660315250.80146,6501.8957194,-2
1660315250.80146,6501.8957252,16
1660315250.80146,6501.8957293,35
1660315250.80146,6501.8957349,49
1660315250.80146,6501.8957397,60
1660315250.80146,6501.8957447,63
1660315250.80146,6501.8957478,72
1660315250.80146,6501.8957507,63
1660315250.80146,6501.8957536,25
1660315250.80146,6501.8957564,14
1660315250.80146,6501.8957592,30
1660315250.80146,6501.895762,35
1660315250.80146,6501.8957647,28
1660315250.80146,6501.8957675,37
1660315250.80146,6501.8957703,53
1660315250.80146,6501.895773,35
1660315250.80146,6501.8957759,-16
1660315250.80146,6501.8957787,74
1660315250.80146,6501.8957815,478
1660315250.80146,6501.8957844,943
1660315250.80146,6501.8957873,892
1660315250.80146,6501.8957901,198
1660315250.80146,6501.8957931,-310
1660315250.80146,6501.895796,-116
1660315250.80146,6501.8957989,81
1660315250.80146,6501.8958018,-21
1660315250.80146,6501.8958047,-32
1660315250.80146,6501.8958076,28
1660315250.81143,6501.8958104,11
1660315250.81143,6501.8958133,4
1660315250.81143,6501.8958161,35
1660315250.81143,6501.8958188,49
1660315250.81143,6501.8958224,60
1660315250.81143,6501.8958288,72
1660315250.81143,6501.8958366,84
1660315250.81143,6502.4317978,95
1660315250.81143,6502.43182,114
1660315250.81143,6502.4318275,135
1660315250.81143,6502.4318339,154
1660315250.81143,6502.4318581,177
1660315250.81143,6502.4318675,191
1660315250.81143,6502.4318739,203
1660315250.81143,6502.43188,224
1660315250.81143,6502.4318859,228
1660315250.81143,6502.4318925,205
1660315250.81143,6502.431899,184
1660315250.81143,6502.4319023,175
1660315250.81143,6502.4319081,151
1660315250.81143,6502.4319162,128
1660315250.81143,6502.4319256,95
1660315250.81143,6502.4319319,44
1660315250.81143,6502.4319383,7
1660315251.33556,6502.431947,2
1660315251.33556,6502.4319531,9
1660315251.33556,6502.431958,0
1660315251.33556,6502.4319615,-16
1660315251.33556,6502.4319651,-32
1660315251.33556,6502.4319698,-39
1660315251.33556,6502.4319748,-37
1660315251.33556,6502.4319803,-39
1660315251.33556,6502.4319853,-32
1660315251.33556,6502.4319883,-7
1660315251.33556,6502.4319913,4
1660315251.33556,6502.431995,-2
1660315251.33556,6502.4320003,-2
1660315251.33556,6502.432004,16
1660315251.33556,6502.4320097,32
1660315251.33556,6502.432015,37
1660315251.33556,6502.4320205,49
1660315251.33556,6502.4320246,46
1660315251.33556,6502.4320292,32
1660315251.33556,6502.4320329,44
1660315251.33556,6502.4320364,63
1660315251.33556,6502.4320399,65
1660315251.33556,6502.4320435,70
1660315251.33556,6502.4320469,70
1660315251.33556,6502.4320505,58
1660315251.33556,6502.432054,53
1660315251.33556,6502.4320575,67
1660315251.33556,6502.4320615,74
1660315251.33556,6502.4320649,88
1660315251.33556,6502.4320685,107
1660315251.33556,6502.432072,109
1660315251.33556,6502.4320755,107
1660315251.33556,6502.432079,123
1660315251.33556,6502.4320825,126
1660315251.33556,6502.4320861,98
1660315251.33556,6502.4320897,84
1660315251.33556,6502.4320932,91
1660315251.33556,6502.4320967,79
1660315251.33556,6502.4321003,63
1660315251.33556,6502.4321039,74
1660315251.33556,6502.432108,93
1660315251.33556,6502.4321115,67
1660315251.33556,6502.432115,4
1660315251.33556,6502.4321186,67
1660315251.33556,6502.4321222,455
1660315251.33556,6502.4321534,969
1660315251.33556,6502.4321572,1008
1660315251.33556,6502.4321608,340
1660315251.33556,6502.4321645,-259
1660315251.33556,6502.432168,-137
1660315251.34653,6502.4321716,88
1660315251.34653,6502.4321751,7
1660315251.34653,6502.4321786,-7
1660315251.34653,6502.4321822,70
1660315251.34653,6502.4321857,56
1660315251.34653,6502.4321893,37
1660315251.34653,6502.9674338,72
1660315251.34653,6502.967448,88
1660315251.34653,6502.9674512,84
1660315251.34653,6502.9674554,98
1660315251.34653,6502.9674573,114
1660315251.34653,6502.9674594,109
1660315251.34653,6502.9674613,98
1660315251.34653,6502.9674634,107
1660315251.34653,6502.9674653,133
1660315251.34653,6502.9674673,154
1660315251.34653,6502.9674692,177
1660315251.34653,6502.9674712,198
1660315251.34653,6502.9674731,203
1660315251.34653,6502.9674751,191
1660315251.34653,6502.9674771,170
1660315251.34653,6502.967479,142
1660315251.34653,6502.967481,126
1660315251.34653,6502.9674829,112
1660315252.01445,6502.9674853,81
1660315252.01445,6502.9674872,46
1660315252.01445,6502.9674891,21
1660315252.01445,6502.9674909,2
1660315252.01445,6502.9674929,-9
1660315252.01445,6502.9674948,-11
1660315252.01445,6502.9674967,-9
1660315252.01445,6502.9674985,-18
1660315252.01445,6502.9675003,-23
1660315252.01445,6502.9675022,-14
1660315252.01445,6502.967504,-9
1660315252.01445,6502.9675058,-14
1660315252.01445,6502.9675077,-2
1660315252.01445,6502.9675096,14
1660315252.01445,6502.9675114,25
1660315252.01445,6502.9675133,42
1660315252.01445,6502.9675152,51
1660315252.01445,6502.9675171,51
1660315252.01445,6502.967519,58
1660315252.01445,6502.9675208,72
1660315252.01445,6502.9675227,74
1660315252.01445,6502.9675245,67
1660315252.01445,6502.9675263,72
1660315252.01445,6502.9675282,93
1660315252.01445,6502.96753,105
1660315252.01445,6502.9675318,88
1660315252.01445,6502.9675337,77
1660315252.01445,6502.967541,88
1660315252.01445,6502.9675431,86
1660315252.01445,6502.967545,65
1660315252.01445,6502.9675469,72
1660315252.01445,6502.9675489,95
1660315252.01445,6502.9675509,100
1660315252.01445,6502.9675528,95
1660315252.01445,6502.9675548,109
1660315252.01445,6502.9675568,126
1660315252.01445,6502.9675588,126
1660315252.01445,6502.9675607,114
1660315252.01445,6502.9675626,102
1660315252.01445,6502.9675646,95
1660315252.01445,6502.9675666,91
1660315252.01445,6502.9675686,81
1660315252.01445,6502.9675707,84
1660315252.01445,6502.9675727,98
1660315252.01445,6502.9675746,105
1660315252.01445,6502.9675766,84
1660315252.01445,6502.9675785,28
1660315252.01445,6502.9675805,70
1660315252.01445,6502.9675826,425
1660315252.01445,6502.9675846,938
1660315252.03291,6502.9675866,1008
1660315252.03291,6502.9675885,352
1660315252.03291,6502.9675906,-254
1660315252.03291,6502.9675927,-130
1660315252.03291,6502.9675947,109
1660315252.03291,6503.6497575,35
1660315252.03291,6503.6497756,16
1660315252.03291,6503.6497812,77
1660315252.03291,6503.6497873,56
1660315252.03291,6503.6497918,46
1660315252.03291,6503.6497974,70
1660315252.03291,6503.6498017,53
1660315252.03291,6503.6498059,51
1660315252.03291,6503.6498102,65
1660315252.03291,6503.649816,46
1660315252.03291,6503.6498202,42
1660315252.03291,6503.6498259,77
1660315252.03291,6503.6498317,102
1660315252.03291,6503.6498374,121
1660315252.03291,6503.6498414,144
1660315252.03291,6503.6498453,147
1660315252.03291,6503.6498494,142
1660315252.03291,6503.6498548,161
1660315252.03291,6503.6498598,177
1660315252.45872,6503.6498652,170
1660315252.45872,6503.6498693,154
1660315252.45872,6503.649874,135
1660315252.45872,6503.6498779,107
1660315252.45872,6503.6498819,84
1660315252.45872,6503.6498858,65
1660315252.45872,6503.6498892,42
1660315252.45872,6503.6498931,23
1660315252.45872,6503.6498986,11
1660315252.45872,6503.6499035,4
1660315252.45872,6503.6499075,11
1660315252.45872,6503.6499115,11
1660315252.45872,6503.649917,2
1660315252.45872,6503.6499218,9
1660315252.45872,6503.6499273,30
1660315252.45872,6503.6499312,32
1660315252.45872,6503.6499368,23
1660315252.45872,6503.6499409,32
1660315252.45872,6503.6499464,56
1660315252.45872,6503.6499505,58
1660315252.45872,6503.649956,49
1660315252.45872,6503.6499602,60
1660315252.45872,6503.6499658,70
1660315252.45872,6503.6499697,70
1660315252.45872,6503.649975,72
1660315252.45872,6503.6499801,74
1660315252.45872,6503.6499836,81
1660315252.45872,6503.6499873,88
1660315252.45872,6503.6499927,81
1660315252.45872,6503.6499962,77
1660315252.45872,6503.6499999,93
1660315252.45872,6503.6500053,100
1660315252.45872,6503.6500089,88
1660315252.45872,6503.6500126,72
1660315252.45872,6503.6500179,70
1660315252.45872,6503.6500213,93
1660315252.45872,6503.6500251,121
1660315252.45872,6503.6500305,126
1660315252.45872,6503.6500344,126
1660315252.45872,6503.6500397,144
1660315252.45872,6503.6500441,140
1660315252.45872,6503.6500496,102
1660315252.45872,6503.6500542,81
1660315252.45872,6503.6500597,88
1660315252.45872,6503.6500634,100
1660315252.45872,6503.6500688,105
1660315252.45872,6503.6500728,95
1660315252.45872,6503.6500781,84
1660315252.45872,6503.6500821,100
1660315252.45872,6503.6500859,105
1660315252.4687,6503.6500912,49
1660315252.4687,6503.6500952,88
1660315252.4687,6503.6501011,425
1660315252.4687,6503.6501066,871
1660315252.4687,6504.0898795,873
1660315252.4687,6504.0898929,210
1660315252.4687,6504.0898974,-329
1660315252.4687,6504.0899024,-158
1660315252.4687,6504.0899049,58
1660315252.4687,6504.0899073,-7
1660315252.4687,6504.0899098,2
1660315252.4687,6504.0899121,46
1660315252.4687,6504.0899145,14
1660315252.4687,6504.0899168,9
1660315252.4687,6504.0899189,42
1660315252.4687,6504.0899209,56
1660315252.4687,6504.089923,53
1660315252.4687,6504.089925,56
1660315252.4687,6504.0899271,77
1660315252.4687,6504.0899291,98
1660315252.4687,6504.0899311,112
1660315252.4687,6504.0899365,128
1660315252.4687,6504.0899484,137
1660315252.4687,6504.0899542,144
1660315253.04062,6504.0899564,170
1660315253.04062,6504.0899585,196
1660315253.04062,6504.0899604,203
1660315253.04062,6504.0899623,200
1660315253.04062,6504.0899653,186
1660315253.04062,6504.0899761,163
1660315253.04062,6504.0899817,142
1660315253.04062,6504.0899918,123
1660315253.04062,6504.0900026,98
1660315253.04062,6504.0900134,65
1660315253.04062,6504.0900203,28
1660315253.04062,6504.0900315,-16
1660315253.04062,6504.0900381,-46
1660315253.04062,6504.0900404,-46
1660315253.04062,6504.0900424,-35
1660315253.04062,6504.0900444,-30
1660315253.04062,6504.0900464,-35
1660315253.04062,6504.0900484,-39
1660315253.04062,6504.0900503,-30
1660315253.04062,6504.0900523,-14
1660315253.04062,6504.0900543,-4
1660315253.04062,6504.0900563,-4
1660315253.04062,6504.0900583,2
1660315253.04062,6504.0900603,16
1660315253.04062,6504.0900623,28
1660315253.04062,6504.0900643,42
1660315253.04062,6504.0900662,51
1660315253.04062,6504.0900682,56
1660315253.04062,6504.0900702,70
1660315253.04062,6504.0900721,77
1660315253.04062,6504.090074,65
1660315253.04062,6504.0900766,63
1660315253.04062,6504.0900869,79
1660315253.04062,6504.0900947,88
1660315253.04062,6504.0900971,81
1660315253.04062,6504.0900992,74
1660315253.04062,6504.0901012,79
1660315253.04062,6504.0901039,79
1660315253.04062,6504.0901143,77
1660315253.04062,6504.0901218,93
1660315253.04062,6504.090125,105
1660315253.04062,6504.0901271,102
1660315253.04062,6504.0901292,100
1660315253.04062,6504.090139,105
1660315253.04062,6504.0901478,102
1660315253.04062,6504.0901562,88
1660315253.04062,6504.0901631,74
1660315253.04062,6504.0901742,67
1660315253.04062,6504.0901786,63
1660315253.04062,6504.0901805,58
1660315253.05108,6504.0901826,65
1660315253.05108,6504.0901879,81
1660315253.05108,6504.090199,88
1660315253.05108,6504.6730336,74
1660315253.05108,6504.6730549,46
1660315253.05108,6504.6730691,67
1660315253.05108,6504.673079,305
1660315253.05108,6504.6730863,752
1660315253.05108,6504.6730953,973
1660315253.05108,6504.6731017,523
1660315253.05108,6504.6731101,-161
1660315253.05108,6504.6731126,-231
1660315253.05108,6504.6731147,46
1660315253.05108,6504.6731168,51
1660315253.05108,6504.6731188,7
1660315253.05108,6504.6731209,65
1660315253.05108,6504.6731229,51
1660315253.05108,6504.6731248,23
1660315253.05108,6504.6731269,42
1660315253.05108,6504.6731299,42
1660315253.05108,6504.6731409,39
1660315253.05108,6504.6731482,63
1660315253.05108,6504.6731516,74
1660315253.05108,6504.6731537,70
1660315253.58617,6504.6731557,67
1660315253.58617,6504.6731577,58
1660315253.58617,6504.67316,74
1660315253.58617,6504.6731699,109
1660315253.58617,6504.6731792,128
1660315253.58617,6504.6731843,147
1660315253.58617,6504.6731883,170
1660315253.58617,6504.6731925,177
1660315253.58617,6504.6731976,172
1660315253.58617,6504.673202,170
1660315253.58617,6504.6732076,156
1660315253.58617,6504.6732128,133
1660315253.58617,6504.6732208,109
1660315253.58617,6504.6732298,86
1660315253.58617,6504.6732324,65
1660315253.58617,6504.6732374,49
1660315253.58617,6504.6732487,44
1660315253.58617,6504.6732524,39
1660315253.58617,6504.6732562,21
1660315253.58617,6504.6732582,2
1660315253.58617,6504.6732603,2
1660315253.58617,6504.6732623,9
1660315253.58617,6504.6732643,23
1660315253.58617,6504.6732685,39
1660315253.58617,6504.673277,44
1660315253.58617,6504.6732877,42
1660315253.58617,6504.6732904,53
1660315253.58617,6504.6732925,63
1660315253.58617,6504.6732945,58
1660315253.58617,6504.6732968,63
1660315253.58617,6504.6732993,77
1660315253.58617,6504.6733101,77
1660315253.58617,6504.6733229,77
1660315253.58617,6504.6733369,81
1660315253.58617,6504.6733499,67
1660315253.58617,6504.6733632,51
1660315253.58617,6504.6733774,70
1660315253.58617,6504.6733848,81
1660315253.58617,6504.673388,70
1660315253.58617,6504.673391,60
1660315253.58617,6504.6733939,67
1660315253.58617,6504.6733971,77
1660315253.58617,6504.6733999,72
1660315253.58617,6504.6734028,74
1660315253.58617,6504.6734058,91
1660315253.58617,6504.6734091,105
1660315253.58617,6504.6734121,105
1660315253.58617,6504.6734151,107
1660315253.58617,6504.6734179,123
1660315253.58617,6504.6734211,140
1660315253.60113,6504.6734242,128
1660315253.60113,6504.6734298,98
1660315253.60113,6505.2094282,91
1660315253.60113,6505.2094419,105
1660315253.60113,6505.2094454,102
1660315253.60113,6505.2094487,93
1660315253.60113,6505.2094518,98
1660315253.60113,6505.2094548,100
1660315253.60113,6505.2094572,74
1660315253.60113,6505.2094595,30
1660315253.60113,6505.2094633,98
1660315253.60113,6505.2094745,467
1660315253.60113,6505.2094819,973
1660315253.60113,6505.2094884,1018
1660315253.60113,6505.2094955,329
1660315253.60113,6505.2094989,-310
1660315253.60113,6505.2095059,-198
1660315253.60113,6505.2095123,46
1660315253.60113,6505.2095157,-16
1660315253.60113,6505.2095187,-39
1660315253.60113,6505.2095218,7
1660315253.60113,6505.2095247,-23
1660315253.60113,6505.2095276,-42
1660315253.60113,6505.2095305,-9
1660315254.11416,6505.2095342,11
1660315254.11416,6505.209541,21
1660315254.11416,6505.2095477,28
1660315254.11416,6505.2095545,35
1660315254.11416,6505.2095615,58
1660315254.11416,6505.2095655,86
1660315254.11416,6505.2095707,102
1660315254.11416,6505.2095763,123
1660315254.11416,6505.2095806,149
1660315254.11416,6505.2095837,168
1660315254.11416,6505.2095975,177
1660315254.11416,6505.2096106,189
1660315254.11416,6505.2096237,207
1660315254.11416,6505.2096371,207
1660315254.11416,6505.2096503,193
1660315254.11416,6505.2096636,177
1660315254.11416,6505.2096767,156
1660315254.11416,6505.2096899,130
1660315254.11416,6505.2097029,102
1660315254.11416,6505.2097164,70
1660315254.11416,6505.2097295,46
1660315254.11416,6505.2097424,28
1660315254.11416,6505.2097555,23
1660315254.11416,6505.2097684,28
1660315254.11416,6505.2097771,28
1660315254.11416,6505.2097795,16
1660315254.11416,6505.2097815,4
1660315254.11416,6505.2097836,4
1660315254.11416,6505.2097856,9
1660315254.11416,6505.2097876,16
1660315254.11416,6505.2097897,23
1660315254.11416,6505.2097917,32
1660315254.11416,6505.2097937,49
1660315254.11416,6505.2097956,63
1660315254.11416,6505.2097977,63
1660315254.11416,6505.2097997,67
1660315254.11416,6505.2098017,88
1660315254.11416,6505.2098036,95
1660315254.11416,6505.2098057,81
1660315254.11416,6505.2098076,74
1660315254.11416,6505.2098097,81
1660315254.11416,6505.2098117,91
1660315254.11416,6505.2098136,93
1660315254.11416,6505.2098156,91
1660315254.11416,6505.2098175,91
1660315254.11416,6505.2098195,95
1660315254.11416,6505.2098216,95
1660315254.11416,6505.2098236,86
1660315254.11416,6505.2098256,95
1660315254.11416,6505.2098276,119
1660315254.12513,6505.2098296,126
1660315254.12513,6505.7477967,126
1660315254.12513,6505.7478149,140
1660315254.12513,6505.747821,140
1660315254.12513,6505.7478249,119
1660315254.12513,6505.7478288,102
1660315254.12513,6505.7478355,100
1660315254.12513,6505.747842,98
1660315254.12513,6505.7478489,91
1660315254.12513,6505.7478553,81
1660315254.12513,6505.7478584,58
1660315254.12513,6505.7478623,44
1660315254.12513,6505.7478651,37
1660315254.12513,6505.7478681,-9
1660315254.12513,6505.7478718,35
1660315254.12513,6505.7478774,413
1660315254.12513,6505.7478825,920
1660315254.12513,6505.7478862,929
1660315254.12513,6505.74789,247
1660315254.12513,6505.7478934,-317
1660315254.12513,6505.7478964,-170
1660315254.12513,6505.7478993,58
1660315254.12513,6505.7479022,-25
1660315254.12513,6505.7479051,-49
1660315254.69882,6505.7479088,18
1660315254.69882,6505.747918,11
1660315254.69882,6505.7479428,-2
1660315254.69882,6505.7479497,18
1660315254.69882,6505.7479535,30
1660315254.69882,6505.7479589,35
1660315254.69882,6505.7479624,51
1660315254.69882,6505.7479676,67
1660315254.69882,6505.7479727,86
1660315254.69882,6505.7479765,107
1660315254.69882,6505.7479801,123
1660315254.69882,6505.7479837,128
1660315254.69882,6505.7479878,140
1660315254.69882,6505.7479917,170
1660315254.69882,6505.747995,193
1660315254.69882,6505.747999,203
1660315254.69882,6505.7480018,212
1660315254.69882,6505.7480059,210
1660315254.69882,6505.7480104,179
1660315254.69882,6505.7480157,154
1660315254.69882,6505.7480209,133
1660315254.69882,6505.7480246,102
1660315254.69882,6505.7480284,74
1660315254.69882,6505.7480324,51
1660315254.69882,6505.7480357,28
1660315254.69882,6505.7480388,16
1660315254.69882,6505.748045,9
1660315254.69882,6505.7480499,7
1660315254.69882,6505.7480529,14
1660315254.69882,6505.7480559,14
1660315254.69882,6505.7480586,-9
1660315254.69882,6505.7480615,-21
1660315254.69882,6505.7480643,11
1660315254.69882,6505.7480672,28
1660315254.69882,6505.7480701,28
1660315254.69882,6505.7480737,46
1660315254.69882,6505.7480768,63
1660315254.69882,6505.7480799,70
1660315254.69882,6505.7480829,79
1660315254.69882,6505.748086,84
1660315254.69882,6505.7480887,86
1660315254.69882,6505.7480919,88
1660315254.69882,6505.7480952,88
1660315254.69882,6505.7481733,81
1660315254.69882,6505.7481802,77
1660315254.69882,6505.7481837,86
1660315254.69882,6505.7482312,93
1660315254.69882,6505.7482376,86
1660315254.69882,6505.7482421,79
1660315254.69882,6505.748249,74
1660315254.70979,6506.3328377,70
1660315254.70979,6506.3328569,81
1660315254.70979,6506.3328698,102
1660315254.70979,6506.332874,109
1660315254.70979,6506.3328762,109
1660315254.70979,6506.3328783,105
1660315254.70979,6506.3328804,93
1660315254.70979,6506.3328825,81
1660315254.70979,6506.3328845,65
1660315254.70979,6506.3328866,42
1660315254.70979,6506.3328886,46
1660315254.70979,6506.3328906,49
1660315254.70979,6506.3328926,23
1660315254.70979,6506.3328946,11
1660315254.70979,6506.3328967,28
1660315254.70979,6506.3328992,25
1660315254.70979,6506.3329069,-21
1660315254.70979,6506.3329178,-37
1660315254.70979,6506.3329228,182
1660315254.70979,6506.3329249,670
1660315254.70979,6506.3329278,950
1660315254.70979,6506.3329298,499
1660315254.70979,6506.332937,-217
1660315254.70979,6506.3329479,-291
1660315255.33184,6506.3329525,0
1660315255.33184,6506.3329555,-7
1660315255.33184,6506.3329575,-79
1660315255.33184,6506.3329598,-14
1660315255.33184,6506.3329679,-4
1660315255.33184,6506.3329766,-30
1660315255.33184,6506.3329793,-7
1660315255.33184,6506.3329813,7
1660315255.33184,6506.3329833,4
1660315255.33184,6506.3329852,2
1660315255.33184,6506.3329871,-2
1660315255.33184,6506.3329893,18
1660315255.33184,6506.3329972,44
1660315255.33184,6506.3330049,51
1660315255.33184,6506.3330129,70
1660315255.33184,6506.3330161,98
1660315255.33184,6506.3330182,116
1660315255.33184,6506.3330202,137
1660315255.33184,6506.3330223,165
1660315255.33184,6506.3330248,177
1660315255.33184,6506.3330348,170
1660315255.33184,6506.3330419,161
1660315255.33184,6506.3330443,140
1660315255.33184,6506.3330521,116
1660315255.33184,6506.3330627,100
1660315255.33184,6506.333066,72
1660315255.33184,6506.3330689,32
1660315255.33184,6506.3330717,2
1660315255.33184,6506.3330798,-7
1660315255.33184,6506.3330902,-7
1660315255.33184,6506.3330936,-16
1660315255.33184,6506.3330964,-23
1660315255.33184,6506.3330992,-16
1660315255.33184,6506.3331058,-7
1660315255.33184,6506.3331168,-14
1660315255.33184,6506.3331214,-14
1660315255.33184,6506.3331243,-2
1660315255.33184,6506.3331263,7
1660315255.33184,6506.3331284,11
1660315255.33184,6506.3331305,14
1660315255.33184,6506.3331324,23
1660315255.33184,6506.3331345,42
1660315255.33184,6506.3331364,46
1660315255.33184,6506.3331384,46
1660315255.33184,6506.3331404,65
1660315255.33184,6506.3331426,67
1660315255.33184,6506.3331446,46
1660315255.33184,6506.3331467,42
1660315255.33184,6506.3331487,53
1660315255.33184,6506.9669203,63
1660315255.34281,6506.9669397,70
1660315255.34281,6506.9669482,65
1660315255.34281,6506.9669584,49
1660315255.34281,6506.9669652,51
1660315255.34281,6506.9669784,74
1660315255.34281,6506.9669889,86
1660315255.34281,6506.9669984,84
1660315255.34281,6506.9670107,79
1660315255.34281,6506.9670238,63
1660315255.34281,6506.967038,63
1660315255.34281,6506.9670512,70
1660315255.34281,6506.9670649,42
1660315255.34281,6506.9670767,23
1660315255.34281,6506.96709,42
1660315255.34281,6506.9671045,30
1660315255.34281,6506.9671187,-2
1660315255.34281,6506.9671331,-4
1660315255.34281,6506.9671456,11
1660315255.34281,6506.9671539,14
1660315255.34281,6506.9671587,-28
1660315255.34281,6506.9671649,-32
1660315255.34281,6506.9671697,221
1660315255.34281,6506.9671758,691
1660315255.34281,6506.9671805,852
1660315255.81967,6506.9671863,298
1660315255.81967,6506.9671904,-357
1660315255.81967,6506.9671943,-298
1660315255.81967,6506.9671981,-9
1660315255.81967,6506.9672018,-58
1660315255.81967,6506.9672059,-100
1660315255.81967,6506.9672127,-14
1660315255.81967,6506.9672181,-11
1660315255.81967,6506.9672217,-46
1660315255.81967,6506.9672249,-30
1660315255.81967,6506.9672301,-21
1660315255.81967,6506.9672364,-18
1660315255.81967,6506.9672429,9
1660315255.81967,6506.9672468,39
1660315255.81967,6506.9672498,39
1660315255.81967,6506.9672526,42
1660315255.81967,6506.9672555,67
1660315255.81967,6506.9672584,98
1660315255.81967,6506.9672613,114
1660315255.81967,6506.9672642,130
1660315255.81967,6506.9672671,151
1660315255.81967,6506.9672707,163
1660315255.81967,6506.9672758,177
1660315255.81967,6506.9672788,182
1660315255.81967,6506.9672817,163
1660315255.81967,6506.9672848,140
1660315255.81967,6506.9672878,123
1660315255.81967,6506.9672906,98
1660315255.81967,6506.9672935,72
1660315255.81967,6506.9672964,46
1660315255.81967,6506.9672992,23
1660315255.81967,6506.967302,11
1660315255.81967,6506.9673049,4
1660315255.81967,6506.9673079,2
1660315255.81967,6506.9673108,0
1660315255.81967,6506.9673138,-4
1660315255.81967,6506.9673166,-2
1660315255.81967,6506.9673195,9
1660315255.81967,6506.9673224,16
1660315255.81967,6506.9673253,14
1660315255.81967,6506.9673281,18
1660315255.81967,6506.967331,30
1660315255.81967,6506.9673338,49
1660315255.81967,6506.9673367,63
1660315255.81967,6506.9673396,60
1660315255.81967,6506.9673424,60
1660315255.81967,6506.9673453,70
1660315255.81967,6506.9673482,77
1660315255.81967,6507.452351,81
1660315255.81967,6507.4523709,86
1660315255.82965,6507.4523812,84
1660315255.82965,6507.4523913,86
1660315255.82965,6507.452398,91
1660315255.82965,6507.4524049,86
1660315255.82965,6507.4524092,79
1660315255.82965,6507.4524149,77
1660315255.82965,6507.4524191,74
1660315255.82965,6507.4524655,81
1660315255.82965,6507.4525186,95
1660315255.82965,6507.4525268,93
1660315255.82965,6507.4525305,74
1660315255.82965,6507.4525341,70
1660315255.82965,6507.4525377,63
1660315255.82965,6507.4525413,37
1660315255.82965,6507.4525448,30
1660315255.82965,6507.4525482,49
1660315255.82965,6507.452552,42
1660315255.82965,6507.4525572,23
1660315255.82965,6507.4525617,32
1660315255.82965,6507.4525652,46
1660315255.82965,6507.4525681,30
1660315255.82965,6507.4525711,-23
1660315255.82965,6507.4525739,21
1660315255.82965,6507.4525769,350
1660315256.40157,6507.4525799,791
1660315256.40157,6507.4525828,805
1660315256.40157,6507.4525859,196
1660315256.40157,6507.452589,-308
1660315256.40157,6507.452592,-161
1660315256.40157,6507.4525949,30
1660315256.40157,6507.4525977,-39
1660315256.40157,6507.4526009,-28
1660315256.40157,6507.452604,30
1660315256.40157,6507.4526071,4
1660315256.40157,6507.4526106,-4
1660315256.40157,6507.4526139,16
1660315256.40157,6507.4526235,11
1660315256.40157,6507.452632,2
1660315256.40157,6507.4526369,14
1660315256.40157,6507.4526409,32
1660315256.40157,6507.4526447,53
1660315256.40157,6507.4526485,60
1660315256.40157,6507.452652,70
1660315256.40157,6507.4526559,93
1660315256.40157,6507.4526596,119
1660315256.40157,6507.4526631,140
1660315256.40157,6507.4526665,161
1660315256.40157,6507.45267,175
1660315256.40157,6507.4526736,175
1660315256.40157,6507.4526771,168
1660315256.40157,6507.4526816,163
1660315256.40157,6507.4526854,149
1660315256.40157,6507.4526903,123
1660315256.40157,6507.4526941,98
1660315256.40157,6507.4526988,65
1660315256.40157,6507.4527031,35
1660315256.40157,6507.4527075,23
1660315256.40157,6507.452712,16
1660315256.40157,6507.4527158,11
1660315256.40157,6507.4527202,11
1660315256.40157,6507.4527251,2
1660315256.40157,6507.4527295,-4
1660315256.40157,6507.452733,7
1660315256.40157,6507.4527379,21
1660315256.40157,6507.4527424,25
1660315256.40157,6507.4527518,28
1660315256.40157,6507.4527589,32
1660315256.40157,6507.4527652,42
1660315256.40157,6507.4527717,49
1660315256.40157,6507.4527757,49
1660315256.40157,6507.4527819,46
1660315256.40157,6508.0369221,53
1660315256.40157,6508.0369348,63
1660315256.40157,6508.0369389,60
1660315256.41254,6508.0369411,65
1660315256.41254,6508.0369433,77
1660315256.41254,6508.0369454,79
1660315256.41254,6508.0369475,79
1660315256.41254,6508.0369501,79
1660315256.41254,6508.0369522,58
1660315256.41254,6508.0369542,32
1660315256.41254,6508.0369561,28
1660315256.41254,6508.0369581,32
1660315256.41254,6508.0369601,28
1660315256.41254,6508.0369621,32
1660315256.41254,6508.036964,39
1660315256.41254,6508.036966,30
1660315256.41254,6508.0369679,30
1660315256.41254,6508.0369699,39
1660315256.41254,6508.0369719,21
1660315256.41254,6508.0369741,-4
1660315256.41254,6508.0369761,4
1660315256.41254,6508.0369786,18
1660315256.41254,6508.0369852,11
1660315256.41254,6508.0369965,16
1660315256.41254,6508.0370014,32
1660315256.41254,6508.0370035,35
1660315256.41254,6508.0370056,-7
1660315256.93764,6508.0370076,-30
1660315256.93764,6508.0370096,198

1660315256.93764,6508.0370114,698
1660315256.93764,6508.0370167,987
1660315256.93764,6508.0370266,560
1660315256.93764,6508.0370316,-172
1660315256.93764,6508.0370337,-287
1660315256.93764,6508.0370357,18
1660315256.93764,6508.0370396,46
1660315256.93764,6508.0370441,-25
1660315256.93764,6508.0370488,32
1660315256.93764,6508.0370586,51
1660315256.93764,6508.0370725,23
1660315256.93764,6508.0370808,35
1660315256.93764,6508.0370832,46
1660315256.93764,6508.0370852,42
1660315256.93764,6508.0370904,46
1660315256.93764,6508.0371017,63
1660315256.93764,6508.0371067,81
1660315256.93764,6508.0371089,93
1660315256.93764,6508.037111,102
1660315256.93764,6508.037113,116
1660315256.93764,6508.037115,137
1660315256.93764,6508.0371178,161
1660315256.93764,6508.0371286,186
1660315256.93764,6508.0371357,200
1660315256.93764,6508.037138,198
1660315256.93764,6508.0371401,198
1660315256.93764,6508.0371423,193
1660315256.93764,6508.0371525,175
1660315256.93764,6508.0371602,151
1660315256.93764,6508.0371626,133
1660315256.93764,6508.0371646,107
1660315256.93764,6508.0371677,72
1660315256.93764,6508.0371805,49
1660315256.93764,6508.0371861,37
1660315256.93764,6508.0371888,16
1660315256.93764,6508.0371908,7
1660315256.93764,6508.0371928,14
1660315256.93764,6508.0372112,11
1660315256.93764,6508.0372157,7
1660315256.93764,6508.0372188,14
1660315256.93764,6508.0372208,25
1660315256.93764,6508.037226,35
1660315256.93764,6508.0372372,42
1660315256.93764,6508.0372425,46
1660315256.93764,6508.5740046,51
1660315256.93764,6508.5740219,63
1660315256.93764,6508.5740275,77
1660315256.93764,6508.5740339,72
1660315256.94715,6508.5740379,58
1660315256.94715,6508.5740428,58
1660315256.94715,6508.5740469,60
1660315256.94715,6508.5740501,58
1660315256.94715,6508.5740533,65
1660315256.94715,6508.574058,72
1660315256.94715,6508.5740638,74
1660315256.94715,6508.5740683,58
1660315256.94715,6508.5740724,32
1660315256.94715,6508.5740779,25
1660315256.94715,6508.5740911,44
1660315256.94715,6508.574101,65
1660315256.94715,6508.5741093,79
1660315256.94715,6508.5741138,77
1660315256.94715,6508.5741215,58
1660315256.94715,6508.5741615,51
1660315256.94715,6508.5741758,58
1660315256.94715,6508.5741863,42
1660315256.94715,6508.5741943,11
1660315256.94715,6508.5742004,11
1660315256.94715,6508.5742078,23
1660315256.94715,6508.5742154,23
1660315256.94715,6508.5742235,35
1660315256.94715,6508.5742293,46
1660315257.47315,6508.5742343,37
1660315257.47315,6508.5742414,-16
1660315257.47315,6508.5742486,-11
1660315257.47315,6508.5742559,287
1660315257.47315,6508.5742656,810
1660315257.47315,6508.5742722,980
1660315257.47315,6508.5742827,401
1660315257.47315,6508.5742887,-249
1660315257.47315,6508.5742937,-184
1660315257.47315,6508.5742995,84
1660315257.47315,6508.5743068,35
1660315257.47315,6508.5743136,9
1660315257.47315,6508.5743183,88
1660315257.47315,6508.574325,84
1660315257.47315,6508.5743315,58
1660315257.47315,6508.5743387,81
1660315257.47315,6508.574342,93
1660315257.47315,6508.5743481,91
1660315257.47315,6508.5743534,102
1660315257.47315,6508.5743595,114
1660315257.47315,6508.5743634,116
1660315257.47315,6508.5743666,123
1660315257.47315,6508.5743731,137
1660315257.47315,6508.574381,154
1660315257.47315,6508.5744113,175
1660315257.47315,6508.5744237,193
1660315257.47315,6508.5744308,198
1660315257.47315,6508.5744365,203
1660315257.47315,6508.5744396,210
1660315257.47315,6508.5744426,205
1660315257.47315,6508.5744487,193
1660315257.47315,6508.5744539,175
1660315257.47315,6508.5744572,144
1660315257.47315,6508.5744603,123
1660315257.47315,6508.5744633,98
1660315257.47315,6508.5744663,70
1660315257.47315,6508.5744694,53
1660315257.47315,6508.5744757,42
1660315257.47315,6508.574481,30
1660315257.47315,6508.5745543,28
1660315257.47315,6508.5745597,25
1660315257.47315,6508.5745623,14
1660315257.47315,6508.5745652,9
1660315257.47315,6508.5745677,18
1660315257.47315,6508.5745702,21
1660315257.47315,6509.1095094,25
1660315257.47315,6509.1095307,39
1660315257.47315,6509.1095463,49
1660315257.47315,6509.1095611,53
1660315257.47315,6509.1095753,65
1660315257.48911,6509.1095894,74
1660315257.48911,6509.1096049,74
1660315257.48911,6509.1096183,74
1660315257.48911,6509.109632,70
1660315257.48911,6509.1096439,51
1660315257.48911,6509.1096573,46
1660315257.48911,6509.109668,53
1660315257.48911,6509.1096737,60
1660315257.48911,6509.1096768,58
1660315257.48911,6509.1096789,42
1660315257.48911,6509.1096808,16
1660315257.48911,6509.1096828,4
1660315257.48911,6509.1096847,23
1660315257.48911,6509.1096868,46
1660315257.48911,6509.1096893,58
1660315257.48911,6509.1096965,65
1660315257.48911,6509.1097071,77
1660315257.48911,6509.1097114,81
1660315257.48911,6509.1097135,70
1660315257.48911,6509.1097157,51
1660315257.48911,6509.1097177,46
1660315257.48911,6509.1097197,58
1660315257.48911,6509.1097217,60
1660315257.48911,6509.1097238,60
1660315258.06595,6509.1097304,70
1660315258.06595,6509.1097402,74
1660315258.06595,6509.1097439,58
1660315258.06595,6509.1097487,11
1660315258.06595,6509.1097595,81
1660315258.06595,6509.1097713,464
1660315258.06595,6509.1097833,934
1660315258.06595,6509.1097989,885
1660315258.06595,6509.1098077,198
1660315258.06595,6509.1098103,-263
1660315258.06595,6509.109813,-51
1660315258.06595,6509.1098228,126
1660315258.06595,6509.1098316,32
1660315258.06595,6509.1098341,49
1660315258.06595,6509.1098362,114
1660315258.06595,6509.1098383,88
1660315258.06595,6509.109843,70
1660315258.06595,6509.1098548,93
1660315258.06595,6509.1098602,95
1660315258.06595,6509.1098634,98
1660315258.06595,6509.1098655,112
1660315258.06595,6509.1098675,121
1660315258.06595,6509.1098705,128
1660315258.06595,6509.1098835,140
1660315258.06595,6509.1098896,147
1660315258.06595,6509.1098919,163
1660315258.06595,6509.1098939,184
1660315258.06595,6509.10991,203
1660315258.06595,6509.1099202,219
1660315258.06595,6509.1099248,228
1660315258.06595,6509.1099287,221
1660315258.06595,6509.1099319,212
1660315258.06595,6509.1099348,200
1660315258.06595,6509.1099378,163
1660315258.06595,6509.1099406,123
1660315258.06595,6509.1099436,102
1660315258.06595,6509.1099465,77
1660315258.06595,6509.1099493,42
1660315258.06595,6509.1099521,28
1660315258.06595,6509.109955,25
1660315258.06595,6509.1099577,18
1660315258.06595,6509.1099606,16
1660315258.06595,6509.1099634,14
1660315258.06595,6509.1099662,11
1660315258.06595,6509.6965644,14
1660315258.06595,6509.6965856,28
1660315258.06595,6509.6965948,39
1660315258.06595,6509.6965974,35
1660315258.06595,6509.6965994,23
1660315258.06595,6509.6966014,11
1660315258.07791,6509.6966034,9
1660315258.07791,6509.6966054,23
1660315258.07791,6509.6966074,35
1660315258.07791,6509.6966093,35
1660315258.07791,6509.6966114,37
1660315258.07791,6509.6966134,32
1660315258.07791,6509.6966154,21
1660315258.07791,6509.6966174,21
1660315258.07791,6509.6966201,32
1660315258.07791,6509.6966278,37
1660315258.07791,6509.6966386,37
1660315258.07791,6509.696642,35
1660315258.07791,6509.696645,28
1660315258.07791,6509.6966478,35
1660315258.07791,6509.6966506,58
1660315258.07791,6509.6966541,72
1660315258.07791,6509.6966671,79
1660315258.07791,6509.6966732,95
1660315258.07791,6509.6966754,105
1660315258.07791,6509.6966775,98
1660315258.07791,6509.6966795,77
1660315258.07791,6509.6966822,63
1660315258.07791,6509.6966926,67
1660315258.07791,6509.6967002,77
1660315258.78812,6509.6967027,77
1660315258.78812,6509.6967047,77
1660315258.78812,6509.6967066,86
1660315258.78812,6509.6967111,88
1660315258.78812,6509.6967184,56
1660315258.78812,6509.6967295,25
1660315258.78812,6509.6967394,205
1660315258.78812,6509.6967467,667
1660315258.78812,6509.6967536,990
1660315258.78812,6509.6967606,630
1660315258.78812,6509.6967668,-77
1660315258.78812,6509.6967704,-210
1660315258.78812,6509.6967738,81
1660315258.78812,6509.6967775,98
1660315258.78812,6509.6967811,14
1660315258.78812,6509.6967869,81
1660315258.78812,6509.6967915,107
1660315258.78812,6509.6968022,72
1660315258.78812,6509.6968066,91
1660315258.78812,6509.6968108,112
1660315258.78812,6509.6968128,102
1660315258.78812,6509.6968149,116
1660315258.78812,6509.6968169,142
1660315258.78812,6509.6968189,149
1660315258.78812,6509.6968209,142
1660315258.78812,6509.6968229,133
1660315258.78812,6509.6968249,137
1660315258.78812,6509.6968269,156
1660315258.78812,6509.6968288,172
1660315258.78812,6509.6968308,184
1660315258.78812,6509.6968328,198
1660315258.78812,6509.6968349,205
1660315258.78812,6509.6968369,198
1660315258.78812,6509.6968389,186
1660315258.78812,6509.6968408,172
1660315258.78812,6509.6968428,149
1660315258.78812,6509.6968447,123
1660315258.78812,6509.6968468,100
1660315258.78812,6509.6968488,65
1660315258.78812,6509.6968517,23
1660315258.78812,6509.6968537,2
1660315258.78812,6509.6968564,4
1660315258.78812,6509.6968584,2
1660315258.78812,6510.4266035,-4
1660315258.78812,6510.4266265,-7
1660315258.78812,6510.4266425,-4
1660315258.78812,6510.4266544,0
1660315258.78812,6510.4266579,4
1660315258.78812,6510.4266601,7
1660315258.78812,6510.4266621,23
1660315258.80108,6510.4266642,37
1660315258.80108,6510.4266662,18
1660315258.80108,6510.4266682,-7
1660315258.80108,6510.4266702,0
1660315258.80108,6510.4266722,25
1660315258.80108,6510.4266742,35
1660315258.80108,6510.4266763,32
1660315258.80108,6510.4266782,35
1660315258.80108,6510.4266802,32
1660315258.80108,6510.4266823,25
1660315258.80108,6510.4266842,37
1660315258.80108,6510.4266862,49
1660315258.80108,6510.4266882,44
1660315258.80108,6510.4266902,32
1660315258.80108,6510.4266922,28
1660315258.80108,6510.4266942,28
1660315258.80108,6510.4266963,37
1660315258.80108,6510.4266982,42
1660315258.80108,6510.4267002,44
1660315258.80108,6510.4267022,63
1660315258.80108,6510.4267042,67
1660315258.80108,6510.4267062,44
1660315258.80108,6510.4267081,30
1660315258.80108,6510.42671,32
1660315259.2268,6510.426712,39
1660315259.2268,6510.426714,35
1660315259.2268,6510.4267158,30
1660315259.2268,6510.4267176,42
1660315259.2268,6510.4267195,58
1660315259.2268,6510.4267214,49
1660315259.2268,6510.4267232,23
1660315259.2268,6510.4267251,119
1660315259.2268,6510.426727,471
1660315259.2268,6510.4267304,864
1660315259.2268,6510.4267389,740
1660315259.2268,6510.4267439,51
1660315259.2268,6510.4267478,-301
1660315259.2268,6510.4267519,-35
1660315259.2268,6510.4267573,93
1660315259.2268,6510.4267616,0
1660315259.2268,6510.4267673,37
1660315259.2268,6510.4267767,72
1660315259.2268,6510.4267824,35
1660315259.2268,6510.4267932,49
1660315259.2268,6510.4268012,79
1660315259.2268,6510.4268037,74
1660315259.2268,6510.4268058,81
1660315259.2268,6510.4268142,107
1660315259.2268,6510.4268249,114
1660315259.2268,6510.4268283,119
1660315259.2268,6510.4268317,137
1660315259.2268,6510.4268416,149
1660315259.2268,6510.4268502,149
1660315259.2268,6510.4268526,161
1660315259.2268,6510.4268547,175
1660315259.2268,6510.4268587,184
1660315259.2268,6510.426861,193
1660315259.2268,6510.426863,196
1660315259.2268,6510.4268651,186
1660315259.2268,6510.4268681,168
1660315259.2268,6510.4268771,149
1660315259.2268,6510.426884,126
1660315259.2268,6510.4268894,98
1660315259.2268,6510.4268959,74
1660315259.2268,6510.4269049,46
1660315259.2268,6510.4269118,28
1660315259.2268,6510.8653142,18
1660315259.2268,6510.8653325,7
1660315259.2268,6510.8653405,0
1660315259.2268,6510.8653462,7
1660315259.2268,6510.8653521,9
1660315259.2268,6510.8653562,11
1660315259.2268,6510.865362,18
1660315259.2268,6510.8653661,23
1660315259.23777,6510.865373,23
1660315259.23777,6510.8653774,28
1660315259.23777,6510.8653807,39
1660315259.23777,6510.8653841,42
1660315259.23777,6510.8653872,49
1660315259.23777,6510.865393,58
1660315259.23777,6510.865396,58
1660315259.23777,6510.8654008,58
1660315259.23777,6510.8654062,70
1660315259.23777,6510.8654092,79
1660315259.23777,6510.8654126,70
1660315259.23777,6510.865416,58
1660315259.23777,6510.8654191,60
1660315259.23777,6510.8654221,70
1660315259.23777,6510.8654279,65
1660315259.23777,6510.8654325,53
1660315259.23777,6510.8654382,44
1660315259.23777,6510.8654423,37
1660315259.23777,6510.8654475,46
1660315259.23777,6510.865451,63
1660315259.23777,6510.8654545,72
1660315259.23777,6510.8654599,77
1660315259.23777,6510.8654631,72
1660315259.23777,6510.8654663,44
1660315259.768,6510.8654714,32
1660315259.768,6510.8654745,44
1660315259.768,6510.8654776,53
1660315259.768,6510.8654806,56
1660315259.768,6510.8654837,56
1660315259.768,6510.865487,42
1660315259.768,6510.8654905,-2
1660315259.768,6510.8654938,-70
1660315259.768,6510.8654967,-25
1660315259.768,6510.8654999,338
1660315259.768,6510.865503,817
1660315259.768,6510.8655062,826
1660315259.768,6510.865511,184
1660315259.768,6510.8655145,-319
1660315259.768,6510.8655182,-137
1660315259.768,6510.8655258,77
1660315259.768,6510.8655294,-2
1660315259.768,6510.8655337,2
1660315259.768,6510.8655464,63
1660315259.768,6510.865555,32
1660315259.768,6510.8655597,16
1660315259.768,6510.8655708,46
1660315259.768,6510.8655757,65
1660315259.768,6510.865579,70
1660315259.768,6510.8655834,77
1660315259.768,6510.8655883,93
1660315259.768,6510.865594,109
1660315259.768,6510.8655973,119
1660315259.768,6510.8656024,128
1660315259.768,6510.8656056,142
1660315259.768,6510.8656106,154
1660315259.768,6510.8656182,165
1660315259.768,6510.8656248,175
1660315259.768,6510.8656439,179
1660315259.768,6510.8656547,189
1660315259.768,6510.865664,189
1660315259.768,6510.8656714,168
1660315259.768,6510.8656766,137
1660315259.768,6510.8656863,116
1660315259.768,6510.8656927,102
1660315259.768,6510.8657039,77
1660315259.768,6511.4020097,44
1660315259.768,6511.4020362,21
1660315259.768,6511.4020421,11
1660315259.768,6511.4020462,4
1660315259.768,6511.4020505,7
1660315259.768,6511.4020553,16
1660315259.768,6511.4021466,9
1660315259.768,6511.4021535,4
1660315259.768,6511.40216,11
1660315259.77897,6511.4021647,14
1660315259.77897,6511.4021688,11
1660315259.77897,6511.4021726,25
1660315259.77897,6511.4021766,37
1660315259.77897,6511.4021804,32
1660315259.77897,6511.4021844,28
1660315259.77897,6511.4021884,16
1660315259.77897,6511.4021925,16
1660315259.77897,6511.4021967,37
1660315259.77897,6511.402201,39
1660315259.77897,6511.4022059,30
1660315259.77897,6511.4022127,28
1660315259.77897,6511.4022938,16
1660315259.77897,6511.4023049,-4
1660315259.77897,6511.4023099,-4
1660315259.77897,6511.4023145,7
1660315259.77897,6511.402319,23
1660315259.77897,6511.4023236,32
1660315259.77897,6511.4023806,39
1660315259.77897,6511.4024027,42
1660315259.77897,6511.4024131,49
1660315259.77897,6511.4024186,63
1660315259.77897,6511.4024232,60
1660315259.77897,6511.4024293,30
1660315260.35376,6511.4024325,9
1660315260.35376,6511.4024356,14
1660315260.35376,6511.4024385,21
1660315260.35376,6511.4024413,16
1660315260.35376,6511.4024439,21
1660315260.35376,6511.4024468,44
1660315260.35376,6511.4024512,49
1660315260.35376,6511.4024554,-9
1660315260.35376,6511.4024601,-56
1660315260.35376,6511.4024663,135
1660315260.35376,6511.4024734,611
1660315260.35376,6511.4024808,924
1660315260.35376,6511.4024849,544
1660315260.35376,6511.4024893,-163
1660315260.35376,6511.4024933,-277
1660315260.35376,6511.4024971,42
1660315260.35376,6511.4025009,84
1660315260.35376,6511.4025047,11
1660315260.35376,6511.4025084,88
1660315260.35376,6511.4025118,109
1660315260.35376,6511.4025154,51
1660315260.35376,6511.4025188,60
1660315260.35376,6511.4025223,100
1660315260.35376,6511.4025257,105
1660315260.35376,6511.4025293,102
1660315260.35376,6511.4025327,114
1660315260.35376,6511.4025362,128
1660315260.35376,6511.4025396,144
1660315260.35376,6511.4025431,163
1660315260.35376,6511.4025469,179
1660315260.35376,6511.4025526,193
1660315260.35376,6511.4025561,212
1660315260.35376,6511.4025595,228
1660315260.35376,6511.4025629,233
1660315260.35376,6511.4025665,221
1660315260.35376,6511.4025702,203
1660315260.35376,6511.4025754,193
1660315260.35376,6511.402579,184
1660315260.35376,6511.402584,161
1660315260.35376,6511.4025942,123
1660315260.35376,6511.9867838,84
1660315260.35376,6511.9868079,53
1660315260.35376,6511.9868208,37
1660315260.35376,6511.9868283,23
1660315260.35376,6511.9868345,2
1660315260.35376,6511.9868432,-9
1660315260.35376,6511.9868499,-11
1660315260.35376,6511.9868586,-16
1660315260.35376,6511.9868653,-14
1660315260.35376,6511.9868734,-7
1660315260.36643,6511.9868804,4
1660315260.36643,6511.9868888,-2
1660315260.36643,6511.9868938,-25
1660315260.36643,6511.9868999,-18
1660315260.36643,6511.9869062,2
1660315260.36643,6511.9869141,7
1660315260.36643,6511.9869195,11
1660315260.36643,6511.9869272,9
1660315260.36643,6511.9869339,-9
1660315260.36643,6511.9869402,-9
1660315260.36643,6511.986946,7
1660315260.36643,6511.9869535,16
1660315260.36643,6511.986961,16
1660315260.36643,6511.9869674,7
1660315260.36643,6511.9869754,-14
1660315260.36643,6511.9869814,-25
1660315260.36643,6511.9869879,-14
1660315260.36643,6511.9869922,7
1660315260.36643,6511.9869989,23
1660315260.36643,6511.987005,32
1660315260.36643,6511.9870128,35
1660315260.36643,6511.9870194,42
1660315260.36643,6511.9870297,42
1660315260.36643,6511.9870402,21
1660315260.84218,6511.9870506,2
1660315260.84218,6511.9870541,21
1660315260.84218,6511.9870569,56
1660315260.84218,6511.9870597,58
1660315260.84218,6511.9870624,21
1660315260.84218,6511.9870652,9
1660315260.84218,6511.9870679,30
1660315260.84218,6511.9870709,-11
1660315260.84218,6511.9870748,-81
1660315260.84218,6511.9870816,67
1660315260.84218,6511.9870864,520
1660315260.84218,6511.9870905,896
1660315260.84218,6511.9871027,660
1660315260.84218,6511.9871089,-32
1660315260.84218,6511.9871119,-275
1660315260.84218,6511.987114,11
1660315260.84218,6511.9871206,107
1660315260.84218,6511.9871316,35
1660315260.84218,6511.9871346,100
1660315260.84218,6511.9871367,140
1660315260.84218,6511.9871388,100
1660315260.84218,6511.9871408,109
1660315260.84218,6511.9871428,130
1660315260.84218,6511.9871448,121
1660315260.84218,6511.9871469,123
1660315260.84218,6511.9871489,137
1660315260.84218,6511.9871509,149
1660315260.84218,6511.9871529,165
1660315260.84218,6511.9871551,179
1660315260.84218,6511.9871574,193
1660315260.84218,6511.9871595,203
1660315260.84218,6511.9871615,214
1660315260.84218,6511.9871636,231
1660315260.84218,6511.9871723,238
1660315260.84218,6511.9871743,231
1660315260.84218,6511.9871763,217
1660315260.84218,6511.9871783,198
1660315260.84218,6511.9871804,179
1660315260.84218,6511.9871824,161
1660315260.84218,6512.4733678,135
1660315260.84218,6512.4733844,102
1660315260.84218,6512.4733877,72
1660315260.84218,6512.4733905,42
1660315260.84218,6512.4733929,18
1660315260.84218,6512.4733951,4
1660315260.84218,6512.4733973,2
1660315260.84218,6512.4733996,-2
1660315260.84218,6512.4734018,-21
1660315260.84218,6512.4734039,-39
1660315260.84218,6512.4734061,-39
1660315260.85414,6512.4734085,-32
1660315260.85414,6512.4734107,-30
1660315260.85414,6512.4734129,-21
1660315260.85414,6512.473415,-11
1660315260.85414,6512.4734173,-11
1660315260.85414,6512.4734195,-11
1660315260.85414,6512.4734217,-4
1660315260.85414,6512.473424,4
1660315260.85414,6512.4734261,14
1660315260.85414,6512.4734282,11
1660315260.85414,6512.4734303,-7
1660315260.85414,6512.4734331,-21
1660315260.85414,6512.4734353,-25
1660315260.85414,6512.4734376,-30
1660315260.85414,6512.4734397,-30
1660315260.85414,6512.4734419,-16
1660315260.85414,6512.4734441,-7
1660315260.85414,6512.4734463,0
1660315260.85414,6512.4734485,9
1660315260.85414,6512.4734507,23
1660315260.85414,6512.4734528,42
1660315260.85414,6512.4734549,53
1660315260.85414,6512.4734569,39
1660315260.85414,6512.473459,9
1660315261.42034,6512.473461,-4
1660315261.42034,6512.4734631,11
1660315261.42034,6512.4734652,28
1660315261.42034,6512.4734673,28
1660315261.42034,6512.4734693,28
1660315261.42034,6512.4734712,35
1660315261.42034,6512.4734731,25
1660315261.42034,6512.4734751,-14
1660315261.42034,6512.4734771,18
1660315261.42034,6512.4734792,296
1660315261.42034,6512.4734813,728
1660315261.42034,6512.4734847,801
1660315261.42034,6512.4734869,226
1660315261.42034,6512.473489,-284
1660315261.42034,6512.4734912,-128
1660315261.42034,6512.4734934,91
1660315261.42034,6512.4734955,32
1660315261.42034,6512.4734976,46
1660315261.42034,6512.4734999,102
1660315261.42034,6512.473502,79
1660315261.42034,6512.4735041,74
1660315261.42034,6512.4735062,93
1660315261.42034,6512.4735083,100
1660315261.42034,6512.4735104,109
1660315261.42034,6512.4735126,105
1660315261.42034,6512.4735148,105
1660315261.42034,6512.473517,130
1660315261.42034,6512.4735191,156
1660315261.42034,6512.4735212,168
1660315261.42034,6512.4735234,172
1660315261.42034,6512.4735256,184
1660315261.42034,6512.4735279,200
1660315261.42034,6512.47353,217
1660315261.42034,6512.4735322,224
1660315261.42034,6512.4735343,219
1660315261.42034,6512.4735365,205
1660315261.42034,6512.4735386,175
1660315261.42034,6512.4735412,137
1660315261.42034,6513.059691,107
1660315261.42034,6513.0597063,84
1660315261.42034,6513.0597105,49
1660315261.42034,6513.0597142,11
1660315261.42034,6513.0597178,-28
1660315261.42034,6513.0597213,-63
1660315261.42034,6513.0597247,-74
1660315261.42034,6513.0597282,-77
1660315261.42034,6513.0597317,-93
1660315261.42034,6513.0597351,-105
1660315261.42034,6513.0597386,-107
1660315261.42034,6513.0597422,-123
1660315261.43131,6513.0597458,-142
1660315261.43131,6513.0597512,-130
1660315261.43131,6513.0597821,-107
1660315261.43131,6513.0597918,-114
1660315261.43131,6513.0597985,-119
1660315261.43131,6513.0598033,-95
1660315261.43131,6513.0598097,-74
1660315261.43131,6513.0598247,-65
1660315261.43131,6513.0598381,-51
1660315261.43131,6513.0598504,-46
1660315261.43131,6513.0598616,-44
1660315261.43131,6513.0598669,-30
1660315261.43131,6513.059869,-18
1660315261.43131,6513.0598711,-21
1660315261.43131,6513.0598736,-16
1660315261.43131,6513.059882,7
1660315261.43131,6513.0598888,21
1660315261.43131,6513.059892,25
1660315261.43131,6513.0598954,35
1660315261.43131,6513.0598998,39
1660315261.43131,6513.0599025,49
1660315261.43131,6513.0599054,60
1660315261.43131,6513.0599082,46
1660315261.43131,6513.0599109,25
1660315262.00628,6513.0599137,32
1660315262.00628,6513.0599163,46
1660315262.00628,6513.0599189,51
1660315262.00628,6513.0599214,51
1660315262.00628,6513.0599241,53
1660315262.00628,6513.0599267,53
1660315262.00628,6513.0599292,30
1660315262.00628,6513.0599317,58
1660315262.00628,6513.0599342,322
1660315262.00628,6513.0599368,749
1660315262.00628,6513.0599394,845
1660315262.00628,6513.0599419,289
1660315262.00628,6513.0599444,-247
1660315262.00628,6513.0599469,-114
1660315262.00628,6513.0599495,91
1660315262.00628,6513.0599526,21
1660315262.00628,6513.0599558,39
1660315262.00628,6513.0599592,119
1660315262.00628,6513.0599643,98
1660315262.00628,6513.0599708,84
1660315262.00628,6513.0599752,112
1660315262.00628,6513.0599781,121
1660315262.00628,6513.0599808,130
1660315262.00628,6513.0599836,151
1660315262.00628,6513.0599865,168
1660315262.00628,6513.0599892,168
1660315262.00628,6513.0599921,165
1660315262.00628,6513.0599947,179
1660315262.00628,6513.0599976,203
1660315262.00628,6513.0600003,228
1660315262.00628,6513.0600031,256
1660315262.00628,6513.0600086,270
1660315262.00628,6513.0600113,270
1660315262.00628,6513.0600156,275
1660315262.00628,6513.0600184,273
1660315262.00628,6513.0600212,252
1660315262.00628,6513.0600241,231
1660315262.00628,6513.6433136,203
1660315262.00628,6513.6433335,156
1660315262.00628,6513.6433428,93
1660315262.00628,6513.6433537,42
1660315262.00628,6513.6433575,25
1660315262.00628,6513.6433625,9
1660315262.00628,6513.6433741,-21
1660315262.00628,6513.6433817,-30
1660315262.00628,6513.6433842,-32
1660315262.00628,6513.6433863,-44
1660315262.00628,6513.6433884,-51
1660315262.00628,6513.6433904,-42
1660315262.00628,6513.6433927,-32
1660315262.01625,6513.6434023,-25
1660315262.01625,6513.6434111,-30
1660315262.01625,6513.6434137,-46
1660315262.01625,6513.6434157,-42
1660315262.01625,6513.6434177,-25
1660315262.01625,6513.6434236,-9
1660315262.01625,6513.6434348,4
1660315262.01625,6513.6434402,7
1660315262.01625,6513.6434435,-14
1660315262.01625,6513.6434456,-21
1660315262.01625,6513.6434476,-2
1660315262.01625,6513.6434497,11
1660315262.01625,6513.6434518,16
1660315262.01625,6513.6434539,25
1660315262.01625,6513.6434558,35
1660315262.01625,6513.6434607,37
1660315262.01625,6513.6434721,44
1660315262.01625,6513.6434756,58
1660315262.01625,6513.6434777,67
1660315262.01625,6513.6434797,65
1660315262.01625,6513.6434817,51
1660315262.01625,6513.6434837,35
1660315262.01625,6513.6434861,32
1660315262.01625,6513.6434963,39
1660315262.54118,6513.6435043,42
1660315262.54118,6513.6435067,35
1660315262.54118,6513.6435087,37
1660315262.54118,6513.6435106,44
1660315262.54118,6513.6435132,30
1660315262.54118,6513.643524,-28
1660315262.54118,6513.6435355,-28
1660315262.54118,6513.6435466,235
1660315262.54118,6513.6435586,707
1660315262.54118,6513.6435718,903
1660315262.54118,6513.6435853,434
1660315262.54118,6513.6435936,-156
1660315262.54118,6513.643596,-144
1660315262.54118,6513.6436033,77
1660315262.54118,6513.6436178,51
1660315262.54118,6513.6436311,42
1660315262.54118,6513.6436448,114
1660315262.54118,6513.6436579,107
1660315262.54118,6513.6436711,88
1660315262.54118,6513.6436774,116
1660315262.54118,6513.6436816,130
1660315262.54118,6513.6436894,128
1660315262.54118,6513.6437037,142
1660315262.54118,6513.6437169,165
1660315262.54118,6513.6437299,177
1660315262.54118,6513.6437432,186
1660315262.54118,6513.6437563,205
1660315262.54118,6513.6437695,224
1660315262.54118,6513.6437827,240
1660315262.54118,6513.6437956,247
1660315262.54118,6513.6438078,245
1660315262.54118,6513.6438158,249
1660315262.54118,6513.6438218,254
1660315262.54118,6513.6438256,238
1660315262.54118,6513.6438352,217
1660315262.54118,6513.643838,198
1660315262.54118,6514.1803147,170
1660315262.54118,6514.1803332,140
1660315262.54118,6514.1803407,98
1660315262.54118,6514.1803479,53
1660315262.54118,6514.180353,30
1660315262.54118,6514.1803565,9
1660315262.54118,6514.1803601,-11
1660315262.54118,6514.1803636,-16
1660315262.54118,6514.180367,-16
1660315262.54118,6514.1803704,-16
1660315262.54118,6514.1803738,-16
1660315262.54118,6514.180378,-25
1660315262.54118,6514.1803832,-35
1660315262.54118,6514.1803897,-30
1660315262.55315,6514.1803942,-28
1660315262.55315,6514.1803986,-23
1660315262.55315,6514.1804024,-16
1660315262.55315,6514.1804053,-28
1660315262.55315,6514.1804082,-42
1660315262.55315,6514.1804141,-35
1660315262.55315,6514.1804186,-23
1660315262.55315,6514.1804219,-14
1660315262.55315,6514.180426,0
1660315262.55315,6514.1804301,4
1660315262.55315,6514.1804344,-18
1660315262.55315,6514.1804388,-30
1660315262.55315,6514.180446,-14
1660315262.55315,6514.18045,7
1660315262.55315,6514.1804561,9
1660315262.55315,6514.1804603,16
1660315262.55315,6514.1804656,32
1660315262.55315,6514.1804741,39
1660315262.55315,6514.180483,39
1660315262.55315,6514.1804915,51
1660315262.55315,6514.1804989,53
1660315262.55315,6514.1805058,30
1660315262.55315,6514.180512,23
1660315262.55315,6514.1805206,42
1660315263.17499,6514.1805255,51
1660315263.17499,6514.1805301,44
1660315263.17499,6514.1805372,49
1660315263.17499,6514.1805443,56
1660315263.17499,6514.1805482,2
1660315263.17499,6514.1805536,-53
1660315263.17499,6514.1805584,130
1660315263.17499,6514.1805686,616
1660315263.17499,6514.180576,978
1660315263.17499,6514.180584,672
1660315263.17499,6514.1805951,-37
1660315263.17499,6514.180599,-228
1660315263.17499,6514.1806097,46
1660315263.17499,6514.1806253,107
1660315263.17499,6514.1806398,42
1660315263.17499,6514.1806488,102
1660315263.17499,6514.1806577,133
1660315263.17499,6514.1806704,107
1660315263.17499,6514.1806829,112
1660315263.17499,6514.1806949,121
1660315263.17499,6514.180706,128
1660315263.17499,6514.1807153,142
1660315263.17499,6514.1807227,142
1660315263.17499,6514.1807308,137
1660315263.17499,6514.1807363,137
1660315263.17499,6514.180749,156
1660315263.17499,6514.1807617,186
1660315263.17499,6514.180772,207
1660315263.17499,6514.1807849,226
1660315263.17499,6514.1807993,247
1660315263.17499,6514.1808124,252
1660315263.17499,6514.1808422,252
1660315263.17499,6514.1808537,259
1660315263.17499,6514.1808601,240
1660315263.17499,6514.1808731,200
1660315263.17499,6514.8133573,179
1660315263.17499,6514.8133747,161
1660315263.17499,6514.81338,128
1660315263.17499,6514.8133872,105
1660315263.17499,6514.8133909,79
1660315263.17499,6514.8133959,44
1660315263.17499,6514.8133993,23
1660315263.17499,6514.8134045,4
1660315263.17499,6514.8134083,-30
1660315263.17499,6514.8134133,-63
1660315263.17499,6514.813417,-51
1660315263.17499,6514.8134219,-28
1660315263.17499,6514.8134262,-30
1660315263.17499,6514.8134297,-30
1660315263.17499,6514.8134335,-32
1660315263.18596,6514.8134372,-42
1660315263.18596,6514.8134421,-39
1660315263.18596,6514.8134464,-30
1660315263.18596,6514.8134515,-35
1660315263.18596,6514.8134584,-49
1660315263.18596,6514.813462,-39
1660315263.18596,6514.8134681,7
1660315263.18596,6514.8134737,25
1660315263.18596,6514.8134792,2
1660315263.18596,6514.8134829,0
1660315263.18596,6514.8134861,18
1660315263.18596,6514.8134893,14
1660315263.18596,6514.8134931,-14
1660315263.18596,6514.8134994,-7
1660315263.18596,6514.8135038,25
1660315263.18596,6514.8135076,35
1660315263.18596,6514.8135127,44
1660315263.18596,6514.813516,58
1660315263.18596,6514.8135203,51
1660315263.18596,6514.8135238,37
1660315263.18596,6514.8135272,63
1660315263.18596,6514.8135307,88
1660315263.18596,6514.8135361,56
1660315263.18596,6514.8135394,35
1660315263.66373,6514.8135436,60
1660315263.66373,6514.8135471,63
1660315263.66373,6514.8135503,49
1660315263.66373,6514.8135535,67
1660315263.66373,6514.8135569,79
1660315263.66373,6514.8135601,56
1660315263.66373,6514.8135636,0
1660315263.66373,6514.8135671,37
1660315263.66373,6514.8135705,366
1660315263.66373,6514.813574,850
1660315263.66373,6514.8135794,906
1660315263.66373,6514.8135829,263
1660315263.66373,6514.8135865,-280
1660315263.66373,6514.813592,-130
1660315263.66373,6514.8135969,88
1660315263.66373,6514.8136006,30
1660315263.66373,6514.8136041,42
1660315263.66373,6514.8136098,116
1660315263.66373,6514.8136135,93
1660315263.66373,6514.8136169,65
1660315263.66373,6514.8136223,100
1660315263.66373,6514.8136277,119
1660315263.66373,6514.8136327,91
1660315263.66373,6514.8136372,100
1660315263.66373,6514.8136416,151
1660315263.66373,6514.8136448,172
1660315263.66373,6514.8136489,175
1660315263.66373,6514.8136526,200
1660315263.66373,6514.8136562,221
1660315263.66373,6514.8136599,228
1660315263.66373,6514.8136635,242
1660315263.66373,6514.8136671,259
1660315263.66373,6514.8136708,270
1660315263.66373,6514.8136744,275
1660315263.66373,6515.3010999,263
1660315263.66373,6515.3011191,247
1660315263.66373,6515.301128,231
1660315263.66373,6515.301137,205
1660315263.66373,6515.3011478,170
1660315263.66373,6515.3011601,133
1660315263.66373,6515.3011656,93
1660315263.66373,6515.3011689,56
1660315263.66373,6515.3011715,14
1660315263.66373,6515.3011825,-16
1660315263.66373,6515.3011915,-14
1660315263.66373,6515.3011965,-11
1660315263.66373,6515.3012078,-28
1660315263.66373,6515.3012169,-25
1660315263.66373,6515.3012234,-14
1660315263.66373,6515.3012294,-18
1660315263.67371,6515.301233,-14
1660315263.67371,6515.3012384,-11
1660315263.67371,6515.3012415,-39
1660315263.67371,6515.3012444,-53
1660315263.67371,6515.3012475,-42
1660315263.67371,6515.3012506,-35
1660315263.67371,6515.3012535,-25
1660315263.67371,6515.3012563,-11
1660315263.67371,6515.3012593,-25
1660315263.67371,6515.3012623,-35
1660315263.67371,6515.3012652,-7
1660315263.67371,6515.3012683,7
1660315263.67371,6515.3012746,-16
1660315263.67371,6515.3012776,-18
1660315263.67371,6515.3012807,-7
1660315263.67371,6515.3012838,-14
1660315263.67371,6515.3012867,-30
1660315263.67371,6515.3012897,-25
1660315263.67371,6515.3012928,0
1660315263.67371,6515.3012961,18
1660315263.67371,6515.3013014,16
1660315263.67371,6515.3013065,25
1660315263.67371,6515.3013121,49
1660315263.67371,6515.3013157,63
1660315264.25276,6515.3013204,65
1660315264.25276,6515.301324,58
1660315264.25276,6515.3013274,30
1660315264.25276,6515.3013308,9
1660315264.25276,6515.3013342,11
1660315264.25276,6515.3013376,9
1660315264.25276,6515.3013411,-2
1660315264.25276,6515.3013446,-2
1660315264.25276,6515.301348,0
1660315264.25276,6515.3013516,-14
1660315264.25276,6515.3013551,-42
1660315264.25276,6515.3013603,39
1660315264.25276,6515.3013639,408
1660315264.25276,6515.3013675,882
1660315264.25276,6515.301373,861
1660315264.25276,6515.3013766,168
1660315264.25276,6515.3013817,-352
1660315264.25276,6515.3013854,-163
1660315264.25276,6515.301389,81
1660315264.25276,6515.3013926,39
1660315264.25276,6515.3013977,32
1660315264.25276,6515.3014012,81
1660315264.25276,6515.3014048,65
1660315264.25276,6515.3014097,65
1660315264.25276,6515.3014142,107
1660315264.25276,6515.3014192,128
1660315264.25276,6515.3014241,130
1660315264.25276,6515.3014285,133
1660315264.25276,6515.3014333,119
1660315264.25276,6515.3014381,116
1660315264.25276,6515.3014432,165
1660315264.25276,6515.3014468,240
1660315264.25276,6515.3014516,273
1660315264.25276,6515.8862071,268
1660315264.25276,6515.8862269,273
1660315264.25276,6515.8862417,284
1660315264.25276,6515.8862558,291
1660315264.25276,6515.8862692,305
1660315264.25276,6515.8862828,319
1660315264.25276,6515.8862964,305

1660315264.25276,6515.88631,268
1660315264.25276,6515.8863232,219
1660315264.25276,6515.8863327,158
1660315264.25276,6515.8863352,105
1660315264.25276,6515.8863373,72
1660315264.25276,6515.8863393,51
1660315264.25276,6515.8863414,37
1660315264.25276,6515.8863435,16
1660315264.25276,6515.8863456,-7
1660315264.25276,6515.8863476,-21
1660315264.26274,6515.8863496,-21
1660315264.26274,6515.8863516,-16
1660315264.26274,6515.8863541,-9
1660315264.26274,6515.8863642,0
1660315264.26274,6515.8863776,11
1660315264.26274,6515.8863911,14
1660315264.26274,6515.8864041,16
1660315264.26274,6515.8864173,25
1660315264.26274,6515.8864306,39
1660315264.26274,6515.8864439,49
1660315264.26274,6515.886457,56
1660315264.26274,6515.8864654,63
1660315264.26274,6515.8864679,70
1660315264.26274,6515.88647,79
1660315264.26274,6515.886472,86
1660315264.26274,6515.8864741,98
1660315264.26274,6515.8864793,102
1660315264.26274,6515.8864907,91
1660315264.26274,6515.8865018,79
1660315264.26274,6515.8865148,79
1660315264.26274,6515.8865404,79
1660315264.26274,6515.8865494,67
1660315264.26274,6515.886556,72
1660315264.26274,6515.8865617,84
1660315264.83495,6515.8865664,86
1660315264.83495,6515.8865731,84
1660315264.83495,6515.8865799,91
1660315264.83495,6515.8865867,112
1660315264.83495,6515.8865935,126
1660315264.83495,6515.8865998,102
1660315264.83495,6515.8866058,67
1660315264.83495,6515.8866109,60
1660315264.83495,6515.886617,72
1660315264.83495,6515.8866221,77
1660315264.83495,6515.8866285,84
1660315264.83495,6515.8866343,93
1660315264.83495,6515.8866386,86
1660315264.83495,6515.8866415,56
1660315264.83495,6515.8866466,49
1660315264.83495,6515.8866493,224
1660315264.83495,6515.8866525,660
1660315264.83495,6515.886656,1044
1660315264.83495,6515.8866591,789
1660315264.83495,6515.8866622,14
1660315264.83495,6515.8866654,-287
1660315264.83495,6515.8866689,11
1660315264.83495,6515.8866719,121
1660315264.83495,6515.8866764,42
1660315264.83495,6515.8866798,98
1660315264.83495,6515.8866844,135
1660315264.83495,6515.8866952,95
1660315264.83495,6515.8867068,112
1660315264.83495,6515.88671,140
1660315264.83495,6515.8867128,128
1660315264.83495,6515.8867156,126
1660315264.83495,6515.8867185,133
1660315264.83495,6516.4714974,144
1660315264.83495,6516.4715127,170
1660315264.83495,6516.4715227,200
1660315264.83495,6516.4715322,221
1660315264.83495,6516.4715382,231
1660315264.83495,6516.471542,245
1660315264.83495,6516.4715477,273
1660315264.83495,6516.4715516,291
1660315264.83495,6516.4715556,291
1660315264.83495,6516.4715615,284
1660315264.83495,6516.4715655,268
1660315264.83495,6516.4715704,233
1660315264.83495,6516.4715743,193
1660315264.83495,6516.4715799,161
1660315264.83495,6516.4715836,116
1660315264.83495,6516.4715891,65
1660315264.83495,6516.4715931,25
1660315264.83495,6516.4715991,-14
1660315264.84492,6516.4716033,-56
1660315264.84492,6516.4716087,-67
1660315264.84492,6516.4716128,-65
1660315264.84492,6516.4716179,-70
1660315264.84492,6516.4716215,-70
1660315264.84492,6516.4716261,-58
1660315264.84492,6516.4716293,-58
1660315264.84492,6516.4716422,-72
1660315264.84492,6516.4716465,-70
1660315264.84492,6516.4716506,-51
1660315264.84492,6516.4716546,-46
1660315264.84492,6516.4716581,-51
1660315264.84492,6516.4716614,-49
1660315264.84492,6516.4716641,-30
1660315264.84492,6516.4716669,-21
1660315264.84492,6516.4716695,-37
1660315264.84492,6516.4716721,-49
1660315264.84492,6516.4716748,-30
1660315264.84492,6516.4716777,-18
1660315264.84492,6516.4716804,-23
1660315264.84492,6516.4716831,-21
1660315264.84492,6516.4716857,-7
1660315264.84492,6516.4716884,-2
1660315264.84492,6516.4716911,-7
1660315265.42515,6516.4716937,-2
1660315265.42515,6516.4717205,9
1660315265.42515,6516.471724,11
1660315265.42515,6516.4717268,18
1660315265.42515,6516.4717298,28
1660315265.42515,6516.4717326,39
1660315265.42515,6516.4717353,42
1660315265.42515,6516.4717381,21
1660315265.42515,6516.4717408,2
1660315265.42515,6516.4717435,11
1660315265.42515,6516.4717486,14
1660315265.42515,6516.4717533,2
1660315265.42515,6516.4717598,14
1660315265.42515,6516.4717657,23
1660315265.42515,6516.4717707,11
1660315265.42515,6516.4717741,-7
1660315265.42515,6516.4717798,-35
1660315265.42515,6516.4717867,25
1660315265.42515,6516.4717934,355
1660315265.42515,6516.4718003,840
1660315265.42515,6516.4718052,927
1660315265.42515,6516.4718094,284
1660315265.42515,6516.4718142,-329
1660315265.42515,6516.4718192,-196
1660315265.42515,6516.4718264,56
1660315265.42515,6516.4718337,-11
1660315265.42515,6516.471839,-21
1660315265.42515,6516.4718424,44
1660315265.42515,6516.4718484,14
1660315265.42515,6516.471853,-4
1660315265.42515,6516.4718583,28
1660315265.42515,6517.056463,37
1660315265.42515,6517.056481,39
1660315265.42515,6517.0564888,65
1660315265.42515,6517.0564949,81
1660315265.42515,6517.0564999,86
1660315265.42515,6517.0565064,112
1660315265.42515,6517.0565136,147
1660315265.42515,6517.0565206,151
1660315265.42515,6517.0565279,147
1660315265.42515,6517.056533,172
1660315265.42515,6517.0565371,207
1660315265.42515,6517.0565403,214
1660315265.42515,6517.0565435,212
1660315265.42515,6517.0565488,210
1660315265.42515,6517.0565537,179
1660315265.42515,6517.0565581,116
1660315265.42515,6517.0565622,81
1660315265.42515,6517.0565657,74
1660315265.42515,6517.0565701,32
1660315265.44211,6517.0565771,-28
1660315265.44211,6517.0565829,-72
1660315265.44211,6517.0565861,-116
1660315265.44211,6517.0565916,-140
1660315265.44211,6517.0565948,-119
1660315265.44211,6517.0566004,-109
1660315265.44211,6517.0566035,-133
1660315265.44211,6517.0566091,-142
1660315265.44211,6517.0566121,-135
1660315265.44211,6517.0566177,-140
1660315265.44211,6517.056621,-130
1660315265.44211,6517.0566265,-100
1660315265.44211,6517.0566296,-88
1660315265.44211,6517.0566357,-93
1660315265.44211,6517.0566389,-93
1660315265.44211,6517.0566439,-74
1660315265.44211,6517.0566569,-46
1660315265.44211,6517.0566649,-23
1660315265.44211,6517.0566734,-9
1660315265.44211,6517.0566787,-9
1660315265.44211,6517.0566848,-14
1660315265.44211,6517.0566934,-11
1660315265.44211,6517.0566987,-4
1660315265.44211,6517.0567047,2
1660315266.00639,6517.0567092,7
1660315266.00639,6517.0567145,11
1660315266.00639,6517.0567195,18
1660315266.00639,6517.0567242,23
1660315266.00639,6517.0567298,25
1660315266.00639,6517.0567333,25
1660315266.00639,6517.056737,28
1660315266.00639,6517.0567406,37
1660315266.00639,6517.0567461,49
1660315266.00639,6517.0567498,58
1660315266.00639,6517.0567549,63
1660315266.00639,6517.0567585,53
1660315266.00639,6517.0567635,25
1660315266.00639,6517.0567671,14
1660315266.00639,6517.0567707,44
1660315266.00639,6517.0567742,65
1660315266.00639,6517.0567778,58
1660315266.00639,6517.0567834,53
1660315266.00639,6517.056788,65
1660315266.00639,6517.0567916,60
1660315266.00639,6517.0567952,23
1660315266.00639,6517.056801,25
1660315266.00639,6517.0568089,261
1660315266.00639,6517.0568154,754
1660315266.00639,6517.0568232,1081
1660315266.00639,6517.0568295,681
1660315266.00639,6517.0568374,-107
1660315266.00639,6517.0568435,-303
1660315266.00639,6517.0568524,-2
1660315266.00639,6517.0568591,56
1660315266.00639,6517.6411508,-16
1660315266.00639,6517.6411746,37
1660315266.00639,6517.6411925,65
1660315266.00639,6517.6412051,44
1660315266.00639,6517.6412136,67
1660315266.00639,6517.6412205,84
1660315266.00639,6517.6412266,81
1660315266.00639,6517.6412316,88
1660315266.00639,6517.6412368,88
1660315266.00639,6517.6412417,86
1660315266.00639,6517.6412473,95
1660315266.00639,6517.6412527,88
1660315266.00639,6517.6412594,77
1660315266.00639,6517.6412646,98
1660315266.00639,6517.6412761,130
1660315266.00639,6517.6412848,163
1660315266.00639,6517.641289,191
1660315266.00639,6517.641291,200
1660315266.00639,6517.6412931,193
1660315266.00639,6517.6412951,170
1660315266.01736,6517.6412971,144
1660315266.01736,6517.6413041,119
1660315266.01736,6517.6413151,86
1660315266.01736,6517.6413195,44
1660315266.01736,6517.6413227,-7
1660315266.01736,6517.6413248,-44
1660315266.01736,6517.6413269,-49
1660315266.01736,6517.6413289,-53
1660315266.01736,6517.641331,-65
1660315266.01736,6517.6413334,-58
1660315266.01736,6517.6413434,-60
1660315266.01736,6517.6413519,-74
1660315266.01736,6517.6413543,-72
1660315266.01736,6517.6413564,-53
1660315266.01736,6517.6413584,-37
1660315266.01736,6517.6413605,-25
1660315266.01736,6517.6413656,-18
1660315266.01736,6517.6413772,-18
1660315266.01736,6517.6413883,-7
1660315266.01736,6517.6414016,7
1660315266.01736,6517.6414162,9
1660315266.01736,6517.6414294,16
1660315266.01736,6517.6414428,32
1660315266.01736,6517.641456,35
1660315266.54515,6517.6414684,21
1660315266.54515,6517.6414755,28
1660315266.54515,6517.6414849,42
1660315266.54515,6517.6414937,46
1660315266.54515,6517.6415064,46
1660315266.54515,6517.6415198,42
1660315266.54515,6517.641533,42
1660315266.54515,6517.6415411,51
1660315266.54515,6517.6415436,56
1660315266.54515,6517.6415463,53
1660315266.54515,6517.6415564,56
1660315266.54515,6517.6415643,51
1660315266.54515,6517.6415666,53
1660315266.54515,6517.6415687,74
1660315266.54515,6517.6415708,100
1660315266.54515,6517.6415782,116
1660315266.54515,6517.6415888,123
1660315266.54515,6517.6415923,121
1660315266.54515,6517.641596,107
1660315266.54515,6517.6415983,86
1660315266.54515,6517.641608,77
1660315266.54515,6517.6416166,93
1660315266.54515,6517.6416191,114
1660315266.54515,6517.6416212,112
1660315266.54515,6517.6416233,105
1660315266.54515,6517.6416281,102
1660315266.54515,6517.6416393,98
1660315266.54515,6517.6416446,51
1660315266.54515,6517.6416477,39
1660315266.54515,6518.178563,280
1660315266.54515,6518.1785831,798
1660315266.54515,6518.1785979,1121
1660315266.54515,6518.1786067,698
1660315266.54515,6518.1786096,-91
1660315266.54515,6518.178612,-266
1660315266.54515,6518.1786188,32
1660315266.54515,6518.1786303,70
1660315266.54515,6518.1786357,-32
1660315266.54515,6518.1786391,7
1660315266.54515,6518.1786412,28
1660315266.54515,6518.1786434,-7
1660315266.54515,6518.1786457,-4
1660315266.54515,6518.1786559,7
1660315266.54515,6518.1786641,4
1660315266.54515,6518.1786666,14
1660315266.54515,6518.1786687,42
1660315266.54515,6518.1786708,65
1660315266.54515,6518.1786729,84
1660315266.54515,6518.1786749,109
1660315266.54515,6518.1786769,137
1660315266.55712,6518.1786789,158
1660315266.55712,6518.1786809,172
1660315266.55712,6518.1786866,200
1660315266.55712,6518.1786986,231
1660315266.55712,6518.1787036,247
1660315266.55712,6518.1787057,233
1660315266.55712,6518.1787078,200
1660315266.55712,6518.1787098,168
1660315266.55712,6518.1787136,144
1660315266.55712,6518.1787263,130
1660315266.55712,6518.178732,107
1660315266.55712,6518.1787342,74
1660315266.55712,6518.1787362,30
1660315266.55712,6518.1787382,-16
1660315266.55712,6518.1787409,-39
1660315266.55712,6518.1787518,-39
1660315266.55712,6518.1787589,-30
1660315266.55712,6518.1787613,-30
1660315266.55712,6518.1787634,-35
1660315266.55712,6518.1787654,-28
1660315266.55712,6518.1787734,-21
1660315266.55712,6518.1787837,-28
1660315266.55712,6518.1787871,-25
1660315266.55712,6518.1787907,-2
1660315267.08291,6518.1787935,18
1660315267.08291,6518.1788041,25
1660315267.08291,6518.1788098,44
1660315267.08291,6518.178812,63
1660315267.08291,6518.178814,60
1660315267.08291,6518.1788159,56
1660315267.08291,6518.1788178,60
1660315267.08291,6518.1788197,60
1660315267.08291,6518.1788216,58
1660315267.08291,6518.1788244,60
1660315267.08291,6518.1788332,65
1660315267.08291,6518.1788417,77
1660315267.08291,6518.1788505,79
1660315267.08291,6518.1788569,70
1660315267.08291,6518.1788672,65
1660315267.08291,6518.1788712,72
1660315267.08291,6518.1788814,84
1660315267.08291,6518.1788915,84
1660315267.08291,6518.1788948,70
1660315267.08291,6518.1788984,60
1660315267.08291,6518.178901,67
1660315267.08291,6518.1789285,67
1660315267.08291,6518.1789404,74
1660315267.08291,6518.1789473,98
1660315267.08291,6518.1789549,123
1660315267.08291,6518.1789629,128
1660315267.08291,6518.1789686,123
1660315267.08291,6518.1789746,109
1660315267.08291,6518.7144901,93
1660315267.08291,6518.7145112,88
1660315267.08291,6518.7145212,88
1660315267.08291,6518.7145301,72
1660315267.08291,6518.7145365,49
1660315267.08291,6518.7145427,42
1660315267.08291,6518.714546,53
1660315267.08291,6518.7145577,67
1660315267.08291,6518.7145689,67
1660315267.08291,6518.7145806,56
1660315267.08291,6518.7145886,86
1660315267.08291,6518.7146015,319
1660315267.08291,6518.7146142,752
1660315267.08291,6518.7146268,955
1660315267.08291,6518.7146371,476
1660315267.08291,6518.7146442,-242
1660315267.08291,6518.7146583,-329
1660315267.08291,6518.7146768,-53
1660315267.08291,6518.7146907,-56
1660315267.08291,6518.7147037,-93
1660315267.08291,6518.7147159,0
1660315267.08291,6518.714724,11
1660315267.09478,6518.7147276,-23
1660315267.09478,6518.7147418,-7
1660315267.09478,6518.7147649,4
1660315267.09478,6518.7147765,7
1660315267.09478,6518.7147888,32
1660315267.09478,6518.7148003,58
1660315267.09478,6518.7148085,74
1660315267.09478,6518.7148118,93
1660315267.09478,6518.7148233,102
1660315267.09478,6518.7148308,107
1660315267.09478,6518.7148431,137
1660315267.09478,6518.7148556,177
1660315267.09478,6518.7148684,212
1660315267.09478,6518.7148825,240
1660315267.09478,6518.7148943,254
1660315267.09478,6518.7149019,256
1660315267.09478,6518.7149089,261
1660315267.09478,6518.7149131,256
1660315267.09478,6518.7149186,238
1660315267.09478,6518.7149227,217
1660315267.09478,6518.7149283,177
1660315267.09478,6518.7149321,130
1660315267.09478,6518.714939,100
1660315267.09478,6518.7149443,84
1660315267.56198,6518.714953,65
1660315267.56198,6518.7149596,49
1660315267.56198,6518.7149638,39
1660315267.56198,6518.714969,35
1660315267.56198,6518.7149725,39
1660315267.56198,6518.7149758,44
1660315267.56198,6518.7149795,49
1660315267.56198,6518.7149828,46
1660315267.56198,6518.714986,37
1660315267.56198,6518.7149894,37
1660315267.56198,6518.7149925,56
1660315267.56198,6518.714996,70
1660315267.56198,6518.7149992,74
1660315267.56198,6518.7150024,84
1660315267.56198,6518.7150057,93
1660315267.56198,6518.715009,95
1660315267.56198,6518.7150134,93
1660315267.56198,6518.7150188,100
1660315267.56198,6518.7150222,112
1660315267.56198,6518.7150258,109
1660315267.56198,6518.7150316,100
1660315267.56198,6518.715035,100
1660315267.56198,6518.7150384,95
1660315267.56198,6518.7150416,91
1660315267.56198,6518.7150448,81
1660315267.56198,6518.715048,70
1660315267.56198,6518.7150511,67
1660315267.56198,6519.2014727,67
1660315267.56198,6519.2014872,65
1660315267.56198,6519.2014916,67
1660315267.56198,6519.2014984,79
1660315267.56198,6519.2015045,84
1660315267.56198,6519.2015107,86
1660315267.56198,6519.2015141,95
1660315267.56198,6519.2015176,93
1660315267.56198,6519.2015223,70
1660315267.56198,6519.2015255,49
1660315267.56198,6519.2015288,39
1660315267.56198,6519.2015323,28
1660315267.56198,6519.2015373,25
1660315267.56198,6519.2015407,28
1660315267.56198,6519.2015442,25
1660315267.56198,6519.2015497,23
1660315267.56198,6519.2015532,32
1660315267.56198,6519.2015566,30
1660315267.56198,6519.2015619,-11
1660315267.56198,6519.2015662,11
1660315267.56198,6519.2015698,291
1660315267.56198,6519.2015733,768
1660315267.56198,6519.2015768,971
1660315267.57395,6519.2015802,434
1660315267.57395,6519.2015837,-322
1660315267.57395,6519.2015871,-345
1660315267.57395,6519.2015905,-30
1660315267.57395,6519.2015939,-63
1660315267.57395,6519.2015989,-114
1660315267.57395,6519.2016023,-9
1660315267.57395,6519.2016057,0
1660315267.57395,6519.2016091,-28
1660315267.57395,6519.2016124,11
1660315267.57395,6519.2016158,25
1660315267.57395,6519.2016191,4
1660315267.57395,6519.2016224,28
1660315267.57395,6519.2016258,63
1660315267.57395,6519.201629,79
1660315267.57395,6519.2016323,100
1660315267.57395,6519.2016356,121
1660315267.57395,6519.201639,133
1660315267.57395,6519.2016424,156
1660315267.57395,6519.2016459,191
1660315267.57395,6519.2016491,233
1660315267.57395,6519.2016525,273
1660315267.57395,6519.2016559,277
1660315267.57395,6519.2016592,249
1660315268.15678,6519.2016626,231
1660315268.15678,6519.2016659,233
1660315268.15678,6519.2016691,221
1660315268.15678,6519.2016724,182
1660315268.15678,6519.2016756,140
1660315268.15678,6519.2016792,102
1660315268.15678,6519.2016824,60
1660315268.15678,6519.2016856,30
1660315268.15678,6519.2016889,14
1660315268.15678,6519.2016921,4
1660315268.15678,6519.2017073,-2
1660315268.15678,6519.2017211,-7
1660315268.15678,6519.2017289,-7
1660315268.15678,6519.2017337,9
1660315268.15678,6519.201737,11
1660315268.15678,6519.2017404,-7
1660315268.15678,6519.2017437,-7
1660315268.15678,6519.2017471,4
1660315268.15678,6519.2017503,4
1660315268.15678,6519.2017537,9
1660315268.15678,6519.2017571,32
1660315268.15678,6519.2017619,42
1660315268.15678,6519.2017662,39
1660315268.15678,6519.2017709,56
1660315268.15678,6519.2017767,65
1660315268.15678,6519.2017811,58
1660315268.15678,6519.7861779,60
1660315268.15678,6519.7861989,74
1660315268.15678,6519.7862081,77
1660315268.15678,6519.7862123,60
1660315268.15678,6519.7862179,39
1660315268.15678,6519.7862227,21
1660315268.15678,6519.7862281,23
1660315268.15678,6519.7862317,25
1660315268.15678,6519.7862362,14
1660315268.15678,6519.7862655,25
1660315268.15678,6519.7862767,37
1660315268.15678,6519.7862878,18
1660315268.15678,6519.7862948,7
1660315268.15678,6519.7863014,28
1660315268.15678,6519.7863096,44
1660315268.15678,6519.7863148,44
1660315268.15678,6519.7863218,30
1660315268.15678,6519.7863257,2
1660315268.15678,6519.7863299,-2
1660315268.15678,6519.7863359,11
1660315268.15678,6519.7863389,9
1660315268.15678,6519.7863423,7
1660315268.15678,6519.7863479,14
1660315268.15678,6519.7863524,14
1660315268.16775,6519.7863571,-7
1660315268.16775,6519.7863613,-28
1660315268.16775,6519.7863665,100
1660315268.16775,6519.7863707,516
1660315268.16775,6519.7863754,976
1660315268.16775,6519.7863786,864
1660315268.16775,6519.7863836,95
1660315268.16775,6519.7863869,-355
1660315268.16775,6519.7863942,-98
1660315268.16775,6519.7863983,53
1660315268.16775,6519.7864042,-46
1660315268.16775,6519.7864095,-7
1660315268.16775,6519.7864146,49
1660315268.16775,6519.786418,14
1660315268.16775,6519.7864213,21
1660315268.16775,6519.786426,58
1660315268.16775,6519.7864295,67
1660315268.16775,6519.7864344,77
1660315268.16775,6519.7864393,95
1660315268.16775,6519.7864439,105
1660315268.16775,6519.7864475,123
1660315268.16775,6519.7864521,149
1660315268.16775,6519.786457,165
1660315268.16775,6519.7864618,186
1660315268.79097,6519.786465,219
1660315268.79097,6519.7864689,245
1660315268.79097,6519.7864722,266
1660315268.79097,6519.7864753,287
1660315268.79097,6519.7864783,298
1660315268.79097,6519.7864813,291
1660315268.79097,6519.7864844,275
1660315268.79097,6519.7864878,233
1660315268.79097,6519.7864912,189
1660315268.79097,6519.7864944,161
1660315268.79097,6519.7864977,119
1660315268.79097,6519.7865025,70
1660315268.79097,6519.7865059,39
1660315268.79097,6519.7865092,23
1660315268.79097,6519.7865142,11
1660315268.79097,6519.7865172,14
1660315268.79097,6519.7865203,14
1660315268.79097,6519.7865235,9
1660315268.79097,6519.7865266,18
1660315268.79097,6519.7865314,23
1660315268.79097,6519.7865356,11
1660315268.79097,6519.7865474,7
1660315268.79097,6519.7865613,21
1660315268.79097,6519.7865671,30
1660315268.79097,6519.7865705,39
1660315268.79097,6520.4204652,51
1660315268.79097,6520.420487,63
1660315268.79097,6520.4204953,63
1660315268.79097,6520.4204978,58
1660315268.79097,6520.4204999,63
1660315268.79097,6520.4205018,74
1660315268.79097,6520.4205045,77
1660315268.79097,6520.4205065,67
1660315268.79097,6520.4205086,46
1660315268.79097,6520.4205105,30
1660315268.79097,6520.4205125,37
1660315268.79097,6520.4205144,49
1660315268.79097,6520.4205164,49
1660315268.79097,6520.4205184,37
1660315268.79097,6520.4205204,4
1660315268.79097,6520.4205225,-23
1660315268.79097,6520.4205246,-18
1660315268.79097,6520.4205265,9
1660315268.79097,6520.4205293,37
1660315268.79097,6520.4205313,51
1660315268.79097,6520.4205333,51
1660315268.79097,6520.4205353,51
1660315268.79097,6520.4205372,44
1660315268.79097,6520.4205391,11
1660315268.79097,6520.4205412,-18
1660315268.80247,6520.4205433,-14
1660315268.80247,6520.420546,2
1660315268.80247,6520.420548,9
1660315268.80247,6520.4205499,4
1660315268.80247,6520.4205519,-2
1660315268.80247,6520.4205539,-2
1660315268.80247,6520.4205559,-21
1660315268.80247,6520.4205579,-39
1660315268.80247,6520.4205599,137
1660315268.80247,6520.4205619,621
1660315268.80247,6520.4205638,1037
