Time,TimeLsl,Value
1660313121.62174,4371.5525585,108
1660313121.62174,4371.5525796,113
1660313121.62174,4371.552595,123
1660313121.62174,4371.5526097,113
1660313121.62174,4371.5526242,82
1660313121.62174,4371.5526377,68
1660313121.62174,4371.55265,75
1660313121.62174,4371.5526597,85
1660313121.62174,4371.5526695,85
1660313121.62174,4371.5526775,78
1660313121.62174,4371.5526845,61
1660313121.62174,4371.552692,40
1660313121.62174,4371.5527013,21
1660313121.62174,4371.5527075,21
1660313121.62174,4371.552717,177
1660313121.62174,4371.5527233,589
1660313121.62174,4371.5527393,944
1660313121.62174,4371.5527488,653
1660313121.62174,4371.5527549,-120
1660313121.62174,4371.5527703,-355
1660313121.62174,4371.5527801,-30
1660313121.62174,4371.5527848,40
1660313121.62174,4371.5527939,-47
1660313121.62174,4371.5528015,35
1660313121.62174,4371.5528102,75
1660313121.62174,4371.5528246,37
1660313121.62174,4371.5528347,52
1660313121.62174,4371.5528409,61
1660313121.62174,4371.5528558,44
1660313121.62174,4371.5528658,59
1660313121.62174,4371.5528713,80
1660313121.62174,4371.5528773,92
1660313121.62174,4371.5528855,116
1660313121.62174,4371.5528891,132
1660313121.62174,4371.5528949,130
1660313121.62174,4371.5529032,144
1660313121.62174,4371.5529111,172
1660313121.62174,4371.5529499,191
1660313121.62174,4371.5529588,210
1660313121.62174,4371.5529627,227
1660313121.62174,4371.552968,239
1660313121.62174,4371.5529744,232
1660313121.62174,4371.5529815,198
1660313121.62174,4371.5529882,156
1660313121.62174,4371.5529954,123
1660313121.62174,4371.5530048,85
1660313121.62174,4371.5530123,40
1660313121.62174,4371.5530205,2
1660313121.62174,4371.5530275,-23
1660313121.62174,4371.5530367,-42
1660313121.73803,4371.5530435,-54
1660313121.73803,4371.5530493,-63
1660313121.73803,4371.5530528,-80
1660313121.73803,4371.5530581,-87
1660313121.73803,4371.5530617,-80
1660313121.73803,4371.5530696,-78
1660313121.73803,4371.5530761,-73
1660313121.73803,4371.5530834,-61
1660313121.73803,4371.5530887,-49
1660313121.73803,4371.5530938,-35
1660313121.73803,4371.5531013,-23
1660313121.73803,4371.5531066,-23
1660313121.73803,4371.5531144,-7
1660313121.73803,4371.5531209,21
1660313121.73803,4371.5531288,26
1660313121.73803,4371.5531366,18
1660313121.73803,4371.5531437,16
1660313121.73803,4371.5531507,7
1660313121.73803,4371.5531579,7
1660313121.73803,4371.5531651,26
1660313121.73803,4371.5531718,40
1660313121.73803,4371.5531796,44
1660313121.73803,4371.5531865,52
1660313121.73803,4372.1360285,63
1660313121.73803,4372.1360453,73
1660313121.73803,4372.1360534,75
1660313121.73803,4372.1360592,63
1660313121.73803,4372.1360642,40
1660313121.73803,4372.1360684,37
1660313121.73803,4372.1360746,40
1660313121.73803,4372.1360812,16
1660313121.73803,4372.1360876,2
1660313121.73803,4372.1360933,18
1660313121.73803,4372.1360989,26
1660313121.73803,4372.1361061,-23
1660313121.73803,4372.1361155,-85
1660313121.73803,4372.1361207,44
1660313121.73803,4372.1361295,509
1660313121.73803,4372.1361359,966
1660313121.73803,4372.1361486,779
1660313121.73803,4372.1361591,16
1660313121.73803,4372.1361652,-343
1660313121.73803,4372.1361784,-54
1660313121.73803,4372.1361914,54
1660313121.73803,4372.1362248,-75
1660313121.73803,4372.1362278,-26
1660313121.73803,4372.1362299,33
1660313121.73803,4372.1362321,-9
1660313121.73803,4372.1362342,-11
1660313121.73803,4372.1362364,16
1660313121.77892,4372.1362385,18
1660313121.77892,4372.1362406,30
1660313121.77892,4372.1362427,49
1660313121.77892,4372.1362447,61
1660313121.77892,4372.1362467,68
1660313121.77892,4372.1362487,82
1660313121.77892,4372.1362508,101
1660313121.77892,4372.1362528,120
1660313121.77892,4372.1362549,146
1660313121.77892,4372.136257,175
1660313121.77892,4372.136259,203
1660313121.77892,4372.1362611,220
1660313121.77892,4372.1362631,222
1660313121.77892,4372.1362652,210
1660313121.77892,4372.1362673,194
1660313121.77892,4372.1362693,163
1660313121.77892,4372.1362712,120
1660313121.77892,4372.1362733,66
1660313121.77892,4372.1362753,-2
1660313121.77892,4372.1362774,-54
1660313121.77892,4372.1362795,-68
1660313121.77892,4372.1362815,-75
1660313121.77892,4372.1362835,-80
1660313121.77892,4372.1362856,-78
1660313121.77892,4372.1362878,-73
1660313121.77892,4372.1362899,-75
1660313121.77892,4372.1362919,-71
1660313121.77892,4372.136294,-61
1660313121.77892,4372.1362969,-49
1660313121.77892,4372.1363052,-44
1660313121.77892,4372.1363432,-47
1660313121.77892,4372.136357,-40
1660313121.77892,4372.1363699,-30
1660313121.77892,4372.1363839,-18
1660313121.77892,4372.136396,-4
1660313121.77892,4372.1364025,4
1660313121.77892,4372.1364078,14
1660313121.77892,4372.1364184,18
1660313121.77892,4372.1364327,11
1660313121.77892,4372.1364416,11
1660313121.77892,4372.1364465,23
1660313121.77892,4372.1364509,40
1660313121.77892,4372.1364579,56
1660313121.77892,4372.1364622,66
1660313121.77892,4372.1364658,63
1660313121.77892,4372.1364703,71
1660313121.77892,4372.7209021,89
1660313121.77892,4372.7209189,89
1660313121.77892,4372.720929,68
1660313121.77892,4372.7209332,52
1660313121.80346,4372.7209377,54
1660313121.80346,4372.720942,56
1660313121.80346,4372.7209471,59
1660313121.80346,4372.7209536,71
1660313121.80346,4372.7209609,82
1660313121.80346,4372.7209668,71
1660313121.80346,4372.7209734,-14
1660313121.80346,4372.7209817,-78
1660313121.80346,4372.7209878,168
1660313121.80346,4372.7209956,724
1660313121.80346,4372.7210018,1030
1660313121.80346,4372.7210095,547
1660313121.80346,4372.7210156,-243
1660313121.80346,4372.7210237,-338
1660313121.80346,4372.7210311,7
1660313121.80346,4372.7210373,16
1660313121.80346,4372.7210418,-73
1660313121.80346,4372.7210467,7
1660313121.80346,4372.7210508,28
1660313121.80346,4372.7210558,-11
1660313121.80346,4372.7210606,14
1660313121.80346,4372.7210649,49
1660313121.80346,4372.7210697,54
1660313121.80346,4372.7210732,63
1660313121.80346,4372.721077,82
1660313121.80346,4372.7210807,104
1660313121.80346,4372.7210856,120
1660313121.80346,4372.72109,144
1660313121.80346,4372.7210936,168
1660313121.80346,4372.7210984,191
1660313121.80346,4372.7211034,208
1660313121.80346,4372.7211082,220
1660313121.80346,4372.7211126,241
1660313121.80346,4372.7211176,255
1660313121.80346,4372.7211218,241
1660313121.80346,4372.7211267,208
1660313121.80346,4372.7211319,187
1660313121.80346,4372.7211355,165
1660313121.80346,4372.7211391,132
1660313121.80346,4372.721144,85
1660313121.80346,4372.7211474,35
1660313121.80346,4372.721151,-2
1660313121.80346,4372.7211559,-23
1660313121.80346,4372.7211594,-47
1660313121.80346,4372.721163,-68
1660313121.80346,4372.7211679,-75
1660313121.80346,4372.7211722,-71
1660313121.80346,4372.7211773,-73
1660313121.80346,4372.7211808,-82
1660313121.80346,4372.7211844,-80
1660313121.81543,4372.7211893,-68
1660313121.81543,4372.7212206,-61
1660313121.81543,4372.7212267,-49
1660313121.81543,4372.7212303,-26
1660313121.81543,4372.7212339,-7
1660313121.81543,4372.7212389,-4
1660313121.81543,4372.7212428,-2
1660313121.81543,4372.7212464,-2
1660313121.81543,4372.7212501,2
1660313121.81543,4372.721255,11
1660313121.81543,4372.7212595,16
1660313121.81543,4372.7212644,14
1660313121.81543,4372.7212678,11
1660313121.81543,4372.721271,16
1660313121.81543,4372.7212761,28
1660313121.81543,4372.7212813,35
1660313121.81543,4372.7212846,42
1660313121.81543,4372.7212881,59
1660313121.81543,4372.7212934,78
1660313121.81543,4373.3547108,73
1660313121.81543,4373.354732,40
1660313121.81543,4373.3547475,21
1660313122.20919,4373.3547569,28
1660313122.20919,4373.3547648,35
1660313122.20919,4373.3547716,35
1660313122.20919,4373.3547786,42
1660313122.20919,4373.3547857,44
1660313122.20919,4373.3547929,33
1660313122.20919,4373.3547969,-14
1660313122.20919,4373.3548004,-33
1660313122.20919,4373.3548082,220
1660313122.20919,4373.3548116,764
1660313122.20919,4373.3548196,1046
1660313122.20919,4373.3548238,509
1660313122.20919,4373.354827,-281
1660313122.20919,4373.3548312,-312
1660313122.20919,4373.3548344,35
1660313122.20919,4373.3548409,21
1660313122.20919,4373.3548452,-73
1660313122.20919,4373.3548486,-26
1660313122.20919,4373.3548539,-23
1660313122.20919,4373.354857,-33
1660313122.20919,4373.3548602,14
1660313122.20919,4373.3548634,35
1660313122.20919,4373.3548673,30
1660313122.20919,4373.3548705,40
1660313122.20919,4373.3548744,54
1660313122.20919,4373.3548782,63
1660313122.20919,4373.3548818,73
1660313122.20919,4373.3548852,75
1660313122.20919,4373.3548888,101
1660313122.20919,4373.3548922,149
1660313122.20919,4373.3548957,165
1660313122.20919,4373.3548991,179
1660313122.20919,4373.3549026,220
1660313122.20919,4373.3549063,248
1660313122.20919,4373.3549098,246
1660313122.20919,4373.3549133,220
1660313122.20919,4373.3549177,182
1660313122.20919,4373.3549232,153
1660313122.20919,4373.3549279,127
1660313122.20919,4373.3549316,87
1660313122.20919,4373.3549372,42
1660313122.20919,4373.3549408,11
1660313122.20919,4373.3549445,0
1660313122.20919,4373.3549483,-4
1660313122.20919,4373.3549518,-4
1660313122.20919,4373.354956,-11
1660313122.20919,4373.3549596,-23
1660313122.20919,4373.3549629,-26
1660313122.20919,4373.3549662,-26
1660313122.20919,4373.3549697,-33
1660313122.23313,4373.3549734,-28
1660313122.23313,4373.3549769,-7
1660313122.23313,4373.3549806,14
1660313122.23313,4373.3549845,30
1660313122.23313,4373.3549882,30
1660313122.23313,4373.3549917,16
1660313122.23313,4373.3549951,35
1660313122.23313,4373.3549986,73
1660313122.23313,4373.3550022,80
1660313122.23313,4373.3550058,66
1660313122.23313,4373.3550092,71
1660313122.23313,4373.3550137,71
1660313122.23313,4373.3550172,63
1660313122.23313,4373.3550209,73
1660313122.23313,4373.3550244,92
1660313122.23313,4373.3550278,101
1660313122.23313,4373.3550335,123
1660313122.23313,4373.3550379,144
1660313122.23313,4373.3550435,130
1660313122.23313,4373.3550478,108
1660313122.23313,4373.8423718,101
1660313122.23313,4373.8423916,85
1660313122.23313,4373.8424011,75
1660313122.23313,4373.8424076,85
1660313122.74557,4373.8424171,92
1660313122.74557,4373.8424215,87
1660313122.74557,4373.8424289,87
1660313122.74557,4373.842436,106
1660313122.74557,4373.8424432,99
1660313122.74557,4373.8424502,66
1660313122.74557,4373.8424572,182
1660313122.74557,4373.8424641,599
1660313122.74557,4373.8424728,999
1660313122.74557,4373.8424797,738
1660313122.74557,4373.8424879,-61
1660313122.74557,4373.8424919,-336
1660313122.74557,4373.8424988,-11
1660313122.74557,4373.8425029,68
1660313122.74557,4373.8425087,-28
1660313122.74557,4373.8425128,30
1660313122.74557,4373.8425179,49
1660313122.74557,4373.8425219,14
1660313122.74557,4373.8425302,37
1660313122.74557,4373.8425359,56
1660313122.74557,4373.8425444,54
1660313122.74557,4373.8425509,61
1660313122.74557,4373.8425588,71
1660313122.74557,4373.8425651,89
1660313122.74557,4373.8425733,120
1660313122.74557,4373.8425798,134
1660313122.74557,4373.8425881,149
1660313122.74557,4373.8425942,182
1660313122.74557,4373.8426024,215
1660313122.74557,4373.8426087,248
1660313122.74557,4373.8426166,277
1660313122.74557,4373.8426228,286
1660313122.74557,4373.8426312,284
1660313122.74557,4373.8426374,274
1660313122.74557,4373.8426447,253
1660313122.74557,4373.8426487,232
1660313122.74557,4373.8426539,201
1660313122.74557,4373.8426587,142
1660313122.74557,4373.8426643,82
1660313122.74557,4373.8426686,54
1660313122.74557,4373.8426737,33
1660313122.74557,4373.8426782,9
1660313122.74557,4373.842682,0
1660313122.74557,4373.8426871,0
1660313122.74557,4373.8426908,-2
1660313122.74557,4373.8426958,-7
1660313122.74557,4373.8427001,-9
1660313122.74557,4373.8427052,-9
1660313122.74557,4373.8427089,-4
1660313122.74557,4373.8427136,-7
1660313122.75654,4373.8427185,-11
1660313122.75654,4373.8427228,-9
1660313122.75654,4373.8427277,-14
1660313122.75654,4373.8427312,-21
1660313122.75654,4373.8427348,7
1660313122.75654,4373.8427399,33
1660313122.75654,4373.8427442,28
1660313122.75654,4373.8427492,21
1660313122.75654,4373.8427527,11
1660313122.75654,4373.8427562,2
1660313122.75654,4373.8427611,16
1660313122.75654,4373.8427654,40
1660313122.75654,4373.8427689,44
1660313122.75654,4373.8427724,35
1660313122.75654,4373.8427771,40
1660313122.75654,4373.8427804,54
1660313122.75654,4373.8427839,54
1660313122.75654,4373.8427874,42
1660313122.75654,4373.8427907,30
1660313122.75654,4374.378605,30
1660313122.75654,4374.3786224,28
1660313122.75654,4374.3786319,23
1660313122.75654,4374.3786384,40
1660313122.75654,4374.3786447,56
1660313123.28284,4374.3786525,59
1660313123.28284,4374.3786566,21
1660313123.28284,4374.3786599,-7
1660313123.28284,4374.378663,172
1660313123.28284,4374.3786677,620
1660313123.28284,4374.3786727,956
1660313123.28284,4374.3786782,637
1660313123.28284,4374.3786846,-92
1660313123.28284,4374.3786922,-298
1660313123.28284,4374.3787019,-35
1660313123.28284,4374.3787083,4
1660313123.28284,4374.3787137,-66
1660313123.28284,4374.3787276,2
1660313123.28284,4374.3787351,26
1660313123.28284,4374.3787407,-26
1660313123.28284,4374.3787467,-33
1660313123.28284,4374.3787554,-18
1660313123.28284,4374.3787647,-21
1660313123.28284,4374.3787732,-14
1660313123.28284,4374.3787804,7
1660313123.28284,4374.3787881,26
1660313123.28284,4374.3787971,42
1660313123.28284,4374.3788046,66
1660313123.28284,4374.3788129,94
1660313123.28284,4374.3788238,120
1660313123.28284,4374.3788294,158
1660313123.28284,4374.378834,196
1660313123.28284,4374.3788405,224
1660313123.28284,4374.3788447,246
1660313123.28284,4374.3788509,255
1660313123.28284,4374.3788557,248
1660313123.28284,4374.3788672,227
1660313123.28284,4374.3788767,194
1660313123.28284,4374.378886,153
1660313123.28284,4374.3788968,106
1660313123.28284,4374.3789065,56
1660313123.28284,4374.3789144,26
1660313123.28284,4374.3789217,7
1660313123.28284,4374.3789283,-14
1660313123.28284,4374.3789341,-23
1660313123.28284,4374.3789399,-18
1660313123.28284,4374.378946,-11
1660313123.28284,4374.3789523,-4
1660313123.28284,4374.3789587,-9
1660313123.28284,4374.378965,-18
1660313123.28284,4374.3789723,-16
1660313123.28284,4374.3789829,-7
1660313123.28284,4374.3789951,-4
1660313123.28284,4374.3790061,-11
1660313123.28284,4374.3790169,-18
1660313123.29281,4374.379024,-11
1660313123.29281,4374.37903,-4
1660313123.29281,4374.3790377,-4
1660313123.29281,4374.3790443,0
1660313123.29281,4374.379053,16
1660313123.29281,4374.3790615,23
1660313123.29281,4374.3790697,11
1660313123.29281,4374.3790755,-2
1660313123.29281,4374.3790805,7
1660313123.29281,4374.3790881,26
1660313123.29281,4374.3790971,35
1660313123.29281,4374.3791045,37
1660313123.29281,4374.3791105,47
1660313123.29281,4374.3791157,63
1660313123.29281,4374.3791227,71
1660313123.29281,4374.379132,40
1660313123.29281,4374.3791399,11
1660313123.29281,4374.3791471,21
1660313123.29281,4374.9174325,30
1660313123.29281,4374.9174552,30
1660313123.29281,4374.9174652,40
1660313123.29281,4374.917474,44
1660313123.29281,4374.9174826,35
1660313123.29281,4374.9174891,4
1660313123.86327,4374.9174948,-49
1660313123.86327,4374.9175015,80
1660313123.86327,4374.9175054,554
1660313123.86327,4374.9175091,1011
1660313123.86327,4374.9175177,807
1660313123.86327,4374.9175278,-14
1660313123.86327,4374.9175338,-435
1660313123.86327,4374.9175373,-137
1660313123.86327,4374.9175439,21
1660313123.86327,4374.917549,-101
1660313123.86327,4374.9175534,-89
1660313123.86327,4374.9175577,-47
1660313123.86327,4374.9175644,-75
1660313123.86327,4374.9175749,-59
1660313123.86327,4374.9175851,-18
1660313123.86327,4374.9175944,-14
1660313123.86327,4374.9176012,-9
1660313123.86327,4374.9176217,7
1660313123.86327,4374.917639,9
1660313123.86327,4374.9176476,26
1660313123.86327,4374.9176527,59
1660313123.86327,4374.9176573,82
1660313123.86327,4374.9176618,104
1660313123.86327,4374.9176663,144
1660313123.86327,4374.9176707,182
1660313123.86327,4374.9176763,206
1660313123.86327,4374.9176825,229
1660313123.86327,4374.9176867,241
1660313123.86327,4374.9176908,236
1660313123.86327,4374.9176949,224
1660313123.86327,4374.9176992,196
1660313123.86327,4374.9177033,149
1660313123.86327,4374.9177073,111
1660313123.86327,4374.917711,75
1660313123.86327,4374.917715,33
1660313123.86327,4374.9177193,2
1660313123.86327,4374.9177255,-16
1660313123.86327,4374.9177297,-26
1660313123.86327,4374.9177339,-30
1660313123.86327,4374.917738,-30
1660313123.86327,4374.9177439,-28
1660313123.86327,4374.9177487,-28
1660313123.86327,4374.9177545,-33
1660313123.86327,4374.9177587,-33
1660313123.86327,4374.9177643,-16
1660313123.86327,4374.9177693,-4
1660313123.86327,4374.9177761,-7
1660313123.86327,4374.9177803,-4
1660313123.86327,4374.917786,0
1660313123.86327,4374.9177903,-9
1660313123.87425,4374.9177962,-11
1660313123.87425,4374.9178005,0
1660313123.87425,4374.9178063,7
1660313123.87425,4374.9178104,7
1660313123.87425,4374.9178145,0
1660313123.87425,4374.9178186,-4
1660313123.87425,4374.9178226,-4
1660313123.87425,4374.9178263,4
1660313123.87425,4374.9178301,21
1660313123.87425,4374.9178341,40
1660313123.87425,4374.9178381,44
1660313123.87425,4374.9178423,47
1660313123.87425,4374.9178463,54
1660313123.87425,4374.9178503,49
1660313123.87425,4374.9178541,33
1660313123.87425,4374.9178582,16
1660313123.87425,4374.9178623,16
1660313123.87425,4375.4996883,23
1660313123.87425,4375.4997106,16
1660313123.87425,4375.4997198,2
1660313123.87425,4375.4997246,4
1660313123.87425,4375.4997309,-2
1660313123.87425,4375.4997362,-61
1660313123.87425,4375.4997421,-111
1660313124.5942,4375.4997459,85
1660313124.5942,4375.4997498,634
1660313124.5942,4375.4997533,1056
1660313124.5942,4375.4997569,684
1660313124.5942,4375.4997606,-168
1660313124.5942,4375.4997643,-402
1660313124.5942,4375.499768,-71
1660313124.5942,4375.499772,-11
1660313124.5942,4375.499776,-111
1660313124.5942,4375.4997803,-37
1660313124.5942,4375.4997841,0
1660313124.5942,4375.4997907,-37
1660313124.5942,4375.4997977,-26
1660313124.5942,4375.4998032,-23
1660313124.5942,4375.499808,-33
1660313124.5942,4375.4998147,-9
1660313124.5942,4375.4998213,23
1660313124.5942,4375.4998263,40
1660313124.5942,4375.499833,49
1660313124.5942,4375.4998396,63
1660313124.5942,4375.4998451,94
1660313124.5942,4375.4998509,137
1660313124.5942,4375.4998555,165
1660313124.5942,4375.4998592,191
1660313124.5942,4375.4998621,229
1660313124.5942,4375.4998651,260
1660313124.5942,4375.4998683,265
1660313124.5942,4375.4998715,241
1660313124.5942,4375.4998768,203
1660313124.5942,4375.4998801,161
1660313124.5942,4375.4998839,134
1660313124.5942,4375.4998899,111
1660313124.5942,4375.4999261,59
1660313124.5942,4375.4999432,7
1660313124.5942,4375.4999516,-14
1660313124.5942,4375.4999566,-26
1660313124.5942,4375.4999598,-33
1660313124.5942,4375.4999726,-23
1660313124.5942,4375.4999857,-21
1660313124.5942,4375.4999915,-40
1660313124.5942,4375.4999937,-42
1660313124.5942,4375.4999966,-28
1660313124.5942,4375.5000346,-18
1660313124.5942,4375.5000528,-11
1660313124.5942,4375.5000592,-2
1660313124.5942,4375.5000639,-7
1660313124.5942,4375.5000681,-9
1660313124.5942,4375.5000723,-4
1660313124.5942,4375.5000766,4
1660313124.5942,4375.5000806,21
1660313124.61315,4375.5000856,14
1660313124.61315,4375.50009,-4
1660313124.61315,4375.5000958,16
1660313124.61315,4375.5001001,37
1660313124.61315,4375.5001039,16
1660313124.61315,4375.5001079,9
1660313124.61315,4375.5001118,26
1660313124.61315,4375.5001169,23
1660313124.61315,4375.5001257,9
1660313124.61315,4375.5001324,-7
1660313124.61315,4375.5001375,-28
1660313124.61315,4375.5001459,-30
1660313124.61315,4375.5001534,-7
1660313124.61315,4375.5001593,9
1660313124.61315,4375.500165,4
1660313124.61315,4375.5001697,11
1660313124.61315,4376.230897,23
1660313124.61315,4376.2309141,7
1660313124.61315,4376.230923,-4
1660313124.61315,4376.2309303,4
1660313124.61315,4376.230941,0
1660313124.61315,4376.2310613,-7
1660313124.61315,4376.2310715,9
1660313124.61315,4376.2310778,30
1660313124.98971,4376.2310853,33
1660313124.98971,4376.2310887,-11
1660313124.98971,4376.2310921,-92
1660313124.98971,4376.2310953,42
1660313124.98971,4376.2310986,582
1660313124.98971,4376.2311017,1094
1660313124.98971,4376.2311056,857
1660313124.98971,4376.2311087,-30
1660313124.98971,4376.2311121,-466
1660313124.98971,4376.2311152,-163
1660313124.98971,4376.2311185,2
1660313124.98971,4376.2311217,-106
1660313124.98971,4376.2311249,-63
1660313124.98971,4376.2311281,7
1660313124.98971,4376.2311314,-33
1660313124.98971,4376.2311347,-33
1660313124.98971,4376.231138,7
1660313124.98971,4376.2311414,9
1660313124.98971,4376.2311447,11
1660313124.98971,4376.2311479,23
1660313124.98971,4376.2311514,28
1660313124.98971,4376.2311546,44
1660313124.98971,4376.2311577,73
1660313124.98971,4376.2311607,101
1660313124.98971,4376.231165,134
1660313124.98971,4376.2311695,165
1660313124.98971,4376.2311738,187
1660313124.98971,4376.2311777,206
1660313124.98971,4376.2311832,239
1660313124.98971,4376.2311894,265
1660313124.98971,4376.2311944,255
1660313124.98971,4376.2311982,229
1660313124.98971,4376.2312013,203
1660313124.98971,4376.2312044,168
1660313124.98971,4376.2312074,108
1660313124.98971,4376.2312102,56
1660313124.98971,4376.2312131,42
1660313124.98971,4376.2312159,40
1660313124.98971,4376.2312187,11
1660313124.98971,4376.2312215,-26
1660313124.98971,4376.2312243,-28
1660313124.98971,4376.2312271,-9
1660313124.98971,4376.2312299,-21
1660313124.98971,4376.2312328,-42
1660313124.98971,4376.2312357,-44
1660313124.98971,4376.2312386,-35
1660313124.98971,4376.2312414,-35
1660313124.98971,4376.2312443,-30
1660313124.98971,4376.2312471,-18
1660313124.98971,4376.2312501,-18
1660313125.00167,4376.231253,-16
1660313125.00167,4376.2312559,-26
1660313125.00167,4376.2312587,-37
1660313125.00167,4376.2312617,-14
1660313125.00167,4376.2312645,9
1660313125.00167,4376.2312673,-4
1660313125.00167,4376.2312701,-11
1660313125.00167,4376.2312729,11
1660313125.00167,4376.2312757,23
1660313125.00167,4376.2312785,11
1660313125.00167,4376.2312815,16
1660313125.00167,4376.2312843,18
1660313125.00167,4376.2312872,2
1660313125.00167,4376.2312901,11
1660313125.00167,4376.2312931,40
1660313125.00167,4376.620598,47
1660313125.00167,4376.6206197,40
1660313125.00167,4376.6206271,37
1660313125.00167,4376.6206321,47
1660313125.00167,4376.6206369,63
1660313125.00167,4376.6206414,82
1660313125.00167,4376.620646,92
1660313125.00167,4376.6206504,99
1660313125.00167,4376.620655,116
1660313125.57198,4376.6206597,120
1660313125.57198,4376.6206643,97
1660313125.57198,4376.6206689,82
1660313125.57198,4376.6206731,92
1660313125.57198,4376.6206779,80
1660313125.57198,4376.6206825,63
1660313125.57198,4376.6206871,80
1660313125.57198,4376.6206913,101
1660313125.57198,4376.6206948,94
1660313125.57198,4376.6206999,56
1660313125.57198,4376.6207058,85
1660313125.57198,4376.6207097,421
1660313125.57198,4376.6207138,992
1660313125.57198,4376.6207195,1181
1660313125.57198,4376.6207232,518
1660313125.57198,4376.6207271,-277
1660313125.57198,4376.6207329,-234
1660313125.57198,4376.6207367,82
1660313125.57198,4376.6207404,26
1660313125.57198,4376.6207441,-9
1660313125.57198,4376.6207481,87
1660313125.57198,4376.6207521,87
1660313125.57198,4376.6207574,68
1660313125.57198,4376.6207608,85
1660313125.57198,4376.6207641,68
1660313125.57198,4376.6207687,63
1660313125.57198,4376.6207737,99
1660313125.57198,4376.6207774,125
1660313125.57198,4376.6207812,134
1660313125.57198,4376.6207848,118
1660313125.57198,4376.6207887,92
1660313125.57198,4376.6207927,113
1660313125.57198,4376.6207964,165
1660313125.57198,4376.6208018,196
1660313125.57198,4376.6208055,224
1660313125.57198,4376.6208092,269
1660313125.57198,4376.6208153,293
1660313125.57198,4376.6208193,288
1660313125.57198,4376.6208249,279
1660313125.57198,4376.6208289,272
1660313125.57198,4376.6208347,243
1660313125.57198,4376.6208385,175
1660313125.57198,4376.6208441,85
1660313125.57198,4376.6208491,18
1660313125.57198,4376.6208547,-30
1660313125.57198,4376.6208585,-73
1660313125.57198,4376.6208622,-85
1660313125.57198,4376.6208697,-89
1660313125.57198,4376.6208736,-104
1660313125.57198,4376.6208774,-101
1660313125.58595,4376.6208829,-78
1660313125.58595,4376.6208886,-73
1660313125.58595,4376.6208939,-80
1660313125.58595,4376.6208978,-71
1660313125.58595,4376.620903,-56
1660313125.58595,4376.6209068,-56
1660313125.58595,4376.6209122,-42
1660313125.58595,4376.6209159,-9
1660313125.58595,4376.6209217,4
1660313125.58595,4376.6209258,0
1660313125.58595,4376.6209357,7
1660313125.58595,4376.6209468,23
1660313125.58595,4376.6209596,40
1660313125.58595,4376.6209739,54
1660313125.58595,4377.2084466,52
1660313125.58595,4377.20846,47
1660313125.58595,4377.2084642,59
1660313125.58595,4377.2084674,66
1660313125.58595,4377.2084706,59
1660313125.58595,4377.2084736,61
1660313125.58595,4377.2084765,56
1660313125.58595,4377.2084794,56
1660313125.58595,4377.2084822,66
1660313125.58595,4377.2084851,44
1660313126.20639,4377.2084875,4
1660313126.20639,4377.2084901,-7
1660313126.20639,4377.2084927,21
1660313126.20639,4377.2084954,42
1660313126.20639,4377.2084981,42
1660313126.20639,4377.2085007,56
1660313126.20639,4377.2085034,59
1660313126.20639,4377.208506,33
1660313126.20639,4377.2085087,26
1660313126.20639,4377.2085113,18
1660313126.20639,4377.2085147,0
1660313126.20639,4377.2085242,11
1660313126.20639,4377.2085313,35
1660313126.20639,4377.2085376,28
1660313126.20639,4377.2085464,30
1660313126.20639,4377.20855,56
1660313126.20639,4377.2085522,59
1660313126.20639,4377.2085543,49
1660313126.20639,4377.2085564,201
1660313126.20639,4377.2085617,644
1660313126.20639,4377.2085744,1089
1660313126.20639,4377.2085808,907
1660313126.20639,4377.2085852,59
1660313126.20639,4377.2085874,-378
1660313126.20639,4377.2085894,-56
1660313126.20639,4377.2085914,92
1660313126.20639,4377.2085935,-35
1660313126.20639,4377.2085955,21
1660313126.20639,4377.2085976,89
1660313126.20639,4377.2085996,35
1660313126.20639,4377.2086016,26
1660313126.20639,4377.2086036,56
1660313126.20639,4377.2086057,59
1660313126.20639,4377.2086078,49
1660313126.20639,4377.2086098,37
1660313126.20639,4377.2086119,49
1660313126.20639,4377.2086141,75
1660313126.20639,4377.2086161,89
1660313126.20639,4377.2086182,106
1660313126.20639,4377.2086202,125
1660313126.20639,4377.2086222,149
1660313126.20639,4377.2086242,194
1660313126.20639,4377.2086263,227
1660313126.20639,4377.2086333,229
1660313126.20639,4377.2086455,241
1660313126.20639,4377.2086521,265
1660313126.20639,4377.208655,253
1660313126.20639,4377.2086572,215
1660313126.20639,4377.2086593,179
1660313126.20639,4377.2086613,130
1660313126.22036,4377.2086633,61
1660313126.22036,4377.2086654,4
1660313126.22036,4377.2086674,-28
1660313126.22036,4377.2086693,-44
1660313126.22036,4377.2086713,-59
1660313126.22036,4377.2086734,-75
1660313126.22036,4377.2086755,-75
1660313126.22036,4377.2086774,-66
1660313126.22036,4377.2086795,-61
1660313126.22036,4377.2086816,-63
1660313126.22036,4377.2086836,-66
1660313126.22036,4377.2086856,-52
1660313126.22036,4377.2086877,-40
1660313126.22036,4377.839619,-49
1660313126.22036,4377.8396396,-54
1660313126.22036,4377.8396502,-37
1660313126.22036,4377.8396551,-26
1660313126.22036,4377.8396612,-7
1660313126.22036,4377.8396656,26
1660313126.22036,4377.8396718,35
1660313126.22036,4377.8396764,33
1660313126.22036,4377.8396824,44
1660313126.22036,4377.8396871,33
1660313126.22036,4377.8396937,9
1660313126.68847,4377.8396987,37
1660313126.68847,4377.8397037,68
1660313126.68847,4377.839708,28
1660313126.68847,4377.8397129,-7
1660313126.68847,4377.8397175,14
1660313126.68847,4377.8397219,35
1660313126.68847,4377.8397261,26
1660313126.68847,4377.8397304,18
1660313126.68847,4377.8397342,2
1660313126.68847,4377.8397375,-26
1660313126.68847,4377.8397425,-26
1660313126.68847,4377.8397456,7
1660313126.68847,4377.8397487,26
1660313126.68847,4377.8397516,30
1660313126.68847,4377.8397546,23
1660313126.68847,4377.8397576,7
1660313126.68847,4377.8397606,11
1660313126.68847,4377.8397636,18
1660313126.69909,4377.8397666,2
1660313126.69909,4377.8397695,-18
1660313126.69909,4377.8397725,-9
1660313126.69909,4377.8397754,4
1660313126.69909,4377.839778,2
1660313126.69909,4377.8397809,9
1660313126.69909,4377.8397837,4
1660313126.69909,4377.8397866,-52
1660313126.69909,4377.8397895,-101
1660313126.69909,4377.8397923,78
1660313126.69909,4377.8397951,584
1660313126.69909,4377.839798,1089
1660313126.69909,4377.8398009,940
1660313126.69909,4377.8398037,75
1660313126.69909,4377.8398066,-452
1660313126.69909,4377.8398095,-187
1660313126.69909,4377.8398122,11
1660313126.69909,4377.8398151,-101
1660313126.69909,4377.8398238,-87
1660313126.69909,4377.8398294,-28
1660313126.69909,4377.8398398,-61
1660313126.69909,4377.8398484,-63
1660313126.69909,4377.8398509,-23
1660313126.69909,4377.839853,-23
1660313126.69909,4377.8398551,-28
1660313126.69909,4377.8398572,4
1660313126.69909,4377.8398593,33
1660313126.69909,4377.8398613,35
1660313126.69909,4377.8398635,37
1660313126.69909,4377.8398718,61
1660313126.69909,4377.8398823,99
1660313126.69909,4377.8398857,132
1660313126.69909,4377.8398886,149
1660313126.69909,4377.8398922,187
1660313126.69909,4377.8399049,253
1660313126.69909,4377.8399111,272
1660313126.69909,4377.8399138,248
1660313126.69909,4377.8399235,248
1660313126.69909,4377.8399318,246
1660313126.69909,4377.8399342,196
1660313126.69909,4377.8399363,130
1660313126.69909,4377.8399524,80
1660313126.69909,4377.8399657,37
1660313126.69909,4377.8399789,0
1660313126.69909,4378.3271808,-35
1660313126.69909,4378.3272005,-56
1660313126.69909,4378.32721,-47
1660313126.69909,4378.3272161,-33
1660313126.69909,4378.3272197,-40
1660313126.69909,4378.3272228,-47
1660313126.71005,4378.3272258,-42
1660313126.71005,4378.3272289,-37
1660313126.71005,4378.3272345,-26
1660313126.71005,4378.3272388,-21
1660313126.71005,4378.3272455,-40
1660313126.71005,4378.3272489,-54
1660313127.23749,4378.3272555,-35
1660313127.23749,4378.3272596,-9
1660313127.23749,4378.3272659,7
1660313127.23749,4378.3272715,21
1660313127.23749,4378.3272781,14
1660313127.23749,4378.3272831,-7
1660313127.23749,4378.3272864,-7
1660313127.23749,4378.3272896,2
1660313127.23749,4378.3272938,0
1660313127.23749,4378.3272969,2
1660313127.23749,4378.3272997,14
1660313127.23749,4378.3273028,26
1660313127.23749,4378.3273059,30
1660313127.23749,4378.3273108,30
1660313127.23749,4378.3273162,30
1660313127.23749,4378.3273195,35
1660313127.23749,4378.3273228,33
1660313127.23749,4378.3273285,26
1660313127.23749,4378.3273382,18
1660313127.23749,4378.327351,11
1660313127.23749,4378.3273645,7
1660313127.23749,4378.3273713,26
1660313127.23749,4378.3273746,49
1660313127.23749,4378.3273768,47
1660313127.23749,4378.327379,47
1660313127.23749,4378.3273862,71
1660313127.23749,4378.3273971,80
1660313127.23749,4378.327402,73
1660313127.23749,4378.3274063,68
1660313127.23749,4378.3274192,59
1660313127.23749,4378.3274327,40
1660313127.23749,4378.3274445,42
1660313127.23749,4378.327455,61
1660313127.23749,4378.3274584,61
1660313127.23749,4378.3274613,52
1660313127.23749,4378.3274648,54
1660313127.23749,4378.327475,37
1660313127.23749,4378.327483,2
1660313127.23749,4378.3274857,132
1660313127.23749,4378.3274878,606
1660313127.23749,4378.3274899,1143
1660313127.23749,4378.3274926,1077
1660313127.23749,4378.3275034,239
1660313127.23749,4378.3275105,-400
1660313127.23749,4378.3275128,-194
1660313127.23749,4378.3275157,66
1660313127.23749,4378.3275178,-33
1660313127.23749,4378.3275222,-52
1660313127.23749,4378.3275339,26
1660313127.23749,4378.3275453,9
1660313127.25943,4378.3275584,2
1660313127.25943,4378.327573,42
1660313127.25943,4378.3275863,49
1660313127.25943,4378.3275995,49
1660313127.25943,4378.3276126,78
1660313127.25943,4378.3276257,94
1660313127.25943,4378.3276388,97
1660313127.25943,4378.327652,118
1660313127.25943,4378.3276655,144
1660313127.25943,4378.3276738,163
1660313127.25943,4378.3276763,189
1660313127.25943,4378.8636893,227
1660313127.25943,4378.8637085,265
1660313127.25943,4378.8637183,300
1660313127.25943,4378.8637237,331
1660313127.25943,4378.8637307,345
1660313127.25943,4378.8637363,333
1660313127.25943,4378.8637436,298
1660313127.25943,4378.8637485,243
1660313127.25943,4378.8637553,187
1660313127.25943,4378.8637609,134
1660313127.25943,4378.8637674,73
1660313127.25943,4378.8637719,23
1660313127.25943,4378.8637776,14
1660313127.81072,4378.8637832,7
1660313127.81072,4378.8637874,-23
1660313127.81072,4378.8637916,-47
1660313127.81072,4378.8637959,-37
1660313127.81072,4378.8638011,-23
1660313127.81072,4378.8638052,-28
1660313127.81072,4378.8638084,-40
1660313127.81072,4378.8638123,-47
1660313127.81072,4378.8638155,-52
1660313127.81072,4378.8638214,-56
1660313127.81072,4378.8638275,-56
1660313127.81072,4378.8638342,-44
1660313127.81072,4378.8638491,-37
1660313127.81072,4378.8638562,-30
1660313127.81072,4378.8638592,-16
1660313127.81072,4378.8638666,4
1660313127.81072,4378.8638791,28
1660313127.81072,4378.863891,49
1660313127.81072,4378.8639057,61
1660313127.81072,4378.8639182,71
1660313127.81072,4378.8639293,73
1660313127.81072,4378.8639433,66
1660313127.81072,4378.8639572,49
1660313127.81072,4378.8639693,37
1660313127.81072,4378.8639832,37
1660313127.81072,4378.8639972,42
1660313127.81072,4378.8640104,49
1660313127.81072,4378.8640204,52
1660313127.81072,4378.8640306,59
1660313127.81072,4378.8640372,82
1660313127.81072,4378.8640394,97
1660313127.81072,4378.8640416,87
1660313127.81072,4378.8640436,73
1660313127.81072,4378.8640458,59
1660313127.81072,4378.8640538,42
1660313127.81072,4378.8640683,40
1660313127.81072,4378.8640814,49
1660313127.81072,4378.8640944,54

1660313127.81072,4378.8641076,52
1660313127.81072,4378.8641209,59
1660313127.81072,4378.864134,78
1660313127.81072,4378.864147,97
1660313127.81072,4378.8641602,108
1660313127.81072,4378.8641733,101
1660313127.81072,4378.8641865,78
1660313127.81072,4378.8641997,63
1660313127.81072,4378.8642128,61
1660313127.81072,4378.8642252,63
1660313127.81072,4378.8642366,75
1660313127.81072,4378.8642508,92
1660313127.82369,4378.8642825,108
1660313127.82369,4378.8642902,111
1660313127.82369,4378.8642959,94
1660313127.82369,4378.8643043,99
1660313127.82369,4378.8643126,284
1660313127.82369,4378.8643207,781
1660313127.82369,4378.8643283,1259
1660313127.82369,4378.864343,1023
1660313127.82369,4378.8643547,113
1660313127.82369,4378.8643601,-338
1660313127.82369,4379.4490511,-26
1660313127.82369,4379.4490646,132
1660313127.82369,4379.4490674,18
1660313127.82369,4379.4490697,66
1660313127.82369,4379.449073,120
1660313127.82369,4379.449075,68
1660313127.82369,4379.4490771,73
1660313127.82369,4379.4490792,120
1660313127.82369,4379.4490813,118
1660313127.82369,4379.449084,104
1660313127.82369,4379.4490861,99
1660313127.82369,4379.4490881,104
1660313127.82369,4379.4490901,134
1660313127.82369,4379.4490921,170
1660313128.36202,4379.4490941,175
1660313128.36202,4379.4490968,158
1660313128.36202,4379.4491053,168
1660313128.36202,4379.4491143,208
1660313128.36202,4379.4491176,251
1660313128.36202,4379.4491197,281
1660313128.36202,4379.4491217,310
1660313128.36202,4379.4491247,336
1660313128.36202,4379.4491361,336
1660313128.36202,4379.4491493,312
1660313128.36202,4379.4491553,284
1660313128.36202,4379.4491584,241
1660313128.36202,4379.4491605,187
1660313128.36202,4379.4491625,134
1660313128.36202,4379.4491647,71
1660313128.36202,4379.4491747,9
1660313128.36202,4379.4491838,-9
1660313128.36202,4379.4491862,7
1660313128.36202,4379.4491883,18
1660313128.36202,4379.4491904,16
1660313128.36202,4379.4491978,11
1660313128.36202,4379.4492421,14
1660313128.36202,4379.4492514,14
1660313128.36202,4379.449259,-2
1660313128.36202,4379.4492753,-18
1660313128.36202,4379.4492829,-16
1660313128.36202,4379.4492857,4
1660313128.36202,4379.449288,11
1660313128.36202,4379.449296,0
1660313128.36202,4379.4493064,14
1660313128.36202,4379.449311,61
1660313128.36202,4379.4493131,87
1660313128.36202,4379.4493156,63
1660313128.36202,4379.4493257,56
1660313128.36202,4379.4493577,75
1660313128.36202,4379.4493686,66
1660313128.36202,4379.4493768,49
1660313128.36202,4379.4493879,59
1660313128.36202,4379.4493984,52
1660313128.36202,4379.4494075,35
1660313128.36202,4379.4494206,37
1660313128.36202,4379.4494316,37
1660313128.36202,4379.4494397,28
1660313128.36202,4379.4494516,37
1660313128.36202,4379.4494638,52
1660313128.36202,4379.4494743,37
1660313128.36202,4379.4494815,23
1660313128.36202,4379.4494899,35
1660313128.36202,4379.4494933,56
1660313128.36202,4379.4494999,63
1660313128.37798,4379.4495057,71
1660313128.37798,4379.4495105,82
1660313128.37798,4379.4495162,89
1660313128.37798,4379.4495206,73
1660313128.37798,4379.4495267,52
1660313128.37798,4379.4495302,40
1660313128.37798,4379.4495339,35
1660313128.37798,4379.4495396,42
1660313128.37798,4379.4495453,47
1660313128.37798,4379.9849335,44
1660313128.37798,4379.9849523,56
1660313128.37798,4379.9849629,73
1660313128.37798,4379.9849687,61
1660313128.37798,4379.984977,56
1660313128.37798,4379.9849813,253
1660313128.37798,4379.9849936,736
1660313128.37798,4379.9850045,1115
1660313128.37798,4379.9850135,760
1660313128.37798,4379.9850211,-99
1660313128.37798,4379.9850304,-378
1660313128.37798,4379.9850413,-40
1660313128.37798,4379.9850496,30
1660313128.37798,4379.9850594,-94
1660313128.37798,4379.9850704,-28
1660313128.94317,4379.985079,33
1660313128.94317,4379.9850881,-4
1660313128.94317,4379.9850975,11
1660313128.94317,4379.985106,49
1660313128.94317,4379.985115,23
1660313128.94317,4379.9851229,-9
1660313128.94317,4379.9851293,11
1660313128.94317,4379.9851379,56
1660313128.94317,4379.9851405,89
1660313128.94317,4379.9851427,104
1660313128.94317,4379.9851448,118
1660313128.94317,4379.9851468,137
1660313128.94317,4379.9851488,168
1660313128.94317,4379.9851507,208
1660313128.94317,4379.9851527,248
1660313128.94317,4379.9851579,284
1660313128.94317,4379.9851692,305
1660313128.94317,4379.9851746,312
1660313128.94317,4379.9851768,305
1660313128.94317,4379.9851788,277
1660313128.94317,4379.9851809,241
1660313128.94317,4379.985183,198
1660313128.94317,4379.9851926,134
1660313128.94317,4379.9852014,63
1660313128.94317,4379.985204,16
1660313128.94317,4379.9852062,-2
1660313128.94317,4379.9852083,-9
1660313128.94317,4379.9852103,-16
1660313128.94317,4379.9852124,-16
1660313128.94317,4379.9852144,-11
1660313128.94317,4379.9852165,-16
1660313128.94317,4379.9852185,-23
1660313128.94317,4379.9852205,-23
1660313128.94317,4379.9852226,-14
1660313128.94317,4379.9852247,-2
1660313128.94317,4379.9852267,-4
1660313128.94317,4379.9852287,-9
1660313128.94317,4379.9852308,4
1660313128.94317,4379.9852328,18
1660313128.94317,4379.9852349,30
1660313128.94317,4379.985237,47
1660313128.94317,4379.9852391,54
1660313128.94317,4379.9852411,44
1660313128.94317,4379.9852432,35
1660313128.94317,4379.9852452,44
1660313128.94317,4379.9852473,47
1660313128.94317,4379.9852494,23
1660313128.94317,4379.9852516,7
1660313128.94317,4379.9852537,7
1660313128.94317,4379.9852557,0
1660313128.95788,4379.9852578,-2
1660313128.95788,4379.9852598,4
1660313128.95788,4379.9852619,2
1660313128.95788,4379.9852643,-2
1660313128.95788,4379.9852743,7
1660313128.95788,4379.9852825,14
1660313128.95788,4379.9852849,11
1660313128.95788,4379.985287,9
1660313128.95788,4380.5697347,-2
1660313128.95788,4380.5697531,-16
1660313128.95788,4380.5697623,-16
1660313128.95788,4380.5697685,-9
1660313128.95788,4380.5697743,2
1660313128.95788,4380.5697784,23
1660313128.95788,4380.5697837,37
1660313128.95788,4380.5697873,54
1660313128.95788,4380.5697908,63
1660313128.95788,4380.5697945,47
1660313128.95788,4380.5697983,7
1660313128.95788,4380.5698036,-14
1660313128.95788,4380.5698085,-2
1660313128.95788,4380.5698138,4
1660313128.95788,4380.5698177,7
1660313128.95788,4380.5698229,9
1660313129.47925,4380.5698267,-7
1660313129.47925,4380.5698304,-9
1660313129.47925,4380.5698341,-2
1660313129.47925,4380.5698376,2
1660313129.47925,4380.5698412,215
1660313129.47925,4380.5698448,738
1660313129.47925,4380.5698484,1084
1660313129.47925,4380.5698519,653
1660313129.47925,4380.5698554,-198
1660313129.47925,4380.5698592,-423
1660313129.47925,4380.5698628,-78
1660313129.47925,4380.5698664,16
1660313129.47925,4380.5698701,-73
1660313129.47925,4380.5698743,-23
1660313129.47925,4380.5698781,14
1660313129.47925,4380.5698842,7
1660313129.47925,4380.5698881,35
1660313129.47925,4380.5698935,47
1660313129.47925,4380.5698973,37
1660313129.47925,4380.5699028,52
1660313129.47925,4380.5699064,82
1660313129.47925,4380.5699101,104
1660313129.47925,4380.5699156,113
1660313129.47925,4380.5699193,132
1660313129.47925,4380.569925,165
1660313129.47925,4380.5699289,184
1660313129.47925,4380.5699553,201
1660313129.47925,4380.5699699,243
1660313129.47925,4380.5699768,291
1660313129.47925,4380.5699816,324
1660313129.47925,4380.5699864,352
1660313129.47925,4380.5699911,364
1660313129.47925,4380.5699954,350
1660313129.47925,4380.5700003,312
1660313129.47925,4380.5700051,267
1660313129.47925,4380.5700101,220
1660313129.47925,4380.570015,156
1660313129.47925,4380.5700197,101
1660313129.47925,4380.5700245,75
1660313129.47925,4380.5700289,42
1660313129.47925,4380.570033,-4
1660313129.47925,4380.5700376,-21
1660313129.47925,4380.5700422,-11
1660313129.47925,4380.5700471,-11
1660313129.47925,4380.570052,-21
1660313129.47925,4380.5700568,-21
1660313129.47925,4380.5700616,-18
1660313129.47925,4380.5700661,-14
1660313129.47925,4380.5700704,-7
1660313129.47925,4380.5700749,-7
1660313129.49121,4380.5700798,-21
1660313129.49121,4380.5700846,-23
1660313129.49121,4380.5700894,-21
1660313129.49121,4380.5700946,-33
1660313129.49121,4380.5700998,-35
1660313129.49121,4380.570107,-14
1660313129.49121,4380.5701119,-2
1660313129.49121,4381.1059164,-7
1660313129.49121,4381.1059307,-7
1660313129.49121,4381.1059346,-4
1660313129.49121,4381.1059436,-11
1660313129.49121,4381.1059531,-7
1660313129.49121,4381.1059666,9
1660313129.49121,4381.1059803,4
1660313129.49121,4381.1059938,-2
1660313129.49121,4381.1060072,9
1660313129.49121,4381.1060156,11
1660313129.49121,4381.1060182,-4
1660313129.49121,4381.1060203,-16
1660313129.49121,4381.1060224,-26
1660313129.49121,4381.1060244,-40
1660313129.49121,4381.1060265,-18
1660313129.49121,4381.1060285,23
1660313129.49121,4381.1060305,26
1660313130.00314,4381.1060326,7
1660313130.00314,4381.1060346,-4
1660313130.00314,4381.1060365,-33
1660313130.00314,4381.1060384,-56
1660313130.00314,4381.1060403,-44
1660313130.00314,4381.1060422,-28
1660313130.00314,4381.1060442,-28
1660313130.00314,4381.1060461,-23
1660313130.00314,4381.1060481,-18
1660313130.00314,4381.1060505,-30
1660313130.00314,4381.1060548,-59
1660313130.00314,4381.1060587,23
1660313130.00314,4381.1060628,431
1660313130.00314,4381.1060687,985
1660313130.00314,4381.106077,1039
1660313130.00314,4381.1060818,300
1660313130.00314,4381.1060884,-371
1660313130.00314,4381.1060933,-229
1660313130.00314,4381.1061,54
1660313130.00314,4381.1061034,-16
1660313130.00314,4381.1061064,-40
1660313130.00314,4381.1061094,42
1660313130.00314,4381.1061123,33
1660313130.00314,4381.1061152,9
1660313130.00314,4381.1061182,40
1660313130.00314,4381.1061211,59
1660313130.00314,4381.106124,59
1660313130.00314,4381.1061269,71
1660313130.00314,4381.1061298,82
1660313130.00314,4381.1061327,101
1660313130.00314,4381.1061358,123
1660313130.00314,4381.1061387,139
1660313130.00314,4381.1061416,161
1660313130.00314,4381.1061445,187
1660313130.00314,4381.1061474,215
1660313130.00314,4381.1061502,253
1660313130.00314,4381.1061532,281
1660313130.00314,4381.1061561,296
1660313130.00314,4381.106159,317
1660313130.00314,4381.1061619,331
1660313130.00314,4381.1061649,307
1660313130.00314,4381.1061692,253
1660313130.00314,4381.1061755,201
1660313130.00314,4381.1061801,151
1660313130.00314,4381.1061865,97
1660313130.00314,4381.1061918,54
1660313130.00314,4381.1061947,30
1660313130.00314,4381.1061976,16
1660313130.00314,4381.1062004,7
1660313130.00314,4381.1062033,-11
1660313130.0171,4381.1062062,-28
1660313130.0171,4381.1062091,-23
1660313130.0171,4381.106212,-7
1660313130.0171,4381.1062149,-2
1660313130.0171,4381.1062178,-4
1660313130.0171,4381.1062208,0
1660313130.0171,4381.6424153,4
1660313130.0171,4381.6424274,4
1660313130.0171,4381.6424311,4
1660313130.0171,4381.6424343,2
1660313130.0171,4381.6424375,4
1660313130.0171,4381.6424404,14
1660313130.0171,4381.6424433,16
1660313130.0171,4381.6424461,11
1660313130.0171,4381.6424489,14
1660313130.0171,4381.6424517,0
1660313130.0171,4381.6424545,-37
1660313130.0171,4381.6424573,-40
1660313130.0171,4381.64246,-21
1660313130.0171,4381.6424626,-23
1660313130.0171,4381.6424651,-23
1660313130.0171,4381.6424676,-18
1660313130.0171,4381.64247,-37
1660313130.0171,4381.6424724,-56
1660313130.73601,4381.6424748,-47
1660313130.73601,4381.6424776,-35
1660313130.73601,4381.6424802,-35
1660313130.73601,4381.6424827,-30
1660313130.73601,4381.6424852,-7
1660313130.73601,4381.6424878,14
1660313130.73601,4381.64249,33
1660313130.73601,4381.6424922,49
1660313130.73601,4381.6424979,59
1660313130.73601,4381.642511,54
1660313130.73601,4381.6425197,44
1660313130.73601,4381.6425223,30
1660313130.73601,4381.6425244,21
1660313130.73601,4381.642529,30
1660313130.73601,4381.6425405,49
1660313130.73601,4381.642546,54
1660313130.73601,4381.6425483,44
1660313130.73601,4381.6425504,42
1660313130.73601,4381.6425524,30
1660313130.73601,4381.6425554,2
1660313130.73601,4381.6425681,111
1660313130.73601,4381.6425739,542
1660313130.73601,4381.6425762,1065
1660313130.73601,4381.6425784,1039
1660313130.73601,4381.6425806,248
1660313130.73601,4381.6425901,-359
1660313130.73601,4381.6425993,-151
1660313130.73601,4381.642602,92
1660313130.73601,4381.6426043,-7
1660313130.73601,4381.6426063,2
1660313130.73601,4381.6426083,85
1660313130.73601,4381.6426141,54
1660313130.73601,4381.6426251,33
1660313130.73601,4381.6426299,68
1660313130.73601,4381.6426321,73
1660313130.73601,4381.6426341,63
1660313130.73601,4381.642637,75
1660313130.73601,4381.6426475,97
1660313130.73601,4381.6426547,120
1660313130.73601,4381.6426571,144
1660313130.73601,4381.6426592,168
1660313130.73601,4381.6426612,189
1660313130.73601,4381.6426643,208
1660313130.73601,4381.6426771,236
1660313130.73601,4381.6426828,286
1660313130.73601,4381.6426852,322
1660313130.73601,4381.6426873,341
1660313130.73601,4381.6426894,362
1660313130.73601,4381.6426966,341
1660313130.73601,4381.6427072,293
1660313130.75297,4381.6427108,281
1660313130.75297,4381.6427145,258
1660313130.75297,4381.6427202,189
1660313130.75297,4381.6427364,127
1660313130.75297,4381.6427393,94
1660313130.75297,4382.3736228,61
1660313130.75297,4382.3736416,35
1660313130.75297,4382.3736509,16
1660313130.75297,4382.3736549,-7
1660313130.75297,4382.3736601,-11
1660313130.75297,4382.3736636,-7
1660313130.75297,4382.3736686,-16
1660313130.75297,4382.3736721,-44
1660313130.75297,4382.3736769,-49
1660313130.75297,4382.373681,-35
1660313130.75297,4382.3736861,-28
1660313130.75297,4382.3736894,-26
1660313130.75297,4382.3736925,-26
1660313130.75297,4382.3736958,-35
1660313130.75297,4382.3736991,-26
1660313130.75297,4382.3737041,-11
1660313130.75297,4382.3737074,-23
1660313130.75297,4382.373713,-26
1660313130.75297,4382.3737167,-4
1660313131.18603,4382.3737198,-16
1660313131.18603,4382.3737231,-30
1660313131.18603,4382.3737263,-7
1660313131.18603,4382.3737293,2
1660313131.18603,4382.3737324,-7
1660313131.18603,4382.3737356,-14
1660313131.18603,4382.3737388,-18
1660313131.18603,4382.373742,-26
1660313131.18603,4382.3737451,-23
1660313131.18603,4382.3737489,-11
1660313131.18603,4382.3737544,0
1660313131.18603,4382.3737607,16
1660313131.18603,4382.373764,23
1660313131.18603,4382.3737678,14
1660313131.18603,4382.3737707,4
1660313131.18603,4382.3737966,-2
1660313131.18603,4382.3738068,-4
1660313131.18603,4382.3738119,4
1660313131.18603,4382.3738166,16
1660313131.18603,4382.37382,11
1660313131.18603,4382.3738234,14
1660313131.18603,4382.373828,30
1660313131.18603,4382.3738336,26
1660313131.18603,4382.3738397,-2
1660313131.18603,4382.3738466,71
1660313131.18603,4382.3738563,414
1660313131.18603,4382.3738653,876
1660313131.18603,4382.373872,892
1660313131.18603,4382.3738751,168
1660313131.18603,4382.3738782,-433
1660313131.18603,4382.3738812,-215
1660313131.18603,4382.3738841,37
1660313131.18603,4382.3738871,-61
1660313131.18603,4382.3738903,-30
1660313131.18603,4382.3738965,63
1660313131.18603,4382.3739009,18
1660313131.18603,4382.3739069,-2
1660313131.18603,4382.3739131,40
1660313131.18603,4382.3739162,59
1660313131.18603,4382.373923,56
1660313131.18603,4382.3739361,66
1660313131.18603,4382.373946,87
1660313131.18603,4382.3739534,101
1660313131.18603,4382.3739606,111
1660313131.18603,4382.3739663,130
1660313131.18603,4382.3739748,156
1660313131.18603,4382.373981,189
1660313131.18603,4382.3739892,227
1660313131.18603,4382.3739951,267
1660313131.18603,4382.374003,298
1660313131.19999,4382.3740091,319
1660313131.19999,4382.3740172,324
1660313131.19999,4382.3740236,303
1660313131.19999,4382.3740272,272
1660313131.19999,4382.8130903,258
1660313131.19999,4382.8131081,227
1660313131.19999,4382.8131149,158
1660313131.19999,4382.8131222,94
1660313131.19999,4382.8131289,49
1660313131.19999,4382.8131359,7
1660313131.19999,4382.8131408,0
1660313131.19999,4382.8131448,7
1660313131.19999,4382.8131494,-16
1660313131.19999,4382.8131542,-37
1660313131.19999,4382.8131596,-40
1660313131.19999,4382.8131688,-37
1660313131.19999,4382.8131742,-28
1660313131.19999,4382.8131827,-18
1660313131.19999,4382.8131879,-23
1660313131.19999,4382.8132019,-18
1660313131.19999,4382.8132121,-9
1660313131.19999,4382.8132199,-11
1660313131.19999,4382.8132278,-11
1660313131.19999,4382.8132324,-2
1660313131.71504,4382.8132468,18
1660313131.71504,4382.8132572,37
1660313131.71504,4382.8132664,30
1660313131.71504,4382.8132723,18
1660313131.71504,4382.8132762,16
1660313131.71504,4382.8132795,28
1660313131.71504,4382.8132843,42
1660313131.71504,4382.8132895,35
1660313131.71504,4382.813297,11
1660313131.71504,4382.8133059,-14
1660313131.71504,4382.8133182,-18
1660313131.71504,4382.8133301,-2
1660313131.71504,4382.8133355,0
1660313131.71504,4382.813341,-16
1660313131.71504,4382.8133537,-18
1660313131.71504,4382.8133607,-14
1660313131.71504,4382.8133719,-23
1660313131.71504,4382.8133848,-28
1660313131.71504,4382.8133979,-33
1660313131.71504,4382.813411,-49
1660313131.71504,4382.8134242,-54
1660313131.71504,4382.8134373,-49
1660313131.71504,4382.8134433,-52
1660313131.71504,4382.813453,-49
1660313131.71504,4382.8134652,-40
1660313131.71504,4382.8134756,-23
1660313131.71504,4382.8134809,-16
1660313131.71504,4382.8134945,-52
1660313131.71504,4382.8135042,-37
1660313131.71504,4382.8135107,267
1660313131.71504,4382.8135229,812
1660313131.71504,4382.813533,1020
1660313131.71504,4382.8135375,419
1660313131.71504,4382.8135464,-341
1660313131.71504,4382.8135534,-307
1660313131.71504,4382.8135599,16
1660313131.71504,4382.8135634,-30
1660313131.71504,4382.8135695,-80
1660313131.71504,4382.8135807,16
1660313131.71504,4382.8135898,28
1660313131.71504,4382.8135972,-9
1660313131.71504,4382.8136058,0
1660313131.71504,4382.8136108,26
1660313131.71504,4382.8136197,47
1660313131.71504,4382.8136244,56
1660313131.71504,4382.8136334,61
1660313131.71504,4382.8136403,78
1660313131.71504,4382.8136489,99
1660313131.71504,4382.8136536,118
1660313131.71504,4382.8136603,142
1660313131.73,4382.8136671,172
1660313131.73,4382.8136747,201
1660313131.73,4382.8136793,234
1660313131.73,4383.3483449,272
1660313131.73,4383.348363,300
1660313131.73,4383.3483689,314
1660313131.73,4383.3483742,307
1660313131.73,4383.3483786,279
1660313131.73,4383.3483856,248
1660313131.73,4383.3483926,210
1660313131.73,4383.3484,165
1660313131.73,4383.3484052,111
1660313131.73,4383.3484097,61
1660313131.73,4383.3484152,33
1660313131.73,4383.3484211,18
1660313131.73,4383.3484298,-2
1660313131.73,4383.3484359,-40
1660313131.73,4383.3484403,-61
1660313131.73,4383.3484435,-59
1660313131.73,4383.3484467,-47
1660313131.73,4383.3484497,-40
1660313131.73,4383.3484527,-47
1660313131.73,4383.3484556,-66
1660313131.73,4383.3484584,-73
1660313132.34726,4383.348463,-54
1660313132.34726,4383.3484658,-35
1660313132.34726,4383.3484686,-23
1660313132.34726,4383.3484714,-11
1660313132.34726,4383.3484751,-4
1660313132.34726,4383.3484792,-11
1660313132.34726,4383.348483,-23
1660313132.34726,4383.3484862,-30
1660313132.34726,4383.3484899,-21
1660313132.34726,4383.3484958,-14
1660313132.34726,4383.3484996,-14
1660313132.34726,4383.3485053,-18
1660313132.34726,4383.3485091,-30
1660313132.34726,4383.3485147,-26
1660313132.34726,4383.3485205,-4
1660313132.34726,4383.348526,4
1660313132.34726,4383.3485307,7
1660313132.34726,4383.3485363,11
1660313132.34726,4383.3485424,14
1660313132.34726,4383.348546,21
1660313132.34726,4383.3485502,26
1660313132.34726,4383.3485562,7
1660313132.34726,4383.3485619,-11
1660313132.34726,4383.3485655,-18
1660313132.34726,4383.3485707,-26
1660313132.34726,4383.3485778,-30
1660313132.34726,4383.3485847,-28
1660313132.34726,4383.3485897,-21
1660313132.34726,4383.3485975,-21
1660313132.34726,4383.3486017,-63
1660313132.34726,4383.3486083,-80
1660313132.34726,4383.3486127,156
1660313132.34726,4383.3486191,677
1660313132.34726,4383.3486264,1008
1660313132.34726,4383.3486331,584
1660313132.34726,4383.3486418,-210
1660313132.34726,4383.348647,-374
1660313132.34726,4383.3486535,-35
1660313132.34726,4383.348658,16
1660313132.34726,4383.3486624,-78
1660313132.34726,4383.3486682,-11
1660313132.34726,4383.3486762,21
1660313132.34726,4383.3486834,-18
1660313132.34726,4383.3486892,7
1660313132.34726,4383.3486943,59
1660313132.34726,4383.3486979,66
1660313132.34726,4383.3487029,66
1660313132.34726,4383.3487102,75
1660313132.34726,4383.348715,80
1660313132.34726,4383.3487225,97
1660313132.36122,4383.3487288,111
1660313132.36122,4383.3487354,116
1660313132.36122,4383.9837336,146
1660313132.36122,4383.9837468,184
1660313132.36122,4383.9837518,210
1660313132.36122,4383.9837639,241
1660313132.36122,4383.983774,272
1660313132.36122,4383.983783,288
1660313132.36122,4383.9837905,286
1660313132.36122,4383.9837972,262
1660313132.36122,4383.9838083,222
1660313132.36122,4383.9838189,156
1660313132.36122,4383.9838277,85
1660313132.36122,4383.9838364,47
1660313132.36122,4383.9838434,30
1660313132.36122,4383.9838459,-2
1660313132.36122,4383.9838481,-23
1660313132.36122,4383.9838501,-40
1660313132.36122,4383.9838521,-73
1660313132.36122,4383.9838543,-92
1660313132.36122,4383.9838564,-75
1660313132.36122,4383.9838585,-63
1660313132.36122,4383.9838605,-66
1660313132.36122,4383.9838627,-75
1660313132.84308,4383.9838688,-85
1660313132.84308,4383.9838787,-78
1660313132.84308,4383.9838829,-52
1660313132.84308,4383.983885,-35
1660313132.84308,4383.9838869,-30
1660313132.84308,4383.9838889,-30
1660313132.84308,4383.9838952,-18
1660313132.84308,4383.9839039,-4
1660313132.84308,4383.9839173,-4
1660313132.84308,4383.9839285,-4
1660313132.84308,4383.9839368,2
1660313132.84308,4383.9839469,11
1660313132.84308,4383.9839577,21
1660313132.84308,4383.9839654,23
1660313132.84308,4383.9839787,23
1660313132.84308,4383.9839892,26
1660313132.84308,4383.9839976,26
1660313132.84308,4383.9840089,42
1660313132.84308,4383.9840203,68
1660313132.84308,4383.9840262,82
1660313132.84308,4383.9840305,89
1660313132.84308,4383.9840355,99
1660313132.84308,4383.9840413,108
1660313132.84308,4383.9840449,99
1660313132.84308,4383.9840485,73
1660313132.84308,4383.9840522,63
1660313132.84308,4383.9840573,71
1660313132.84308,4383.9840634,59
1660313132.84308,4383.9840672,52
1660313132.84308,4383.9840738,66
1660313132.84308,4383.9840777,82
1660313132.84308,4383.9840827,75
1660313132.84308,4383.9840949,26
1660313132.84308,4383.9841022,30
1660313132.84308,4383.9841067,303
1660313132.84308,4383.9841125,821
1660313132.84308,4383.9841168,1058
1660313132.84308,4383.9841209,516
1660313132.84308,4383.9841276,-236
1660313132.84308,4383.9841333,-279
1660313132.84308,4383.9841383,11
1660313132.84308,4383.9841439,-9
1660313132.84308,4383.9841477,-73
1660313132.84308,4383.9841515,-2
1660313132.84308,4383.9841575,7
1660313132.84308,4383.9841615,-14
1660313132.84308,4383.9841673,9
1660313132.84308,4383.9841722,26
1660313132.84308,4383.9841779,26
1660313132.84308,4383.9841818,40
1660313132.85605,4383.9841858,59
1660313132.85605,4384.469567,63
1660313132.85605,4384.4695805,73
1660313132.85605,4384.4695856,99
1660313132.85605,4384.4695902,132
1660313132.85605,4384.4695932,153
1660313132.85605,4384.469596,184
1660313132.85605,4384.4695988,222
1660313132.85605,4384.4696016,243
1660313132.85605,4384.4696044,253
1660313132.85605,4384.4696072,267
1660313132.85605,4384.4696099,267
1660313132.85605,4384.4696127,255
1660313132.85605,4384.4696155,234
1660313132.85605,4384.4696183,184
1660313132.85605,4384.4696211,113
1660313132.85605,4384.4696239,66
1660313132.85605,4384.4696266,44
1660313132.85605,4384.4696293,23
1660313132.85605,4384.4696322,-9
1660313132.85605,4384.4696348,-44
1660313132.85605,4384.4696373,-56
1660313132.85605,4384.46964,-54
1660313132.85605,4384.4696426,-61
1660313133.37935,4384.4696453,-56
1660313133.37935,4384.4696479,-49
1660313133.37935,4384.4696505,-66
1660313133.37935,4384.4696531,-78
1660313133.37935,4384.4696556,-56
1660313133.37935,4384.4696579,-28
1660313133.37935,4384.4696601,-16
1660313133.37935,4384.4696622,-9
1660313133.37935,4384.4696643,-7
1660313133.37935,4384.4696665,-7
1660313133.37935,4384.4696687,-18
1660313133.37935,4384.4696709,-16
1660313133.37935,4384.469673,7
1660313133.37935,4384.4696751,21
1660313133.37935,4384.4696772,16
1660313133.37935,4384.4696793,23
1660313133.37935,4384.4696814,33
1660313133.37935,4384.4696836,33
1660313133.37935,4384.4696857,35
1660313133.37935,4384.4696879,42
1660313133.37935,4384.4696901,54
1660313133.37935,4384.4696921,66
1660313133.37935,4384.4696943,82
1660313133.37935,4384.4696976,104
1660313133.37935,4384.4696998,120
1660313133.37935,4384.469702,118
1660313133.37935,4384.4697042,92
1660313133.37935,4384.4697064,71
1660313133.37935,4384.4697087,73
1660313133.37935,4384.4697109,75
1660313133.37935,4384.4697131,68
1660313133.37935,4384.4697153,66
1660313133.37935,4384.4697176,73
1660313133.37935,4384.4697198,71
1660313133.37935,4384.469722,59
1660313133.37935,4384.4697243,18
1660313133.37935,4384.4697264,28
1660313133.37935,4384.4697285,329
1660313133.37935,4384.4697306,876
1660313133.37935,4384.4697327,1103
1660313133.37935,4384.4697348,520
1660313133.37935,4384.4697371,-243
1660313133.37935,4384.4697393,-224
1660313133.37935,4384.4697415,85
1660313133.37935,4384.4697436,23
1660313133.37935,4384.4697458,-23
1660313133.37935,4384.4697479,63
1660313133.37935,4384.46975,33
1660313133.37935,4384.4697521,-9
1660313133.37935,4384.4697542,37
1660313133.39131,4385.0058562,44
1660313133.39131,4385.0058817,30
1660313133.39131,4385.0058915,56
1660313133.39131,4385.0058995,71
1660313133.39131,4385.0059058,82
1660313133.39131,4385.0059141,104
1660313133.39131,4385.0059204,94
1660313133.39131,4385.0059288,94
1660313133.39131,4385.005933,139
1660313133.39131,4385.0059408,161
1660313133.39131,4385.0059439,158
1660313133.39131,4385.0059468,206
1660313133.39131,4385.0059498,241
1660313133.39131,4385.0059526,222
1660313133.39131,4385.0059555,215
1660313133.39131,4385.0059691,206
1660313133.39131,4385.0059804,144
1660313133.39131,4385.0059869,78
1660313133.39131,4385.0059952,42
1660313133.39131,4385.0060026,-4
1660313133.39131,4385.0060105,-44
1660313133.39131,4385.0060165,-54
1660313133.39131,4385.0060226,-68
1660313133.39131,4385.0060256,-92
1660313133.95659,4385.0060295,-92
1660313133.95659,4385.0060365,-80
1660313133.95659,4385.0060434,-68
1660313133.95659,4385.0060513,-56
1660313133.95659,4385.0060583,-63
1660313133.95659,4385.0060654,-63
1660313133.95659,4385.0060705,-42
1660313133.95659,4385.0060749,-11
1660313133.95659,4385.0060796,9
1660313133.95659,4385.0060833,11
1660313133.95659,4385.0060882,16
1660313133.95659,4385.0060942,26
1660313133.95659,4385.0060972,23
1660313133.95659,4385.0061002,35
1660313133.95659,4385.0061032,63
1660313133.95659,4385.0061061,73
1660313133.95659,4385.006109,68
1660313133.95659,4385.006112,63
1660313133.95659,4385.0061176,73
1660313133.95659,4385.0061243,85
1660313133.95659,4385.0061281,71
1660313133.95659,4385.0061313,52
1660313133.95659,4385.0061343,56
1660313133.95659,4385.0061407,68
1660313133.95659,4385.0061459,71
1660313133.95659,4385.0061505,85
1660313133.95659,4385.006156,99
1660313133.95659,4385.006159,99
1660313133.95659,4385.0061621,106
1660313133.95659,4385.006165,123
1660313133.95659,4385.006168,104
1660313133.95659,4385.0061738,75
1660313133.95659,4385.0061769,78
1660313133.95659,4385.0061798,85
1660313133.95659,4385.0061827,89
1660313133.95659,4385.0061856,94
1660313133.95659,4385.0061886,94
1660313133.95659,4385.0061914,97
1660313133.95659,4385.0061944,104
1660313133.95659,4385.0061972,97
1660313133.95659,4385.0062,220
1660313133.95659,4385.0062029,655
1660313133.95659,4385.0062059,1120
1660313133.95659,4385.006209,933
1660313133.95659,4385.006212,104
1660313133.95659,4385.006215,-322
1660313133.95659,4385.0062179,-47
1660313133.95659,4385.0062207,71
1660313133.95659,4385.0062236,-47
1660313133.95659,4385.5918535,7
1660313133.97727,4385.5918721,59
1660313133.97727,4385.5918798,9
1660313133.97727,4385.5918867,7
1660313133.97727,4385.5918919,40
1660313133.97727,4385.5918987,30
1660313133.97727,4385.5919057,-9
1660313133.97727,4385.5919124,-35
1660313133.97727,4385.5919186,-9
1660313133.97727,4385.5919253,26
1660313133.97727,4385.5919334,37
1660313133.97727,4385.5919394,44
1660313133.97727,4385.5919469,42
1660313133.97727,4385.5919549,40
1660313133.97727,4385.5919631,82
1660313133.97727,4385.5919714,134
1660313133.97727,4385.5919793,156
1660313133.97727,4385.5919871,170
1660313133.97727,4385.5919957,189
1660313133.97727,4385.5920035,175
1660313133.97727,4385.5920082,142
1660313133.97727,4385.5920123,116
1660313133.97727,4385.5920164,78
1660313133.97727,4385.592022,21
1660313133.97727,4385.592029,-21
1660313134.5476,4385.5920339,-40
1660313134.5476,4385.5920383,-66
1660313134.5476,4385.5920435,-94
1660313134.5476,4385.5920502,-89
1660313134.5476,4385.5920548,-68
1660313134.5476,4385.59206,-73
1660313134.5476,4385.5920659,-82
1660313134.5476,4385.5920713,-68
1660313134.5476,4385.5920775,-54
1660313134.5476,4385.5920833,-54
1660313134.5476,4385.5920885,-61
1660313134.5476,4385.5920934,-56
1660313134.5476,4385.5920974,-35
1660313134.5476,4385.5921015,-14
1660313134.5476,4385.5921062,-7
1660313134.5476,4385.5921111,7
1660313134.5476,4385.5921156,23
1660313134.5476,4385.5921221,30
1660313134.5476,4385.5921281,35
1660313134.5476,4385.5921381,37
1660313134.5476,4385.5921471,33
1660313134.5476,4385.5921572,35
1660313134.5476,4385.5921644,40
1660313134.5476,4385.5921733,40
1660313134.5476,4385.5921796,61
1660313134.5476,4385.5921877,75
1660313134.5476,4385.592195,59
1660313134.5476,4385.5922364,49
1660313134.5476,4385.592249,68
1660313134.5476,4385.5922604,73
1660313134.5476,4385.592268,66
1660313134.5476,4385.5922781,80
1660313134.5476,4385.5922851,99
1660313134.5476,4385.5922936,108
1660313134.5476,4385.5923207,123
1660313134.5476,4385.5923461,127
1660313134.5476,4385.5923546,97
1660313134.5476,4385.5923694,71
1660313134.5476,4385.5923788,80
1660313134.5476,4385.5923872,66
1660313134.5476,4385.5923935,35
1660313134.5476,4385.5923967,59
1660313134.5476,4385.5924024,87
1660313134.5476,4385.5924054,71
1660313134.5476,4385.5924083,49
1660313134.5476,4385.5924112,30
1660313134.5476,4385.592414,170
1660313134.5476,4385.5924278,682
1660313134.5476,4386.1767786,1203
1660313134.5476,4386.1767956,975
1660313134.56256,4386.1768034,52
1660313134.56256,4386.1768068,-402
1660313134.56256,4386.1768194,-71
1660313134.56256,4386.1768275,89
1660313134.56256,4386.1768339,-40
1660313134.56256,4386.1768399,4
1660313134.56256,4386.1768455,56
1660313134.56256,4386.176849,-21
1660313134.56256,4386.1768558,-40
1660313134.56256,4386.1768607,9
1660313134.56256,4386.1768669,4
1660313134.56256,4386.176873,-11
1660313134.56256,4386.1768787,11
1660313134.56256,4386.1768828,14
1660313134.56256,4386.1768868,-14
1660313134.56256,4386.1768905,4
1660313134.56256,4386.1768946,47
1660313134.56256,4386.1769002,66
1660313134.56256,4386.1769091,89
1660313134.56256,4386.1769202,120
1660313134.56256,4386.1769266,134
1660313134.56256,4386.1769309,156
1660313134.56256,4386.176936,187
1660313134.56256,4386.1769405,194
1660313135.18336,4386.1769453,168
1660313135.18336,4386.1769486,132
1660313135.18336,4386.1769521,97
1660313135.18336,4386.1769565,56
1660313135.18336,4386.1769618,9
1660313135.18336,4386.1769656,-30
1660313135.18336,4386.1769685,-59
1660313135.18336,4386.1769719,-78
1660313135.18336,4386.1769751,-99
1660313135.18336,4386.1769796,-111
1660313135.18336,4386.1769857,-97
1660313135.18336,4386.1769954,-82
1660313135.18336,4386.1770094,-78
1660313135.18336,4386.1770179,-68
1660313135.18336,4386.1770203,-68
1660313135.18336,4386.1770225,-66
1660313135.18336,4386.1770253,-52
1660313135.18336,4386.1770337,-40
1660313135.18336,4386.1770418,-26
1660313135.18336,4386.177046,-11
1660313135.18336,4386.1770512,-14
1660313135.18336,4386.1770548,-11
1660313135.18336,4386.1770586,2
1660313135.18336,4386.1770662,11
1660313135.18336,4386.1770785,16
1660313135.18336,4386.1770885,28
1660313135.18336,4386.1770962,33
1660313135.18336,4386.1771031,35
1660313135.18336,4386.1771072,40
1660313135.18336,4386.1771125,26
1660313135.18336,4386.1771207,2
1660313135.18336,4386.1771296,2
1660313135.18336,4386.1771379,-2
1660313135.18336,4386.1771451,-37
1660313135.18336,4386.1771485,-44
1660313135.18336,4386.1771618,-9
1660313135.18336,4386.1771752,18
1660313135.18336,4386.1771881,16
1660313135.18336,4386.1772002,18
1660313135.18336,4386.1772114,37
1660313135.18336,4386.177223,37
1660313135.18336,4386.1772382,16
1660313135.18336,4386.1772481,2
1660313135.18336,4386.1772554,4
1660313135.18336,4386.177266,-2
1660313135.18336,4386.1772743,7
1660313135.18336,4386.1772787,35
1660313135.18336,4386.8099252,40
1660313135.18336,4386.8099415,35
1660313135.18336,4386.8099473,11
1660313135.19832,4386.8099545,-33
1660313135.19832,4386.8099595,92
1660313135.19832,4386.8099643,594
1660313135.19832,4386.8099703,1120
1660313135.19832,4386.8099748,935
1660313135.19832,4386.8099816,49
1660313135.19832,4386.8099889,-461
1660313135.19832,4386.8099955,-182
1660313135.19832,4386.81,11
1660313135.19832,4386.8100063,-142
1660313135.19832,4386.8100111,-158
1660313135.19832,4386.8100172,-82
1660313135.19832,4386.810022,-106
1660313135.19832,4386.8100283,-123
1660313135.19832,4386.8100333,-97
1660313135.19832,4386.8100397,-108
1660313135.19832,4386.8100444,-123
1660313135.19832,4386.8100509,-92
1660313135.19832,4386.810056,-63
1660313135.19832,4386.8100627,-66
1660313135.19832,4386.810068,-52
1660313135.19832,4386.8100747,-26
1660313135.19832,4386.8100798,-16
1660313135.19832,4386.8100864,18
1660313135.75951,4386.8100934,82
1660313135.75951,4386.8100987,111

1660313135.75951,4386.8101038,116
1660313135.75951,4386.8101086,134
1660313135.75951,4386.8101128,151
1660313135.75951,4386.8101173,144
1660313135.75951,4386.8101216,130
1660313135.75951,4386.8101258,106
1660313135.75951,4386.81013,61
1660313135.75951,4386.8101349,9
1660313135.75951,4386.8101396,-37
1660313135.75951,4386.8101465,-66
1660313135.75951,4386.8101512,-75
1660313135.75951,4386.810158,-78
1660313135.75951,4386.810163,-85
1660313135.75951,4386.8101699,-92
1660313135.75951,4386.8101744,-80
1660313135.75951,4386.810179,-71
1660313135.75951,4386.8101857,-75
1660313135.75951,4386.8101911,-59
1660313135.75951,4386.8101979,-44
1660313135.75951,4386.8102029,-42
1660313135.75951,4386.8102096,-44
1660313135.75951,4386.8102148,-63
1660313135.75951,4386.8102235,-73
1660313135.75951,4386.8102287,-59
1660313135.75951,4386.8102352,-35
1660313135.75951,4386.8102403,-16
1660313135.75951,4386.8102467,-4
1660313135.75951,4386.8102522,9
1660313135.75951,4386.8102592,18
1660313135.75951,4386.8102646,18
1660313135.75951,4386.8102716,28
1660313135.75951,4386.8102767,37
1660313135.75951,4386.8102839,30
1660313135.75951,4386.8102908,23
1660313135.75951,4386.8102971,37
1660313135.75951,4386.8103021,56
1660313135.75951,4386.8103091,44
1660313135.75951,4386.8103144,26
1660313135.75951,4386.8103216,44
1660313135.75951,4386.8103277,63
1660313135.75951,4386.8103344,54
1660313135.75951,4386.8103396,52
1660313135.75951,4386.8103462,66
1660313135.75951,4386.8103511,68
1660313135.75951,4387.3948719,68
1660313135.75951,4387.3948917,82
1660313135.75951,4387.3949065,104
1660313135.75951,4387.394921,118
1660313135.77447,4387.3949298,120
1660313135.77447,4387.3949323,118
1660313135.77447,4387.3949344,125
1660313135.77447,4387.3949365,120
1660313135.77447,4387.3949386,73
1660313135.77447,4387.394941,35
1660313135.77447,4387.3949482,47
1660313135.77447,4387.3949595,68
1660313135.77447,4387.3949646,75
1660313135.77447,4387.3949666,85
1660313135.77447,4387.3949697,85
1660313135.77447,4387.3949718,47
1660313135.77447,4387.394974,0
1660313135.77447,4387.3949816,146
1660313135.77447,4387.3949922,658
1660313135.77447,4387.3949958,1167
1660313135.77447,4387.3949996,961
1660313135.77447,4387.3950016,56
1660313135.77447,4387.3950038,-459
1660313135.77447,4387.395006,-179
1660313135.77447,4387.3950081,16
1660313135.77447,4387.3950103,-92
1660313135.77447,4387.3950124,-63
1660313135.77447,4387.3950144,0
1660313136.24609,4387.3950166,-56
1660313136.24609,4387.3950187,-82
1660313136.24609,4387.3950207,-33
1660313136.24609,4387.3950226,-11
1660313136.24609,4387.3950245,-21
1660313136.24609,4387.3950265,0
1660313136.24609,4387.3950284,23
1660313136.24609,4387.3950304,35
1660313136.24609,4387.3950379,54
1660313136.24609,4387.3950478,82
1660313136.24609,4387.3950538,106
1660313136.24609,4387.395057,123
1660313136.24609,4387.3950594,142
1660313136.24609,4387.3950697,182
1660313136.24609,4387.3950776,213
1660313136.24609,4387.3950802,217
1660313136.24609,4387.3950823,227
1660313136.24609,4387.3950843,236
1660313136.24609,4387.3950864,215
1660313136.24609,4387.3950885,177
1660313136.24609,4387.3950907,146
1660313136.24609,4387.3951003,104
1660313136.24609,4387.3951091,30
1660313136.24609,4387.3951116,-18
1660313136.24609,4387.3951138,-21
1660313136.24609,4387.3951159,-23
1660313136.24609,4387.395118,-28
1660313136.24609,4387.3951201,-16
1660313136.24609,4387.3951221,-18
1660313136.24609,4387.3951242,-33
1660313136.24609,4387.3951263,-18
1660313136.24609,4387.395129,-9
1660313136.24609,4387.395131,-16
1660313136.24609,4387.3951331,-2
1660313136.24609,4387.3951352,9
1660313136.24609,4387.3951373,11
1660313136.24609,4387.3951393,30
1660313136.24609,4387.3951414,56
1660313136.24609,4387.3951434,71
1660313136.24609,4387.3951454,80
1660313136.24609,4387.3951475,87
1660313136.24609,4387.3951495,85
1660313136.24609,4387.3951515,80
1660313136.24609,4387.3951535,87
1660313136.24609,4387.3951563,104
1660313136.24609,4387.8830232,111
1660313136.24609,4387.8830402,101
1660313136.24609,4387.8830444,94
1660313136.24609,4387.8830484,89
1660313136.24609,4387.8830528,97
1660313136.26205,4387.8830569,111
1660313136.26205,4387.883061,97
1660313136.26205,4387.8830645,85
1660313136.26205,4387.883068,99
1660313136.26205,4387.8830716,94
1660313136.26205,4387.8830772,89
1660313136.26205,4387.8830808,118
1660313136.26205,4387.883084,125
1660313136.26205,4387.883088,106
1660313136.26205,4387.8830916,127
1660313136.26205,4387.8830951,163
1660313136.26205,4387.8830986,149
1660313136.26205,4387.8831022,113
1660313136.26205,4387.8831068,87
1660313136.26205,4387.8831106,59
1660313136.26205,4387.8831153,52
1660313136.26205,4387.883119,73
1660313136.26205,4387.8831234,66
1660313136.26205,4387.8831277,47
1660313136.26205,4387.8831315,52
1660313136.26205,4387.8831365,33
1660313136.26205,4387.8831407,-9
1660313136.26205,4387.8831458,108
1660313136.26205,4387.8831507,547
1660313136.80048,4387.8831551,1037
1660313136.80048,4387.8831597,978
1660313136.80048,4387.8831646,170
1660313136.80048,4387.8831688,-435
1660313136.80048,4387.8831729,-189
1660313136.80048,4387.8831775,49
1660313136.80048,4387.8831819,-94
1660313136.80048,4387.883186,-92
1660313136.80048,4387.8831901,18
1660313136.80048,4387.8831945,-7
1660313136.80048,4387.8832012,-28
1660313136.80048,4387.8832389,21
1660313136.80048,4387.8832463,37
1660313136.80048,4387.8832512,40
1660313136.80048,4387.8832559,78
1660313136.80048,4387.8832608,92
1660313136.80048,4387.8832646,82
1660313136.80048,4387.8832675,118
1660313136.80048,4387.8832703,158
1660313136.80048,4387.8832738,170
1660313136.80048,4387.8832793,196
1660313136.80048,4387.8832841,232
1660313136.80048,4387.8832871,265
1660313136.80048,4387.8832913,303
1660313136.80048,4387.8832943,345
1660313136.80048,4387.8832977,364
1660313136.80048,4387.8833011,341
1660313136.80048,4387.883306,310
1660313136.80048,4387.8833096,279
1660313136.80048,4387.8833159,227
1660313136.80048,4387.883321,153
1660313136.80048,4387.88333,104
1660313136.80048,4387.8833579,78
1660313136.80048,4387.8833723,37
1660313136.80048,4387.8833808,4
1660313136.80048,4387.8833834,14
1660313136.80048,4387.8833855,14
1660313136.80048,4387.8833877,-7
1660313136.80048,4387.8833897,-14
1660313136.80048,4387.8833917,4
1660313136.80048,4387.8833938,16
1660313136.80048,4387.8833959,4
1660313136.80048,4387.8833979,-2
1660313136.80048,4387.8834,18
1660313136.80048,4388.418804,26
1660313136.80048,4388.4188232,18
1660313136.80048,4388.4188306,35
1660313136.80048,4388.4188345,54
1660313136.80048,4388.4188395,59
1660313136.80048,4388.4188462,71
1660313136.82342,4388.4188497,87
1660313136.82342,4388.4188567,82
1660313136.82342,4388.4188603,61
1660313136.82342,4388.4188737,42
1660313136.82342,4388.418888,33
1660313136.82342,4388.4189012,42
1660313136.82342,4388.4189137,49
1660313136.82342,4388.4189241,44
1660313136.82342,4388.418932,40
1660313136.82342,4388.4189366,4
1660313136.82342,4388.4189401,-44
1660313136.82342,4388.4189458,-40
1660313136.82342,4388.4189499,-11
1660313136.82342,4388.4189538,-14
1660313136.82342,4388.4189587,-18
1660313136.82342,4388.4189621,-2
1660313136.82342,4388.4189679,9
1660313136.82342,4388.4189737,7
1660313136.82342,4388.418977,9
1660313136.82342,4388.4189826,16
1660313136.82342,4388.4189885,7
1660313136.82342,4388.4189917,-33
1660313136.82342,4388.4190035,-82
1660313136.82342,4388.4190113,-97
1660313137.32403,4388.4190149,-78
1660313137.32403,4388.4190183,-68
1660313137.32403,4388.4190222,-61
1660313137.32403,4388.4190262,-47
1660313137.32403,4388.4190299,-47
1660313137.32403,4388.4190334,-78
1660313137.32403,4388.419037,-73
1660313137.32403,4388.4190405,144
1660313137.32403,4388.4190441,634
1660313137.32403,4388.4190476,1039
1660313137.32403,4388.4190512,760
1660313137.32403,4388.4190549,-94
1660313137.32403,4388.4190584,-459
1660313137.32403,4388.4190619,-134
1660313137.32403,4388.4190654,-16
1660313137.32403,4388.419069,-130
1660313137.32403,4388.4190728,-66
1660313137.32403,4388.4190764,-14
1660313137.32403,4388.4190801,-56
1660313137.32403,4388.4190842,-37
1660313137.32403,4388.4190902,9
1660313137.32403,4388.419094,23
1660313137.32403,4388.4190992,33
1660313137.32403,4388.4191057,42
1660313137.32403,4388.4191091,44
1660313137.32403,4388.4191194,42
1660313137.32403,4388.4191305,59
1660313137.32403,4388.4191373,94
1660313137.32403,4388.4191407,125
1660313137.32403,4388.4191428,151
1660313137.32403,4388.4191493,179
1660313137.32403,4388.4191602,213
1660313137.32403,4388.4191637,241
1660313137.32403,4388.4191675,269
1660313137.32403,4388.4191695,296
1660313137.32403,4388.4191715,288
1660313137.32403,4388.4191736,236
1660313137.32403,4388.4191829,187
1660313137.32403,4388.419192,158
1660313137.32403,4388.4191945,94
1660313137.32403,4388.4191967,18
1660313137.32403,4388.4191988,-2
1660313137.32403,4388.4192009,-9
1660313137.32403,4388.9555205,-47
1660313137.32403,4388.9555335,-61
1660313137.32403,4388.9555377,-33
1660313137.32403,4388.9555399,-21
1660313137.32403,4388.9555419,-47
1660313137.32403,4388.9555439,-73
1660313137.32403,4388.955546,-80
1660313137.33599,4388.955548,-89
1660313137.33599,4388.9555501,-82
1660313137.33599,4388.9555521,-59
1660313137.33599,4388.9555541,-52
1660313137.33599,4388.9555561,-59
1660313137.33599,4388.955558,-75
1660313137.33599,4388.9555604,-78
1660313137.33599,4388.9555637,-59
1660313137.33599,4388.9555753,-49
1660313137.33599,4388.9555822,-49
1660313137.33599,4388.9555914,-40
1660313137.33599,4388.9556031,-42
1660313137.33599,4388.9556163,-66
1660313137.33599,4388.9556246,-78
1660313137.33599,4388.9556271,-68
1660313137.33599,4388.9556336,-63
1660313137.33599,4388.9556464,-66
1660313137.33599,4388.9556541,-61
1660313137.33599,4388.9556565,-68
1660313137.33599,4388.95566,-73
1660313137.33599,4388.9556737,-66
1660313137.33599,4388.9556845,-40
1660313137.33599,4388.9556953,-18
1660313137.33599,4388.9557052,-33
1660313137.91246,4388.9557143,-35
1660313137.91246,4388.9557218,-4
1660313137.91246,4388.9557287,0
1660313137.91246,4388.9557358,-35
1660313137.91246,4388.955743,-63
1660313137.91246,4388.9557469,-63
1660313137.91246,4388.9557502,-52
1660313137.91246,4388.9557537,-52
1660313137.91246,4388.955758,-47
1660313137.91246,4388.9557643,-35
1660313137.91246,4388.9557697,-33
1660313137.91246,4388.9557828,-23
1660313137.91246,4388.955798,-42
1660313137.91246,4388.955809,-42
1660313137.91246,4388.9558154,258
1660313137.91246,4388.9558234,862
1660313137.91246,4388.955835,1136
1660313137.91246,4388.9558474,554
1660313137.91246,4388.9558614,-293
1660313137.91246,4388.9558714,-376
1660313137.91246,4388.9558762,-21
1660313137.91246,4388.9558823,-21
1660313137.91246,4388.9558864,-116
1660313137.91246,4388.955892,-30
1660313137.91246,4388.9558964,0
1660313137.91246,4388.9559024,-28
1660313137.91246,4388.9559063,4
1660313137.91246,4388.9559097,35
1660313137.91246,4388.9559183,28
1660313137.91246,4388.9559312,40
1660313137.91246,4388.9559444,68
1660313137.91246,4388.9559564,85
1660313137.91246,4388.9559871,97
1660313137.91246,4388.9559986,111
1660313137.91246,4388.9560072,130
1660313137.91246,4388.9560115,151
1660313137.91246,4388.9560174,184
1660313137.91246,4388.9560219,232
1660313137.91246,4388.9560281,267
1660313137.91246,4388.9560342,288
1660313137.91246,4388.9560405,300
1660313137.91246,4388.9560469,296
1660313137.91246,4389.540558,291
1660313137.91246,4389.5405775,265
1660313137.91246,4389.5405948,208
1660313137.91246,4389.5406087,153
1660313137.91246,4389.5406177,97
1660313137.91246,4389.5406202,40
1660313137.91246,4389.5406224,4
1660313137.91246,4389.5406245,-2
1660313137.9344,4389.5406266,-11
1660313137.9344,4389.5406287,-40
1660313137.9344,4389.5406307,-59
1660313137.9344,4389.5406328,-59
1660313137.9344,4389.5406349,-66
1660313137.9344,4389.5406369,-68
1660313137.9344,4389.5406389,-61
1660313137.9344,4389.5406409,-82
1660313137.9344,4389.540643,-113
1660313137.9344,4389.540645,-85
1660313137.9344,4389.5406472,-52
1660313137.9344,4389.5406492,-59
1660313137.9344,4389.5406515,-59
1660313137.9344,4389.5406535,-26
1660313137.9344,4389.5406555,-11
1660313137.9344,4389.5406575,-4
1660313137.9344,4389.5406596,2
1660313137.9344,4389.5406617,-4
1660313137.9344,4389.5406639,-4
1660313137.9344,4389.5406659,18
1660313137.9344,4389.540668,18
1660313137.9344,4389.54067,-18
1660313137.9344,4389.5406721,-14
1660313137.9344,4389.5406742,35
1660313138.43744,4389.5406763,35
1660313138.43744,4389.5406783,7
1660313138.43744,4389.5406802,7
1660313138.43744,4389.5406821,16
1660313138.43744,4389.5406841,14
1660313138.43744,4389.5406859,14
1660313138.43744,4389.5406878,18
1660313138.43744,4389.5406897,28
1660313138.43744,4389.5406953,33
1660313138.43744,4389.5407053,26
1660313138.43744,4389.5407104,14
1660313138.43744,4389.5407125,7
1660313138.43744,4389.5407145,4
1660313138.43744,4389.5407164,7
1660313138.43744,4389.5407183,7
1660313138.43744,4389.5407202,-2
1660313138.43744,4389.5407227,2
1660313138.43744,4389.5407248,23
1660313138.43744,4389.5407268,30
1660313138.43744,4389.5407288,14
1660313138.43744,4389.5407308,0
1660313138.43744,4389.5407328,59
1660313138.43744,4389.5407348,393
1660313138.43744,4389.5407368,970
1660313138.43744,4389.5407388,1167
1660313138.43744,4389.5407409,483
1660313138.43744,4389.540743,-322
1660313138.43744,4389.5407449,-272
1660313138.43744,4389.540747,59
1660313138.43744,4389.540749,11
1660313138.43744,4389.540751,-35
1660313138.43744,4389.5407531,42
1660313138.43744,4389.540755,28
1660313138.43744,4389.540757,16
1660313138.43744,4389.5407591,68
1660313138.43744,4389.5407614,80
1660313138.43744,4389.5407635,71
1660313138.43744,4389.5407655,85
1660313138.43744,4389.5407676,94
1660313138.43744,4389.5407695,92
1660313138.43744,4389.5407715,99
1660313138.43744,4390.0764548,116
1660313138.43744,4390.0764753,151
1660313138.43744,4390.0764855,194
1660313138.43744,4390.0764951,213
1660313138.43744,4390.0765008,234
1660313138.43744,4390.076513,272
1660313138.43744,4390.0765235,284
1660313138.43744,4390.0765318,277
1660313138.43744,4390.0765429,279
1660313138.4514,4390.0765537,274
1660313138.4514,4390.076561,236
1660313138.4514,4390.076572,182
1660313138.4514,4390.0765827,123
1660313138.4514,4390.0765904,49
1660313138.4514,4390.0766017,7
1660313138.4514,4390.0766121,-4
1660313138.4514,4390.0766213,-30
1660313138.4514,4390.0766273,-42
1660313138.4514,4390.0766316,-42
1660313138.4514,4390.0766336,-59
1660313138.4514,4390.0766355,-75
1660313138.4514,4390.0766379,-73
1660313138.4514,4390.0766401,-61
1660313138.4514,4390.0766421,-47
1660313138.4514,4390.0766441,-42
1660313138.4514,4390.0766462,-35
1660313138.4514,4390.0766482,-14
1660313138.4514,4390.0766502,2
1660313138.4514,4390.0766522,4
1660313138.4514,4390.0766543,0
1660313138.4514,4390.0766565,7
1660313138.4514,4390.0766586,7
1660313138.4514,4390.0766606,4
1660313139.0247,4390.0766626,14
1660313139.0247,4390.0766646,23
1660313139.0247,4390.0766665,26
1660313139.0247,4390.0766684,37
1660313139.0247,4390.0766703,42
1660313139.0247,4390.0766722,30
1660313139.0247,4390.0766741,33
1660313139.0247,4390.0766761,44
1660313139.0247,4390.0766781,44
1660313139.0247,4390.07668,30
1660313139.0247,4390.0766818,11
1660313139.0247,4390.0766837,18
1660313139.0247,4390.0766856,40
1660313139.0247,4390.0766875,35
1660313139.0247,4390.0766894,42
1660313139.0247,4390.0766955,82
1660313139.0247,4390.0767066,94
1660313139.0247,4390.0767119,66
1660313139.0247,4390.076716,35
1660313139.0247,4390.076718,21
1660313139.0247,4390.07672,23
1660313139.0247,4390.0767221,42
1660313139.0247,4390.0767293,54
1660313139.0247,4390.0767399,44
1660313139.0247,4390.0767434,42
1660313139.0247,4390.0767473,59
1660313139.0247,4390.0767494,63
1660313139.0247,4390.0767516,49
1660313139.0247,4390.0767568,196
1660313139.0247,4390.076768,667
1660313139.0247,4390.0767732,1113
1660313139.0247,4390.0767753,833
1660313139.0247,4390.0767774,-30
1660313139.0247,4390.0767795,-367
1660313139.0247,4390.0767815,-28
1660313139.0247,4390.0767876,87
1660313139.0247,4390.0767985,-26
1660313139.0247,4390.0768016,35
1660313139.0247,4390.0768038,78
1660313139.0247,4390.0768059,7
1660313139.0247,4390.6614161,30
1660313139.0247,4390.6614342,97
1660313139.0247,4390.6614463,82
1660313139.0247,4390.6614519,68
1660313139.0247,4390.6615143,97
1660313139.0247,4390.6615248,118
1660313139.0247,4390.6615322,142
1660313139.0247,4390.6615365,179
1660313139.0247,4390.6615421,189
1660313139.0247,4390.6615486,168
1660313139.04365,4390.6615564,184
1660313139.04365,4390.6615639,236
1660313139.04365,4390.6615719,274
1660313139.04365,4390.6615772,300
1660313139.04365,4390.6615815,329
1660313139.04365,4390.6615868,324
1660313139.04365,4390.6615911,286
1660313139.04365,4390.6615967,258
1660313139.04365,4390.6616031,229
1660313139.04365,4390.6616104,179
1660313139.04365,4390.6616143,125
1660313139.04365,4390.661619,61
1660313139.04365,4390.661622,4
1660313139.04365,4390.6616279,-7
1660313139.04365,4390.6616345,11
1660313139.04365,4390.6616395,11
1660313139.04365,4390.661645,-2
1660313139.04365,4390.6616489,7
1660313139.04365,4390.6616542,21
1660313139.04365,4390.6616579,23
1660313139.04365,4390.6616644,23
1660313139.04365,4390.6616703,35
1660313139.04365,4390.6616771,52
1660313139.04365,4390.6616858,73
1660313139.61282,4390.6616944,87
1660313139.61282,4390.6616987,94
1660313139.61282,4390.6617044,111
1660313139.61282,4390.6617089,134
1660313139.61282,4390.6617125,137
1660313139.61282,4390.6617155,130
1660313139.61282,4390.6617188,142
1660313139.61282,4390.661722,158
1660313139.61282,4390.661726,156
1660313139.61282,4390.6617307,144
1660313139.61282,4390.6617349,144
1660313139.61282,4390.6617411,156
1660313139.61282,4390.6617456,146
1660313139.61282,4390.661751,125
1660313139.61282,4390.6617564,120
1660313139.61282,4390.6617674,123
1660313139.61282,4390.661774,139
1660313139.61282,4390.6617814,146
1660313139.61282,4390.6617887,130
1660313139.61282,4390.6617945,132
1660313139.61282,4390.6618036,161
1660313139.61282,4390.6618113,156
1660313139.61282,4390.661817,118
1660313139.61282,4390.6618226,97
1660313139.61282,4390.6618314,101
1660313139.61282,4390.6618435,82
1660313139.61282,4390.6618518,61
1660313139.61282,4390.6618566,78
1660313139.61282,4390.6618634,94
1660313139.61282,4390.6618737,80
1660313139.61282,4390.6618864,52
1660313139.61282,4390.6618932,47
1660313139.61282,4390.661907,189
1660313139.61282,4390.6619218,594
1660313139.61282,4390.6619323,1004
1660313139.61282,4390.6619444,800
1660313139.61282,4390.6619534,-23
1660313139.61282,4390.6619593,-393
1660313139.61282,4390.6619672,-54
1660313139.61282,4391.2486139,66
1660313139.61282,4391.2486369,-56
1660313139.61282,4391.2486508,11
1660313139.61282,4391.2486588,75
1660313139.61282,4391.2486684,40
1660313139.61282,4391.2486774,59
1660313139.61282,4391.2486845,82
1660313139.61282,4391.2486895,66
1660313139.61282,4391.2486995,75
1660313139.61282,4391.2487057,106
1660313139.61282,4391.248708,120
1660313139.62479,4391.2487102,123
1660313139.62479,4391.2487122,106
1660313139.62479,4391.2487142,92
1660313139.62479,4391.2487162,127
1660313139.62479,4391.2487195,170
1660313139.62479,4391.2487323,194
1660313139.62479,4391.248738,222
1660313139.62479,4391.2487403,243
1660313139.62479,4391.2487424,243
1660313139.62479,4391.2487444,251
1660313139.62479,4391.2487471,251
1660313139.62479,4391.2487577,217
1660313139.62479,4391.248765,168
1660313139.62479,4391.2487675,118
1660313139.62479,4391.2487696,63
1660313139.62479,4391.2487719,23
1660313139.62479,4391.248779,-9
1660313139.62479,4391.2487899,-30
1660313139.62479,4391.2487945,-30
1660313139.62479,4391.2487966,-28
1660313139.62479,4391.2487998,-42
1660313139.62479,4391.2488097,-52
1660313139.62479,4391.2488179,-42
1660313139.62479,4391.2488204,-28
1660313140.11261,4391.2488226,-14
1660313140.11261,4391.2488246,-2
1660313140.11261,4391.2488267,-2
1660313140.11261,4391.2488358,-4
1660313140.11261,4391.2488434,7
1660313140.11261,4391.248846,33
1660313140.11261,4391.248848,52
1660313140.11261,4391.2488499,44
1660313140.11261,4391.2488529,23
1660313140.11261,4391.2488619,35
1660313140.11261,4391.2488695,44
1660313140.11261,4391.2488787,35
1660313140.11261,4391.2488855,47
1660313140.11261,4391.2488878,61
1660313140.11261,4391.24889,63
1660313140.11261,4391.2488953,71
1660313140.11261,4391.2489066,75
1660313140.11261,4391.248912,63
1660313140.11261,4391.2489147,54
1660313140.11261,4391.2489168,66
1660313140.11261,4391.2489225,63
1660313140.11261,4391.2489334,37
1660313140.11261,4391.2489385,33
1660313140.11261,4391.2489406,59
1660313140.11261,4391.2489427,71
1660313140.11261,4391.2489448,61
1660313140.11261,4391.2489468,42
1660313140.11261,4391.2489499,28
1660313140.11261,4391.2489624,23
1660313140.11261,4391.2489682,28
1660313140.11261,4391.2489704,30
1660313140.11261,4391.2489725,28
1660313140.11261,4391.2489746,16
1660313140.11261,4391.2489822,7
1660313140.11261,4391.2489927,-9
1660313140.11261,4391.248996,-33
1660313140.11261,4391.2489989,108
1660313140.11261,4391.2490022,577
1660313140.11261,4391.7339747,1037
1660313140.11261,4391.7339875,805
1660313140.11261,4391.7339924,-52
1660313140.11261,4391.7339972,-445
1660313140.11261,4391.7339995,-123
1660313140.11261,4391.7340018,14
1660313140.11261,4391.7340039,-111
1660313140.11261,4391.734006,-63
1660313140.11261,4391.734008,-9
1660313140.11261,4391.7340101,-78
1660313140.11261,4391.7340123,-80
1660313140.11261,4391.7340183,-16
1660313140.13256,4391.7340305,-16
1660313140.13256,4391.7340365,-42
1660313140.13256,4391.7340388,-26
1660313140.13256,4391.7340409,-7
1660313140.13256,4391.7340431,7
1660313140.13256,4391.7340452,33
1660313140.13256,4391.7340476,61
1660313140.13256,4391.7340552,80
1660313140.13256,4391.7340662,106
1660313140.13256,4391.7340698,134
1660313140.13256,4391.7340736,156
1660313140.13256,4391.7340756,182
1660313140.13256,4391.7340791,213
1660313140.13256,4391.7340922,215
1660313140.13256,4391.7340982,196
1660313140.13256,4391.7341005,163
1660313140.13256,4391.7341027,94
1660313140.13256,4391.7341047,37
1660313140.13256,4391.7341067,14
1660313140.13256,4391.7341133,-28
1660313140.13256,4391.7341247,-78
1660313140.13256,4391.7341296,-92
1660313140.13256,4391.7341316,-106
1660313140.13256,4391.7341345,-127
1660313140.74666,4391.7341366,-125
1660313140.74666,4391.7341386,-108
1660313140.74666,4391.7341405,-101
1660313140.74666,4391.7341424,-101
1660313140.74666,4391.7341444,-87
1660313140.74666,4391.7341463,-68
1660313140.74666,4391.7341482,-75
1660313140.74666,4391.7341501,-78
1660313140.74666,4391.7341519,-54
1660313140.74666,4391.7341553,-30
1660313140.74666,4391.7341667,-26
1660313140.74666,4391.7341715,-21
1660313140.74666,4391.7341756,-11
1660313140.74666,4391.7341777,-9
1660313140.74666,4391.7341805,-21
1660313140.74666,4391.7341826,-33
1660313140.74666,4391.7341846,-23
1660313140.74666,4391.7341866,-11
1660313140.74666,4391.7341887,-11
1660313140.74666,4391.7341914,-9
1660313140.74666,4391.7341935,0
1660313140.74666,4391.7341956,7
1660313140.74666,4391.7341977,11
1660313140.74666,4391.7341997,14
1660313140.74666,4391.7342017,9
1660313140.74666,4391.7342038,11
1660313140.74666,4391.7342059,35
1660313140.74666,4391.734208,61
1660313140.74666,4391.73421,71
1660313140.74666,4391.734212,59
1660313140.74666,4391.734214,21
1660313140.74666,4391.7342161,-9
1660313140.74666,4391.7342181,-4
1660313140.74666,4391.7342201,16
1660313140.74666,4391.7342223,23
1660313140.74666,4391.7342242,14
1660313140.74666,4391.7342263,11
1660313140.74666,4392.3697883,26
1660313140.74666,4392.3698008,2
1660313140.74666,4392.3698057,-44
1660313140.74666,4392.3698176,116
1660313140.74666,4392.3698294,622
1660313140.74666,4392.3698394,1077
1660313140.74666,4392.3698518,795
1660313140.74666,4392.3698589,-94
1660313140.74666,4392.3698621,-480
1660313140.74666,4392.3698643,-139
1660313140.74666,4392.3698664,7
1660313140.74666,4392.3698684,-139
1660313140.74666,4392.3698705,-139
1660313140.76062,4392.3698725,-92
1660313140.76062,4392.3698746,-111
1660313140.76062,4392.3698767,-104
1660313140.76062,4392.3698787,-66
1660313140.76062,4392.3698808,-49
1660313140.76062,4392.3698867,-54
1660313140.76062,4392.3698972,-47
1660313140.76062,4392.3699037,-26
1660313140.76062,4392.3699081,-11
1660313140.76062,4392.3699142,11
1660313140.76062,4392.3699199,44
1660313140.76062,4392.3699245,59
1660313140.76062,4392.3699303,78
1660313140.76062,4392.3699342,123
1660313140.76062,4392.3699396,161
1660313140.76062,4392.3699435,168
1660313140.76062,4392.3699478,179
1660313140.76062,4392.369958,189
1660313140.76062,4392.3699623,170
1660313140.76062,4392.3699643,144
1660313140.76062,4392.3699673,125
1660313140.76062,4392.3699784,85
1660313140.76062,4392.3699859,35
1660313140.76062,4392.3699884,4
1660313141.2195,4392.3699905,-18
1660313141.2195,4392.3699925,-44
1660313141.2195,4392.3699944,-59
1660313141.2195,4392.3700015,-66
1660313141.2195,4392.3700111,-66
1660313141.2195,4392.3700206,-66
1660313141.2195,4392.3700259,-80
1660313141.2195,4392.3700299,-78
1660313141.2195,4392.3700358,-52
1660313141.2195,4392.3700421,-42
1660313141.2195,4392.3700484,-52
1660313141.2195,4392.3700595,-42
1660313141.2195,4392.3700728,-21
1660313141.2195,4392.3700766,-11
1660313141.2195,4392.3700787,-11
1660313141.2195,4392.3700809,9
1660313141.2195,4392.370083,35
1660313141.2195,4392.3700852,33
1660313141.2195,4392.370095,23
1660313141.2195,4392.3701036,35
1660313141.2195,4392.3701062,44
1660313141.2195,4392.3701083,37
1660313141.2195,4392.3701104,42
1660313141.2195,4392.3701162,52
1660313141.2195,4392.3701272,49
1660313141.2195,4392.3701401,47
1660313141.2195,4392.3701534,40
1660313141.2195,4392.3701663,37
1660313141.2195,4392.3701798,47
1660313141.2195,4392.370193,56
1660313141.2195,4392.3702062,71
1660313141.2195,4392.3702195,87
1660313141.2195,4392.3702325,94
1660313141.2195,4392.3702458,106
1660313141.2195,4392.3702588,123
1660313141.2195,4392.3702722,99
1660313141.2195,4392.8547937,52
1660313141.2195,4392.8548141,42
1660313141.2195,4392.8548234,56
1660313141.2195,4392.8548259,52
1660313141.2195,4392.8548281,54
1660313141.2195,4392.8548302,66
1660313141.2195,4392.8548323,63
1660313141.2195,4392.8548344,61
1660313141.2195,4392.8548365,26
1660313141.2195,4392.8548387,-7
1660313141.2195,4392.8548408,253
1660313141.2195,4392.8548428,831
1660313141.2195,4392.8548449,1108
1660313141.2195,4392.8548471,525
1660313141.23446,4392.8548503,-312
1660313141.23446,4392.8548636,-376
1660313141.23446,4392.8548699,-37
1660313141.23446,4392.8548721,-44
1660313141.23446,4392.8548743,-123
1660313141.23446,4392.8548763,-42
1660313141.23446,4392.8548784,-16
1660313141.23446,4392.8548804,-52
1660313141.23446,4392.8548834,-35
1660313141.23446,4392.8548962,-14
1660313141.23446,4392.8549019,-11
1660313141.23446,4392.854904,9
1660313141.23446,4392.8549061,28
1660313141.23446,4392.8549081,18
1660313141.23446,4392.8549104,4
1660313141.23446,4392.8549198,21
1660313141.23446,4392.8549287,59
1660313141.23446,4392.8549312,92
1660313141.23446,4392.8549334,127
1660313141.23446,4392.8549355,161
1660313141.23446,4392.8549375,182
1660313141.23446,4392.8549396,187
1660313141.23446,4392.8549426,179
1660313141.23446,4392.8549533,175
1660313141.86016,4392.8549606,170
1660313141.86016,4392.8549629,146
1660313141.86016,4392.8549648,111
1660313141.86016,4392.8549673,68
1660313141.86016,4392.8549759,26
1660313141.86016,4392.854982,-2
1660313141.86016,4392.8549855,-14
1660313141.86016,4392.8549891,-30
1660313141.86016,4392.8549927,-35
1660313141.86016,4392.8549972,-30
1660313141.86016,4392.855002,-44
1660313141.86016,4392.855006,-66
1660313141.86016,4392.8550129,-47
1660313141.86016,4392.8550206,-14
1660313141.86016,4392.8550301,-18
1660313141.86016,4392.8550386,-26
1660313141.86016,4392.8550486,0
1660313141.86016,4392.855055,23
1660313141.86016,4392.8550677,33
1660313141.86016,4392.8550781,42
1660313141.86016,4392.8550838,54
1660313141.86016,4392.8550966,66
1660313141.86016,4392.8551068,73
1660313141.86016,4392.8551119,82
1660313141.86016,4392.8551251,89
1660313141.86016,4392.8551347,78
1660313141.86016,4392.8551407,71
1660313141.86016,4392.8551531,92
1660313141.86016,4392.8551617,92
1660313141.86016,4392.8551708,78
1660313141.86016,4392.8551819,87
1660313141.86016,4392.8551896,101
1660313141.86016,4392.8551965,99
1660313141.86016,4392.8552066,99
1660313141.86016,4392.8552143,106
1660313141.86016,4393.4891951,104
1660313141.86016,4393.489215,101
1660313141.86016,4393.4892222,111
1660313141.86016,4393.4892286,127
1660313141.86016,4393.4892353,139
1660313141.86016,4393.4892395,134
1660313141.86016,4393.4892436,111
1660313141.86016,4393.4892491,97
1660313141.86016,4393.4892534,78
1660313141.86016,4393.4892616,37
1660313141.86016,4393.4892664,21
1660313141.86016,4393.4892706,30
1660313141.86016,4393.489275,16
1660313141.86016,4393.4892796,0
1660313141.86016,4393.4892841,18
1660313141.87412,4393.4892881,28
1660313141.87412,4393.4892936,-7
1660313141.87412,4393.4892976,-7
1660313141.87412,4393.4893016,243
1660313141.87412,4393.4893045,793
1660313141.87412,4393.4893076,1131
1660313141.87412,4393.4893107,637
1660313141.87412,4393.4893172,-248
1660313141.87412,4393.4893255,-404
1660313141.87412,4393.4893325,-33
1660313141.87412,4393.4893398,0
1660313141.87412,4393.4893477,-104
1660313141.87412,4393.4893567,-30
1660313141.87412,4393.4893657,-9
1660313141.87412,4393.489372,-56
1660313141.87412,4393.4893785,-40
1660313141.87412,4393.4893819,-11
1660313141.87412,4393.4893936,-4
1660313141.87412,4393.4894074,14
1660313141.87412,4393.4894166,33
1660313141.87412,4393.4894229,42
1660313141.87412,4393.489437,61
1660313141.87412,4393.4894479,82
1660313141.87412,4393.4894573,106
1660313142.39065,4393.4894639,127
1660313142.39065,4393.4894701,146
1660313142.39065,4393.4894781,172
1660313142.39065,4393.4894829,213
1660313142.39065,4393.4894861,255
1660313142.39065,4393.4894897,274
1660313142.39065,4393.4894932,272
1660313142.39065,4393.4894975,258
1660313142.39065,4393.4895025,234
1660313142.39065,4393.4895094,201
1660313142.39065,4393.4895168,158
1660313142.39065,4393.4895262,118
1660313142.39065,4393.4895406,85
1660313142.39065,4393.4895516,66
1660313142.39065,4393.4895602,54
1660313142.39065,4393.4895713,42
1660313142.39065,4393.489582,42
1660313142.39065,4393.4895907,42
1660313142.39065,4393.4896011,35
1660313142.39065,4393.4896108,56
1660313142.39065,4393.4896158,85
1660313142.39065,4393.4896228,94
1660313142.39065,4393.4896259,101
1660313142.39065,4393.489629,111
1660313142.39065,4393.4896324,123
1660313142.39065,4393.4896444,132
1660313142.39065,4393.4896534,156
1660313142.39065,4393.489665,182
1660313142.39065,4393.4896741,191
1660313142.39065,4393.4896835,201
1660313142.39065,4393.4896886,220
1660313142.39065,4393.489702,217
1660313142.39065,4393.4897121,208
1660313142.39065,4393.4897173,215
1660313142.39065,4394.0249564,232
1660313142.39065,4394.0249852,229
1660313142.39065,4394.0250005,206
1660313142.39065,4394.0250161,196
1660313142.39065,4394.0250305,213
1660313142.39065,4394.0250447,220
1660313142.39065,4394.0250603,206
1660313142.39065,4394.0250737,213
1660313142.39065,4394.0250879,229
1660313142.39065,4394.0251022,203
1660313142.39065,4394.0251165,191
1660313142.39065,4394.0251305,222
1660313142.39065,4394.0251453,236
1660313142.39065,4394.0251595,232
1660313142.39065,4394.0251747,203
1660313142.39065,4394.025189,144
1660313142.4056,4394.0251969,116
1660313142.4056,4394.0252023,127
1660313142.4056,4394.0252064,127
1660313142.4056,4394.0252168,123
1660313142.4056,4394.0252205,132
1660313142.4056,4394.0252243,120
1660313142.4056,4394.0252271,99
1660313142.4056,4394.0252315,87
1660313142.4056,4394.0252415,172
1660313142.4056,4394.0252505,537
1660313142.4056,4394.0252578,1023
1660313142.4056,4394.0252602,1006
1660313142.4056,4394.0252623,241
1660313142.4056,4394.0252645,-390
1660313142.4056,4394.0252676,-203
1660313142.4056,4394.0252804,66
1660313142.4056,4394.0252871,-16
1660313142.4056,4394.0252895,-11
1660313142.4056,4394.0252916,68
1660313142.4056,4394.0252936,35
1660313142.4056,4394.0252964,21
1660313142.4056,4394.0253068,66
1660313142.4056,4394.025315,78
1660313142.4056,4394.0253174,73
1660313142.93301,4394.0253195,87
1660313142.93301,4394.0253215,106
1660313142.93301,4394.0253234,123
1660313142.93301,4394.0253257,142
1660313142.93301,4394.0253335,158
1660313142.93301,4394.0253426,187
1660313142.93301,4394.0253454,222
1660313142.93301,4394.0253474,253
1660313142.93301,4394.0253503,284
1660313142.93301,4394.0253588,310
1660313142.93301,4394.0253685,331
1660313142.93301,4394.0253754,343
1660313142.93301,4394.0253781,329
1660313142.93301,4394.0253802,303
1660313142.93301,4394.0253823,272
1660313142.93301,4394.0253844,232
1660313142.93301,4394.0253868,172
1660313142.93301,4394.0253889,116
1660313142.93301,4394.0253917,78
1660313142.93301,4394.0253939,52
1660313142.93301,4394.0253959,35
1660313142.93301,4394.025398,35
1660313142.93301,4394.0254022,16
1660313142.93301,4394.0254044,-2
1660313142.93301,4394.0254065,16
1660313142.93301,4394.0254086,26
1660313142.93301,4394.0254106,14
1660313142.93301,4394.025414,21
1660313142.93301,4394.0254265,33
1660313142.93301,4394.0254403,37
1660313142.93301,4394.0254516,49
1660313142.93301,4394.0254587,52
1660313142.93301,4394.0254715,63
1660313142.93301,4394.5613137,85
1660313142.93301,4394.5613301,80
1660313142.93301,4394.5613353,80
1660313142.93301,4394.5613416,104
1660313142.93301,4394.561346,108
1660313142.93301,4394.561352,106
1660313142.93301,4394.5613559,111

1660313142.93301,4394.5613605,106
1660313142.93301,4394.5613645,106
1660313142.93301,4394.5613682,118
1660313142.93301,4394.5613722,123
1660313142.93301,4394.5613772,108
1660313142.93301,4394.5613816,80
1660313142.93301,4394.5613856,47
1660313142.93301,4394.5613914,47
1660313142.93301,4394.5613953,68
1660313142.93301,4394.5614009,85
1660313142.95396,4394.561405,80
1660313142.95396,4394.5614107,40
1660313142.95396,4394.5614147,-4
1660313142.95396,4394.5614187,-9
1660313142.95396,4394.5614226,-9
1660313142.95396,4394.5614282,-28
1660313142.95396,4394.5614323,-11
1660313142.95396,4394.5614378,9
1660313142.95396,4394.561442,-4
1660313142.95396,4394.5614473,-9
1660313142.95396,4394.5614514,-9
1660313142.95396,4394.5614553,4
1660313142.95396,4394.5614593,222
1660313142.95396,4394.5614649,689
1660313142.95396,4394.5614689,952
1660313142.95396,4394.5614744,494
1660313142.95396,4394.5614784,-241
1660313142.95396,4394.5614823,-324
1660313142.95396,4394.5614862,-14
1660313142.95396,4394.5614917,-4
1660313142.95396,4394.5614957,-75
1660313142.95396,4394.5615012,-9
1660313142.95396,4394.5615059,9
1660313142.95396,4394.56151,-7
1660313143.51532,4394.5615156,23
1660313143.51532,4394.5615197,47
1660313143.51532,4394.5615234,37
1660313143.51532,4394.5615271,49
1660313143.51532,4394.5615307,71
1660313143.51532,4394.5615345,82
1660313143.51532,4394.5615383,94
1660313143.51532,4394.561542,113
1660313143.51532,4394.5615463,139
1660313143.51532,4394.561553,170
1660313143.51532,4394.5615593,208
1660313143.51532,4394.5615632,239
1660313143.51532,4394.5615685,258
1660313143.51532,4394.5615724,272
1660313143.51532,4394.5615777,284
1660313143.51532,4394.5615813,277
1660313143.51532,4394.5615867,258
1660313143.51532,4394.5615903,236
1660313143.51532,4394.561594,198
1660313143.51532,4394.5615993,139
1660313143.51532,4394.5616038,89
1660313143.51532,4394.5616094,54
1660313143.51532,4394.5616131,23
1660313143.51532,4394.5616183,14
1660313143.51532,4394.5616225,14
1660313143.51532,4394.5616279,11
1660313143.51532,4394.5616316,4
1660313143.51532,4394.5616369,9
1660313143.51532,4394.5616408,23
1660313143.51532,4394.5616462,33
1660313143.51532,4394.5616505,40
1660313143.51532,4394.5616557,44
1660313143.51532,4395.146402,47
1660313143.51532,4395.1464183,56
1660313143.51532,4395.1464225,68
1660313143.51532,4395.1464275,78
1660313143.51532,4395.1464313,78
1660313143.51532,4395.1464368,71
1660313143.51532,4395.1464405,63
1660313143.51532,4395.1464457,68
1660313143.51532,4395.1464502,61
1660313143.51532,4395.1464555,33
1660313143.51532,4395.1464591,33
1660313143.51532,4395.1464642,52
1660313143.51532,4395.1464679,37
1660313143.51532,4395.146473,23
1660313143.51532,4395.1464768,21
1660313143.51532,4395.1464821,-11
1660313143.51532,4395.1464857,-30
1660313143.51532,4395.1464908,2
1660313143.53067,4395.1464946,21
1660313143.53067,4395.1464997,18
1660313143.53067,4395.1465033,42
1660313143.53067,4395.1465085,68
1660313143.53067,4395.1465122,68
1660313143.53067,4395.1465173,49
1660313143.53067,4395.1465211,28
1660313143.53067,4395.1465274,18
1660313143.53067,4395.1465328,18
1660313143.53067,4395.1465359,14
1660313143.53067,4395.146539,16
1660313143.53067,4395.1465429,30
1660313143.53067,4395.1465502,37
1660313143.53067,4395.1465563,30
1660313143.53067,4395.1465633,14
1660313143.53067,4395.1465724,26
1660313143.53067,4395.1465805,258
1660313143.53067,4395.1465855,750
1660313143.53067,4395.1466011,1020
1660313143.53067,4395.1466149,525
1660313143.53067,4395.1466282,-246
1660313143.53067,4395.1466416,-326
1660313143.53067,4395.1466548,-7
1660313143.53067,4395.146668,9
1660313144.05406,4395.1466841,-54
1660313144.05406,4395.1466928,11
1660313144.05406,4395.1467016,16
1660313144.05406,4395.1467106,-16
1660313144.05406,4395.1467206,2
1660313144.05406,4395.1467297,21
1660313144.05406,4395.1467439,18
1660313144.05406,4395.146755,33
1660313144.05406,4395.1467648,44
1660313144.05406,4395.1467763,59
1660313144.05406,4395.1467906,89
1660313144.05406,4395.1468029,111
1660313144.05406,4395.1468153,116
1660313144.05406,4395.1468292,139
1660313144.05406,4395.1468426,179
1660313144.05406,4395.146857,232
1660313144.05406,4395.1468697,265
1660313144.05406,4395.1468842,265
1660313144.05406,4395.146898,258
1660313144.05406,4395.1469121,267
1660313144.05406,4395.1469256,258
1660313144.05406,4395.1469381,222
1660313144.05406,4395.1469498,191
1660313144.05406,4395.1469608,144
1660313144.05406,4395.1469737,75
1660313144.05406,4395.1469867,26
1660313144.05406,4395.1469997,16
1660313144.05406,4395.1470116,23
1660313144.05406,4395.1470214,11
1660313144.05406,4395.1470273,-21
1660313144.05406,4395.1470371,-42
1660313144.05406,4395.6828031,-35
1660313144.05406,4395.6828899,-23
1660313144.05406,4395.6829044,-28
1660313144.05406,4395.6829109,-40
1660313144.05406,4395.6829147,-40
1660313144.05406,4395.6829182,-44
1660313144.05406,4395.6829214,-47
1660313144.05406,4395.6829245,-44
1660313144.05406,4395.6829281,-42
1660313144.05406,4395.6829317,-33
1660313144.05406,4395.6829351,-9
1660313144.05406,4395.6829387,-18
1660313144.05406,4395.6829425,-49
1660313144.05406,4395.6829468,-52
1660313144.05406,4395.6829537,-18
1660313144.05406,4395.6829584,16
1660313144.05406,4395.6829614,28
1660313144.05406,4395.6829645,16
1660313144.05406,4395.6829692,11
1660313144.06703,4395.6829812,11
1660313144.06703,4395.6829866,4
1660313144.06703,4395.6829912,14
1660313144.06703,4395.6829976,40
1660313144.06703,4395.6830027,47
1660313144.06703,4395.6830095,47
1660313144.06703,4395.6830161,61
1660313144.06703,4395.6830228,73
1660313144.06703,4395.6830294,68
1660313144.06703,4395.6830366,54
1660313144.06703,4395.6830436,37
1660313144.06703,4395.6830498,21
1660313144.06703,4395.6830538,9
1660313144.06703,4395.6830599,30
1660313144.06703,4395.6830646,59
1660313144.06703,4395.6830721,44
1660313144.06703,4395.6830781,26
1660313144.06703,4395.6830842,9
1660313144.06703,4395.6830902,-42
1660313144.06703,4395.6830951,28
1660313144.06703,4395.6831029,433
1660313144.06703,4395.6831136,952
1660313144.06703,4395.6831268,935
1660313144.06703,4395.6831339,189
1660313144.64527,4395.6831403,-378
1660313144.64527,4395.6831543,-189
1660313144.64527,4395.6831615,30
1660313144.64527,4395.6831688,-56
1660313144.64527,4395.6831759,-63
1660313144.64527,4395.683183,-7
1660313144.64527,4395.6832052,-16
1660313144.64527,4395.6832159,-7
1660313144.64527,4395.6832209,14
1660313144.64527,4395.6832254,11
1660313144.64527,4395.6832296,23
1660313144.64527,4395.6832338,49
1660313144.64527,4395.6832378,59
1660313144.64527,4395.6832443,66
1660313144.64527,4395.6832483,92
1660313144.64527,4395.6832539,118
1660313144.64527,4395.6832584,130
1660313144.64527,4395.6832643,153
1660313144.64527,4395.6832683,184
1660313144.64527,4395.6832723,215
1660313144.64527,4395.6832776,239
1660313144.64527,4395.6832822,236
1660313144.64527,4395.6832878,232
1660313144.64527,4395.6832916,246
1660313144.64527,4395.6832952,227
1660313144.64527,4395.6832988,158
1660313144.64527,4395.6833024,101
1660313144.64527,4395.6833057,73
1660313144.64527,4395.6833089,37
1660313144.64527,4395.6833394,0
1660313144.64527,4396.2682669,-9
1660313144.64527,4396.2682873,-2
1660313144.64527,4396.2682943,-14
1660313144.64527,4396.2682989,-18
1660313144.64527,4396.2683035,-4
1660313144.64527,4396.2683091,7
1660313144.64527,4396.2683124,4
1660313144.64527,4396.2683171,11
1660313144.64527,4396.2683227,4
1660313144.64527,4396.2683285,-18
1660313144.64527,4396.2683354,-21
1660313144.64527,4396.2683422,9
1660313144.64527,4396.2683464,28
1660313144.64527,4396.2683547,33
1660313144.64527,4396.268363,30
1660313144.64527,4396.2683717,9
1660313144.64527,4396.2683806,0
1660313144.64527,4396.2683875,28
1660313144.64527,4396.2683909,49
1660313144.64527,4396.268396,49
1660313144.66722,4396.2684008,44
1660313144.66722,4396.2684087,37
1660313144.66722,4396.2684143,30
1660313144.66722,4396.2684182,42
1660313144.66722,4396.2684228,52
1660313144.66722,4396.2684309,54
1660313144.66722,4396.2684359,63
1660313144.66722,4396.2684398,59
1660313144.66722,4396.2684429,52
1660313144.66722,4396.2684461,71
1660313144.66722,4396.2684514,92
1660313144.66722,4396.2684546,92
1660313144.66722,4396.2684594,94
1660313144.66722,4396.2684636,89
1660313144.66722,4396.2684719,68
1660313144.66722,4396.268481,66
1660313144.66722,4396.2684876,75
1660313144.66722,4396.2684912,63
1660313144.66722,4396.2684972,52
1660313144.66722,4396.2685033,61
1660313144.66722,4396.2685105,73
1660313144.66722,4396.268515,73
1660313144.66722,4396.2685215,54
1660313144.66722,4396.268526,153
1660313145.42688,4396.2685331,556
1660313145.42688,4396.2685394,1039
1660313145.42688,4396.2685435,944
1660313145.42688,4396.268548,144
1660313145.42688,4396.2685518,-357
1660313145.42688,4396.2685563,-97
1660313145.42688,4396.2685627,89
1660313145.42688,4396.2685692,-26
1660313145.42688,4396.2685759,-7
1660313145.42688,4396.2685811,47
1660313145.42688,4396.2685858,14
1660313145.42688,4396.2685914,28
1660313145.42688,4396.2685986,66
1660313145.42688,4396.2686036,30
1660313145.42688,4396.2686085,2
1660313145.42688,4396.268615,23
1660313145.42688,4396.2686233,44
1660313145.42688,4396.268631,63
1660313145.42688,4396.26864,89
1660313145.42688,4396.2686476,108
1660313145.42688,4396.2686564,130
1660313145.42688,4396.268664,170
1660313145.42688,4396.2686709,208
1660313145.42688,4396.2686742,232
1660313145.42688,4396.2686773,265
1660313145.42688,4396.2686802,300
1660313145.42688,4396.2686832,312
1660313145.42688,4396.2686862,300
1660313145.42688,4396.268689,274
1660313145.42688,4397.0493735,224
1660313145.42688,4397.0493939,187
1660313145.42688,4397.0494026,151
1660313145.42688,4397.0494071,80
1660313145.42688,4397.0494144,26
1660313145.42688,4397.0494187,2
1660313145.42688,4397.0494245,-37
1660313145.42688,4397.0494288,-63
1660313145.42688,4397.0494328,-47
1660313145.42688,4397.0494381,-30
1660313145.42688,4397.0494437,-26
1660313145.42688,4397.0494499,-35
1660313145.42688,4397.0494551,-59
1660313145.42688,4397.0494613,-73
1660313145.42688,4397.0494675,-61
1660313145.42688,4397.0494733,-37
1660313145.42688,4397.0494785,-7
1660313145.42688,4397.0494843,-4
1660313145.42688,4397.0494882,-21
1660313145.42688,4397.0494935,4
1660313145.42688,4397.0494974,35
1660313145.45082,4397.0495027,23
1660313145.45082,4397.0495072,14
1660313145.45082,4397.0495124,33
1660313145.45082,4397.0495162,47
1660313145.45082,4397.0495223,47
1660313145.45082,4397.0495263,56
1660313145.45082,4397.0495317,85
1660313145.45082,4397.0495366,99
1660313145.45082,4397.0495424,92
1660313145.45082,4397.0495466,97
1660313145.45082,4397.0495524,106
1660313145.45082,4397.0495562,106
1660313145.45082,4397.0495615,111
1660313145.45082,4397.0495654,101
1660313145.45082,4397.0495706,73
1660313145.45082,4397.0495745,59
1660313145.45082,4397.04958,59
1660313145.45082,4397.0495834,71
1660313145.45082,4397.0495873,82
1660313145.45082,4397.0495924,68
1660313145.45082,4397.0495978,73
1660313145.45082,4397.0496012,111
1660313145.45082,4397.0496048,116
1660313145.45082,4397.0496096,144
1660313145.80245,4397.0496144,374
1660313145.80245,4397.0496189,798
1660313145.80245,4397.0496227,1046
1660313145.80245,4397.0496262,601
1660313145.80245,4397.0496294,-194
1660313145.80245,4397.0496327,-314
1660313145.80245,4397.0496362,9
1660313145.80245,4397.0496399,16
1660313145.80245,4397.0496433,-40
1660313145.80245,4397.0496467,61
1660313145.80245,4397.0496502,73
1660313145.80245,4397.0496539,26
1660313145.80245,4397.0496574,47
1660313145.80245,4397.0496611,73
1660313145.80245,4397.0496647,61
1660313145.80245,4397.049668,78
1660313145.80245,4397.049671,108
1660313145.80245,4397.0496767,104
1660313145.80245,4397.0496798,97
1660313145.80245,4397.0496828,116
1660313145.80245,4397.0496858,153
1660313145.80245,4397.0496892,198
1660313145.80245,4397.0496926,222
1660313145.80245,4397.049696,241
1660313145.80245,4397.0496995,286
1660313145.80245,4397.049703,322
1660313145.80245,4397.0497069,322
1660313145.80245,4397.0497111,310
1660313145.80245,4397.4374827,303
1660313145.80245,4397.4375002,265
1660313145.80245,4397.4375075,194
1660313145.80245,4397.4375124,130
1660313145.80245,4397.4375183,92
1660313145.80245,4397.4375247,61
1660313145.80245,4397.4375308,26
1660313145.80245,4397.4375352,-2
1660313145.80245,4397.4375409,-16
1660313145.80245,4397.4375464,-23
1660313145.80245,4397.4375526,-21
1660313145.80245,4397.4375574,-11
1660313145.80245,4397.4375639,-9
1660313145.80245,4397.4375692,-11
1660313145.80245,4397.4375723,-9
1660313145.80245,4397.4375795,-11
1660313145.80245,4397.4375868,-7
1660313145.80245,4397.4375931,9
1660313145.80245,4397.4375997,16
1660313145.80245,4397.4376084,16
1660313145.80245,4397.4376168,30
1660313145.80245,4397.4376245,42
1660313145.81542,4397.4376334,44
1660313145.81542,4397.4376402,56
1660313145.81542,4397.4376499,73
1660313145.81542,4397.4376606,71
1660313145.81542,4397.4376738,73
1660313145.81542,4397.4376871,85
1660313145.81542,4397.4377002,80
1660313145.81542,4397.4377135,71
1660313145.81542,4397.4377266,75
1660313145.81542,4397.4377398,87
1660313145.81542,4397.437753,92
1660313145.81542,4397.4377661,92
1660313145.81542,4397.4377792,101
1660313145.81542,4397.4377924,116
1660313145.81542,4397.4378056,118
1660313145.81542,4397.4378187,104
1660313145.81542,4397.4378316,78
1660313145.81542,4397.4378446,71
1660313145.81542,4397.4378579,78
1660313145.81542,4397.437871,61
1660313145.81542,4397.437884,37
1660313145.81542,4397.4378975,44
1660313145.81542,4397.4379106,59
1660313145.81542,4397.4379237,52
1660313146.28923,4397.4379358,11
1660313146.28923,4397.4379435,56
1660313146.28923,4397.4379508,409
1660313146.28923,4397.4379573,947
1660313146.28923,4397.4379645,1070
1660313146.28923,4397.437974,412
1660313146.28923,4397.4379871,-303
1660313146.28923,4397.4380004,-262
1660313146.28923,4397.4380136,0
1660313146.28923,4397.4380269,-44
1660313146.28923,4397.4380389,-71
1660313146.28923,4397.4380489,-4
1660313146.28923,4397.4380584,-9
1660313146.28923,4397.4380676,-14
1660313146.28923,4397.438075,28
1660313146.28923,4397.4380803,42
1660313146.28923,4397.4380875,40
1660313146.28923,4397.4380923,54
1660313146.28923,4397.4380987,66
1660313146.28923,4397.4381069,63
1660313146.28923,4397.4381201,61
1660313146.28923,4397.4381334,78
1660313146.28923,4397.4381404,101
1660313146.28923,4397.4381493,125
1660313146.28923,4397.4381566,156
1660313146.28923,4397.4381628,198
1660313146.28923,4397.4381678,236
1660313146.28923,4397.9250238,253
1660313146.28923,4397.9250454,255
1660313146.28923,4397.9250611,248
1660313146.28923,4397.9250646,236
1660313146.28923,4397.9250677,208
1660313146.28923,4397.9250708,130
1660313146.28923,4397.9250757,54
1660313146.28923,4397.9250787,26
1660313146.28923,4397.9250822,0
1660313146.28923,4397.9250856,-30
1660313146.28923,4397.9250888,-40
1660313146.28923,4397.9250916,-44
1660313146.28923,4397.9250948,-52
1660313146.28923,4397.925098,-49
1660313146.28923,4397.9251028,-44
1660313146.28923,4397.9251083,-44
1660313146.28923,4397.9251124,-30
1660313146.28923,4397.9251159,-18
1660313146.28923,4397.9251193,-47
1660313146.28923,4397.9251225,-68
1660313146.28923,4397.9251256,-42
1660313146.28923,4397.9251286,-21
1660313146.28923,4397.9251316,-28
1660313146.3002,4397.9251346,-18
1660313146.3002,4397.9251376,-21
1660313146.3002,4397.925141,-44
1660313146.3002,4397.9251449,-37
1660313146.3002,4397.9251507,-9
1660313146.3002,4397.9251545,4
1660313146.3002,4397.9251576,4
1660313146.3002,4397.9251606,-2
1660313146.3002,4397.9251634,-14
1660313146.3002,4397.9251664,-7
1660313146.3002,4397.9251692,4
1660313146.3002,4397.925172,-2
1660313146.3002,4397.9251748,-14
1660313146.3002,4397.9251776,-9
1660313146.3002,4397.9251805,0
1660313146.3002,4397.9251833,16
1660313146.3002,4397.9251861,35
1660313146.3002,4397.925189,28
1660313146.3002,4397.9251919,11
1660313146.3002,4397.9251947,7
1660313146.3002,4397.9251974,4
1660313146.3002,4397.9252004,2
1660313146.3002,4397.9252032,14
1660313146.3002,4397.9252061,30
1660313146.84413,4397.92521,52
1660313146.84413,4397.925217,54
1660313146.84413,4397.9252239,11
1660313146.84413,4397.9252306,9
1660313146.84413,4397.9252363,284
1660313146.84413,4397.9252406,840
1660313146.84413,4397.925244,1186
1660313146.84413,4397.9252473,767
1660313146.84413,4397.925251,-71
1660313146.84413,4397.9252547,-303
1660313146.84413,4397.9252592,7
1660313146.84413,4397.9252635,73
1660313146.84413,4397.9252677,-21
1660313146.84413,4397.9252722,28
1660313146.84413,4397.9252761,54
1660313146.84413,4397.9252804,16
1660313146.84413,4397.9252847,28
1660313146.84413,4397.9252883,52
1660313146.84413,4397.9252927,47
1660313146.84413,4397.9252971,56
1660313146.84413,4397.9253007,75
1660313146.84413,4397.9253072,80
1660313146.84413,4397.9253111,92
1660313146.84413,4397.9253154,106
1660313146.84413,4397.9253203,111
1660313146.84413,4397.9253268,118
1660313146.84413,4398.4621728,149
1660313146.84413,4398.4621855,184
1660313146.84413,4398.462188,213
1660313146.84413,4398.4621903,232
1660313146.84413,4398.4621924,258
1660313146.84413,4398.4621944,269
1660313146.84413,4398.4621965,251
1660313146.84413,4398.4621985,213
1660313146.84413,4398.4622005,146
1660313146.84413,4398.4622025,61
1660313146.84413,4398.4622045,7
1660313146.84413,4398.4622068,-18
1660313146.84413,4398.4622088,-44
1660313146.84413,4398.4622108,-68
1660313146.84413,4398.462213,-87
1660313146.84413,4398.462215,-106
1660313146.84413,4398.462219,-99
1660313146.84413,4398.4622316,-82
1660313146.84413,4398.4622368,-92
1660313146.84413,4398.4622389,-89
1660313146.84413,4398.462241,-75
1660313146.84413,4398.4622431,-75
1660313146.84413,4398.4622452,-63
1660313146.84413,4398.4622473,-49
1660313146.86308,4398.4622493,-54
1660313146.86308,4398.4622513,-52
1660313146.86308,4398.4622534,-42
1660313146.86308,4398.4622554,-52
1660313146.86308,4398.4622575,-59
1660313146.86308,4398.4622595,-44
1660313146.86308,4398.4622615,-33
1660313146.86308,4398.4622635,-26
1660313146.86308,4398.4622656,-16
1660313146.86308,4398.4622676,-9
1660313146.86308,4398.4622697,-4
1660313146.86308,4398.4622728,7
1660313146.86308,4398.4622862,18
1660313146.86308,4398.4622925,23
1660313146.86308,4398.4622947,26
1660313146.86308,4398.4622967,33
1660313146.86308,4398.4622988,33
1660313146.86308,4398.4623008,30
1660313146.86308,4398.4623041,35
1660313146.86308,4398.4623168,40
1660313146.86308,4398.4623227,47
1660313146.86308,4398.462325,59
1660313146.86308,4398.462327,75
1660313146.86308,4398.4623296,89
1660313147.41051,4398.4623397,101
1660313147.41051,4398.4623465,120
1660313147.41051,4398.4623488,132
1660313147.41051,4398.4623525,134
1660313147.41051,4398.4623631,120
1660313147.41051,4398.462374,97
1660313147.41051,4398.462383,87
1660313147.41051,4398.4623935,85
1660313147.41051,4398.4624045,85
1660313147.41051,4398.4624159,94
1660313147.41051,4398.4624245,106
1660313147.41051,4398.4624351,108
1660313147.41051,4398.4624462,104
1660313147.41051,4398.4624556,85
1660313147.41051,4398.4624619,165
1660313147.41051,4398.462466,542
1660313147.41051,4398.4624682,1105
1660313147.41051,4398.4624703,1243
1660313147.41051,4398.4624724,537
1660313147.41051,4398.4624746,-248
1660313147.41051,4398.4624767,-213
1660313147.41051,4398.4624788,87
1660313147.41051,4398.4624808,40
1660313147.41051,4398.4624842,-7
1660313147.41051,4398.4624972,66
1660313147.41051,4399.0470947,47
1660313147.41051,4399.0471135,18
1660313147.41051,4399.0471264,56
1660313147.41051,4399.0471322,80
1660313147.41051,4399.0471363,63
1660313147.41051,4399.0471385,37
1660313147.41051,4399.0471406,30
1660313147.41051,4399.0471427,56
1660313147.41051,4399.0471448,82
1660313147.41051,4399.0471469,92
1660313147.41051,4399.0471489,108
1660313147.41051,4399.047151,127
1660313147.41051,4399.0471531,139
1660313147.41051,4399.0471552,170
1660313147.41051,4399.0471582,206
1660313147.41051,4399.0471656,232
1660313147.41051,4399.0471741,265
1660313147.41051,4399.0471781,274
1660313147.41051,4399.0471854,243
1660313147.41051,4399.0471965,203
1660313147.41051,4399.0472057,156
1660313147.41051,4399.0472425,92
1660313147.41051,4399.0472532,28
1660313147.41051,4399.0472597,-21
1660313147.41051,4399.0472657,-54
1660313147.42148,4399.0472954,-63
1660313147.42148,4399.0473123,-63
1660313147.42148,4399.0473214,-73
1660313147.42148,4399.0473292,-73
