Time,TimeLsl,Value
1658857784.37188,177136.5490839,16
1658857784.37188,177136.5490964,-2
1658857784.37188,177136.5490997,-2
1658857784.37188,177136.549102,14
1658857784.37188,177136.5491042,4
1658857784.37188,177136.5491064,-2
1658857784.37188,177136.5491085,28
1658857784.37188,177136.5491107,63
1658857784.37188,177136.5491128,88
1658857784.37188,177136.5491149,123
1658857784.37188,177136.549117,158
1658857784.37188,177136.5491198,179
1658857784.37188,177136.5491274,200
1658857784.37188,177136.5491363,200
1658857784.37188,177136.5491424,177
1658857784.37188,177136.5491524,172
1658857784.37188,177136.5491632,189
1658857784.37188,177136.5491748,186
1658857784.37188,177136.5491802,175
1658857784.37188,177136.5491825,182
1658857784.37188,177136.5491847,175
1658857784.37188,177136.5491868,144
1658857784.37188,177136.5491888,147
1658857784.37188,177136.5491909,175
1658857784.37188,177136.5491937,170
1658857784.37188,177136.549204,137
1658857784.37188,177136.5492117,109
1658857784.37188,177136.5492143,81
1658857784.37188,177136.5492165,74
1658857784.37188,177136.5492185,95
1658857784.37188,177136.5492206,114
1658857784.37188,177136.5492274,121
1658857784.37188,177136.5492383,137
1658857784.37188,177136.5492429,158
1658857784.37188,177136.5492451,165
1658857784.37188,177136.5492473,168
1658857784.37188,177136.5492504,156
1658857784.37188,177136.5492628,147
1658857784.37188,177136.5492687,200
1658857784.37188,177136.5492711,235
1658857784.37188,177136.5492733,79
1658857784.37188,177136.5492757,-205
1658857784.37188,177136.5492784,-240
1658857784.37188,177136.5492885,142
1658857784.37188,177136.5492975,401
1658857784.37188,177136.5493002,184
1658857784.37188,177136.5493024,2
1658857784.37188,177136.5493045,84
1658857784.37188,177136.5493103,102
1658857784.37188,177136.5493212,51
1658857784.49406,177136.5493263,81
1658857784.49406,177136.5493284,93
1658857784.49406,177136.5493305,60
1658857784.49406,177136.5493326,63
1658857784.49406,177136.5493402,74
1658857784.49406,177136.5493506,56
1658857784.49406,177136.5493542,42
1658857784.49406,177136.5493581,35
1658857784.49406,177136.5493609,21
1658857784.49406,177136.5493715,4
1658857784.49406,177136.5493787,-7
1658857784.49406,177136.5493818,-21
1658857784.49406,177136.5493844,-32
1658857784.49406,177136.5493865,-32
1658857784.49406,177136.5493893,-30
1658857784.49406,177136.5493999,-39
1658857784.49406,177136.5494116,-51
1658857784.49406,177136.5494265,-44
1658857784.49406,177136.5494404,0
1658857784.49406,177136.5494511,56
1658857784.49406,177136.549457,93
1658857784.49406,177136.5494607,102
1658857784.49406,177136.5494638,112
1658857784.49406,177137.1342676,137
1658857784.49406,177137.1342879,163
1658857784.49406,177137.1342958,172
1658857784.49406,177137.1343029,165
1658857784.49406,177137.1343105,158
1658857784.49406,177137.1343196,161
1658857784.49406,177137.1343279,149
1658857784.49406,177137.1343354,144
1658857784.49406,177137.1343421,163
1658857784.49406,177137.1343507,161
1658857784.49406,177137.1343586,133
1658857784.49406,177137.1343637,119
1658857784.49406,177137.1343716,137
1658857784.49406,177137.1343794,144
1658857784.49406,177137.1343862,123
1658857784.49406,177137.1343937,93
1658857784.49406,177137.1344011,65
1658857784.49406,177137.134444,65
1658857784.49406,177137.1344528,95
1658857784.49406,177137.1344554,109
1658857784.49406,177137.1344576,112
1658857784.49406,177137.1344598,126
1658857784.49406,177137.134464,142
1658857784.49406,177137.1344669,137
1658857784.49406,177137.1344774,119
1658857784.49406,177137.1344899,116
1658857784.49406,177137.1344969,147
1658857784.53399,177137.1345008,203
1658857784.53399,177137.1345044,193
1658857784.53399,177137.1345079,23
1658857784.53399,177137.1345116,-226
1658857784.53399,177137.1345151,-242
1658857784.53399,177137.1345187,119
1658857784.53399,177137.1345236,352
1658857784.53399,177137.1345271,147
1658857784.53399,177137.1345306,-14
1658857784.53399,177137.134534,65
1658857784.53399,177137.1345375,74
1658857784.53399,177137.134541,32
1658857784.53399,177137.1345445,79
1658857784.53399,177137.134548,105
1658857784.53399,177137.1345515,53
1658857784.53399,177137.1345549,28
1658857784.53399,177137.1345585,42
1658857784.53399,177137.134562,39
1658857784.53399,177137.1345654,39
1658857784.53399,177137.1345689,35
1658857784.53399,177137.1345722,7
1658857784.53399,177137.1345756,-9
1658857784.53399,177137.134579,2
1658857784.53399,177137.1345825,0
1658857784.53399,177137.1345859,-16
1658857784.53399,177137.1345894,-28
1658857784.53399,177137.1345929,-39
1658857784.53399,177137.1345964,-44
1658857784.53399,177137.1345998,-46
1658857784.53399,177137.1346033,-51
1658857784.53399,177137.1346068,-23
1658857784.53399,177137.1346106,53
1658857784.53399,177137.1346141,116
1658857784.53399,177137.1346177,128
1658857784.53399,177137.1346212,135
1658857784.53399,177137.1346246,151
1658857784.53399,177137.1346282,154
1658857784.53399,177137.1346317,161
1658857784.53399,177137.1346352,179
1658857784.53399,177137.1346391,182
1658857784.53399,177137.1346429,165
1658857784.53399,177137.1346467,158
1658857784.53399,177137.1346503,168
1658857784.53399,177137.1346556,175
1658857784.53399,177137.1346593,172
1658857784.53399,177137.1346644,158
1658857784.53399,177137.621855,140
1658857784.53399,177137.621875,151
1658857784.81481,177137.6218832,175
1658857784.81481,177137.6218887,161
1658857784.81481,177137.6218955,123
1658857784.81481,177137.6219047,98
1658857784.81481,177137.621911,91
1658857784.81481,177137.6219169,95
1658857784.81481,177137.6219224,112
1658857784.81481,177137.6219271,123
1658857784.81481,177137.6219334,126
1658857784.81481,177137.6219374,135
1658857784.81481,177137.6219425,147
1658857784.81481,177137.621952,144
1658857784.81481,177137.6219584,133
1658857784.81481,177137.6219649,126
1658857784.81481,177137.6219716,154
1658857784.81481,177137.621977,212
1658857784.81481,177137.6219825,163
1658857784.81481,177137.6219894,-77
1658857784.81481,177137.6219968,-322
1658857784.81481,177137.6220039,-140
1658857784.81481,177137.6220099,333
1658857784.81481,177137.6220177,362
1658857784.81481,177137.6220234,58
1658857784.81481,177137.6220276,21
1658857784.81481,177137.6220317,109
1658857784.81481,177137.6220358,79
1658857784.81481,177137.6220403,58
1658857784.81481,177137.6220486,67
1658857784.81481,177137.622055,37
1658857784.81481,177137.622064,25
1658857784.81481,177137.6220691,32
1658857784.81481,177137.6220733,30
1658857784.81481,177137.6220793,42
1658857784.81481,177137.6220839,46
1658857784.81481,177137.6220901,16
1658857784.81481,177137.6220965,-2
1658857784.81481,177137.6221029,0
1658857784.81481,177137.6221112,-7
1658857784.81481,177137.6221166,-23
1658857784.81481,177137.6221228,-25
1658857784.81481,177137.6221286,-18
1658857784.81481,177137.6221328,-28
1658857784.81481,177137.6221385,-39
1658857784.81481,177137.622143,-18
1658857784.81481,177137.6221502,16
1658857784.81481,177137.6221552,35
1658857784.81481,177137.6221617,65
1658857784.81481,177137.6221678,112
1658857784.81481,177137.622175,149
1658857784.81481,177137.6221806,172
1658857784.86667,177137.6221888,196
1658857784.86667,177137.6221945,212
1658857784.86667,177137.622201,205
1658857784.86667,177137.6222078,182
1658857784.86667,177137.6222153,175
1658857784.86667,177137.62222,182
1658857784.86667,177137.622227,177
1658857784.86667,177137.6222358,168
1658857784.86667,177137.6222434,175
1658857784.86667,177137.622248,186
1658857784.86667,177137.622259,184
1658857784.86667,177137.6222676,182
1658857784.86667,177137.6222741,184
1658857784.86667,177137.6222827,189
1658857784.86667,177137.6222899,182
1658857784.86667,177137.6223005,156
1658857784.86667,177137.6223095,126
1658857784.86667,177137.6223188,98
1658857784.86667,177137.6223255,100
1658857784.86667,177137.622333,137
1658857784.86667,177137.6223394,168
1658857784.86667,177138.1593645,165
1658857784.86667,177138.159381,186
1658857784.86667,177138.159386,219
1658857785.20107,177138.1593929,200
1658857785.20107,177138.159398,172
1658857785.20107,177138.1594018,177
1658857785.20107,177138.1594057,203
1658857785.20107,177138.1594097,240
1658857785.20107,177138.1594136,219
1658857785.20107,177138.1594173,25
1658857785.20107,177138.159421,-238
1658857785.20107,177138.1594247,-175
1658857785.20107,177138.159429,247
1658857785.20107,177138.1594327,380
1658857785.20107,177138.1594364,114
1658857785.20107,177138.1594402,25
1658857785.20107,177138.1594439,100
1658857785.20107,177138.1594477,60
1658857785.20107,177138.1594517,39
1658857785.20107,177138.1594556,72
1658857785.20107,177138.1594616,56
1658857785.20107,177138.1594654,46
1658857785.20107,177138.1594707,58
1658857785.20107,177138.1594746,35
1658857785.20107,177138.1594794,21
1658857785.20107,177138.1594833,30
1658857785.20107,177138.1594885,18
1658857785.20107,177138.1594923,-2
1658857785.20107,177138.1594978,0
1658857785.20107,177138.1595016,-14
1658857785.20107,177138.1595066,-39
1658857785.20107,177138.1595104,-46
1658857785.20107,177138.1595141,-37
1658857785.20107,177138.1595179,-25
1658857785.20107,177138.1595236,-25
1658857785.20107,177138.1595272,-32
1658857785.20107,177138.1595324,-32
1658857785.20107,177138.1595386,-9
1658857785.20107,177138.1595426,32
1658857785.20107,177138.1595466,74
1658857785.20107,177138.1595527,102
1658857785.20107,177138.1595565,133
1658857785.20107,177138.1595616,156
1658857785.20107,177138.1595653,158
1658857785.20107,177138.1595708,161
1658857785.20107,177138.1595747,154
1658857785.20107,177138.15958,133
1658857785.20107,177138.1595837,128
1658857785.20107,177138.1595901,142
1658857785.20107,177138.1595939,149
1658857785.20107,177138.1595993,147
1658857785.20107,177138.1596046,140
1658857785.20107,177138.1596086,135
1658857785.21204,177138.1596136,154
1658857785.21204,177138.1596181,177
1658857785.21204,177138.1596239,184
1658857785.21204,177138.1596291,165
1658857785.21204,177138.1596326,135
1658857785.21204,177138.1596363,123
1658857785.21204,177138.1596418,121
1658857785.21204,177138.1596475,105
1658857785.21204,177138.1596515,109
1658857785.21204,177138.1596566,137
1658857785.21204,177138.1596618,154
1658857785.21204,177138.1596664,147
1658857785.21204,177138.1596716,161
1658857785.21204,177138.1596767,193
1658857785.21204,177138.1596813,198
1658857785.21204,177138.1596865,182
1658857785.21204,177138.1596919,179
1658857785.21204,177138.1596957,217
1658857785.21204,177138.1596993,284
1658857785.21204,177138.1597045,252
1658857785.21204,177138.7423551,16
1658857785.21204,177138.7423862,-233
1658857785.21204,177138.7424072,-102
1658857785.21204,177138.74245,322
1658857785.78376,177138.7424575,399
1658857785.78376,177138.7424755,128
1658857785.78376,177138.7424835,51
1658857785.78376,177138.7424872,112
1658857785.78376,177138.7424906,67
1658857785.78376,177138.742494,39
1658857785.78376,177138.7424973,77
1658857785.78376,177138.7425005,72
1658857785.78376,177138.7425039,49
1658857785.78376,177138.7425071,53
1658857785.78376,177138.7425104,53
1658857785.78376,177138.7425136,39
1658857785.78376,177138.7425169,32
1658857785.78376,177138.7425202,16
1658857785.78376,177138.7425238,-9
1658857785.78376,177138.742527,-18
1658857785.78376,177138.7425302,-32
1658857785.78376,177138.7425336,-51
1658857785.78376,177138.7425368,-58
1658857785.78376,177138.74254,-53
1658857785.78376,177138.7425433,-42
1658857785.78376,177138.7425465,-39
1658857785.78376,177138.7425497,-63
1658857785.78376,177138.7425529,-70
1658857785.78376,177138.7425561,-32
1658857785.78376,177138.7425593,18
1658857785.78376,177138.7425627,65
1658857785.78376,177138.7425671,107
1658857785.78376,177138.7425728,130
1658857785.78376,177138.7425762,137
1658857785.78376,177138.7425812,144
1658857785.78376,177138.7425846,154
1658857785.78376,177138.7425895,147
1658857785.78376,177138.7425929,123
1658857785.78376,177138.7425977,114
1658857785.78376,177138.7426017,116
1658857785.78376,177138.7426064,109
1658857785.78376,177138.7426188,114
1658857785.78376,177138.7426244,126
1658857785.78376,177138.7426277,121
1658857785.78376,177138.7426328,121
1658857785.78376,177138.7426362,130
1658857785.78376,177138.7426397,137
1658857785.78376,177138.7426445,140
1658857785.78376,177138.742648,126
1658857785.78376,177138.7426528,91
1658857785.78376,177138.7426565,67
1658857785.78376,177138.7426612,67
1658857785.78376,177138.7426646,74
1658857785.78376,177138.7426694,81
1658857785.79473,177138.7426729,100
1658857785.79473,177138.7426779,107
1658857785.79473,177138.7426869,114
1658857785.79473,177138.7426922,140
1658857785.79473,177138.7426955,147
1658857785.79473,177138.7427003,128
1658857785.79473,177138.7427038,121
1658857785.79473,177138.7427071,149
1658857785.79473,177138.7427104,217
1658857785.79473,177138.7427153,217
1658857785.79473,177138.7427187,23
1658857785.79473,177138.7427235,-240
1658857785.79473,177138.742727,-203
1658857785.79473,177138.7427318,214
1658857785.79473,177138.7427353,415
1658857785.79473,177138.74274,161
1658857785.79473,177138.7427434,4
1658857785.79473,177138.7427467,77
1658857785.79473,177138.7427502,74
1658857785.79473,177139.327607,35
1658857785.79473,177139.3276625,56
1658857785.79473,177139.3276746,58
1658857785.79473,177139.3276812,25
1658857785.79473,177139.3276876,18
1658857786.36898,177139.3276924,32
1658857786.36898,177139.3276988,35
1658857786.36898,177139.3277037,16
1658857786.36898,177139.3277072,0
1658857786.36898,177139.3277106,-9
1658857786.36898,177139.3277138,-35
1658857786.36898,177139.3277171,-56
1658857786.36898,177139.3277204,-49
1658857786.36898,177139.3277236,-56
1658857786.36898,177139.3277269,-88
1658857786.36898,177139.32773,-88
1658857786.36898,177139.3277332,-79
1658857786.36898,177139.3277364,-98
1658857786.36898,177139.3277399,-100
1658857786.36898,177139.3277431,-65
1658857786.36898,177139.3277462,-25
1658857786.36898,177139.3277492,11
1658857786.36898,177139.3277548,56
1658857786.36898,177139.3277583,95
1658857786.36898,177139.3277624,107
1658857786.36898,177139.3277662,102
1658857786.36898,177139.3277718,109
1658857786.36898,177139.3277759,119
1658857786.36898,177139.3277818,121
1658857786.36898,177139.3278122,114
1658857786.36898,177139.3278169,105
1658857786.36898,177139.32782,105
1658857786.36898,177139.327824,107
1658857786.36898,177139.3278272,100
1658857786.36898,177139.3278303,100
1658857786.36898,177139.3278333,114
1658857786.36898,177139.3278364,119
1658857786.36898,177139.3278399,114
1658857786.36898,177139.3278431,114
1658857786.36898,177139.3278459,119
1658857786.36898,177139.3278497,109
1658857786.36898,177139.3278536,93
1658857786.36898,177139.3278566,77
1658857786.36898,177139.3278595,58
1658857786.36898,177139.3278636,58
1658857786.36898,177139.3278666,77
1658857786.36898,177139.3278696,98
1658857786.36898,177139.3278728,107
1658857786.36898,177139.3278757,112
1658857786.36898,177139.3278786,123
1658857786.36898,177139.3278816,126
1658857786.36898,177139.3278844,121
1658857786.36898,177139.3278878,112
1658857786.36898,177139.3278909,121
1658857786.36898,177139.3278944,179
1658857786.38194,177139.3278972,191
1658857786.38194,177139.3279001,28
1658857786.38194,177139.3279031,-221
1658857786.38194,177139.3279069,-214
1658857786.38194,177139.3279106,154
1658857786.38194,177139.3279139,357
1658857786.38194,177139.3279169,137
1658857786.38194,177139.3279199,-4
1658857786.38194,177139.3279229,65
1658857786.38194,177139.3279257,65
1658857786.38194,177139.3279296,18
1658857786.38194,177139.327934,32
1658857786.38194,177139.327937,39
1658857786.38194,177139.3279399,21
1658857786.38194,177139.3279427,18
1658857786.38194,177139.3279458,25
1658857786.38194,177139.3279487,32
1658857786.38194,177139.3279517,25
1658857786.38194,177139.9131086,-2
1658857786.38194,177139.9131302,-21
1658857786.38194,177139.9131373,-25
1658857786.38194,177139.9131439,-35
1658857786.38194,177139.9131506,-39
1658857786.38194,177139.9131565,-42
1658857786.91333,177139.9131625,-46
1658857786.91333,177139.9131729,-53
1658857786.91333,177139.9131795,-63
1658857786.91333,177139.9132463,-65
1658857786.91333,177139.913255,-51
1658857786.91333,177139.9132626,-30
1658857786.91333,177139.9132699,-2
1658857786.91333,177139.9132775,39
1658857786.91333,177139.9132822,72
1658857786.91333,177139.9132859,86
1658857786.91333,177139.9132896,98
1658857786.91333,177139.9132955,119
1658857786.91333,177139.9133013,126
1658857786.91333,177139.9133069,112
1658857786.91333,177139.9133127,98
1658857786.91333,177139.9133229,93
1658857786.91333,177139.9133302,98
1658857786.91333,177139.9133389,105
1658857786.91333,177139.9133472,107
1658857786.91333,177139.913355,95
1658857786.91333,177139.913364,84
1658857786.91333,177139.9133711,91
1658857786.91333,177139.9133779,102
1658857786.91333,177139.9133868,105
1658857786.91333,177139.9133934,107
1658857786.91333,177139.9134006,109
1658857786.91333,177139.9134097,100
1658857786.91333,177139.9134166,86
1658857786.91333,177139.9134252,74
1658857786.91333,177139.9134334,65
1658857786.91333,177139.9134419,58
1658857786.91333,177139.9134491,67
1658857786.91333,177139.9134565,88
1658857786.91333,177139.9134653,98
1658857786.91333,177139.9134723,102
1658857786.91333,177139.9134807,116
1658857786.91333,177139.9134865,128
1658857786.91333,177139.9134921,126
1658857786.91333,177139.9135001,116
1658857786.91333,177139.913507,121
1658857786.91333,177139.9135159,165
1658857786.91333,177139.9135226,196
1658857786.91333,177139.9135288,93
1658857786.91333,177139.9135374,-133
1658857786.91333,177139.9135466,-270
1658857786.91333,177139.9135552,-49
1658857786.91333,177139.9135631,287
1658857786.91333,177139.9135716,240
1658857786.91333,177139.9135792,37
1658857786.91333,177139.913587,51
1658857786.9237,177139.913595,100
1658857786.9237,177139.9136032,60
1658857786.9237,177139.9136108,63
1658857786.9237,177139.9136187,88
1658857786.9237,177139.9136265,63
1658857786.9237,177139.9136341,44
1658857786.9237,177139.9136417,63
1658857786.9237,177139.9136487,63
1658857786.9237,177139.9136577,32
1658857786.9237,177139.9136644,23
1658857786.9237,177139.9136705,32
1658857786.9237,177139.9136794,25
1658857786.9237,177139.9136867,-4
1658857786.9237,177139.9136944,-25
1658857786.9237,177139.9137023,-23
1658857786.9237,177139.9137093,-16
1658857786.9237,177139.9137179,-18
1658857786.9237,177140.4505624,-30
1658857786.9237,177140.4505807,-32
1658857786.9237,177140.4505863,-16
1658857786.9237,177140.4505918,2
1658857786.9237,177140.4505966,21
1658857786.9237,177140.4506021,60
1658857786.9237,177140.4506089,107
1658857787.44751,177140.4506142,142
1658857787.44751,177140.4506197,170
1658857787.44751,177140.450625,189
1658857787.44751,177140.4506306,189
1658857787.44751,177140.4506353,177
1658857787.44751,177140.4506407,179
1658857787.44751,177140.4506461,186
1658857787.44751,177140.4506511,175
1658857787.44751,177140.4506556,175
1658857787.44751,177140.45066,177
1658857787.44751,177140.4506648,165
1658857787.44751,177140.4506718,156
1658857787.44751,177140.4506783,168
1658857787.44751,177140.4506846,172
1658857787.44751,177140.4506906,172
1658857787.44751,177140.4506987,168
1658857787.44751,177140.4507034,149
1658857787.44751,177140.4507094,144
1658857787.44751,177140.4507151,154
1658857787.44751,177140.4507195,135
1658857787.44751,177140.4507251,114
1658857787.44751,177140.4507289,107
1658857787.44751,177140.4507346,98
1658857787.44751,177140.4507382,102
1658857787.44751,177140.4507417,128
1658857787.44751,177140.450745,140
1658857787.44751,177140.4507484,140
1658857787.44751,177140.4507518,151
1658857787.44751,177140.4507552,156
1658857787.44751,177140.4507595,147
1658857787.44751,177140.4507664,147
1658857787.44751,177140.4507699,165
1658857787.44751,177140.4507756,221
1658857787.44751,177140.45078,242
1658857787.44751,177140.4507833,93
1658857787.44751,177140.4507865,-165
1658857787.44751,177140.4507899,-217
1658857787.44751,177140.4507933,116
1658857787.44751,177140.4507989,392
1658857787.44751,177140.4508045,235
1658857787.44751,177140.4508084,51
1658857787.44751,177140.4508136,88
1658857787.44751,177140.4508169,105
1658857787.44751,177140.4508204,72
1658857787.44751,177140.4508238,86
1658857787.44751,177140.450829,93
1658857787.44751,177140.4508349,74
1658857787.44751,177140.4508414,74
1658857787.44751,177140.4508448,74
1658857787.44751,177140.4508507,65
1658857787.45848,177140.4508538,56
1658857787.45848,177140.4508568,42
1658857787.45848,177140.4508598,32
1658857787.45848,177140.4508628,25
1658857787.45848,177140.4508674,9
1658857787.45848,177140.4508704,-2
1658857787.45848,177140.4508734,-4
1658857787.45848,177140.4508763,-9
1658857787.45848,177140.4508793,-9
1658857787.45848,177140.4508824,-18
1658857787.45848,177140.4508853,-25
1658857787.45848,177140.4508882,-9
1658857787.45848,177140.4508913,14
1658857787.45848,177140.4508944,35
1658857787.45848,177140.4508973,81
1658857787.45848,177140.4509001,128
1658857787.45848,177140.9852807,151
1658857787.45848,177140.9853054,158
1658857787.45848,177140.9853158,168
1658857787.45848,177140.9853303,186
1658857787.45848,177140.9853399,196
1658857787.45848,177140.9853489,186
1658857787.45848,177140.9853572,175
1658857787.45848,177140.985364,158
1658857787.98175,177140.9853699,149
1658857787.98175,177140.9853772,163
1658857787.98175,177140.985383,168
1658857787.98175,177140.9853873,154
1658857787.98175,177140.9853906,154
1658857787.98175,177140.9853968,154
1658857787.98175,177140.9854752,144
1658857787.98175,177140.985483,149
1658857787.98175,177140.9854864,151
1658857787.98175,177140.9854896,140
1658857787.98175,177140.9854929,133
1658857787.98175,177140.9854961,119
1658857787.98175,177140.9854993,93
1658857787.98175,177140.9855025,100
1658857787.98175,177140.9855056,121
1658857787.98175,177140.9855089,119
1658857787.98175,177140.9855119,123
1658857787.98175,177140.985515,135
1658857787.98175,177140.9855184,140
1658857787.98175,177140.9855255,142
1658857787.98175,177140.9855303,140
1658857787.98175,177140.9855355,133
1658857787.98175,177140.985541,135
1658857787.98175,177140.9855452,165
1658857787.98175,177140.9855486,224
1658857787.98175,177140.9855519,177
1658857787.98175,177140.9855557,-51
1658857787.98175,177140.9855592,-254
1658857787.98175,177140.9855627,-98
1658857787.98175,177140.985567,284
1658857787.98175,177140.9855722,317
1658857787.98175,177140.9855773,74
1658857787.98175,177140.9855843,44
1658857787.98175,177140.9855915,119
1658857787.98175,177140.9855967,79
1658857787.98175,177140.9856008,51
1658857787.98175,177140.9856071,81
1658857787.98175,177140.9856117,65
1658857787.98175,177140.9856185,37
1658857787.98175,177140.985627,51
1658857787.98175,177140.9856346,60
1658857787.98175,177140.9856424,42
1658857787.98175,177140.9856464,30
1658857787.98175,177140.9856516,23
1658857787.98175,177140.9856551,14
1658857787.98175,177140.9856624,4
1658857787.98175,177140.9856708,-7
1658857787.98175,177140.9856761,-21
1658857787.98175,177140.9856799,-32
1658857787.98175,177140.9856867,-28
1658857787.99471,177140.985695,-23
1658857787.99471,177140.9857004,-37
1658857787.99471,177140.9857042,-49
1658857787.99471,177140.985711,-18
1658857787.99471,177140.9857179,25
1658857787.99471,177140.9857246,53
1658857787.99471,177140.9857292,81
1658857787.99471,177140.9857351,114
1658857787.99471,177140.985743,133
1658857787.99471,177140.9857481,154
1658857787.99471,177140.9857573,177
1658857787.99471,177140.9857648,179
1658857787.99471,177140.9857697,168
1658857787.99471,177140.9857784,168
1658857787.99471,177140.9857843,170
1658857787.99471,177141.5212149,165
1658857787.99471,177141.5212427,170
1658857787.99471,177141.5212593,177
1658857787.99471,177141.5212691,170
1658857787.99471,177141.5212782,156
1658857787.99471,177141.5213034,161
1658857787.99471,177141.5213147,182
1658857787.99471,177141.5213227,179
1658857787.99471,177141.5213259,156
1658857788.56705,177141.521329,154
1658857788.56705,177141.5213351,147
1658857788.56705,177141.5213419,116
1658857788.56705,177141.52135,93
1658857788.56705,177141.5213568,81
1658857788.56705,177141.5213618,84
1658857788.56705,177141.5213655,102
1658857788.56705,177141.5213717,105
1658857788.56705,177141.5213766,86
1658857788.56705,177141.5213896,107
1658857788.56705,177141.5214129,142
1658857788.56705,177141.5214211,135
1658857788.56705,177141.5214251,112
1658857788.56705,177141.5214286,107
1658857788.56705,177141.5214319,126
1658857788.56705,177141.5214351,175
1658857788.56705,177141.5214383,184
1658857788.56705,177141.5214425,65
1658857788.56705,177141.5214481,-144
1658857788.56705,177141.5214546,-203
1658857788.56705,177141.5214578,77
1658857788.56705,177141.5214608,324
1658857788.56705,177141.5214639,182
1658857788.56705,177141.5214711,18
1658857788.56705,177141.5214771,74
1658857788.56705,177141.5214839,100
1658857788.56705,177141.5214871,56
1658857788.56705,177141.5214942,56
1658857788.56705,177141.5215005,60
1658857788.56705,177141.5215036,51
1658857788.56705,177141.5215111,51
1658857788.56705,177141.5215173,42
1658857788.56705,177141.5215204,35
1658857788.56705,177141.5215234,42
1658857788.56705,177141.5215265,35
1658857788.56705,177141.5215295,18
1658857788.56705,177141.5215326,14
1658857788.56705,177141.5215355,-2
1658857788.56705,177141.5215385,-28
1658857788.56705,177141.5215415,-32
1658857788.56705,177141.5215444,-32
1658857788.56705,177141.5215474,-44
1658857788.56705,177141.5215504,-44
1658857788.56705,177141.5215533,-32
1658857788.56705,177141.5215563,-25
1658857788.56705,177141.5215594,-11
1658857788.56705,177141.5215624,18
1658857788.56705,177141.5215653,56
1658857788.56705,177141.5215684,91
1658857788.56705,177141.5215714,126
1658857788.57702,177141.5215743,151
1658857788.57702,177141.5215775,165
1658857788.57702,177141.5215804,170
1658857788.57702,177141.5215833,168
1658857788.57702,177141.5215863,170
1658857788.57702,177141.5215894,179
1658857788.57702,177141.5215923,172
1658857788.57702,177141.5215957,151
1658857788.57702,177141.5216013,154
1658857788.57702,177141.5216045,168
1658857788.57702,177141.5216092,175
1658857788.57702,177141.5216127,175
1658857788.57702,177141.5216158,165
1658857788.57702,177141.5216188,163
1658857788.57702,177142.1062786,168
1658857788.57702,177142.1063025,161
1658857788.57702,177142.1063112,147
1658857788.57702,177142.1063156,135
1658857788.57702,177142.1063207,123
1658857788.57702,177142.1063268,102
1658857788.57702,177142.1063326,95
1658857788.57702,177142.1063363,112
1658857788.57702,177142.1063426,112
1658857788.57702,177142.1063485,109
1658857789.19899,177142.1063595,133
1658857789.19899,177142.1063653,149
1658857789.19899,177142.1063703,142
1658857789.19899,177142.1063748,130
1658857789.19899,177142.1063795,107
1658857789.19899,177142.106384,100
1658857789.19899,177142.1063888,156
1658857789.19899,177142.1063936,175
1658857789.19899,177142.1063988,25
1658857789.19899,177142.1064035,-184
1658857789.19899,177142.1064082,-175
1658857789.19899,177142.1064129,137
1658857789.19899,177142.106419,338
1658857789.19899,177142.1064264,161
1658857789.19899,177142.1064314,7
1658857789.19899,177142.1064381,70
1658857789.19899,177142.1064439,79
1658857789.19899,177142.1064505,28
1658857789.19899,177142.1064554,46
1658857789.19899,177142.1064601,53
1658857789.19899,177142.1064695,21
1658857789.19899,177142.1064774,25
1658857789.19899,177142.1064901,32
1658857789.19899,177142.1065032,16
1658857789.19899,177142.1065163,11
1658857789.19899,177142.1065292,7
1658857789.19899,177142.106542,-4
1658857789.19899,177142.1065549,-14
1658857789.19899,177142.1065676,-28
1658857789.19899,177142.1065806,-44
1658857789.19899,177142.1065935,-49
1658857789.19899,177142.1066057,-58
1658857789.19899,177142.1066145,-63
1658857789.19899,177142.1066219,-58
1658857789.19899,177142.1066313,-65
1658857789.19899,177142.1066392,-63
1658857789.19899,177142.1066472,-37
1658857789.19899,177142.1066546,0
1658857789.19899,177142.1066596,44
1658857789.19899,177142.1066662,88
1658857789.19899,177142.1066721,116
1658857789.19899,177142.1066786,135
1658857789.19899,177142.1066836,147
1658857789.19899,177142.1066901,151
1658857789.19899,177142.106695,158
1658857789.19899,177142.1067021,158
1658857789.19899,177142.1067104,151
1658857789.19899,177142.1067168,154
1658857789.19899,177142.106727,147
1658857789.19899,177142.1067384,137
1658857789.21096,177142.1067526,147
1658857789.21096,177142.1067656,156
1658857789.21096,177142.1067784,154
1658857789.21096,177142.1067913,151
1658857789.21096,177142.106804,147
1658857789.21096,177142.1068163,137
1658857789.21096,177142.1068259,128
1658857789.21096,177142.1068334,119
1658857789.21096,177142.1068371,98
1658857789.21096,177142.1068422,79
1658857789.21096,177142.1068553,84
1658857789.21096,177142.1068651,102
1658857789.21096,177142.1068706,119
1658857789.21096,177142.7401625,128
1658857789.21096,177142.7401757,137
1658857789.21096,177142.7401802,144
1658857789.21096,177142.740185,144
1658857789.21096,177142.740187,151
1658857789.21096,177142.7401891,151
1658857789.21096,177142.7401912,137
1658857789.21096,177142.7401933,170
1658857789.21096,177142.7401954,212
1658857789.21096,177142.7401975,102
1658857789.21096,177142.740201,-140
1658857789.68255,177142.7402031,-221
1658857789.68255,177142.7402052,70
1658857789.68255,177142.7402074,355
1658857789.68255,177142.7402093,219
1658857789.68255,177142.7402113,4
1658857789.68255,177142.7402132,25
1658857789.68255,177142.7402152,58
1658857789.68255,177142.7402172,25
1658857789.68255,177142.7402191,32
1658857789.68255,177142.7402211,42
1658857789.68255,177142.7402254,16
1658857789.68255,177142.7402374,4
1658857789.68255,177142.7402472,11
1658857789.68255,177142.7402508,7
1658857789.68255,177142.740253,-2
1658857789.68255,177142.7402552,-9
1658857789.68255,177142.7402572,-25
1658857789.68255,177142.7402593,-37
1658857789.68255,177142.7402617,-39
1658857789.68255,177142.7402718,-56
1658857789.68255,177142.7402798,-63
1658857789.68255,177142.7402824,-63
1658857789.68255,177142.7402844,-72
1658857789.68255,177142.7402908,-84
1658857789.68255,177142.7403018,-79
1658857789.68255,177142.740305,-67
1658857789.68255,177142.7403071,-44
1658857789.68255,177142.7403093,-7
1658857789.68255,177142.7403116,25
1658857789.68255,177142.7403137,60
1658857789.68255,177142.7403158,102
1658857789.68255,177142.740318,133
1658857789.68255,177142.7403207,147
1658857789.68255,177142.7403229,156
1658857789.68255,177142.740325,154
1658857789.68255,177142.7403272,144
1658857789.68255,177142.7403293,142
1658857789.68255,177142.7403314,147
1658857789.68255,177142.7403335,149
1658857789.68255,177142.7403355,147
1658857789.68255,177142.7403376,144
1658857789.68255,177142.7403397,147
1658857789.68255,177142.7403417,147
1658857789.68255,177142.7403438,144
1658857789.68255,177142.7403466,142
1658857789.68255,177142.7403721,140
1658857789.68255,177142.7403895,133
1658857789.68255,177142.7404042,121
1658857789.68255,177142.7404149,98
1658857789.68255,177142.7404224,74
1658857789.69153,177142.7404323,88
1658857789.69153,177142.7404407,119
1658857789.69153,177142.7404649,130
1658857789.69153,177142.7404912,133
1658857789.69153,177142.7405126,144
1658857789.69153,177142.7405217,161
1658857789.69153,177142.7405256,158
1658857789.69153,177142.7405308,149
1658857789.69153,177142.7405339,154
1658857789.69153,177142.740537,170
1658857789.69153,177142.7405402,210
1658857789.69153,177142.7405454,212
1658857789.69153,177143.2277886,65
1658857789.69153,177143.2278104,-163
1658857789.69153,177143.227827,-151
1658857789.69153,177143.2278348,191
1658857789.69153,177143.2278431,378
1658857789.69153,177143.2278458,177
1658857789.69153,177143.227848,32
1658857789.69153,177143.2278501,98
1658857789.69153,177143.2278523,107
1658857789.69153,177143.2278543,63
1658857789.69153,177143.2278564,77
1658857789.69153,177143.2278585,86
1658857790.22438,177143.2278605,65
1658857790.22438,177143.2278626,49
1658857790.22438,177143.2278645,32
1658857790.22438,177143.2278664,14
1658857790.22438,177143.2278683,9
1658857790.22438,177143.227871,9
1658857790.22438,177143.2278733,-7
1658857790.22438,177143.2278752,-28
1658857790.22438,177143.2278771,-42
1658857790.22438,177143.227879,-51
1658857790.22438,177143.2278809,-60
1658857790.22438,177143.2278828,-67
1658857790.22438,177143.2278847,-60
1658857790.22438,177143.2278867,-65
1658857790.22438,177143.2278886,-88
1658857790.22438,177143.2278905,-79
1658857790.22438,177143.2278925,-42
1658857790.22438,177143.2278944,-9
1658857790.22438,177143.2278964,30
1658857790.22438,177143.2278983,72
1658857790.22438,177143.2279002,100
1658857790.22438,177143.2279022,121
1658857790.22438,177143.2279041,137
1658857790.22438,177143.2279061,137
1658857790.22438,177143.2279086,140
1658857790.22438,177143.2279107,142
1658857790.22438,177143.2279128,144
1658857790.22438,177143.2279149,149
1658857790.22438,177143.227917,144
1658857790.22438,177143.2279191,140
1658857790.22438,177143.2279212,149
1658857790.22438,177143.2279232,151
1658857790.22438,177143.2279254,147
1658857790.22438,177143.2279275,142
1658857790.22438,177143.2279296,140
1658857790.22438,177143.2279317,133
1658857790.22438,177143.2279338,119
1658857790.22438,177143.2279359,98
1658857790.22438,177143.227938,81
1658857790.22438,177143.2279401,88
1658857790.22438,177143.2279424,109
1658857790.22438,177143.2279445,119
1658857790.22438,177143.2279465,119
1658857790.22438,177143.2279486,128
1658857790.22438,177143.2279507,142
1658857790.22438,177143.2279528,158
1658857790.22438,177143.2279549,165
1658857790.22438,177143.227957,163
1658857790.22438,177143.2279592,161
1658857790.22438,177143.2279614,191
1658857790.23635,177143.2279635,231
1658857790.23635,177143.2279657,147
1658857790.23635,177143.2279678,-67
1658857790.23635,177143.22797,-186
1658857790.23635,177143.2279721,35
1658857790.23635,177143.2279743,348
1658857790.23635,177143.2279764,289
1658857790.23635,177143.2279786,74
1658857790.23635,177143.2279807,77
1658857790.23635,177143.2279828,114
1658857790.23635,177143.227985,70
1658857790.23635,177143.7635743,72
1658857790.23635,177143.7635952,102
1658857790.23635,177143.7636089,91
1658857790.23635,177143.7636226,70
1658857790.23635,177143.7636369,67
1658857790.23635,177143.7636504,63
1658857790.23635,177143.7636636,53
1658857790.23635,177143.7636768,44
1658857790.23635,177143.7636956,32
1658857790.23635,177143.7637042,7
1658857790.23635,177143.7637083,-23
1658857790.23635,177143.7637106,-44
1658857790.23635,177143.7637128,-51
1658857790.85265,177143.7637149,-58
1658857790.85265,177143.7637169,-63
1658857790.85265,177143.7637189,-60
1658857790.85265,177143.7637208,-72
1658857790.85265,177143.7637227,-98
1658857790.85265,177143.7637247,-77
1658857790.85265,177143.7637266,-16
1658857790.85265,177143.7637286,28
1658857790.85265,177143.7637306,56
1658857790.85265,177143.7637326,81
1658857790.85265,177143.7637345,107
1658857790.85265,177143.7637364,121
1658857790.85265,177143.7637384,133
1658857790.85265,177143.7637403,147
1658857790.85265,177143.7637423,151
1658857790.85265,177143.7637441,147
1658857790.85265,177143.7637461,147
1658857790.85265,177143.7637481,137
1658857790.85265,177143.76375,135
1658857790.85265,177143.7637519,144
1658857790.85265,177143.7637538,149
1658857790.85265,177143.7637561,147
1658857790.85265,177143.7637581,149
1658857790.85265,177143.7637602,147
1658857790.85265,177143.7637622,133
1658857790.85265,177143.7637642,119
1658857790.85265,177143.7637663,105
1658857790.85265,177143.7637683,88
1658857790.85265,177143.7637703,91
1658857790.85265,177143.7637723,105
1658857790.85265,177143.763775,112
1658857790.85265,177143.7637771,126
1658857790.85265,177143.7637792,142
1658857790.85265,177143.7637812,161
1658857790.85265,177143.7637833,179
1658857790.85265,177143.7637853,175
1658857790.85265,177143.7637874,154
1658857790.85265,177143.7637895,156

1658857790.85265,177143.7637915,203
1658857790.85265,177143.7637936,242
1658857790.85265,177143.7637956,170
1658857790.85265,177143.7637977,-39
1658857790.85265,177143.7637998,-186
1658857790.85265,177143.763802,0
1658857790.85265,177143.7638041,338
1658857790.85265,177143.7638063,315
1658857790.85265,177143.7638084,77
1658857790.85265,177143.7638106,63
1658857790.85265,177143.7638127,126
1658857790.85265,177143.7638147,86
1658857790.86661,177143.7638168,72
1658857790.86661,177143.7638188,102
1658857790.86661,177143.7638209,91
1658857790.86661,177143.7638231,74
1658857790.86661,177143.7638252,74
1658857790.86661,177143.7638273,70
1658857790.86661,177143.7638293,63
1658857790.86661,177143.7638315,65
1658857790.86661,177143.7638336,51
1658857790.86661,177143.7638357,21
1658857790.86661,177144.397362,-9
1658857790.86661,177144.3973766,-21
1658857790.86661,177144.397381,-32
1658857790.86661,177144.3973938,-42
1658857790.86661,177144.3974007,-42
1658857790.86661,177144.3974091,-46
1658857790.86661,177144.3974182,-63
1658857790.86661,177144.3974292,-74
1658857790.86661,177144.3974394,-53
1658857790.86661,177144.3974524,-7
1658857790.86661,177144.3974667,35
1658857790.86661,177144.3974795,65
1658857790.86661,177144.3974925,93
1658857790.86661,177144.3975052,112
1658857791.53586,177144.3975201,112
1658857791.53586,177144.3975257,119
1658857791.53586,177144.3975302,130
1658857791.53586,177144.3975335,135
1658857791.53586,177144.397539,144
1658857791.53586,177144.3975427,149
1658857791.53586,177144.3975465,140
1658857791.53586,177144.3975502,130
1658857791.53586,177144.3975544,135
1658857791.53586,177144.3975603,137
1658857791.53586,177144.3975668,133
1658857791.53586,177144.397571,135
1658857791.53586,177144.3975775,137
1658857791.53586,177144.3975815,123
1658857791.53586,177144.3975871,107
1658857791.53586,177144.3976185,91
1658857791.53586,177144.3976235,84
1658857791.53586,177144.3976268,95
1658857791.53586,177144.3976302,107
1658857791.53586,177144.3976332,114
1658857791.53586,177144.3976362,126
1658857791.53586,177144.397639,137
1658857791.53586,177144.3976419,161
1658857791.53586,177144.3976448,170
1658857791.53586,177144.3976476,156
1658857791.53586,177144.3976504,151
1658857791.53586,177144.3976533,172
1658857791.53586,177144.3976563,212
1658857791.53586,177144.3976591,219
1658857791.53586,177144.3976621,95
1658857791.53586,177144.3976655,-137
1658857791.53586,177144.3976688,-193
1658857791.53586,177144.3976718,121
1658857791.53586,177144.3976759,385
1658857791.53586,177144.397679,231
1658857791.53586,177144.3976818,49
1658857791.53586,177144.3976847,86
1658857791.53586,177144.3976876,114
1658857791.53586,177144.3976922,81
1658857791.53586,177144.3976953,86
1658857791.53586,177144.3976982,86
1658857791.53586,177144.3977019,79
1658857791.53586,177144.3977083,86
1658857791.53586,177144.3977113,84
1658857791.53586,177144.3977144,70
1658857791.53586,177144.3977175,56
1658857791.53586,177144.3977233,46
1658857791.53586,177144.3977265,39
1658857791.53586,177144.3977294,32
1658857791.53586,177144.3977323,11
1658857791.54683,177144.3977354,-7
1658857791.54683,177144.3977383,-23
1658857791.54683,177144.3977415,-49
1658857791.54683,177144.3977447,-49
1658857791.54683,177144.3977477,-39
1658857791.54683,177144.397751,-51
1658857791.54683,177144.3977564,-46
1658857791.54683,177144.3977594,-9
1658857791.54683,177144.3977626,30
1658857791.54683,177145.0805184,67
1658857791.54683,177145.080538,119
1658857791.54683,177145.0805525,158
1658857791.54683,177145.0805658,165
1658857791.54683,177145.0805791,168
1658857791.54683,177145.0805924,189
1658857791.54683,177145.0806057,189
1658857791.54683,177145.0806189,170
1658857791.54683,177145.0806323,172
1658857791.54683,177145.0806465,182
1658857791.54683,177145.0806594,172
1658857791.54683,177145.0806906,168
1658857791.54683,177145.0807059,168
1658857791.54683,177145.0807141,163
1658857791.54683,177145.0807236,172
1658857792.12475,177145.0807335,179
1658857792.12475,177145.0807416,156
1658857792.12475,177145.0807525,116
1658857792.12475,177145.0807606,86
1658857792.12475,177145.0807695,74
1658857792.12475,177145.0807731,81
1658857792.12475,177145.0807753,102
1658857792.12475,177145.0807825,114
1658857792.12475,177145.0808008,95
1658857792.12475,177145.0808126,91
1658857792.12475,177145.0808162,135
1658857792.12475,177145.0808281,165
1658857792.12475,177145.080836,144
1658857792.12475,177145.0808385,126
1658857792.12475,177145.0808405,135
1658857792.12475,177145.0808427,172
1658857792.12475,177145.0808448,226
1658857792.12475,177145.0808475,189
1658857792.12475,177145.0808584,-7
1658857792.12475,177145.0808712,-217
1658857792.12475,177145.0808844,-114
1658857792.12475,177145.0808965,259
1658857792.12475,177145.0809029,333
1658857792.12475,177145.0809156,86
1658857792.12475,177145.0809285,28
1658857792.12475,177145.0809424,121
1658857792.12475,177145.0809552,95
1658857792.12475,177145.0809688,65
1658857792.12475,177145.0809789,88
1658857792.12475,177145.0809937,79
1658857792.12475,177145.0810059,67
1658857792.12475,177145.0810173,81
1658857792.12475,177145.08103,81
1658857792.12475,177145.081044,53
1658857792.12475,177145.0810577,39
1658857792.12475,177145.0810695,44
1658857792.12475,177145.0810796,32
1658857792.12475,177145.0810881,14
1658857792.12475,177145.0810979,9
1658857792.12475,177145.0811029,-7
1658857792.12475,177145.0811069,-23
1658857792.12475,177145.081109,-21
1658857792.12475,177145.0811111,-32
1658857792.12475,177145.0811132,-46
1658857792.12475,177145.0811153,-39
1658857792.12475,177145.0811174,-23
1658857792.12475,177145.0811195,0
1658857792.12475,177145.0811216,46
1658857792.12475,177145.0811236,100
1658857792.12475,177145.0811257,128
1658857792.13472,177145.0811278,156
1658857792.13472,177145.0811299,175
1658857792.13472,177145.081132,177
1658857792.13472,177145.0811341,177
1658857792.13472,177145.0811362,175
1658857792.13472,177145.0811383,172
1658857792.13472,177145.0811404,172
1658857792.13472,177145.0811425,177
1658857792.13472,177145.6654045,182
1658857792.13472,177145.6654205,172
1658857792.13472,177145.6654252,165
1658857792.13472,177145.6654308,175
1658857792.13472,177145.6654347,177
1658857792.13472,177145.6654386,165
1658857792.13472,177145.6654422,158
1658857792.13472,177145.665446,130
1658857792.13472,177145.6654497,93
1658857792.13472,177145.6654534,86
1658857792.13472,177145.6654581,105
1658857792.13472,177145.6654618,126
1658857792.13472,177145.6654674,128
1658857792.13472,177145.665471,126
1658857792.13472,177145.6654746,135
1658857792.13472,177145.6654782,154
1658857792.51313,177145.6654889,170
1658857792.51313,177145.665493,172
1658857792.51313,177145.6654971,170
1658857792.51313,177145.6655009,172
1658857792.51313,177145.6655045,198
1658857792.51313,177145.6655084,196
1658857792.51313,177145.665512,65
1658857792.51313,177145.6655158,-168
1658857792.51313,177145.6655196,-191
1658857792.51313,177145.6655233,142
1658857792.51313,177145.665527,359
1658857792.51313,177145.6655308,163
1658857792.51313,177145.6655345,9
1658857792.51313,177145.6655383,91
1658857792.51313,177145.665542,119
1658857792.51313,177145.6655457,72
1658857792.51313,177145.6655493,84
1658857792.51313,177145.665553,91
1658857792.51313,177145.6655568,72
1658857792.51313,177145.6655604,79
1658857792.51313,177145.6655647,84
1658857792.51313,177145.6655745,70
1658857792.51313,177145.6655787,58
1658857792.51313,177145.6655824,49
1658857792.51313,177145.6655859,35
1658857792.51313,177145.6655894,18
1658857792.51313,177145.665593,9
1658857792.51313,177145.6655966,-2
1658857792.51313,177145.6656003,-11
1658857792.51313,177145.6656041,-23
1658857792.51313,177145.6656079,-30
1658857792.51313,177145.6656134,-35
1658857792.51313,177145.6656171,-35
1658857792.51313,177145.6656242,-25
1658857792.51313,177145.665628,11
1658857792.51313,177145.6656713,49
1658857792.51313,177145.6656823,81
1658857792.51313,177145.6656892,116
1658857792.51313,177145.6656929,149
1658857792.51313,177145.6656965,163
1658857792.51313,177145.6657,175
1658857792.51313,177145.6657035,193
1658857792.51313,177145.6657071,193
1658857792.51313,177145.6657106,179
1658857792.51313,177145.6657143,170
1658857792.51313,177145.665718,165
1658857792.51313,177145.6657232,163
1658857792.51313,177145.6657268,168
1658857792.51313,177145.6657319,177
1658857792.51313,177145.6657355,172
1658857792.5241,177145.6657391,163
1658857792.5241,177145.6657426,163
1658857792.5241,177145.6657462,168
1658857792.5241,177145.6657497,151
1658857792.5241,177145.6657532,126
1658857792.5241,177145.6657567,107
1658857792.5241,177145.6657603,102
1658857792.5241,177146.055636,114
1658857792.5241,177146.055657,133
1658857792.5241,177146.0556723,135
1658857792.5241,177146.0556869,140
1658857792.5241,177146.0557004,165
1658857792.5241,177146.0557136,189
1658857792.5241,177146.0557268,186
1658857792.5241,177146.0557386,172
1658857792.5241,177146.0557508,170
1658857792.5241,177146.0557585,189
1658857792.5241,177146.0557682,221
1658857792.5241,177146.0557755,189
1658857792.5241,177146.0557803,18
1658857792.5241,177146.055787,-182
1658857792.5241,177146.0557922,-107
1658857792.5241,177146.0557995,240
1658857792.5241,177146.0558049,336
1658857793.10875,177146.0558131,112
1658857793.10875,177146.0558232,42
1658857793.10875,177146.055832,128
1658857793.10875,177146.0558408,109
1658857793.10875,177146.0558477,67
1658857793.10875,177146.0558542,86
1658857793.10875,177146.0558617,84
1658857793.10875,177146.0558681,70
1658857793.10875,177146.0558752,81
1658857793.10875,177146.0558815,79
1658857793.10875,177146.0558864,58
1658857793.10875,177146.0559001,42
1658857793.10875,177146.0559079,32
1658857793.10875,177146.0559146,23
1658857793.10875,177146.0559267,9
1658857793.10875,177146.0559362,0
1658857793.10875,177146.0559459,-11
1658857793.10875,177146.0559505,-37
1658857793.10875,177146.0559609,-60
1658857793.10875,177146.055967,-72
1658857793.10875,177146.0559745,-72
1658857793.10875,177146.0559874,-63
1658857793.10875,177146.0560018,-42
1658857793.10875,177146.0560091,-11
1658857793.10875,177146.0560127,25
1658857793.10875,177146.0560171,65
1658857793.10875,177146.0560243,107
1658857793.10875,177146.0560331,140
1658857793.10875,177146.0560407,149
1658857793.10875,177146.0560464,144
1658857793.10875,177146.0560515,144
1658857793.10875,177146.0560563,149
1658857793.10875,177146.0560605,144
1658857793.10875,177146.0560635,133
1658857793.10875,177146.0560665,135
1658857793.10875,177146.0560696,147
1658857793.10875,177146.0560726,151
1658857793.10875,177146.0560756,151
1658857793.10875,177146.0560785,144
1658857793.10875,177146.0560835,130
1658857793.10875,177146.056109,130
1658857793.10875,177146.0561176,137
1658857793.10875,177146.0561225,128
1658857793.10875,177146.0561276,107
1658857793.10875,177146.0561307,84
1658857793.10875,177146.0561339,74
1658857793.10875,177146.0561371,98
1658857793.10875,177146.0561407,116
1658857793.10875,177146.0561437,116
1658857793.10875,177146.0561467,126
1658857793.11972,177146.0561498,142
1658857793.11972,177146.056153,154
1658857793.11972,177146.0561562,158
1658857793.11972,177146.0561592,151
1658857793.11972,177146.0561629,149
1658857793.11972,177146.0561674,172
1658857793.11972,177146.6406567,212
1658857793.11972,177146.6406697,186
1658857793.11972,177146.6406746,11
1658857793.11972,177146.6406774,-203
1658857793.11972,177146.6406799,-130
1658857793.11972,177146.6406824,249
1658857793.11972,177146.6406848,387
1658857793.11972,177146.6406872,151
1658857793.11972,177146.6406896,35
1658857793.11972,177146.6406921,98
1658857793.11972,177146.640695,95
1658857793.11972,177146.640698,67
1658857793.11972,177146.6407005,86
1658857793.11972,177146.6407059,79
1658857793.11972,177146.6407176,49
1658857793.11972,177146.6407237,44
1658857793.11972,177146.6407261,49
1658857793.11972,177146.6407282,46
1658857793.63343,177146.6407305,32
1658857793.63343,177146.6407358,9
1658857793.63343,177146.6407456,-14
1658857793.63343,177146.6407501,-30
1658857793.63343,177146.6407523,-42
1658857793.63343,177146.6407568,-44
1658857793.63343,177146.6407668,-46
1658857793.63343,177146.6407778,-60
1658857793.63343,177146.6407845,-70
1658857793.63343,177146.6407876,-70
1658857793.63343,177146.6407898,-70
1658857793.63343,177146.640792,-56
1658857793.63343,177146.6407941,-16
1658857793.63343,177146.6407961,30
1658857793.63343,177146.6407982,72
1658857793.63343,177146.6408004,114
1658857793.63343,177146.6408024,140
1658857793.63343,177146.6408045,151
1658857793.63343,177146.6408067,172
1658857793.63343,177146.6408087,179
1658857793.63343,177146.6408108,158
1658857793.63343,177146.6408129,149
1658857793.63343,177146.640815,149
1658857793.63343,177146.6408171,149
1658857793.63343,177146.6408191,156
1658857793.63343,177146.6408211,142
1658857793.63343,177146.6408233,119
1658857793.63343,177146.6408253,123
1658857793.63343,177146.6408274,144
1658857793.63343,177146.6408294,156
1658857793.63343,177146.6408316,151
1658857793.63343,177146.6408337,142
1658857793.63343,177146.6408357,133
1658857793.63343,177146.6408377,112
1658857793.63343,177146.6408397,86
1658857793.63343,177146.6408418,74
1658857793.63343,177146.6408438,91
1658857793.63343,177146.6408459,114
1658857793.63343,177146.640848,126
1658857793.63343,177146.6408501,123
1658857793.63343,177146.6408521,142
1658857793.63343,177146.6408543,168
1658857793.63343,177146.6408563,165
1658857793.63343,177146.6408584,151
1658857793.63343,177146.6408607,151
1658857793.63343,177146.6408629,165
1658857793.63343,177146.640865,205
1658857793.63343,177146.640867,212
1658857793.63343,177146.640869,72
1658857793.63343,177146.6408712,-170
1658857793.6444,177146.6408734,-203
1658857793.6444,177146.6408755,133
1658857793.6444,177146.6408777,364
1658857793.6444,177146.6408797,175
1658857793.6444,177146.6408818,18
1658857793.6444,177147.1766353,91
1658857793.6444,177147.1766515,116
1658857793.6444,177147.1766568,79
1658857793.6444,177147.1766606,93
1658857793.6444,177147.1766642,93
1658857793.6444,177147.1766678,67
1658857793.6444,177147.1766713,70
1658857793.6444,177147.1766749,86
1658857793.6444,177147.1766794,74
1658857793.6444,177147.1766845,51
1658857793.6444,177147.1766881,42
1658857793.6444,177147.1766918,37
1658857793.6444,177147.1766969,21
1658857793.6444,177147.1767005,4
1658857793.6444,177147.1767056,-4
1658857793.6444,177147.1767093,-21
1658857793.6444,177147.1767143,-46
1658857793.6444,177147.1767179,-65
1658857793.6444,177147.1767232,-65
1658857794.22295,177147.1767268,-58
1658857794.22295,177147.1767304,-39
1658857794.22295,177147.176734,-21
1658857794.22295,177147.1767374,4
1658857794.22295,177147.1767409,39
1658857794.22295,177147.1767444,77
1658857794.22295,177147.1767478,112
1658857794.22295,177147.1767512,140
1658857794.22295,177147.1767546,156
1658857794.22295,177147.1767581,158
1658857794.22295,177147.1767616,144
1658857794.22295,177147.1767651,130
1658857794.22295,177147.1767685,133
1658857794.22295,177147.1767719,133
1658857794.22295,177147.1767755,126
1658857794.22295,177147.176779,119
1658857794.22295,177147.1767842,126
1658857794.22295,177147.176788,133
1658857794.22295,177147.176793,128
1658857794.22295,177147.1767963,126
1658857794.22295,177147.1767997,128
1658857794.22295,177147.1768033,133
1658857794.22295,177147.1768069,128
1658857794.22295,177147.1768116,109
1658857794.22295,177147.1768149,98
1658857794.22295,177147.1768199,86
1658857794.22295,177147.1768246,74
1658857794.22295,177147.1768311,84
1658857794.22295,177147.1768347,98
1658857794.22295,177147.17684,102
1658857794.22295,177147.1768436,114
1658857794.22295,177147.1768487,133
1658857794.22295,177147.176852,144
1658857794.22295,177147.1768568,144
1658857794.22295,177147.1768604,137
1658857794.22295,177147.1768641,135
1658857794.22295,177147.1768691,147
1658857794.22295,177147.1768725,189
1658857794.22295,177147.1768774,221
1658857794.22295,177147.176882,114
1658857794.22295,177147.1768855,-123
1658857794.22295,177147.1768892,-224
1658857794.22295,177147.1768944,49
1658857794.22295,177147.1768984,345
1658857794.22295,177147.1769031,231
1658857794.22295,177147.1769067,30
1658857794.22295,177147.1769101,70
1658857794.22295,177147.1769136,121
1658857794.22295,177147.1769171,79
1658857794.22295,177147.1769208,70
1658857794.23492,177147.1769257,86
1658857794.23492,177147.1769299,77
1658857794.23492,177147.1769347,72
1658857794.23492,177147.1769389,77
1658857794.23492,177147.7636923,70
1658857794.23492,177147.7637054,63
1658857794.23492,177147.7637095,51
1658857794.23492,177147.7637145,32
1658857794.23492,177147.763717,23
1658857794.23492,177147.7637202,14
1658857794.23492,177147.7637226,-14
1658857794.23492,177147.763725,-49
1658857794.23492,177147.7637273,-53
1658857794.23492,177147.7637368,-42
1658857794.23492,177147.7637388,-53
1658857794.23492,177147.7637413,-65
1658857794.23492,177147.7637435,-53
1658857794.23492,177147.7637456,-39
1658857794.23492,177147.7637477,-16
1658857794.23492,177147.7637498,32
1658857794.23492,177147.7637519,77
1658857794.23492,177147.7637541,102
1658857794.23492,177147.7637563,135
1658857794.23492,177147.7637585,156
1658857794.95684,177147.7637606,151
1658857794.95684,177147.7637626,144
1658857794.95684,177147.7637645,147
1658857794.95684,177147.7637665,137
1658857794.95684,177147.7637685,128
1658857794.95684,177147.7637704,133
1658857794.95684,177147.7637724,130
1658857794.95684,177147.7637744,123
1658857794.95684,177147.7637764,123
1658857794.95684,177147.7637783,126
1658857794.95684,177147.7637803,133
1658857794.95684,177147.7637822,140
1658857794.95684,177147.7637841,130
1658857794.95684,177147.7637861,126
1658857794.95684,177147.7637881,133
1658857794.95684,177147.7637902,137
1658857794.95684,177147.7637921,135
1658857794.95684,177147.7637941,121
1658857794.95684,177147.763796,98
1658857794.95684,177147.7637979,79
1658857794.95684,177147.7637999,79
1658857794.95684,177147.7638027,98
1658857794.95684,177147.7638048,114
1658857794.95684,177147.7638069,114
1658857794.95684,177147.763809,123
1658857794.95684,177147.7638111,147
1658857794.95684,177147.7638132,151
1658857794.95684,177147.7638153,142
1658857794.95684,177147.7638174,142
1658857794.95684,177147.7638195,140
1658857794.95684,177147.7638217,165
1658857794.95684,177147.7638258,210
1658857794.95684,177147.763828,144
1658857794.95684,177147.7638311,-70
1658857794.95684,177147.7638364,-226
1658857794.95684,177147.7638441,-39
1658857794.95684,177147.7638481,303
1658857794.95684,177147.7638515,291
1658857794.95684,177147.7638556,63
1658857794.95684,177147.7638592,53
1658857794.95684,177147.7638626,121
1658857794.95684,177147.7638659,84
1658857794.95684,177147.7638704,67
1658857794.95684,177147.7638742,100
1658857794.95684,177147.7638774,95
1658857794.95684,177147.763881,81
1658857794.95684,177147.7638844,74
1658857794.95684,177147.7638876,60
1658857794.95684,177147.7638912,58
1658857794.95684,177147.763896,60
1658857794.96681,177147.7638994,44
1658857794.96681,177147.763903,23
1658857794.96681,177147.7639065,16
1658857794.96681,177148.4941576,9
1658857794.96681,177148.4941706,-9
1658857794.96681,177148.4941738,-28
1658857794.96681,177148.4941763,-37
1658857794.96681,177148.4941787,-32
1658857794.96681,177148.4941809,-25
1658857794.96681,177148.4941831,-30
1658857794.96681,177148.4941853,-28
1658857794.96681,177148.4941876,0
1658857794.96681,177148.4941898,46
1658857794.96681,177148.494192,88
1658857794.96681,177148.4941941,119
1658857794.96681,177148.4941962,151
1658857794.96681,177148.4941984,168
1658857794.96681,177148.4942028,165
1658857794.96681,177148.4942145,163
1658857794.96681,177148.4942218,165
1658857794.96681,177148.4942257,154
1658857794.96681,177148.494228,151
1658857794.96681,177148.4942302,158
1658857794.96681,177148.4942346,149
1658857795.38661,177148.4942462,137
1658857795.38661,177148.4942501,137
1658857795.38661,177148.4942523,133
1658857795.38661,177148.4942543,128
1658857795.38661,177148.4942562,130
1658857795.38661,177148.4942586,123
1658857795.38661,177148.4942675,119
1658857795.38661,177148.4942767,116
1658857795.38661,177148.4942819,105
1658857795.38661,177148.494284,88
1658857795.38661,177148.4942861,74
1658857795.38661,177148.4942882,58
1658857795.38661,177148.4942902,60
1658857795.38661,177148.494293,86
1658857795.38661,177148.4943034,93
1658857795.38661,177148.4943113,86
1658857795.38661,177148.4943138,109
1658857795.38661,177148.494316,140
1658857795.38661,177148.4943183,135
1658857795.38661,177148.4943204,121
1658857795.38661,177148.4943284,116
1658857795.38661,177148.4943417,119
1658857795.38661,177148.4943519,158
1658857795.38661,177148.4943555,186
1658857795.38661,177148.4943594,70
1658857795.38661,177148.4943616,-168
1658857795.38661,177148.4943637,-233
1658857795.38661,177148.4943666,58
1658857795.38661,177148.4943687,340
1658857795.38661,177148.4943708,231
1658857795.38661,177148.494373,39
1658857795.38661,177148.4943751,67
1658857795.38661,177148.4943772,98
1658857795.38661,177148.4943793,53
1658857795.38661,177148.4943813,60
1658857795.38661,177148.4943835,91
1658857795.38661,177148.4943856,79
1658857795.38661,177148.4943877,58
1658857795.38661,177148.4943898,58
1658857795.38661,177148.4943919,53
1658857795.38661,177148.494394,44
1658857795.38661,177148.4943961,32
1658857795.38661,177148.4943988,16
1658857795.38661,177148.4944009,11
1658857795.38661,177148.4944031,7
1658857795.38661,177148.4944052,-14
1658857795.38661,177148.4944074,-37
1658857795.38661,177148.4944095,-51
1658857795.38661,177148.4944117,-60
1658857795.38661,177148.4944138,-65
1658857795.39758,177148.494416,-60
1658857795.39758,177148.4944181,-42
1658857795.39758,177148.9320434,-7
1658857795.39758,177148.932057,32
1658857795.39758,177148.9320598,63
1658857795.39758,177148.9320621,88
1658857795.39758,177148.9320643,123
1658857795.39758,177148.9320664,158
1658857795.39758,177148.9320685,179
1658857795.39758,177148.9320705,182
1658857795.39758,177148.9320726,165
1658857795.39758,177148.9320748,154
1658857795.39758,177148.9320768,156
1658857795.39758,177148.9320788,147
1658857795.39758,177148.9320809,144
1658857795.39758,177148.9320829,151
1658857795.39758,177148.9320851,144
1658857795.39758,177148.9320871,130
1658857795.39758,177148.9320892,137
1658857795.39758,177148.9320958,154
1658857795.39758,177148.9321072,158
1658857795.39758,177148.9321125,149
1658857795.39758,177148.9321148,137
1658857795.39758,177148.932119,126
1658857795.97791,177148.9321212,112
1658857795.97791,177148.9321232,102
1658857795.97791,177148.9321252,93
1658857795.97791,177148.9321271,81
1658857795.97791,177148.932129,81
1658857795.97791,177148.9321309,93
1658857795.97791,177148.9321329,105
1658857795.97791,177148.9321348,123
1658857795.97791,177148.9321367,142
1658857795.97791,177148.9321387,137
1658857795.97791,177148.9321407,116
1658857795.97791,177148.9321426,105
1658857795.97791,177148.9321446,116
1658857795.97791,177148.9321498,170
1658857795.97791,177148.9321622,198
1658857795.97791,177148.9321725,79
1658857795.97791,177148.9321764,-163
1658857795.97791,177148.9321785,-287
1658857795.97791,177148.9321807,-35
1658857795.97791,177148.93219,319
1658857795.97791,177148.9322038,275
1658857795.97791,177148.932215,60
1658857795.97791,177148.9322312,56
1658857795.97791,177148.9322456,102
1658857795.97791,177148.9322599,86
1658857795.97791,177148.9322694,91
1658857795.97791,177148.9322741,88
1658857795.97791,177148.93228,67
1658857795.97791,177148.9322844,70
1658857795.97791,177148.9322886,67
1658857795.97791,177148.9322945,49
1658857795.97791,177148.9323031,42
1658857795.97791,177148.9323121,35
1658857795.97791,177148.932325,23
1658857795.97791,177148.9323379,9
1658857795.97791,177148.9323487,-4
1658857795.97791,177148.9323613,-16
1658857795.97791,177148.9323782,-23
1658857795.97791,177148.9323898,-23
1658857795.97791,177148.9324032,-35
1658857795.97791,177148.9324153,-53
1658857795.97791,177148.9324268,-56
1658857795.97791,177148.932441,-37
1658857795.97791,177148.932456,-11
1658857795.97791,177148.9324731,25
1658857795.97791,177148.9324883,70
1658857795.97791,177148.9324945,119
1658857795.97791,177148.9324992,156
1658857795.97791,177148.9325095,172
1658857795.97791,177148.932516,184
1658857795.98888,177148.9325222,200
1658857795.98888,177149.516387,193
1658857795.98888,177149.5164105,175
1658857795.98888,177149.5164188,168
1658857795.98888,177149.5164227,172
1658857795.98888,177149.5164324,172
1658857795.98888,177149.5164388,172
1658857795.98888,177149.5164412,179
1658857795.98888,177149.5164434,182
1658857795.98888,177149.5164455,179
1658857795.98888,177149.5164486,179
1658857795.98888,177149.516457,170
1658857795.98888,177149.5164644,154
1658857795.98888,177149.5164711,154
1658857795.98888,177149.5164813,158
1658857795.98888,177149.5164869,140
1658857795.98888,177149.5164892,105
1658857795.98888,177149.5164913,91
1658857795.98888,177149.5164944,105
1658857795.98888,177149.5165055,126
1658857795.98888,177149.5165127,121
1658857795.98888,177149.5165156,116
1658857795.98888,177149.5165219,142
1658857795.98888,177149.5165345,158
1658857796.46673,177149.516546,144
1658857796.46673,177149.5165567,140
1658857796.46673,177149.5165664,149
1658857796.46673,177149.5165716,172
1658857796.46673,177149.5165759,231
1658857796.46673,177149.5165824,217
1658857796.46673,177149.5165875,4
1658857796.46673,177149.5165994,-275
1658857796.46673,177149.5166124,-275
1658857796.46673,177149.5166189,95
1658857796.46673,177149.5166286,322
1658857796.46673,177149.5166357,126
1658857796.46673,177149.5166402,-16
1658857796.46673,177149.5166456,70
1658857796.46673,177149.5166506,93
1658857796.46673,177149.5166564,46
1658857796.46673,177149.5166603,70
1658857796.46673,177149.5166655,84
1658857796.46673,177149.5166691,53
1658857796.46673,177149.5166728,42
1658857796.46673,177149.5166784,53
1658857796.46673,177149.5166857,49
1658857796.46673,177149.5166968,37
1658857796.46673,177149.5167069,32
1658857796.46673,177149.5167132,23
1658857796.46673,177149.5167177,4
1658857796.46673,177149.5167233,-2
1658857796.46673,177149.5167274,-9
1658857796.46673,177149.5167333,-32
1658857796.46673,177149.5167371,-51
1658857796.46673,177149.5167421,-49
1658857796.46673,177149.5167469,-37
1658857796.46673,177149.5167546,-37
1658857796.46673,177149.5167615,-32
1658857796.46673,177149.5167713,0
1658857796.46673,177149.5167806,44
1658857796.46673,177149.5167953,81
1658857796.46673,177149.5168083,123
1658857796.46673,177149.5168155,156
1658857796.46673,177149.516822,170
1658857796.46673,177149.5168312,163
1658857796.46673,177149.5168401,168
1658857796.46673,177149.5168477,191
1658857796.46673,177149.516856,196
1658857796.46673,177149.5168622,170
1658857796.46673,177149.5168703,154
1658857796.46673,177149.5168763,163
1658857796.46673,177149.5168845,168
1658857796.46673,177149.5168904,156
1658857796.46673,177149.5168983,161
1658857796.4787,177150.0043117,168
1658857796.4787,177150.0043343,158
1658857796.4787,177150.004343,156
1658857796.4787,177150.0043483,161
1658857796.4787,177150.0043782,154
1658857796.4787,177150.0043865,133
1658857796.4787,177150.0043918,112
1658857796.4787,177150.0043973,95
1658857796.4787,177150.0044027,98
1658857796.4787,177150.0044077,116
1658857796.4787,177150.0044131,128
1658857796.4787,177150.0044322,135
1658857796.4787,177150.0044468,154
1658857796.4787,177150.0044544,161
1658857796.4787,177150.0044624,151
1658857796.4787,177150.0044674,151
1658857796.4787,177150.004473,154
1658857796.4787,177150.0044791,170
1658857796.4787,177150.0044842,228
1658857796.4787,177150.0044901,240
1658857796.4787,177150.0044932,77
1658857796.4787,177150.0044963,-193
1658857796.4787,177150.0044993,-256
1658857796.4787,177150.0045025,81
1658857796.95528,177150.0045065,348
1658857796.95528,177150.0045132,165
1658857796.95528,177150.0045199,-7
1658857796.95528,177150.0045262,72
1658857796.95528,177150.0045298,100
1658857796.95528,177150.004533,53
1658857796.95528,177150.0045361,72
1658857796.95528,177150.0045394,79
1658857796.95528,177150.0045428,42
1658857796.95528,177150.0045462,35
1658857796.95528,177150.00455,49
1658857796.95528,177150.0045558,42
1658857796.95528,177150.0045603,32
1658857796.95528,177150.0045637,25
1658857796.95528,177150.0045673,0
1658857796.95528,177150.0045705,-14
1658857796.95528,177150.0045742,-9
1658857796.95528,177150.004578,-21
1658857796.95528,177150.0045818,-44
1658857796.95528,177150.0045854,-51
1658857796.95528,177150.0045889,-53
1658857796.95528,177150.0045925,-56
1658857796.95528,177150.0045956,-46
1658857796.95528,177150.0045991,-37
1658857796.95528,177150.0046027,-14
1658857796.95528,177150.0046061,30
1658857796.95528,177150.0046096,81
1658857796.95528,177150.0046154,116
1658857796.95528,177150.0046188,140
1658857796.95528,177150.0046222,161
1658857796.95528,177150.0046254,168
1658857796.95528,177150.0046299,170
1658857796.95528,177150.0046361,175
1658857796.95528,177150.0046427,172
1658857796.95528,177150.0046459,168
1658857796.95528,177150.0046512,170
1658857796.95528,177150.004655,158
1658857796.95528,177150.00466,144
1658857796.95528,177150.0046648,151
1658857796.95528,177150.0046698,158
1658857796.95528,177150.0046734,147
1658857796.95528,177150.0046781,144
1658857796.95528,177150.0046822,154
1658857796.95528,177150.0046857,147
1658857796.95528,177150.004689,121
1658857796.95528,177150.0046919,98
1658857796.95528,177150.0046969,81
1658857796.95528,177150.0047002,88
1658857796.95528,177150.0047051,114
1658857796.95528,177150.4921377,121
1658857796.96605,177150.4921507,114
1658857796.96605,177150.4921547,128
1658857796.96605,177150.4921584,154
1658857796.96605,177150.4921606,163
1658857796.96605,177150.4921648,151
1658857796.96605,177150.4921669,140
1658857796.96605,177150.4921704,149
1658857796.96605,177150.4921795,203
1658857796.96605,177150.4921866,240
1658857796.96605,177150.4921902,128
1658857796.96605,177150.4921941,-135
1658857796.96605,177150.492198,-277
1658857796.96605,177150.4922481,-21
1658857796.96605,177150.4922578,322
1658857796.96605,177150.4922639,240
1658857796.96605,177150.4922698,11
1658857796.96605,177150.492274,42
1658857796.96605,177150.4922798,105
1658857796.96605,177150.4922828,56
1658857796.96605,177150.4922865,46
1658857796.96605,177150.4922912,70
1658857796.96605,177150.4922987,46
1658857796.96605,177150.4923036,18
1658857796.96605,177150.4923104,21
1658857797.5402,177150.492315,25
1658857797.5402,177150.4923194,21
1658857797.5402,177150.4923237,16
1658857797.5402,177150.492328,2
1658857797.5402,177150.4923332,-21
1658857797.5402,177150.4923374,-37
1658857797.5402,177150.492341,-39
1658857797.5402,177150.4923449,-51
1658857797.5402,177150.4923489,-67
1658857797.5402,177150.4923544,-74
1658857797.5402,177150.4923582,-84
1658857797.5402,177150.4923653,-84
1658857797.5402,177150.4923705,-65
1658857797.5402,177150.4923764,-32
1658857797.5402,177150.4923836,2
1658857797.5402,177150.4923915,44
1658857797.5402,177150.4923963,88
1658857797.5402,177150.4924,126
1658857797.5402,177150.4924032,161
1658857797.5402,177150.4924111,182
1658857797.5402,177150.4924175,182
1658857797.5402,177150.4924244,179
1658857797.5402,177150.4924312,189
1658857797.5402,177150.4924433,177
1658857797.5402,177150.4924488,165
1658857797.5402,177150.4924524,182
1658857797.5402,177150.4924559,179
1658857797.5402,177150.4924631,149
1658857797.5402,177150.4924696,137
1658857797.5402,177150.4924747,156
1658857797.5402,177150.4924784,163
1658857797.5402,177150.4924834,156
1658857797.5402,177150.4924904,147
1658857797.5402,177150.4924974,130
1658857797.5402,177150.4925023,100
1658857797.5402,177150.4925091,79
1658857797.5402,177150.492513,91
1658857797.5402,177150.4925161,121
1658857797.5402,177150.4925192,137
1658857797.5402,177150.4925245,144
1658857797.5402,177150.4925308,161
1658857797.5402,177150.4925342,175
1658857797.5402,177150.4925372,161
1658857797.5402,177150.4925401,149
1658857797.5402,177150.492543,158
1658857797.5402,177150.492546,196
1658857797.5402,177150.4925514,245
1658857797.5402,177150.4925575,189
1658857797.5402,177151.078987,-42
1658857797.5402,177151.0790007,-277
1658857797.55117,177151.0790044,-172
1658857797.55117,177151.0790098,249
1658857797.55117,177151.0790134,387
1658857797.55117,177151.0790178,140
1658857797.55117,177151.0790226,23
1658857797.55117,177151.079027,93
1658857797.55117,177151.0790298,84
1658857797.55117,177151.0790328,56
1658857797.55117,177151.0790356,81
1658857797.55117,177151.0790383,79
1658857797.55117,177151.0790409,56
1658857797.55117,177151.0790437,39
1658857797.55117,177151.0790465,28
1658857797.55117,177151.0790494,23
1658857797.55117,177151.0790534,21
1658857797.55117,177151.0790562,0
1658857797.55117,177151.0790594,-18
1658857797.55117,177151.0790621,-11
1658857797.55117,177151.0790649,-14
1658857797.55117,177151.0790697,-58
1658857797.55117,177151.0790724,-91
1658857797.55117,177151.0790754,-86
1658857797.55117,177151.0790782,-72
1658857797.55117,177151.0790825,-70
1658857798.07671,177151.0790853,-67
1658857798.07671,177151.0790923,-53
1658857798.07671,177151.0791006,-16
1658857798.07671,177151.07911,35
1658857798.07671,177151.0791154,88
1658857798.07671,177151.07912,142
1658857798.07671,177151.0791297,165
1658857798.07671,177151.0791369,165
1658857798.07671,177151.0791411,170
1658857798.07671,177151.0791445,177
1658857798.07671,177151.0791476,182
1658857798.07671,177151.0791515,179
1658857798.07671,177151.0791553,175
1658857798.07671,177151.0791588,179
1658857798.07671,177151.0791637,177
1658857798.07671,177151.0791675,168
1658857798.07671,177151.0791722,168
1658857798.07671,177151.0791777,175
1658857798.07671,177151.0791822,172
1658857798.07671,177151.0791858,161
1658857798.07671,177151.0791913,135
1658857798.07671,177151.0791967,109
1658857798.07671,177151.0792075,95
1658857798.07671,177151.0792155,86
1658857798.07671,177151.0792327,95
1658857798.07671,177151.0792462,128
1658857798.07671,177151.0792539,137
1658857798.07671,177151.0792612,135
1658857798.07671,177151.0792651,170
1658857798.07671,177151.0792712,191
1658857798.07671,177151.0792745,161
1658857798.07671,177151.0792804,154
1658857798.07671,177151.0792836,182
1658857798.07671,177151.0792903,228
1658857798.07671,177151.079299,282
1658857798.07671,177151.079308,193
1658857798.07671,177151.0793124,-112
1658857798.07671,177151.0793158,-343
1658857798.07671,177151.0793188,-109
1658857798.07671,177151.0793218,340
1658857798.07671,177151.0793249,340
1658857798.07671,177151.0793279,70
1658857798.07671,177151.0793309,65
1658857798.07671,177151.0793339,137
1658857798.07671,177151.0793368,79
1658857798.07671,177151.0793399,65
1658857798.07671,177151.0793429,100
1658857798.07671,177151.6128508,79
1658857798.07671,177151.6128767,70
1658857798.07671,177151.6128901,93
1658857798.08868,177151.612897,81
1658857798.08868,177151.6129049,51
1658857798.08868,177151.6129113,42
1658857798.08868,177151.6129186,35
1658857798.08868,177151.6129245,16
1658857798.08868,177151.6129335,-9
1658857798.08868,177151.6129396,-35
1658857798.08868,177151.6129727,-60
1658857798.08868,177151.6129918,-70
1658857798.08868,177151.613006,-60
1658857798.08868,177151.6130194,-60
1658857798.08868,177151.6130282,-70
1658857798.08868,177151.6130309,-65
1658857798.08868,177151.6130331,-44
1658857798.08868,177151.6130354,2
1658857798.08868,177151.6130377,65
1658857798.08868,177151.6130398,105
1658857798.08868,177151.6130419,128
1658857798.08868,177151.6130445,151
1658857798.08868,177151.6130467,154
1658857798.08868,177151.6130488,147
1658857798.08868,177151.6130509,156
1658857798.08868,177151.613053,163
1658857798.08868,177151.6130551,158
1658857798.65601,177151.6130572,147
1658857798.65601,177151.6130592,137

1658857798.65601,177151.6130611,133
1658857798.65601,177151.613063,137
1658857798.65601,177151.6130649,151
1658857798.65601,177151.6130669,154
1658857798.65601,177151.6130688,137
1658857798.65601,177151.6130708,119
1658857798.65601,177151.6130727,100
1658857798.65601,177151.6130747,77
1658857798.65601,177151.6130767,56
1658857798.65601,177151.6130786,53
1658857798.65601,177151.6130808,77
1658857798.65601,177151.6130827,95
1658857798.65601,177151.6130846,98
1658857798.65601,177151.6130866,119
1658857798.65601,177151.6130921,142
1658857798.65601,177151.6131033,135
1658857798.65601,177151.6131093,126
1658857798.65601,177151.6131117,133
1658857798.65601,177151.6131139,161
1658857798.65601,177151.613116,226
1658857798.65601,177151.6131183,210
1658857798.65601,177151.6131283,-16
1658857798.65601,177151.6131416,-280
1658857798.65601,177151.6131549,-196
1658857798.65601,177151.6131662,219
1658857798.65601,177151.6131804,359
1658857798.65601,177151.6131931,109
1658857798.65601,177151.613206,2
1658857798.65601,177151.6132191,86
1658857798.65601,177151.6132321,74
1658857798.65601,177151.6132453,39
1658857798.65601,177151.6132587,72
1658857798.65601,177151.6132716,74
1658857798.65601,177151.6132847,58
1658857798.65601,177151.6132976,58
1658857798.65601,177151.6133108,51
1658857798.65601,177151.613324,37
1658857798.65601,177151.6133375,28
1658857798.65601,177151.6133505,21
1658857798.65601,177151.6133633,11
1658857798.65601,177151.6133762,-7
1658857798.65601,177151.6133903,-28
1658857798.65601,177151.6134032,-32
1658857798.65601,177151.6134164,-42
1658857798.65601,177152.1979757,-65
1658857798.65601,177152.1979918,-65
1658857798.65601,177152.1979963,-51
1658857798.65601,177152.1980003,-49
1658857798.66598,177152.198004,-37
1658857798.66598,177152.1980078,-2
1658857798.66598,177152.1980114,37
1658857798.66598,177152.1980149,77
1658857798.66598,177152.1980184,114
1658857798.66598,177152.1980219,133
1658857798.66598,177152.1980254,149
1658857798.66598,177152.1980289,163
1658857798.66598,177152.1980324,161
1658857798.66598,177152.198036,142
1658857798.66598,177152.1980413,133
1658857798.66598,177152.1980447,133
1658857798.66598,177152.1980486,128
1658857798.66598,177152.1980522,126
1658857798.66598,177152.1980557,123
1658857798.66598,177152.1980598,107
1658857798.66598,177152.1980649,107
1658857798.66598,177152.1980702,126
1658857798.66598,177152.1980762,126
1658857798.66598,177152.1980817,105
1658857798.66598,177152.1980876,74
1658857798.66598,177152.1980944,44
1658857798.66598,177152.1980988,60
1658857798.66598,177152.1981024,109
1658857799.24318,177152.1981059,119
1658857799.24318,177152.1981093,105
1658857799.24318,177152.1981127,119
1658857799.24318,177152.198116,126
1658857799.24318,177152.1981194,121
1658857799.24318,177152.1981229,126
1658857799.24318,177152.1981263,137
1658857799.24318,177152.1981297,172
1658857799.24318,177152.1981333,221
1658857799.24318,177152.1981372,179
1658857799.24318,177152.1981408,-14
1658857799.24318,177152.198144,-200
1658857799.24318,177152.1981477,-74
1658857799.24318,177152.1981512,277
1658857799.24318,177152.1981554,308
1658857799.24318,177152.1981597,58
1658857799.24318,177152.1981889,23
1658857799.24318,177152.198202,112
1658857799.24318,177152.1982114,84
1658857799.24318,177152.1982165,60
1658857799.24318,177152.1982223,86
1658857799.24318,177152.1982272,74
1658857799.24318,177152.1982331,53
1658857799.24318,177152.1982371,51
1658857799.24318,177152.1982426,51
1658857799.24318,177152.1982475,42
1658857799.24318,177152.1982529,28
1658857799.24318,177152.1982568,23
1658857799.24318,177152.1982616,18
1658857799.24318,177152.1982671,-4
1658857799.24318,177152.1982712,-25
1658857799.24318,177152.1982764,-32
1658857799.24318,177152.1982805,-37
1658857799.24318,177152.1982841,-46
1658857799.24318,177152.1982877,-51
1658857799.24318,177152.1982916,-51
1658857799.24318,177152.198297,-49
1658857799.24318,177152.198301,-25
1658857799.24318,177152.1983061,18
1658857799.24318,177152.1983098,63
1658857799.24318,177152.1983127,100
1658857799.24318,177152.1983154,133
1658857799.24318,177152.1983191,154
1658857799.24318,177152.1983219,163
1658857799.24318,177152.1983247,175
1658857799.24318,177152.7827228,186
1658857799.24318,177152.7827425,189
1658857799.24318,177152.7827573,184
1658857799.24318,177152.7827717,179
1658857799.24318,177152.7827834,179
1658857799.25515,177152.7827922,179
1658857799.25515,177152.7827993,172
1658857799.25515,177152.7828071,165
1658857799.25515,177152.7828129,163
1658857799.25515,177152.7828206,147
1658857799.25515,177152.7828271,119
1658857799.25515,177152.7828349,100
1658857799.25515,177152.7828411,72
1658857799.25515,177152.7828486,53
1658857799.25515,177152.7828526,79
1658857799.25515,177152.7828568,107
1658857799.25515,177152.7828611,95
1658857799.25515,177152.7828654,84
1658857799.25515,177152.7828697,114
1658857799.25515,177152.782874,149
1658857799.25515,177152.7828789,151
1658857799.25515,177152.782884,133
1658857799.25515,177152.7828883,126
1658857799.25515,177152.7828924,161
1658857799.25515,177152.7828965,214
1658857799.25515,177152.782901,156
1658857799.25515,177152.7829057,-60
1658857799.25515,177152.7829103,-247
1658857799.25515,177152.7829146,-98
1658857799.83377,177152.7829199,266
1658857799.83377,177152.7829254,296
1658857799.83377,177152.7829306,56
1658857799.83377,177152.7829369,25
1658857799.83377,177152.7829416,114
1658857799.83377,177152.7829469,81
1658857799.83377,177152.7829509,49
1658857799.83377,177152.782956,86
1658857799.83377,177152.7829623,91
1658857799.83377,177152.7829686,58
1658857799.83377,177152.7829739,51
1658857799.83377,177152.7829813,58
1658857799.83377,177152.7829853,44
1658857799.83377,177152.7829894,21
1658857799.83377,177152.7829934,9
1658857799.83377,177152.7829976,11
1658857799.83377,177152.7830017,2
1658857799.83377,177152.7830059,-9
1658857799.83377,177152.7830099,-23
1658857799.83377,177152.7830139,-44
1658857799.83377,177152.7830179,-63
1658857799.83377,177152.7830221,-63
1658857799.83377,177152.7830263,-56
1658857799.83377,177152.7830304,-39
1658857799.83377,177152.7830345,-25
1658857799.83377,177152.7830388,-7
1658857799.83377,177152.7830431,42
1658857799.83377,177152.7830473,105
1658857799.83377,177152.7830516,149
1658857799.83377,177152.7830584,175
1658857799.83377,177152.7830629,196
1658857799.83377,177152.7830685,198
1658857799.83377,177152.7830724,193
1658857799.83377,177152.7830764,200
1658857799.83377,177152.7830938,198
1658857799.83377,177152.7831033,189
1658857799.83377,177152.7831096,184
1658857799.83377,177152.7831132,189
1658857799.83377,177152.7831429,198
1658857799.83377,177152.7831552,198
1658857799.83377,177152.783163,182
1658857799.83377,177152.7831675,177
1658857799.83377,177152.7831727,170
1658857799.83377,177152.7831768,147
1658857799.83377,177153.3678003,119
1658857799.83377,177153.3678203,100
1658857799.83377,177153.3678356,100
1658857799.83377,177153.3678457,114
1658857799.83377,177153.3678562,137
1658857799.83377,177153.3678609,165
1658857799.84375,177153.3678653,186
1658857799.84375,177153.3678696,179
1658857799.84375,177153.3678766,161
1658857799.84375,177153.3678842,168
1658857799.84375,177153.3678906,186
1658857799.84375,177153.3678973,207
1658857799.84375,177153.3679075,242
1658857799.84375,177153.3679198,193
1658857799.84375,177153.3679328,-25
1658857799.84375,177153.3679383,-289
1658857799.84375,177153.3679405,-231
1658857799.84375,177153.3679427,193
1658857799.84375,177153.3679451,359
1658857799.84375,177153.3679473,102
1658857799.84375,177153.3679494,-21
1658857799.84375,177153.3679515,67
1658857799.84375,177153.3679536,77
1658857799.84375,177153.3679558,53
1658857799.84375,177153.3679585,74
1658857799.84375,177153.3679606,56
1658857799.84375,177153.3679628,30
1658857799.84375,177153.3679649,46
1658857799.84375,177153.3679671,63
1658857799.84375,177153.3679693,51
1658857800.3617,177153.3679714,21
1658857800.3617,177153.3679735,-2
1658857800.3617,177153.3679754,-7
1658857800.3617,177153.3679775,-18
1658857800.3617,177153.3679794,-44
1658857800.3617,177153.3679815,-56
1658857800.3617,177153.3679876,-60
1658857800.3617,177153.3679946,-72
1658857800.3617,177153.3679988,-79
1658857800.3617,177153.3680027,-72
1658857800.3617,177153.3680073,-60
1658857800.3617,177153.3680124,-39
1658857800.3617,177153.3680221,-2
1658857800.3617,177153.3680291,49
1658857800.3617,177153.3680383,102
1658857800.3617,177153.3680454,140
1658857800.3617,177153.3680529,165
1658857800.3617,177153.3680635,193
1658857800.3617,177153.3680737,212
1658857800.3617,177153.3680822,214
1658857800.3617,177153.3680898,212
1658857800.3617,177153.3680963,198
1658857800.3617,177153.3681071,182
1658857800.3617,177153.3681155,186
1658857800.3617,177153.368122,191
1658857800.3617,177153.36813,179
1658857800.3617,177153.3681385,172
1658857800.3617,177153.3681459,179
1658857800.3617,177153.368155,179
1658857800.3617,177153.368164,175
1658857800.3617,177153.3681688,170
1658857800.3617,177153.3681824,147
1658857800.3617,177153.3681908,112
1658857800.3617,177153.3681994,91
1658857800.3617,177153.3682094,98
1658857800.3617,177153.3682201,126
1658857800.3617,177153.3682275,147
1658857800.3617,177153.3682391,161
1658857800.3617,177153.3682492,172
1658857800.3617,177153.3682545,186
1658857800.3617,177153.3682686,189
1658857800.3617,177153.3682792,182
1658857800.3617,177153.3682846,186
1658857800.3617,177153.9043563,214
1658857800.3617,177153.9043748,270
1658857800.3617,177153.9043834,256
1658857800.3617,177153.9043915,51
1658857800.3617,177153.9043971,-224
1658857800.3617,177153.9044033,-147
1658857800.3617,177153.9044379,340
1658857800.38065,177153.9044487,544
1658857800.38065,177153.9044584,261
1658857800.38065,177153.904466,86
1658857800.38065,177153.9044745,128
1658857800.38065,177153.9044881,114
1658857800.38065,177153.9044991,88
1658857800.38065,177153.904509,109
1658857800.38065,177153.9045153,107
1658857800.38065,177153.9045219,88
1658857800.38065,177153.9045307,79
1658857800.38065,177153.9045394,74
1658857800.38065,177153.9045479,65
1658857800.38065,177153.9045572,53
1658857800.38065,177153.9045658,37
1658857800.38065,177153.9045764,2
1658857800.38065,177153.9046299,-32
1658857800.38065,177153.9046357,-49
1658857800.38065,177153.9046391,-63
1658857800.38065,177153.9047425,-81
1658857800.38065,177153.9047496,-88
1658857800.38065,177153.9047534,-88
1658857800.38065,177153.9047571,-86
1658857800.38065,177153.9047607,-74
1658857800.38065,177153.9047642,-49
1658857800.89437,177153.9047678,-9
1658857800.89437,177153.9047719,35
1658857800.89437,177153.9047752,77
1658857800.89437,177153.9047785,116
1658857800.89437,177153.9047818,149
1658857800.89437,177153.9047854,170
1658857800.89437,177153.904789,179
1658857800.89437,177153.9047934,186
1658857800.89437,177153.9047971,198
1658857800.89437,177153.9048016,198
1658857800.89437,177153.9048056,186
1658857800.89437,177153.9048096,177
1658857800.89437,177153.9048139,175
1658857800.89437,177153.9048179,177
1658857800.89437,177153.9048225,191
1658857800.89437,177153.9048305,196
1658857800.89437,177153.9048411,182
1658857800.89437,177153.904849,165
1658857800.89437,177153.9048552,158
1658857800.89437,177153.9048616,154
1658857800.89437,177153.9048664,137
1658857800.89437,177153.9048708,114
1658857800.89437,177153.9048765,100
1658857800.89437,177153.9048821,107
1658857800.89437,177153.9048866,128
1658857800.89437,177153.9048914,144
1658857800.89437,177153.9048973,154
1658857800.89437,177153.9049034,168
1658857800.89437,177153.9049104,172
1658857800.89437,177153.9049175,165
1658857800.89437,177153.9049244,163
1658857800.89437,177153.904931,191
1658857800.89437,177153.9049374,249
1658857800.89437,177153.904944,235
1658857800.89437,177153.9049488,74
1658857800.89437,177153.9049556,-135
1658857800.89437,177153.9049661,-77
1658857800.89437,177153.9049728,301
1658857800.89437,177153.9049779,441
1658857800.89437,177153.9049827,191
1658857800.89437,177153.9049887,67
1658857800.89437,177153.9049924,123
1658857800.89437,177154.4405661,105
1658857800.89437,177154.4405825,65
1658857800.89437,177154.4405901,77
1658857800.89437,177154.4405958,79
1658857800.89437,177154.4406016,67
1658857800.89437,177154.4406067,65
1658857800.89437,177154.4406119,53
1658857800.89437,177154.4406163,44
1658857800.90434,177154.4406215,51
1658857800.90434,177154.440625,44
1658857800.90434,177154.4406286,23
1658857800.90434,177154.4406336,2
1658857800.90434,177154.4406373,-28
1658857800.90434,177154.4406409,-60
1658857800.90434,177154.4406459,-72
1658857800.90434,177154.4406494,-70
1658857800.90434,177154.4406542,-70
1658857800.90434,177154.4406577,-74
1658857800.90434,177154.4406625,-81
1658857800.90434,177154.440668,-72
1658857800.90434,177154.4406731,-35
1658857800.90434,177154.4406766,14
1658857800.90434,177154.4406801,63
1658857800.90434,177154.4406836,98
1658857800.90434,177154.4406872,114
1658857800.90434,177154.440692,133
1658857800.90434,177154.4406953,151
1658857800.90434,177154.4407006,161
1658857800.90434,177154.440704,161
1658857800.90434,177154.4407074,156
1658857800.90434,177154.4407108,154
1658857800.90434,177154.4407144,151
1658857801.44132,177154.4407194,154
1658857801.44132,177154.4407227,161
1658857801.44132,177154.4407261,156
1658857801.44132,177154.4407295,147
1658857801.44132,177154.440733,151
1658857801.44132,177154.4407364,154
1658857801.44132,177154.4407398,154
1658857801.44132,177154.4407432,158
1658857801.44132,177154.4407466,149
1658857801.44132,177154.44075,142
1658857801.44132,177154.4407534,137
1658857801.44132,177154.4407572,119
1658857801.44132,177154.4407606,93
1658857801.44132,177154.440764,91
1658857801.44132,177154.4407674,100
1658857801.44132,177154.4407711,107
1658857801.44132,177154.4407763,121
1658857801.44132,177154.4407798,144
1658857801.44132,177154.4407834,154
1658857801.44132,177154.4407868,151
1658857801.44132,177154.4407916,144
1658857801.44132,177154.4407957,142
1658857801.44132,177154.4408004,147
1658857801.44132,177154.440804,184
1658857801.44132,177154.4408088,210
1658857801.44132,177154.4408123,109
1658857801.44132,177154.4408173,-119
1658857801.44132,177154.4408208,-231
1658857801.44132,177154.4408243,28
1658857801.44132,177154.4408277,359
1658857801.44132,177154.4408312,282
1658857801.44132,177154.440836,65
1658857801.44132,177154.4408394,60
1658857801.44132,177154.4408441,98
1658857801.44132,177154.4408477,67
1658857801.44132,177154.4408512,72
1658857801.44132,177154.4408548,84
1658857801.44132,177154.4408584,56
1658857801.44132,177154.4408633,44
1658857801.44132,177154.4408676,56
1658857801.44132,177154.4408723,51
1658857801.44132,177154.9771858,35
1658857801.44132,177154.9772017,32
1658857801.44132,177154.9772079,32
1658857801.44132,177154.9772107,14
1658857801.44132,177154.977214,-14
1658857801.44132,177154.9772252,-32
1658857801.44132,177154.9772347,-49
1658857801.44132,177154.9772409,-60
1658857801.44132,177154.9772473,-53
1658857801.45229,177154.977251,-65
1658857801.45229,177154.9772541,-93
1658857801.45229,177154.9772577,-84
1658857801.45229,177154.9772622,-44
1658857801.45229,177154.9772651,-7
1658857801.45229,177154.9772682,28
1658857801.45229,177154.9772713,63
1658857801.45229,177154.9772748,84
1658857801.45229,177154.9772782,109
1658857801.45229,177154.9772821,147
1658857801.45229,177154.9773024,165
1658857801.45229,177154.977313,156
1658857801.45229,177154.9773167,154
1658857801.45229,177154.9773197,161
1658857801.45229,177154.9773225,158
1658857801.45229,177154.9773254,158
1658857801.45229,177154.9773284,158
1658857801.45229,177154.9773312,168
1658857801.45229,177154.9773341,179
1658857801.45229,177154.9773372,158
1658857801.45229,177154.97734,142
1658857801.45229,177154.9773432,158
1658857801.45229,177154.9773463,156
1658857801.45229,177154.9773492,144
1658857802.02047,177154.9773523,170
1658857802.02047,177154.9773553,189
1658857802.02047,177154.9773583,177
1658857802.02047,177154.9773612,163
1658857802.02047,177154.977364,156
1658857802.02047,177154.9774282,142
1658857802.02047,177154.9774317,126
1658857802.02047,177154.9774348,123
1658857802.02047,177154.9774377,135
1658857802.02047,177154.977441,144
1658857802.02047,177154.9774443,163
1658857802.02047,177154.9774478,177
1658857802.02047,177154.977475,161
1658857802.02047,177154.977483,142
1658857802.02047,177154.9774872,147
1658857802.02047,177154.9774909,165
1658857802.02047,177154.9774948,191
1658857802.02047,177154.9774986,165
1658857802.02047,177154.9775022,0
1658857802.02047,177154.9775057,-252
1658857802.02047,177154.97751,-210
1658857802.02047,177154.9775139,259
1658857802.02047,177154.977518,499
1658857802.02047,177154.9775216,259
1658857802.02047,177154.9775258,86
1658857802.02047,177154.9775293,126
1658857802.02047,177154.9775336,130
1658857802.02047,177154.9775373,112
1658857802.02047,177154.9775412,114
1658857802.02047,177154.9775448,91
1658857802.02047,177154.9775487,72
1658857802.02047,177154.9775525,86
1658857802.02047,177154.9775562,86
1658857802.02047,177154.9775607,70
1658857802.02047,177154.9775642,53
1658857802.02047,177154.9775723,39
1658857802.02047,177154.977576,39
1658857802.02047,177154.9775799,21
1658857802.02047,177154.9775844,-16
1658857802.02047,177154.9775912,-30
1658857802.02047,177155.5624296,-44
1658857802.02047,177155.5624518,-65
1658857802.02047,177155.5624625,-49
1658857802.02047,177155.5624704,-32
1658857802.02047,177155.5624774,-35
1658857802.02047,177155.562484,-25
1658857802.02047,177155.5624875,-14
1658857802.02047,177155.5624996,4
1658857802.02047,177155.56251,60
1658857802.02047,177155.5625182,123
1658857802.03045,177155.5625277,161
1658857802.03045,177155.5625447,182
1658857802.03045,177155.5625533,182
1658857802.03045,177155.5625644,168
1658857802.03045,177155.562572,175
1658857802.03045,177155.5625799,182
1658857802.03045,177155.5625869,182
1658857802.03045,177155.5625989,189
1658857802.03045,177155.5626095,182
1658857802.03045,177155.5626183,161
1658857802.03045,177155.5626284,168
1658857802.03045,177155.5626393,182
1658857802.03045,177155.5626473,170
1658857802.03045,177155.5626585,149
1658857802.03045,177155.5626687,147
1658857802.03045,177155.562674,154
1658857802.03045,177155.5626799,156
1658857802.03045,177155.562684,165
1658857802.03045,177155.5626894,168
1658857802.03045,177155.5626941,149
1658857802.03045,177155.5626996,144
1658857802.03045,177155.5627043,163
1658857802.03045,177155.5627101,165
1658857802.03045,177155.5627148,154
1658857802.60783,177155.5627211,144
1658857802.60783,177155.5627253,121
1658857802.60783,177155.5627291,105
1658857802.60783,177155.5627329,128
1658857802.60783,177155.562737,140
1658857802.60783,177155.5627412,109
1658857802.60783,177155.5627452,98
1658857802.60783,177155.5627491,119
1658857802.60783,177155.562753,123
1658857802.60783,177155.5627569,116
1658857802.60783,177155.562761,123
1658857802.60783,177155.562765,172
1658857802.60783,177155.5627706,228
1658857802.60783,177155.5627742,154
1658857802.60783,177155.5627778,-133
1658857802.60783,177155.5627816,-427
1658857802.60783,177155.5627857,-259
1658857802.60783,177155.5627916,280
1658857802.60783,177155.5627963,404
1658857802.60783,177155.5628017,116
1658857802.60783,177155.5628065,46
1658857802.60783,177155.5628121,121
1658857802.60783,177155.5628175,84
1658857802.60783,177155.562823,49
1658857802.60783,177155.5628271,63
1658857802.60783,177155.5628324,51
1658857802.60783,177155.5628357,44
1658857802.60783,177155.5628386,44
1658857802.60783,177155.5628417,25
1658857802.60783,177155.5628447,11
1658857802.60783,177155.5628476,9
1658857802.60783,177155.5628515,0
1658857802.60783,177155.5628562,-9
1658857802.60783,177155.5628588,-16
1658857802.60783,177155.5628617,-35
1658857802.60783,177155.5628645,-72
1658857802.60783,177155.5628672,-91
1658857802.60783,177155.5628702,-86
1658857802.60783,177155.5628729,-86
1658857802.60783,177156.1479305,-86
1658857802.60783,177156.1479439,-70
1658857802.60783,177156.1479474,-56
1658857802.60783,177156.1479527,-35
1658857802.60783,177156.1479556,23
1658857802.60783,177156.1479583,72
1658857802.60783,177156.1479609,88
1658857802.60783,177156.1479635,112
1658857802.60783,177156.1479661,151
1658857802.60783,177156.1479686,172
1658857802.60783,177156.1479712,161
1658857802.61602,177156.1479738,140
1658857802.61602,177156.1479763,126
1658857802.61602,177156.1479788,135
1658857802.61602,177156.1479814,144
1658857802.61602,177156.1479839,130
1658857802.61602,177156.1479865,107
1658857802.61602,177156.1479891,102
1658857802.61602,177156.1479917,114
1658857802.61602,177156.1479943,121
1658857802.61602,177156.147997,119
1658857802.61602,177156.1479995,119
1658857802.61602,177156.148002,123
1658857802.61602,177156.1480046,114
1658857802.61602,177156.1480072,93
1658857802.61602,177156.1480098,93
1658857802.61602,177156.1480123,112
1658857802.61602,177156.1480149,123
1658857802.61602,177156.1480174,126
1658857802.61602,177156.1480199,128
1658857802.61602,177156.1480223,128
1658857802.61602,177156.1480247,119
1658857802.61602,177156.148027,95
1658857802.61602,177156.1480293,81
1658857802.61602,177156.1480318,86
1658857803.19696,177156.1480341,93
1658857803.19696,177156.1480364,95
1658857803.19696,177156.1480385,119
1658857803.19696,177156.1480406,147
1658857803.19696,177156.1480428,144
1658857803.19696,177156.148045,123
1658857803.19696,177156.1480472,112
1658857803.19696,177156.1480494,126
1658857803.19696,177156.1480516,170
1658857803.19696,177156.1480539,172
1658857803.19696,177156.1480561,25
1658857803.19696,177156.1480584,-254
1658857803.19696,177156.1480606,-394
1658857803.19696,177156.1480628,-77
1658857803.19696,177156.1480649,319
1658857803.19696,177156.1480671,245
1658857803.19696,177156.1480693,42
1658857803.19696,177156.1480713,84
1658857803.19696,177156.1480734,116
1658857803.19696,177156.1480756,67
1658857803.19696,177156.1480788,67
1658857803.19696,177156.1480812,72
1658857803.19696,177156.1480833,60
1658857803.19696,177156.1480856,74
1658857803.19696,177156.148088,67
1658857803.19696,177156.1480902,46
1658857803.19696,177156.1480925,49
1658857803.19696,177156.1480947,44
1658857803.19696,177156.1480969,23
1658857803.19696,177156.1480992,9
1658857803.19696,177156.1481013,-9
1658857803.19696,177156.1481037,-32
1658857803.19696,177156.1481059,-60
1658857803.19696,177156.1481081,-81
1658857803.19696,177156.1481104,-74
1658857803.19696,177156.1481126,-63
1658857803.19696,177156.1481148,-56
1658857803.19696,177156.148117,-49
1658857803.19696,177156.7322367,-28
1658857803.19696,177156.732257,4
1658857803.19696,177156.7322636,49
1658857803.19696,177156.7322704,102
1658857803.19696,177156.7322753,147
1658857803.19696,177156.7322789,168
1658857803.19696,177156.7322845,186
1658857803.19696,177156.7322881,219
1658857803.19696,177156.732293,233
1658857803.19696,177156.7322984,217
1658857803.19696,177156.7323047,217
1658857803.19696,177156.7323092,228
1658857803.20892,177156.7323145,210
1658857803.20892,177156.7323187,191
1658857803.20892,177156.7323236,196
1658857803.20892,177156.7323273,203
1658857803.20892,177156.7323324,203
1658857803.20892,177156.732336,205
1658857803.20892,177156.7323408,217
1658857803.20892,177156.7323448,212
1658857803.20892,177156.7323498,189
1658857803.20892,177156.732354,186
1658857803.20892,177156.7323592,210
1658857803.20892,177156.7323626,203
1658857803.20892,177156.7323672,186
1658857803.20892,177156.7323704,191
1658857803.20892,177156.7323754,198
1658857803.20892,177156.7323789,205
1658857803.20892,177156.7323838,224
1658857803.20892,177156.7323875,226
1658857803.20892,177156.7323924,189
1658857803.20892,177156.7323957,133
1658857803.20892,177156.7324009,107
1658857803.20892,177156.7324053,137
1658857803.20892,177156.7324103,170
1658857803.20892,177156.7324141,170
1658857803.73117,177156.732419,158
1658857803.73117,177156.7324224,149
1658857803.73117,177156.7324261,135
1658857803.73117,177156.7324295,114
1658857803.73117,177156.732433,109
1658857803.73117,177156.7324362,142
1658857803.73117,177156.7324395,149
1658857803.73117,177156.732443,35
1658857803.73117,177156.7324463,-235
1658857803.73117,177156.7324494,-516
1658857803.73117,177156.7324525,-355
1658857803.73117,177156.7324557,273
1658857803.73117,177156.7324593,537
1658857803.73117,177156.7324638,249
1658857803.73117,177156.7324693,70
1658857803.73117,177156.732473,98
1658857803.73117,177156.7324784,70
1658857803.73117,177156.7324823,42
1658857803.73117,177156.732488,72
1658857803.73117,177156.7324922,65
1658857803.73117,177156.7324976,18
1658857803.73117,177156.7325016,2
1658857803.73117,177156.7325067,7
1658857803.73117,177156.7325107,11
1658857803.73117,177156.732516,2
1658857803.73117,177156.7325201,-21
1658857803.73117,177156.7325261,-32
1658857803.73117,177156.7325302,-42
1658857803.73117,177156.7325357,-67
1658857803.73117,177156.7325396,-81
1658857803.73117,177156.7325449,-98
1658857803.73117,177156.7325488,-137
1658857803.73117,177156.7325545,-140
1658857803.73117,177156.7325585,-123
1658857803.73117,177156.7325624,-149
1658857803.73117,177156.7325665,-144
1658857803.73117,177156.7325718,-81
1658857803.73117,177157.2684241,-37
1658857803.73117,177157.2684498,-7
1658857803.73117,177157.2684588,51
1658857803.73117,177157.2684674,112
1658857803.73117,177157.2684789,154
1658857803.73117,177157.268492,165
1658857803.73117,177157.2685059,154
1658857803.73117,177157.2685187,154
1658857803.73117,177157.2685318,177
1658857803.73117,177157.2685447,189
1658857803.73117,177157.2685597,182
1658857803.73117,177157.2685725,177
1658857803.73117,177157.2685854,179
1658857803.74214,177157.2686003,193
1658857803.74214,177157.2686132,200
1658857803.74214,177157.2686259,179
1658857803.74214,177157.2686413,147
1658857803.74214,177157.2686541,142
1658857803.74214,177157.2686672,147
1658857803.74214,177157.2686815,135
1658857803.74214,177157.2686945,140
1658857803.74214,177157.2687078,147
1658857803.74214,177157.2687222,128
1658857803.74214,177157.2687364,137
1658857803.74214,177157.2687481,158
1658857803.74214,177157.2687632,137
1658857803.74214,177157.268771,105
1658857803.74214,177157.2687784,88
1658857803.74214,177157.2687856,91
1658857803.74214,177157.26879,95
1658857803.74214,177157.2687935,86
1658857803.74214,177157.268807,91
1658857803.74214,177157.268821,102
1658857803.74214,177157.2688325,91
1658857803.74214,177157.2688455,86
1658857803.74214,177157.2688584,100
1658857803.74214,177157.2688724,100
1658857804.26367,177157.2688856,142
1658857804.26367,177157.2688941,177
1658857804.26367,177157.2689007,11
1658857804.26367,177157.268908,-364
1658857804.26367,177157.2689175,-572
1658857804.26367,177157.2689312,-165
1658857804.26367,177157.2689446,434
1658857804.26367,177157.2689588,420
1658857804.26367,177157.2689717,105
1658857804.26367,177157.2689875,91
1658857804.26367,177157.2690007,161
1658857804.26367,177157.2690139,105
1658857804.26367,177157.2690285,74
1658857804.26367,177157.2690416,100
1658857804.26367,177157.2690559,98
1658857804.26367,177157.2690621,81
1658857804.26367,177157.2690657,79
1658857804.26367,177157.2690701,70
1658857804.26367,177157.2690739,65
1658857804.26367,177157.2690803,65
1658857804.26367,177157.2690868,46
1658857804.26367,177157.2690909,21
1658857804.26367,177157.2690963,2
1658857804.26367,177157.2691019,-18
1658857804.26367,177157.2691051,-39
1658857804.26367,177157.2691119,-37
1658857804.26367,177157.2691172,-35
1658857804.26367,177157.2691226,-60
1658857804.26367,177157.2691255,-72
1658857804.26367,177157.2691288,-53
1658857804.26367,177157.2691349,-23
1658857804.26367,177157.2691405,21
1658857804.26367,177157.2691437,88
1658857804.26367,177157.2691468,151
1658857804.26367,177157.2691497,198
1658857804.26367,177157.2691528,228
1658857804.26367,177157.8039556,247
1658857804.26367,177157.8039764,254
1658857804.26367,177157.8039916,261
1658857804.26367,177157.8040075,259
1658857804.26367,177157.8040223,252
1658857804.26367,177157.8040372,249
1658857804.26367,177157.8040521,240
1658857804.26367,177157.8040655,205
1658857804.26367,177157.8040794,198
1658857804.26367,177157.8040929,233
1658857804.26367,177157.8041063,240
1658857804.26367,177157.8041207,200
1658857804.26367,177157.8041301,182
1658857804.26367,177157.8041328,210
1658857804.27464,177157.8041349,214
1658857804.27464,177157.804137,189
1658857804.27464,177157.8041391,189
1658857804.27464,177157.8041428,205
1658857804.27464,177157.8041557,214
1658857804.27464,177157.8041617,205
1658857804.27464,177157.804164,189
1658857804.27464,177157.8041661,182
1658857804.27464,177157.8041682,165
1658857804.27464,177157.8041704,126
1658857804.27464,177157.804177,86
1658857804.27464,177157.8041883,74
1658857804.27464,177157.8041932,84
1658857804.27464,177157.8041954,91
1658857804.27464,177157.8042001,114
1658857804.27464,177157.8042045,140
1658857804.27464,177157.8042109,109
1658857804.27464,177157.8042154,72
1658857804.27464,177157.8042213,98
1658857804.27464,177157.8042261,128
1658857804.27464,177157.8042329,151
1658857804.27464,177157.8042367,161
1658857804.27464,177157.8042428,0
1658857804.27464,177157.8042544,-348
1658857804.79686,177157.8042602,-499
1658857804.79686,177157.8042626,-98
1658857804.79686,177157.8042646,401
1658857804.79686,177157.8042667,350
1658857804.79686,177157.8042727,88
1658857804.79686,177157.8042889,98
1658857804.79686,177157.8043072,149
1658857804.79686,177157.8043183,112
1658857804.79686,177157.8043262,112
1658857804.79686,177157.8043338,114
1658857804.79686,177157.804339,91
1658857804.79686,177157.804344,91
1658857804.79686,177157.8043511,93
1658857804.79686,177157.8043559,86
1658857804.79686,177157.8043622,88
1658857804.79686,177157.8043669,77
1658857804.79686,177157.8043715,46
1658857804.79686,177157.8043757,23
1658857804.79686,177157.8043797,4
1658857804.79686,177157.8043839,-16
1658857804.79686,177157.8043881,-37
1658857804.79686,177157.8043924,-51
1658857804.79686,177157.8043968,-58
1658857804.79686,177157.8044008,-56
1658857804.79686,177157.8044047,-58
1658857804.79686,177157.8044087,-65
1658857804.79686,177157.8044128,-44
1658857804.79686,177157.8044217,0
1658857804.79686,177157.8044274,46
1658857804.79686,177157.8044318,98
1658857804.79686,177157.8044361,149
1658857804.79686,177157.8044402,165
1658857804.79686,177157.804448,170
1658857804.79686,177157.8044545,198
1658857804.79686,177157.8044591,214
1658857804.79686,177158.3413735,198
1658857804.79686,177158.3413908,196
1658857804.79686,177158.3413947,205
1658857804.79686,177158.3413979,189
1658857804.79686,177158.341401,179
1658857804.79686,177158.3414039,179
1658857804.79686,177158.3414068,177
1658857804.79686,177158.3414096,170
1658857804.79686,177158.3414123,163
1658857804.79686,177158.3414151,147
1658857804.79686,177158.341418,130
1658857804.79686,177158.3414206,135
1658857804.79686,177158.3414231,147
1658857804.79686,177158.3414258,133
1658857804.79686,177158.3414284,112
1658857804.80784,177158.341431,102
1658857804.80784,177158.3414348,93
1658857804.80784,177158.3414427,77
1658857804.80784,177158.3414528,70
1658857804.80784,177158.3414635,77
1658857804.80784,177158.3414726,58
1658857804.80784,177158.3414819,37
1658857804.80784,177158.3414905,44
1658857804.80784,177158.3415005,42
1658857804.80784,177158.34151,39
1658857804.80784,177158.341517,60
1658857804.80784,177158.3415196,72
1658857804.80784,177158.3415218,58
1658857804.80784,177158.3415239,58
1658857804.80784,177158.3415259,67
1658857804.80784,177158.341528,60
1658857804.80784,177158.3415301,81
1658857804.80784,177158.3415322,135
1658857804.80784,177158.3415343,79
1658857804.80784,177158.3415365,-161
1658857804.80784,177158.3415386,-427
1658857804.80784,177158.3415406,-338
1658857804.80784,177158.3415427,130
1658857804.80784,177158.3415448,336
1658857805.38152,177158.341547,121
1658857805.38152,177158.341549,16
1658857805.38152,177158.3415514,91
1658857805.38152,177158.3415535,86
1658857805.38152,177158.3415554,60
1658857805.38152,177158.3415574,91
1658857805.38152,177158.3415594,93
1658857805.38152,177158.3415613,58
1658857805.38152,177158.3415632,32
1658857805.38152,177158.3415652,28
1658857805.38152,177158.3415671,49
1658857805.38152,177158.3415748,63
1658857805.38152,177158.3415848,42
1658857805.38152,177158.3415891,7
1658857805.38152,177158.3415931,-7
1658857805.38152,177158.3415957,-21
1658857805.38152,177158.341606,-42
1658857805.38152,177158.341618,-53
1658857805.38152,177158.3416247,-60
1658857805.38152,177158.341629,-70
1658857805.38152,177158.3416437,-74
1658857805.38152,177158.341658,-72
1658857805.38152,177158.3416668,-60
1658857805.38152,177158.3416694,-30
1658857805.38152,177158.3416717,9
1658857805.38152,177158.3416739,58
1658857805.38152,177158.341676,102
1658857805.38152,177158.3416782,133
1658857805.38152,177158.3416803,154
1658857805.38152,177158.3416825,177
1658857805.38152,177158.3416846,186
1658857805.38152,177158.3416867,186
1658857805.38152,177158.3416889,184
1658857805.38152,177158.341691,175
1658857805.38152,177158.9255512,168
1658857805.38152,177158.9255732,179
1658857805.38152,177158.9255851,182
1658857805.38152,177158.9255971,156
1658857805.38152,177158.9256057,151
1658857805.38152,177158.9256098,168
1658857805.38152,177158.9256151,154
1658857805.38152,177158.9256243,130
1658857805.38152,177158.9256382,128
1658857805.38152,177158.925651,121
1658857805.38152,177158.9256604,95
1658857805.38152,177158.925669,86
1658857805.38152,177158.9256765,102
1658857805.38152,177158.9256837,109
1658857805.38152,177158.925695,95
1658857805.38152,177158.9257049,93
1658857805.39349,177158.9257123,102
1658857805.39349,177158.925719,102
1658857805.39349,177158.9257265,98
1658857805.39349,177158.9257397,77
1658857805.39349,177158.9257525,53
1658857805.39349,177158.9257635,44
1658857805.39349,177158.9257663,44
1658857805.39349,177158.9257685,63
1658857805.39349,177158.9257706,91
1658857805.39349,177158.9257769,105
1658857805.39349,177158.9257878,95
1658857805.39349,177158.9257912,88
1658857805.39349,177158.9257934,98
1658857805.39349,177158.9257956,102
1658857805.39349,177158.9257977,126
1658857805.39349,177158.9258028,158
1658857805.39349,177158.925814,70
1658857805.39349,177158.9258177,-205
1658857805.39349,177158.9258219,-490
1658857805.39349,177158.9258248,-366
1658857805.39349,177158.9258363,135
1658857805.39349,177158.9258477,324
1658857805.39349,177158.9258606,130
1658857805.39349,177158.925871,72
1658857806.01752,177158.9258745,140
1658857806.01752,177158.9258839,114
1658857806.01752,177158.925891,100
1658857806.01752,177158.9258948,147
1658857806.01752,177158.9259039,140
1658857806.01752,177158.9259154,95
1658857806.01752,177158.9259242,107
1658857806.01752,177158.9259366,137
1658857806.01752,177158.9259466,105
1658857806.01752,177158.9259546,53
1658857806.01752,177158.9259642,63
1658857806.01752,177158.9259747,74
1658857806.01752,177158.9259822,49
1658857806.01752,177158.9260223,39
1658857806.01752,177158.9260413,30
1658857806.01752,177158.9260556,2
1658857806.01752,177158.926069,-4
1658857806.01752,177158.926086,2
1658857806.01752,177158.9260985,-9
1658857806.01752,177158.9261057,-28
1658857806.01752,177158.9261107,-21
1658857806.01752,177158.9261161,25
1658857806.01752,177158.9261201,81
1658857806.01752,177158.9261253,119
1658857806.01752,177158.9261292,156
1658857806.01752,177158.9261344,186
1658857806.01752,177158.9261384,212
1658857806.01752,177158.9261435,238
1658857806.01752,177158.9261475,240
1658857806.01752,177158.9261526,219
1658857806.01752,177158.9261564,224
1658857806.01752,177158.9261615,254
1658857806.01752,177158.9261654,256
1658857806.01752,177159.559044,224
1658857806.01752,177159.5590614,203
1658857806.01752,177159.5590697,196
1658857806.01752,177159.5590791,193
1658857806.01752,177159.5590835,198
1658857806.01752,177159.5590917,198
1658857806.01752,177159.5590996,193

1658857806.01752,177159.5591078,191
1658857806.01752,177159.5591177,184
1658857806.01752,177159.5591227,172
1658857806.01752,177159.5591251,168
1658857806.01752,177159.5591271,170
1658857806.01752,177159.5591361,172
1658857806.01752,177159.559138,179
1658857806.01752,177159.55914,175
1658857806.01752,177159.559142,140
1658857806.01752,177159.5591441,102
1658857806.02949,177159.5591462,84
1658857806.02949,177159.5591483,81
1658857806.02949,177159.5591505,72
1658857806.02949,177159.5591526,65
1658857806.02949,177159.5591546,79
1658857806.02949,177159.5591567,102
1658857806.02949,177159.5591588,114
1658857806.02949,177159.5591609,107
1658857806.02949,177159.559163,91
1658857806.02949,177159.5591651,86
1658857806.02949,177159.5591672,100
1658857806.02949,177159.5591693,133
1658857806.02949,177159.5591713,126
1658857806.02949,177159.5591735,-67
1658857806.02949,177159.5591756,-436
1658857806.02949,177159.5591777,-548
1658857806.02949,177159.5591799,-112
1658857806.02949,177159.559182,277
1658857806.02949,177159.5591842,142
1658857806.02949,177159.5591863,-21
1658857806.02949,177159.5591884,70
1658857806.02949,177159.5591905,107
1658857806.02949,177159.5591926,46
1658857806.02949,177159.5591948,60
1658857806.50577,177159.5591969,95
1658857806.50577,177159.5591989,77
1658857806.50577,177159.5592009,60
1658857806.50577,177159.5592028,67
1658857806.50577,177159.5592048,60
1658857806.50577,177159.5592069,44
1658857806.50577,177159.5592089,39
1658857806.50577,177159.5592108,30
1658857806.50577,177159.5592128,11
1658857806.50577,177159.5592147,-4
1658857806.50577,177159.5592167,-18
1658857806.50577,177159.5592186,-30
1658857806.50577,177159.5592206,-39
1658857806.50577,177159.5592225,-44
1658857806.50577,177159.5592261,-37
1658857806.50577,177159.5592342,-32
1658857806.50577,177159.5592394,-25
1658857806.50577,177159.5592432,-11
1658857806.50577,177159.5592479,21
1658857806.50577,177159.5592533,60
1658857806.50577,177159.559258,95
1658857806.50577,177159.559267,130
1658857806.50577,177159.559274,165
1658857806.50577,177159.5592765,184
1658857806.50577,177159.5592787,189
1658857806.50577,177159.5592809,191
1658857806.50577,177159.5592829,193
1658857806.50577,177159.5592851,177
1658857806.50577,177159.5592872,151
1658857806.50577,177159.5592893,144
1658857806.50577,177159.5592913,140
1658857806.50577,177159.5592935,133
1658857806.50577,177160.0464615,144
1658857806.50577,177160.0464748,156
1658857806.50577,177160.0464799,144
1658857806.50577,177160.0464826,135
1658857806.50577,177160.046485,149
1658857806.50577,177160.0464873,168
1658857806.50577,177160.0464897,168
1658857806.50577,177160.046492,154
1658857806.50577,177160.0464942,149
1658857806.50577,177160.0464965,154
1658857806.50577,177160.0464989,158
1658857806.50577,177160.0465012,163
1658857806.50577,177160.0465035,156
1658857806.50577,177160.0465058,149
1658857806.50577,177160.0465081,151
1658857806.50577,177160.0465105,140
1658857806.50577,177160.0465128,112
1658857806.50577,177160.0465152,107
1658857806.51673,177160.0465177,119
1658857806.51673,177160.04652,123
1658857806.51673,177160.0465224,130
1658857806.51673,177160.0465247,142
1658857806.51673,177160.0465274,144
1658857806.51673,177160.0465298,144
1658857806.51673,177160.0465321,137
1658857806.51673,177160.0465345,119
1658857806.51673,177160.0465368,133
1658857806.51673,177160.0465391,196
1658857806.51673,177160.0465431,184
1658857806.51673,177160.0465454,-14
1658857806.51673,177160.0465477,-315
1658857806.51673,177160.0465501,-364
1658857806.51673,177160.0465524,44
1658857806.51673,177160.0465547,380
1658857806.51673,177160.0465569,231
1658857806.51673,177160.0465591,56
1658857806.51673,177160.0465615,121
1658857806.51673,177160.0465637,135
1658857806.51673,177160.0465659,70
1658857806.51673,177160.0465682,84
1658857806.51673,177160.0465705,116
1658857806.51673,177160.0465727,93
1658857807.13993,177160.046575,72
1658857807.13993,177160.0465772,67
1658857807.13993,177160.0465794,65
1658857807.13993,177160.0465817,72
1658857807.13993,177160.0465839,56
1658857807.13993,177160.046586,14
1658857807.13993,177160.0465882,-4
1658857807.13993,177160.0465902,2
1658857807.13993,177160.0465924,-14
1658857807.13993,177160.0465945,-49
1658857807.13993,177160.0465966,-74
1658857807.13993,177160.0465987,-77
1658857807.13993,177160.0466009,-74
1658857807.13993,177160.046603,-72
1658857807.13993,177160.0466051,-58
1658857807.13993,177160.0466074,-49
1658857807.13993,177160.0466095,-30
1658857807.13993,177160.0466117,23
1658857807.13993,177160.0466138,74
1658857807.13993,177160.046616,100
1658857807.13993,177160.046619,126
1658857807.13993,177160.0466299,151
1658857807.13993,177160.0466651,165
1658857807.13993,177160.0466764,172
1658857807.13993,177160.0466824,179
1658857807.13993,177160.0466886,182
1658857807.13993,177160.0466934,182
1658857807.13993,177160.0466997,186
1658857807.13993,177160.0467047,193
1658857807.13993,177160.0467111,198
1658857807.13993,177160.0467149,189
1658857807.13993,177160.680893,179
1658857807.13993,177160.6809347,184
1658857807.13993,177160.6809485,191
1658857807.13993,177160.6809673,203
1658857807.13993,177160.680977,207
1658857807.13993,177160.6809813,196
1658857807.13993,177160.6809843,182
1658857807.13993,177160.6809873,189
1658857807.13993,177160.6809922,193
1658857807.13993,177160.6809991,163
1658857807.13993,177160.6810061,130
1658857807.13993,177160.6810134,133
1658857807.13993,177160.6810193,147
1658857807.13993,177160.6810236,142
1658857807.13993,177160.6810282,114
1658857807.13993,177160.6810425,88
1658857807.13993,177160.6810527,79
1658857807.13993,177160.681057,72
1658857807.13993,177160.6810605,81
1658857807.1499,177160.6810637,116
1658857807.1499,177160.6810671,135
1658857807.1499,177160.6810759,123
1658857807.1499,177160.681082,114
1658857807.1499,177160.6810854,102
1658857807.1499,177160.6810894,100
1658857807.1499,177160.6810928,144
1658857807.1499,177160.6810961,154
1658857807.1499,177160.6810994,2
1658857807.1499,177160.6811028,-263
1658857807.1499,177160.6811062,-359
1658857807.1499,177160.6811096,-39
1658857807.1499,177160.681113,333
1658857807.1499,177160.6811163,256
1658857807.1499,177160.6811195,46
1658857807.1499,177160.6811229,70
1658857807.1499,177160.6811263,123
1658857807.1499,177160.6811296,88
1658857807.1499,177160.681133,77
1658857807.1499,177160.6811363,98
1658857807.1499,177160.6811397,109
1658857807.1499,177160.681143,93
1658857807.1499,177160.6811463,79
1658857807.1499,177160.6811513,81
1658857807.62975,177160.6811545,74
1658857807.62975,177160.6811578,58
1658857807.62975,177160.681161,51
1658857807.62975,177160.6811643,39
1658857807.62975,177160.6811675,28
1658857807.62975,177160.6811707,16
1658857807.62975,177160.6811739,-7
1658857807.62975,177160.6811771,-23
1658857807.62975,177160.6811802,-18
1658857807.62975,177160.6811834,-16
1658857807.62975,177160.6811866,-18
1658857807.62975,177160.6811898,-18
1658857807.62975,177160.6811929,-14
1658857807.62975,177160.6811961,4
1658857807.62975,177160.6811992,49
1658857807.62975,177160.6812024,102
1658857807.62975,177160.681207,133
1658857807.62975,177160.6812118,144
1658857807.62975,177160.6812151,175
1658857807.62975,177160.6812182,198
1658857807.62975,177160.6812216,186
1658857807.62975,177160.6812249,165
1658857807.62975,177160.6812312,158
1658857807.62975,177160.6812344,165
1658857807.62975,177160.6812377,172
1658857807.62975,177160.6812411,172
1658857807.62975,177160.6812458,168
1658857807.62975,177160.6812491,161
1658857807.62975,177160.6812538,158
1658857807.62975,177160.6812581,156
1658857807.62975,177161.1684084,158
1658857807.62975,177161.1684224,156
1658857807.62975,177161.1684267,135
1658857807.62975,177161.1684318,123
1658857807.62975,177161.1684341,123
1658857807.62975,177161.1684366,114
1658857807.62975,177161.1684387,121
1658857807.62975,177161.1684407,149
1658857807.62975,177161.1684428,149
1658857807.62975,177161.1684448,123
1658857807.62975,177161.1684469,119
1658857807.62975,177161.1684489,128
1658857807.62975,177161.168451,107
1658857807.62975,177161.1684531,77
1658857807.62975,177161.1684552,74
1658857807.62975,177161.1684573,56
1658857807.62975,177161.1684593,14
1658857807.62975,177161.1684614,23
1658857807.62975,177161.1684635,67
1658857807.62975,177161.1684655,81
1658857807.63972,177161.1684677,95
1658857807.63972,177161.1684699,119
1658857807.63972,177161.168472,100
1658857807.63972,177161.168474,74
1658857807.63972,177161.168476,93
1658857807.63972,177161.1684781,140
1658857807.63972,177161.1684801,170
1658857807.63972,177161.1684821,84
1658857807.63972,177161.1684842,-163
1658857807.63972,177161.1684863,-401
1658857807.63972,177161.1684884,-247
1658857807.63972,177161.1684905,221
1658857807.63972,177161.1684927,336
1658857807.63972,177161.1684949,77
1658857807.63972,177161.1684973,11
1658857807.63972,177161.1684993,112
1658857807.63972,177161.1685013,109
1658857807.63972,177161.1685034,70
1658857807.63972,177161.1685054,67
1658857807.63972,177161.1685099,79
1658857807.63972,177161.1685119,105
1658857807.63972,177161.1685138,102
1658857807.63972,177161.1685166,58
1658857807.63972,177161.1685187,25
1658857808.31294,177161.1685208,30
1658857808.31294,177161.1685228,46
1658857808.31294,177161.1685247,28
1658857808.31294,177161.1685268,-23
1658857808.31294,177161.1685288,-42
1658857808.31294,177161.1685308,-23
1658857808.31294,177161.1685328,-37
1658857808.31294,177161.1685347,-63
1658857808.31294,177161.1685367,-53
1658857808.31294,177161.1685386,-46
1658857808.31294,177161.1685407,-56
1658857808.31294,177161.1685425,-39
1658857808.31294,177161.1685455,-4
1658857808.31294,177161.1685474,7
1658857808.31294,177161.1685493,21
1658857808.31294,177161.1685513,67
1658857808.31294,177161.1685533,128
1658857808.31294,177161.1685552,168
1658857808.31294,177161.1685571,179
1658857808.31294,177161.1685598,179
1658857808.31294,177161.168572,170
1658857808.31294,177161.1685794,140
1658857808.31294,177161.1685819,140
1658857808.31294,177161.1685841,175
1658857808.31294,177161.1685862,175
1658857808.31294,177161.1685883,158
1658857808.31294,177161.1685904,158
1658857808.31294,177161.1685926,147
1658857808.31294,177161.1685948,128
1658857808.31294,177161.8514141,140
1658857808.31294,177161.8514344,165
1658857808.31294,177161.8514494,165
1658857808.31294,177161.8514589,161
1658857808.31294,177161.8514618,163
1658857808.31294,177161.8514639,154
1658857808.31294,177161.8514661,135
1658857808.31294,177161.8514682,137
1658857808.31294,177161.8514703,156
1658857808.31294,177161.8514724,156
1658857808.31294,177161.8514746,147
1658857808.31294,177161.8514767,140
1658857808.31294,177161.8514788,112
1658857808.31294,177161.8514809,86
1658857808.31294,177161.851483,84
1658857808.31294,177161.8514851,72
1658857808.31294,177161.8514872,46
1658857808.31294,177161.8514894,56
1658857808.31294,177161.8514915,81
1658857808.31294,177161.8514936,91
1658857808.31294,177161.8514957,95
1658857808.3249,177161.8514978,107
1658857808.3249,177161.8514998,119
1658857808.3249,177161.8515019,100
1658857808.3249,177161.851504,98
1658857808.3249,177161.8515061,165
1658857808.3249,177161.8515082,168
1658857808.3249,177161.8515104,-44
1658857808.3249,177161.8515125,-366
1658857808.3249,177161.8515146,-373
1658857808.3249,177161.8515167,74
1658857808.3249,177161.8515189,352
1658857808.3249,177161.851521,168
1658857808.3249,177161.8515231,49
1658857808.3249,177161.8515252,137
1658857808.3249,177161.8515273,149
1658857808.3249,177161.8515295,112
1658857808.3249,177161.8515315,133
1658857808.3249,177161.8515336,142
1658857808.3249,177161.8515357,119
1658857808.3249,177161.8515378,93
1658857808.3249,177161.8515399,79
1658857808.3249,177161.851542,74
1658857808.3249,177161.851544,93
1658857808.3249,177161.8515467,109
1658857808.80405,177161.8515489,93
1658857808.80405,177161.8515509,70
1658857808.80405,177161.8515528,51
1658857808.80405,177161.8515547,28
1658857808.80405,177161.8515566,21
1658857808.80405,177161.8515585,7
1658857808.80405,177161.8515605,-30
1658857808.80405,177161.8515624,-37
1658857808.80405,177161.8515652,-4
1658857808.80405,177161.8515672,23
1658857808.80405,177161.8515692,23
1658857808.80405,177161.8515711,35
1658857808.80405,177161.851573,81
1658857808.80405,177161.8515749,119
1658857808.80405,177161.8515768,135
1658857808.80405,177161.8515789,156
1658857808.80405,177161.8515808,189
1658857808.80405,177161.8515827,203
1658857808.80405,177161.8515847,189
1658857808.80405,177161.8515865,168
1658857808.80405,177161.8515884,172
1658857808.80405,177161.8515922,205
1658857808.80405,177161.851595,196
1658857808.80405,177161.8515971,163
1658857808.80405,177161.8515991,168
1658857808.80405,177161.8516012,168
1658857808.80405,177161.8516033,140
1658857808.80405,177161.8516053,144
1658857808.80405,177162.3397791,163
1658857808.80405,177162.3398041,149
1658857808.80405,177162.3398133,133
1658857808.80405,177162.3398174,142
1658857808.80405,177162.3398195,149
1658857808.80405,177162.3398217,140
1658857808.80405,177162.3398238,121
1658857808.80405,177162.339826,116
1658857808.80405,177162.3398281,128
1658857808.80405,177162.3398303,133
1658857808.80405,177162.3398324,119
1658857808.80405,177162.3398345,95
1658857808.80405,177162.3398367,65
1658857808.80405,177162.3398388,49
1658857808.80405,177162.339841,46
1658857808.80405,177162.3398431,39
1658857808.80405,177162.3398452,32
1658857808.80405,177162.3398473,49
1658857808.80405,177162.3398512,65
1658857808.80405,177162.3398535,65
