Time,TimeLsl,Value
1658856800.32614,176152.062223,84
1658856800.32614,176152.0622417,142
1658856800.32614,176152.0622487,86
1658856800.32614,176152.0622539,74
1658856800.32614,176152.0622573,74
1658856800.32614,176152.0622623,39
1658856800.32614,176152.062266,35
1658856800.32614,176152.0622728,56
1658856800.32614,176152.062276,51
1658856800.32614,176152.062279,39
1658856800.32614,176152.062282,18
1658856800.32614,176152.062285,-9
1658856800.32614,176152.062288,-23
1658856800.32614,176152.0622909,-37
1658856800.32614,176152.0622944,-58
1658856800.32614,176152.0623005,-74
1658856800.32614,176152.0623036,-86
1658856800.32614,176152.0623114,-98
1658856800.32614,176152.0623181,-102
1658856800.32614,176152.0623212,-81
1658856800.32614,176152.0623243,-46
1658856800.32614,176152.0623273,-21
1658856800.32614,176152.0623303,2
1658856800.32614,176152.0623333,39
1658856800.32614,176152.0623364,79
1658856800.32614,176152.0623394,112
1658856800.32614,176152.0623424,130
1658856800.32614,176152.0623453,140
1658856800.32614,176152.0623482,151
1658856800.32614,176152.0623512,170
1658856800.32614,176152.0623544,172
1658856800.32614,176152.0623574,154
1658856800.32614,176152.0623605,147
1658856800.32614,176152.0623635,151
1658856800.32614,176152.0623665,151
1658856800.32614,176152.0623694,158
1658856800.32614,176152.0623723,175
1658856800.32614,176152.0623754,179
1658856800.32614,176152.0623786,168
1658856800.32614,176152.0623845,149
1658856800.32614,176152.0623884,151
1658856800.32614,176152.0623921,172
1658856800.32614,176152.0623959,175
1658856800.32614,176152.0623999,168
1658856800.32614,176152.0624036,165
1658856800.32614,176152.0624075,144
1658856800.32614,176152.0624109,107
1658856800.32614,176152.0624143,93
1658856800.32614,176152.0624179,109
1658856800.32614,176152.0624214,128
1658856800.49668,176152.0624252,133
1658856800.49668,176152.062431,149
1658856800.49668,176152.0624347,161
1658856800.49668,176152.0624384,158
1658856800.49668,176152.0624421,158
1658856800.49668,176152.0624486,149
1658856800.49668,176152.0624517,147
1658856800.49668,176152.0624571,196
1658856800.49668,176152.0624607,226
1658856800.49668,176152.0624644,88
1658856800.49668,176152.062468,-212
1658856800.49668,176152.0624718,-338
1658856800.49668,176152.0624755,18
1658856800.49668,176152.0624793,394
1658856800.49668,176152.0624858,254
1658856800.49668,176152.062489,37
1658856800.49668,176152.062492,114
1658856800.49668,176152.062495,163
1658856800.49668,176152.062498,84
1658856800.49668,176152.062501,79
1658856800.49668,176152.062504,123
1658856800.49668,176152.062507,119
1658856800.49668,176152.0625139,107
1658856800.49668,176152.5978113,107
1658856800.49668,176152.5978289,91
1658856800.49668,176152.5978341,65
1658856800.49668,176152.5978382,56
1658856800.49668,176152.5978427,46
1658856800.49668,176152.5978469,35
1658856800.49668,176152.5978507,32
1658856800.49668,176152.5978546,23
1658856800.49668,176152.5978586,-18
1658856800.49668,176152.5978626,-51
1658856800.49668,176152.5978666,-44
1658856800.49668,176152.5978704,-32
1658856800.49668,176152.5978742,-30
1658856800.49668,176152.5978781,-23
1658856800.49668,176152.5978823,-9
1658856800.49668,176152.5978863,25
1658856800.49668,176152.5978904,81
1658856800.49668,176152.5978942,119
1658856800.49668,176152.5978984,137
1658856800.49668,176152.5979026,151
1658856800.49668,176152.5979149,144
1658856800.49668,176152.597921,126
1658856800.49668,176152.5979252,128
1658856800.49668,176152.5979309,144
1658856800.49668,176152.5979354,147
1658856800.49668,176152.5979408,142
1658856800.49668,176152.5979456,133
1658856800.57348,176152.5979512,119
1658856800.57348,176152.5979551,119
1658856800.57348,176152.5979754,126
1658856800.57348,176152.5979817,128
1658856800.57348,176152.5979858,128
1658856800.57348,176152.5979897,137
1658856800.57348,176152.5979934,144
1658856800.57348,176152.5979969,140
1658856800.57348,176152.5980004,130
1658856800.57348,176152.5980041,112
1658856800.57348,176152.5980082,84
1658856800.57348,176152.5980118,65
1658856800.57348,176152.5980155,70
1658856800.57348,176152.598019,86
1658856800.57348,176152.5980227,79
1658856800.57348,176152.5980287,86
1658856800.57348,176152.5980326,135
1658856800.57348,176152.5980381,156
1658856800.57348,176152.598042,128
1658856800.57348,176152.5980476,114
1658856800.57348,176152.5980516,114
1658856800.57348,176152.5980609,130
1658856800.57348,176152.5980667,189
1658856800.57348,176152.5980707,214
1658856800.57348,176152.598076,60
1658856800.57348,176152.5980801,-221
1658856800.57348,176152.5980854,-287
1658856800.57348,176152.5980891,53
1658856800.57348,176152.5980943,343
1658856800.57348,176152.5980982,198
1658856800.57348,176152.5981115,30
1658856800.57348,176152.5981179,91
1658856800.57348,176152.5981221,121
1658856800.57348,176152.5981278,79
1658856800.57348,176152.5981318,88
1658856800.57348,176152.5981372,107
1658856800.57348,176152.598141,95
1658856800.57348,176152.5981468,91
1658856800.57348,176152.5981508,91
1658856800.57348,176152.598156,81
1658856800.57348,176152.5981605,67
1658856800.57348,176152.5981658,60
1658856800.57348,176152.5981697,39
1658856800.57348,176152.5981756,7
1658856800.57348,176152.5981796,-11
1658856800.57348,176152.5981893,-7
1658856800.57348,176153.1344566,-11
1658856800.57348,176153.1344746,-30
1658856800.57348,176153.1344801,-39
1658856800.57348,176153.1344847,-32
1658856800.59841,176153.1344898,-28
1658856800.59841,176153.1344951,-18
1658856800.59841,176153.1344991,7
1658856800.59841,176153.134505,39
1658856800.59841,176153.1345121,74
1658856800.59841,176153.1345192,121
1658856800.59841,176153.1345276,154
1658856800.59841,176153.1345337,147
1658856800.59841,176153.1345389,144
1658856800.59841,176153.1345432,156
1658856800.59841,176153.1345473,151
1658856800.59841,176153.1345509,154
1658856800.59841,176153.1345572,161
1658856800.59841,176153.1345619,142
1658856800.59841,176153.1345683,121
1658856800.59841,176153.1345744,123
1658856800.59841,176153.1345801,126
1658856800.59841,176153.1345839,128
1658856800.59841,176153.1345876,140
1658856800.59841,176153.1345956,144
1658856800.59841,176153.1345995,135
1658856800.59841,176153.1346044,135
1658856800.59841,176153.1346073,135
1658856800.59841,176153.1346116,123
1658856800.59841,176153.1346168,102
1658856800.59841,176153.1346239,84
1658856800.59841,176153.1346308,81
1658856800.59841,176153.1346373,105
1658856800.59841,176153.1346418,116
1658856800.59841,176153.1346464,119
1658856800.59841,176153.13465,133
1658856800.59841,176153.1346538,140
1658856800.59841,176153.1346607,128
1658856800.59841,176153.1346638,119
1658856800.59841,176153.1346668,133
1658856800.59841,176153.13467,165
1658856800.59841,176153.1346762,200
1658856800.59841,176153.1346793,172
1658856800.59841,176153.1346824,-9
1658856800.59841,176153.1346854,-294
1658856800.59841,176153.1346884,-294
1658856800.59841,176153.134692,149
1658856800.59841,176153.1346984,404
1658856800.59841,176153.1347014,193
1658856800.59841,176153.1347044,51
1658856800.59841,176153.1347074,107
1658856800.59841,176153.1347103,109
1658856800.59841,176153.1347134,86
1658856800.59841,176153.1347164,102
1658856800.59841,176153.1347195,100
1658856800.61337,176153.1347224,91
1658856800.61337,176153.1347256,98
1658856800.61337,176153.1347286,93
1658856800.61337,176153.1347317,77
1658856800.61337,176153.134735,63
1658856800.61337,176153.1347402,58
1658856800.61337,176153.1347435,56
1658856800.61337,176153.1347488,30
1658856800.61337,176153.1347518,-11
1658856800.61337,176153.1347548,-35
1658856800.61337,176153.1347579,-23
1658856800.61337,176153.134761,-11
1658856800.61337,176153.134764,-23
1658856800.61337,176153.134767,-28
1658856800.61337,176153.1347717,-14
1658856800.61337,176153.1347774,-2
1658856800.61337,176153.1347806,9
1658856800.61337,176153.134786,49
1658856800.61337,176153.1347924,112
1658856800.61337,176153.7201847,156
1658856800.61337,176153.7202023,172
1658856800.61337,176153.7202107,193
1658856800.86591,176153.7202173,210
1658856800.86591,176153.7202214,191
1658856800.86591,176153.7202253,170
1658856800.86591,176153.7202289,177
1658856800.86591,176153.7202324,175
1658856800.86591,176153.7202362,156
1658856800.86591,176153.7202409,151
1658856800.86591,176153.7202451,161
1658856800.86591,176153.7202493,172
1658856800.86591,176153.7202525,170
1658856800.86591,176153.7202569,149
1658856800.86591,176153.7202606,135
1658856800.86591,176153.7202656,149
1658856800.86591,176153.7202705,163
1658856800.86591,176153.7202768,142
1658856800.86591,176153.7202853,105
1658856800.86591,176153.7202976,74
1658856800.86591,176153.7203072,70
1658856800.86591,176153.7203158,86
1658856800.86591,176153.7203224,105
1658856800.86591,176153.720335,126
1658856800.86591,176153.7203452,142
1658856800.86591,176153.7203555,151
1658856800.86591,176153.7203662,156
1658856800.86591,176153.7203747,144
1658856800.86591,176153.7203837,128
1658856800.86591,176153.7203951,128
1658856800.86591,176153.7204028,177
1658856800.86591,176153.7204148,242
1658856800.86591,176153.7204249,165
1658856800.86591,176153.7204353,-123
1658856800.86591,176153.720446,-369
1658856800.86591,176153.7204545,-154
1658856800.86591,176153.7204639,301
1658856800.86591,176153.7204745,305
1658856800.86591,176153.7204819,53
1658856800.86591,176153.7204939,77
1658856800.86591,176153.720504,151
1658856800.86591,176153.7205148,98
1658856800.86591,176153.7205256,93
1658856800.86591,176153.7205335,128
1658856800.86591,176153.7205437,114
1658856800.86591,176153.7205541,98
1658856800.86591,176153.7205631,88
1658856800.86591,176153.7205735,63
1658856800.86591,176153.7205833,56
1658856800.86591,176153.7205938,70
1658856800.86591,176153.7206047,65
1658856800.86591,176153.7206121,39
1658856800.86591,176153.7206231,23
1658856800.9206,176153.7206337,9
1658856800.9206,176153.7206422,-9
1658856800.9206,176153.7206546,-14
1658856800.9206,176153.7206634,-11
1658856800.9206,176153.7206756,-16
1658856800.9206,176153.7206859,-16
1658856800.9206,176153.7206948,0
1658856800.9206,176153.7207074,28
1658856800.9206,176153.7207162,58
1658856800.9206,176153.7207284,95
1658856800.9206,176153.7207388,128
1658856800.9206,176153.7207488,147
1658856800.9206,176153.7207604,168
1658856800.9206,176153.7207693,191
1658856800.9206,176153.7207784,198
1658856800.9206,176153.7207891,196
1658856800.9206,176153.7207965,200
1658856800.9206,176153.7208071,198
1658856800.9206,176153.7208178,189
1658856800.9206,176153.7208278,186
1658856800.9206,176154.2556821,189
1658856800.9206,176154.2557056,193
1658856800.9206,176154.2557181,196
1658856800.9206,176154.2557265,198
1658856801.30656,176154.2557306,198
1658856801.30656,176154.2557363,196
1658856801.30656,176154.2557423,191
1658856801.30656,176154.2557475,186
1658856801.30656,176154.2557511,170
1658856801.30656,176154.2557557,142
1658856801.30656,176154.2557614,119
1658856801.30656,176154.2557724,114
1658856801.30656,176154.255783,116
1658856801.30656,176154.2557929,123
1658856801.30656,176154.2557982,135
1658856801.30656,176154.2558051,149
1658856801.30656,176154.255813,158
1658856801.30656,176154.2558185,154
1658856801.30656,176154.2558279,137
1658856801.30656,176154.2558354,130
1658856801.30656,176154.2558435,156
1658856801.30656,176154.2558504,224
1658856801.30656,176154.2558586,212
1658856801.30656,176154.2558657,-11
1658856801.30656,176154.2558715,-329
1658856801.30656,176154.2558806,-301
1658856801.30656,176154.2558859,135
1658856801.30656,176154.2558931,317
1658856801.30656,176154.2559021,91
1658856801.30656,176154.2559068,30
1658856801.30656,176154.2559136,147
1658856801.30656,176154.2559202,133
1658856801.30656,176154.2559269,81
1658856801.30656,176154.2559339,102
1658856801.30656,176154.2559414,119
1658856801.30656,176154.255948,109
1658856801.30656,176154.2559599,91
1658856801.30656,176154.2559702,74
1658856801.30656,176154.2559727,67
1658856801.30656,176154.255975,65
1658856801.30656,176154.2559771,60
1658856801.30656,176154.2559796,53
1658856801.30656,176154.2559881,35
1658856801.30656,176154.2560006,16
1658856801.30656,176154.2560101,9
1658856801.30656,176154.2560242,-2
1658856801.30656,176154.2560378,-16
1658856801.30656,176154.2560461,-18
1658856801.30656,176154.256049,-9
1658856801.30656,176154.2560573,0
1658856801.30656,176154.2560698,16
1658856801.30656,176154.2560807,44
1658856801.30656,176154.2560937,74
1658856801.30656,176154.2561082,112
1658856801.31853,176154.2561223,147
1658856801.31853,176154.2561367,161
1658856801.31853,176154.2561466,165
1658856801.31853,176154.2561509,165
1658856801.31853,176154.2561595,165
1658856801.31853,176154.2561664,177
1658856801.31853,176154.2561723,177
1658856801.31853,176154.2561851,161
1658856801.31853,176154.2561989,161
1658856801.31853,176154.2562116,172
1658856801.31853,176154.2562258,170
1658856801.31853,176154.256238,151
1658856801.31853,176154.2562494,149
1658856801.31853,176154.2562531,158
1658856801.31853,176154.256264,149
1658856801.31853,176154.2562781,149
1658856801.31853,176154.2562959,170
1658856801.31853,176154.2563088,170
1658856801.31853,176154.2563407,144
1658856801.31853,176154.8406849,121
1658856801.31853,176154.8407034,102
1658856801.31853,176154.8407114,100
1658856801.31853,176154.8407176,107
1658856801.31853,176154.8407243,121
1658856801.83909,176154.8407316,140
1658856801.83909,176154.8407377,151
1658856801.83909,176154.840744,156
1658856801.83909,176154.8407499,142
1658856801.83909,176154.840754,126
1658856801.83909,176154.8407608,123
1658856801.83909,176154.8407676,126
1658856801.83909,176154.8407762,154
1658856801.83909,176154.8407836,170
1658856801.83909,176154.8407902,14
1658856801.83909,176154.8407959,-315
1658856801.83909,176154.8407995,-464
1658856801.83909,176154.8408046,-116
1658856801.83909,176154.8408121,270
1658856801.83909,176154.8408159,177
1658856801.83909,176154.840824,-7
1658856801.83909,176154.84083,65
1658856801.83909,176154.8408367,112
1658856801.83909,176154.8408434,58
1658856801.83909,176154.8408512,63
1658856801.83909,176154.8408561,86
1658856801.83909,176154.8408607,65
1658856801.83909,176154.8408649,58
1658856801.83909,176154.8408702,63
1658856801.83909,176154.8408749,46
1658856801.83909,176154.8408797,44
1658856801.83909,176154.8408845,56
1658856801.83909,176154.8408921,42
1658856801.83909,176154.840899,9
1658856801.83909,176154.8409036,-16
1658856801.83909,176154.8409075,-28
1658856801.83909,176154.8409111,-18
1658856801.83909,176154.8409148,-9
1658856801.83909,176154.8409186,-21
1658856801.83909,176154.8409232,-28
1658856801.83909,176154.840927,-18
1658856801.83909,176154.8409308,-11
1658856801.83909,176154.8409341,4
1658856801.83909,176154.8409377,44
1658856801.83909,176154.8409438,93
1658856801.83909,176154.8409508,126
1658856801.83909,176154.8409578,147
1658856801.83909,176154.8409652,161
1658856801.83909,176154.8409724,175
1658856801.83909,176154.8409795,184
1658856801.83909,176154.8409866,186
1658856801.83909,176154.8409936,184
1658856801.83909,176154.8409979,182
1658856801.83909,176154.8410017,184
1658856801.83909,176154.8410056,186
1658856801.85205,176154.8410097,189
1658856801.85205,176154.8410131,182
1658856801.85205,176154.841017,179
1658856801.85205,176154.8410208,182
1658856801.85205,176154.8410245,177
1658856801.85205,176154.8410284,177
1658856801.85205,176154.8410326,189
1658856801.85205,176154.8410364,196
1658856801.85205,176154.8410401,198
1658856801.85205,176154.8410438,198
1658856801.85205,176154.8410496,177
1658856801.85205,176154.8410574,137
1658856801.85205,176154.8410647,116
1658856801.85205,176154.8410716,128
1658856801.85205,176154.8410794,142
1658856801.85205,176154.8410874,154
1658856801.85205,176154.8410946,161
1658856801.85205,176154.8410986,175
1658856801.85205,176155.3769213,193
1658856801.85205,176155.3769332,193
1658856801.85205,176155.376937,179
1658856801.85205,176155.3769392,168
1658856801.85205,176155.3769412,168
1658856801.85205,176155.3769432,214
1658856802.41964,176155.3769453,256
1658856802.41964,176155.3769473,142
1658856802.41964,176155.3769494,-130
1658856802.41964,176155.3769515,-268
1658856802.41964,176155.3769535,11
1658856802.41964,176155.3769555,355
1658856802.41964,176155.3769574,256
1658856802.41964,176155.3769605,44
1658856802.41964,176155.3770495,86
1658856802.41964,176155.3770599,137
1658856802.41964,176155.3770699,86
1658856802.41964,176155.3770826,67
1658856802.41964,176155.3770888,81
1658856802.41964,176155.3770984,74
1658856802.41964,176155.3771105,67
1658856802.41964,176155.3771157,63
1658856802.41964,176155.3771179,53
1658856802.41964,176155.3771289,39
1658856802.41964,176155.3771376,25
1658856802.41964,176155.3771402,21
1658856802.41964,176155.3771423,21
1658856802.41964,176155.3771455,7
1658856802.41964,176155.3771551,-14
1658856802.41964,176155.3771672,-35
1658856802.41964,176155.3771727,-58
1658856802.41964,176155.3772222,-67
1658856802.41964,176155.3772379,-60
1658856802.41964,176155.377247,-46
1658856802.41964,176155.3772504,-39
1658856802.41964,176155.3772626,-18
1658856802.41964,176155.3772736,18
1658856802.41964,176155.3772779,56
1658856802.41964,176155.3772863,91
1658856802.41964,176155.3772988,123
1658856802.41964,176155.377308,144
1658856802.41964,176155.3773211,158
1658856802.41964,176155.377329,163
1658856802.41964,176155.377337,163
1658856802.41964,176155.3773502,165
1658856802.41964,176155.3773567,165
1658856802.41964,176155.3773645,161
1658856802.41964,176155.3773775,154
1658856802.41964,176155.3773843,144
1658856802.41964,176155.3773921,147
1658856802.41964,176155.3774074,156
1658856802.41964,176155.3774159,161
1658856802.41964,176155.3774205,154
1658856802.41964,176155.3774265,149
1658856802.41964,176155.3774312,154
1658856802.41964,176155.3774375,156
1658856802.43357,176155.377442,154
1658856802.43357,176155.3774506,151
1658856802.43357,176155.3774604,147
1658856802.43357,176155.3774707,151
1658856802.43357,176155.3774813,151
1658856802.43357,176155.3774926,130
1658856802.43357,176155.3775078,105
1658856802.43357,176155.3775429,88
1658856802.43357,176155.3775524,84
1658856802.43357,176155.3775602,93
1658856802.43357,176155.3775682,107
1658856802.43357,176155.3775739,116
1658856802.43357,176155.3775814,133
1658856802.43357,176155.3775907,142
1658856802.43357,176155.3775996,119
1658856802.43357,176155.3776069,95
1658856802.43357,176155.3776151,102
1658856802.43357,176155.9623813,135
1658856802.43357,176155.962404,182
1658856802.43357,176155.9624127,147
1658856802.43357,176155.9624209,-70
1658856802.43357,176155.9624289,-312
1658856802.43357,176155.9624369,-210
1658856802.43357,176155.9624432,200
1658856802.95766,176155.9624481,312
1658856802.95766,176155.9624519,70
1658856802.95766,176155.9624555,2
1658856802.95766,176155.96246,93
1658856802.95766,176155.9624641,70
1658856802.95766,176155.9624683,39
1658856802.95766,176155.9624727,70
1658856802.95766,176155.9624767,56
1658856802.95766,176155.9624806,30
1658856802.95766,176155.9624851,46
1658856802.95766,176155.962489,53
1658856802.95766,176155.9624936,39
1658856802.95766,176155.9624981,30
1658856802.95766,176155.9625029,18
1658856802.95766,176155.9625097,0
1658856802.95766,176155.9625142,-11
1658856802.95766,176155.9625187,-11
1658856802.95766,176155.9625227,-23
1658856802.95766,176155.9625312,-44
1658856802.95766,176155.962545,-56
1658856802.95766,176155.9625514,-67
1658856802.95766,176155.9625561,-74
1658856802.95766,176155.9625617,-58
1658856802.95766,176155.9625663,-23
1658856802.95766,176155.9625724,9
1658856802.95766,176155.9625766,37
1658856802.95766,176155.9625829,65
1658856802.95766,176155.9625879,95
1658856802.95766,176155.962594,126
1658856802.95766,176155.9625985,151
1658856802.95766,176155.9626047,165
1658856802.95766,176155.9626094,165
1658856802.95766,176155.9626156,163
1658856802.95766,176155.9626196,163
1658856802.95766,176155.9626248,158
1658856802.95766,176155.9626287,158
1658856802.95766,176155.9626339,161
1658856802.95766,176155.9626376,151
1658856802.95766,176155.962643,140
1658856802.95766,176155.9626467,154
1658856802.95766,176155.9626525,163
1658856802.95766,176155.9626586,158
1658856802.95766,176155.9626656,161
1658856802.95766,176155.9626714,165
1658856802.95766,176155.9626747,161
1658856802.95766,176155.9626794,161
1658856802.95766,176155.9626831,165
1658856802.95766,176155.9626902,163
1658856802.95766,176155.9626973,163
1658856802.95766,176155.962702,158
1658856802.97163,176155.9627086,133
1658856802.97163,176155.9627158,91
1658856802.97163,176155.9627221,74
1658856802.97163,176155.9627308,100
1658856802.97163,176155.9627379,123
1658856802.97163,176155.9627468,100
1658856802.97163,176155.9627553,79
1658856802.97163,176155.9627694,109
1658856802.97163,176155.9627797,126
1658856802.97163,176155.9627862,102
1658856802.97163,176155.9627919,95
1658856802.97163,176155.9627981,107
1658856802.97163,176155.9628018,142
1658856802.97163,176155.9628087,198
1658856802.97163,176155.9628171,144
1658856802.97163,176155.9628323,-91
1658856802.97163,176156.4985426,-324
1658856802.97163,176156.4985639,-219
1658856802.97163,176156.4985738,189
1658856802.97163,176156.4985813,312
1658856802.97163,176156.4985855,93
1658856802.97163,176156.4985912,28
1658856802.97163,176156.498595,112
1658856802.97163,176156.4986002,102
1658856803.64262,176156.4986041,79
1658856803.64262,176156.4986079,98
1658856803.64262,176156.4986114,77
1658856803.64262,176156.4986149,46
1658856803.64262,176156.4986208,56
1658856803.64262,176156.4986285,67
1658856803.64262,176156.4986359,46
1658856803.64262,176156.4986431,30
1658856803.64262,176156.4986502,23
1658856803.64262,176156.4986559,0
1658856803.64262,176156.49866,-23
1658856803.64262,176156.498664,-30
1658856803.64262,176156.4986699,-42
1658856803.64262,176156.4986737,-58
1658856803.64262,176156.4986792,-60
1658856803.64262,176156.4987047,-56
1658856803.64262,176156.4987159,-49
1658856803.64262,176156.4987242,-46
1658856803.64262,176156.4987309,-35
1658856803.64262,176156.4987367,7
1658856803.64262,176156.4987438,56
1658856803.64262,176156.4987496,84
1658856803.64262,176156.4987575,105
1658856803.64262,176156.4987631,137
1658856803.64262,176156.4987683,163
1658856803.64262,176156.4987759,175
1658856803.64262,176156.4987827,186
1658856803.64262,176156.4987916,193
1658856803.64262,176156.4987983,186
1658856803.64262,176156.4988062,175
1658856803.64262,176156.4988147,172
1658856803.64262,176156.4988219,168
1658856803.64262,176156.4988311,165
1658856803.64262,176156.4988378,172
1658856803.64262,176156.4988468,179
1658856803.64262,176156.4988749,177
1658856803.64262,176156.4988846,177
1658856803.64262,176156.4988912,182
1658856803.64262,176156.4988976,184
1658856803.64262,176156.4989041,182
1658856803.64262,176156.4989108,172
1658856803.64262,176156.4989153,168
1658856803.64262,176156.4989184,177
1658856803.64262,176156.4989217,170
1658856803.64262,176156.4989256,154
1658856803.64262,176156.4989293,149
1658856803.64262,176156.498933,128
1658856803.64262,176156.4989367,98
1658856803.64262,176156.4989397,105
1658856803.64262,176156.4989432,133
1658856803.65359,176156.4989465,133
1658856803.65359,176156.4989503,135
1658856803.65359,176156.498954,161
1658856803.65359,176156.4989579,172
1658856803.65359,176156.4989617,158
1658856803.65359,176156.4989657,142
1658856803.65359,176156.4989721,151
1658856803.65359,176156.4989796,203
1658856803.65359,176156.4989881,240
1658856803.65359,176156.4989971,140
1658856803.65359,176156.4990052,-91
1658856803.65359,176156.4990105,-231
1658856803.65359,176156.4990141,-14
1658856803.65359,176156.499019,343
1658856803.65359,176156.4990226,322
1658856803.65359,176157.1812598,102
1658856803.65359,176157.18128,93
1658856803.65359,176157.181294,154
1658856803.65359,176157.1813035,121
1658856803.65359,176157.1813119,105
1658856803.65359,176157.181319,123
1658856803.65359,176157.181327,119
1658856803.65359,176157.1813334,100
1658856803.65359,176157.1813433,81
1658856804.13083,176157.1813515,67
1658856804.13083,176157.1813588,56
1658856804.13083,176157.1813637,49
1658856804.13083,176157.1813692,49
1658856804.13083,176157.1813756,25
1658856804.13083,176157.1813826,-9
1658856804.13083,176157.1813873,-23
1658856804.13083,176157.1813928,-25
1658856804.13083,176157.1814004,-32
1658856804.13083,176157.1814051,-42
1658856804.13083,176157.1814113,-44
1658856804.13083,176157.1814168,-51
1658856804.13083,176157.1814244,-44
1658856804.13083,176157.1814301,-16
1658856804.13083,176157.1814359,14
1658856804.13083,176157.1814575,44
1658856804.13083,176157.1814681,86
1658856804.13083,176157.1814767,126
1658856804.13083,176157.1814844,147
1658856804.13083,176157.1814917,154
1658856804.13083,176157.1814975,170
1658856804.13083,176157.1815008,179
1658856804.13083,176157.1815049,175
1658856804.13083,176157.1815107,172
1658856804.13083,176157.1815174,172
1658856804.13083,176157.1815222,168
1658856804.13083,176157.1815281,165
1658856804.13083,176157.1815351,158
1658856804.13083,176157.181545,149
1658856804.13083,176157.1815532,158
1658856804.13083,176157.1815644,168
1658856804.13083,176157.1815752,158
1658856804.13083,176157.181583,151
1658856804.13083,176157.1815905,158
1658856804.13083,176157.1815965,158
1658856804.13083,176157.1816044,156
1658856804.13083,176157.1816111,168
1658856804.13083,176157.1816165,163
1658856804.13083,176157.1816255,135
1658856804.13083,176157.1816328,107
1658856804.13083,176157.1816385,93
1658856804.13083,176157.1816448,84
1658856804.13083,176157.1816494,84
1658856804.13083,176157.1816539,105
1658856804.13083,176157.1816589,121
1658856804.13083,176157.1816662,123
1658856804.13083,176157.1816739,133
1658856804.13083,176157.1816813,133
1658856804.13083,176157.1816883,112
1658856804.13083,176157.1816925,112
1658856804.1448,176157.1816956,135
1658856804.1448,176157.1816986,170
1658856804.1448,176157.1817051,203
1658856804.1448,176157.1817089,161
1658856804.1448,176157.1817133,-28
1658856804.1448,176157.1817203,-256
1658856804.1448,176157.1817271,-191
1658856804.1448,176157.1817341,205
1658856804.1448,176157.1817431,359
1658856804.1448,176157.1817475,135
1658856804.1448,176157.181753,49
1658856804.1448,176157.1817574,135
1658856804.1448,176157.1817611,119
1658856804.1448,176157.1817648,77
1658856804.1448,176157.6686651,102
1658856804.1448,176157.6686866,114
1658856804.1448,176157.6686931,88
1658856804.1448,176157.6686965,81
1658856804.1448,176157.6687026,84
1658856804.1448,176157.6687077,79
1658856804.1448,176157.6687112,67
1658856804.1448,176157.6687162,58
1658856804.1448,176157.6687212,49
1658856804.1448,176157.668727,32
1658856804.61644,176157.6687302,9
1658856804.61644,176157.6687336,-11
1658856804.61644,176157.6687368,-21
1658856804.61644,176157.6687402,-25
1658856804.61644,176157.6687436,-28
1658856804.61644,176157.6687469,-23
1658856804.61644,176157.6687502,-21
1658856804.61644,176157.668756,-23
1658856804.61644,176157.6687641,-7
1658856804.61644,176157.6687677,37
1658856804.61644,176157.6687739,81
1658856804.61644,176157.6688126,107
1658856804.61644,176157.6688255,128
1658856804.61644,176157.6688319,133
1658856804.61644,176157.6688357,130
1658856804.61644,176157.6688416,137
1658856804.61644,176157.6688449,142
1658856804.61644,176157.668848,140
1658856804.61644,176157.6688512,149
1658856804.61644,176157.6688553,149
1658856804.61644,176157.6688585,126
1658856804.61644,176157.6688614,114
1658856804.61644,176157.6688644,126
1658856804.61644,176157.6688675,137
1658856804.61644,176157.6688706,133
1658856804.61644,176157.6688738,128
1658856804.61644,176157.6688774,130
1658856804.61644,176157.6688808,135
1658856804.61644,176157.6688843,135
1658856804.61644,176157.6688873,130
1658856804.61644,176157.6688915,126
1658856804.61644,176157.6688964,121
1658856804.61644,176157.6689056,119
1658856804.61644,176157.6689119,121
1658856804.61644,176157.6689156,107
1658856804.61644,176157.6689206,74
1658856804.61644,176157.6689238,58
1658856804.61644,176157.668927,74
1658856804.61644,176157.6689322,98
1658856804.61644,176157.6689354,95
1658856804.61644,176157.6689405,93
1658856804.61644,176157.668944,109
1658856804.61644,176157.66895,123
1658856804.61644,176157.6689561,121
1658856804.61644,176157.6689604,114
1658856804.61644,176157.6689658,123
1658856804.61644,176157.6689719,165
1658856804.61644,176157.6689789,191
1658856804.61644,176157.6689828,86
1658856804.61644,176157.6689884,-165
1658856804.6324,176157.6689923,-315
1658856804.6324,176157.6689986,-65
1658856804.6324,176157.6690054,296
1658856804.6324,176157.669014,247
1658856804.6324,176157.6690229,49
1658856804.6324,176157.669029,79
1658856804.6324,176157.6690326,133
1658856804.6324,176157.6690359,95
1658856804.6324,176157.6690394,88
1658856804.6324,176157.6690445,95
1658856804.6324,176157.669048,74
1658856804.6324,176157.6690533,74
1658856804.6324,176157.6690567,84
1658856804.6324,176158.1583409,72
1658856804.6324,176158.1583591,67
1658856804.6324,176158.1583634,67
1658856804.6324,176158.1583668,53
1658856804.6324,176158.1583703,35
1658856804.6324,176158.1583737,16
1658856804.6324,176158.1583771,-4
1658856804.6324,176158.1583802,-35
1658856804.6324,176158.1583834,-58
1658856804.6324,176158.1583868,-49
1658856804.6324,176158.15839,-39
1658856805.20176,176158.1583931,-51
1658856805.20176,176158.1583965,-58
1658856805.20176,176158.1583998,-37
1658856805.20176,176158.1584029,-4
1658856805.20176,176158.1584061,28
1658856805.20176,176158.1584094,58
1658856805.20176,176158.1584126,100
1658856805.20176,176158.1584157,135
1658856805.20176,176158.1584192,151
1658856805.20176,176158.1584227,149
1658856805.20176,176158.1584259,140
1658856805.20176,176158.1584318,137
1658856805.20176,176158.1584354,142
1658856805.20176,176158.1584453,144
1658856805.20176,176158.1584518,147
1658856805.20176,176158.1584584,128
1658856805.20176,176158.1584635,109
1658856805.20176,176158.1584713,114
1658856805.20176,176158.158478,119
1658856805.20176,176158.1584823,116
1658856805.20176,176158.1584862,119
1658856805.20176,176158.1584898,116
1658856805.20176,176158.1584932,114
1658856805.20176,176158.1584971,109
1658856805.20176,176158.1585003,105
1658856805.20176,176158.1585037,112
1658856805.20176,176158.1585071,121
1658856805.20176,176158.1585108,109
1658856805.20176,176158.1585143,79
1658856805.20176,176158.1585177,56
1658856805.20176,176158.1585214,53
1658856805.20176,176158.1585253,79
1658856805.20176,176158.1585291,105
1658856805.20176,176158.1585326,105
1658856805.20176,176158.1585361,107
1658856805.20176,176158.1585398,116
1658856805.20176,176158.1585432,105
1658856805.20176,176158.1585465,95
1658856805.20176,176158.1585498,112
1658856805.20176,176158.1585531,142
1658856805.20176,176158.1585562,184
1658856805.20176,176158.1585597,163
1658856805.20176,176158.158563,-14
1658856805.20176,176158.1585671,-270
1658856805.20176,176158.1585706,-275
1658856805.20176,176158.1585742,98
1658856805.20176,176158.1585789,329
1658856805.20176,176158.1585827,151
1658856805.20176,176158.1585858,28
1658856805.20176,176158.1585888,102
1658856805.21273,176158.1585918,112
1658856805.21273,176158.1585964,72
1658856805.21273,176158.1585994,86
1658856805.21273,176158.1586023,98
1658856805.21273,176158.1586051,79
1658856805.21273,176158.158608,72
1658856805.21273,176158.1586109,79
1658856805.21273,176158.1586138,70
1658856805.21273,176158.1586166,58
1658856805.21273,176158.1586194,51
1658856805.21273,176158.1586222,39
1658856805.21273,176158.158625,25
1658856805.21273,176158.7406855,11
1658856805.21273,176158.7406991,0
1658856805.21273,176158.7407026,-4
1658856805.21273,176158.7407048,-21
1658856805.21273,176158.7407071,-51
1658856805.21273,176158.7407092,-63
1658856805.21273,176158.7407117,-46
1658856805.21273,176158.7407138,-25
1658856805.21273,176158.740716,0
1658856805.21273,176158.7407181,35
1658856805.21273,176158.7407202,72
1658856805.21273,176158.7407223,98
1658856805.83438,176158.7407245,109
1658856805.83438,176158.7407272,123
1658856805.83438,176158.7407347,149
1658856805.83438,176158.7407464,154
1658856805.83438,176158.7407545,137
1658856805.83438,176158.7407595,128
1658856805.83438,176158.7407636,133
1658856805.83438,176158.7407699,130
1658856805.83438,176158.7407741,123
1658856805.83438,176158.7407851,126
1658856805.83438,176158.7407929,128
1658856805.83438,176158.7407954,126
1658856805.83438,176158.7407976,130
1658856805.83438,176158.7407998,130
1658856805.83438,176158.740802,119
1658856805.83438,176158.7408042,109
1658856805.83438,176158.7408063,112
1658856805.83438,176158.7408084,114
1658856805.83438,176158.7408106,119
1658856805.83438,176158.7408128,126
1658856805.83438,176158.7408149,121
1658856805.83438,176158.7408169,102
1658856805.83438,176158.7408191,74
1658856805.83438,176158.7408212,60
1658856805.83438,176158.7408233,72
1658856805.83438,176158.7408255,95
1658856805.83438,176158.7408276,116
1658856805.83438,176158.7408297,128
1658856805.83438,176158.7408319,140
1658856805.83438,176158.740834,140
1658856805.83438,176158.7408361,128
1658856805.83438,176158.7408382,123
1658856805.83438,176158.7408404,149
1658856805.83438,176158.7408425,205
1658856805.83438,176158.7408446,196
1658856805.83438,176158.7408467,11
1658856805.83438,176158.740849,-263
1658856805.83438,176158.7408511,-275
1658856805.83438,176158.7408545,100
1658856805.83438,176158.7408662,324
1658856805.83438,176158.7408753,137
1658856805.83438,176158.740887,30
1658856805.83438,176158.7408999,126
1658856805.83438,176158.7409082,133
1658856805.83438,176158.7409159,93
1658856805.83438,176158.7409247,112
1658856805.83438,176158.7409294,119
1658856805.83438,176158.7409315,91
1658856805.83438,176158.7409347,81
1658856805.83438,176158.7409432,88
1658856805.84391,176158.7409566,86
1658856805.84391,176158.7409708,72
1658856805.84391,176158.7409801,63
1658856805.84391,176158.7409849,63
1658856805.84391,176158.7409889,46
1658856805.84391,176158.7409928,18
1658856805.84391,176158.7409987,7
1658856805.84391,176158.7410027,-4
1658856805.84391,176158.741007,-21
1658856805.84391,176158.7410113,-23
1658856805.84391,176158.7410162,-18
1658856805.84391,176159.3765235,-11
1658856805.84391,176159.3765449,2
1658856805.84391,176159.37656,23
1658856805.84391,176159.3765767,46
1658856805.84391,176159.3765895,86
1658856805.84391,176159.3765967,123
1658856805.84391,176159.3766043,142
1658856805.84391,176159.376613,144
1658856805.84391,176159.37662,140
1658856805.84391,176159.3766268,140
1658856805.84391,176159.376634,147
1658856805.84391,176159.3766423,154
1658856805.84391,176159.3766467,151
1658856806.32223,176159.37665,130
1658856806.32223,176159.3766534,105
1658856806.32223,176159.3766584,107
1658856806.32223,176159.3766635,128
1658856806.32223,176159.3766695,128
1658856806.32223,176159.3766741,114
1658856806.32223,176159.3766796,98
1658856806.32223,176159.3766846,98
1658856806.32223,176159.3766904,107
1658856806.32223,176159.3766974,105
1658856806.32223,176159.3767042,107
1658856806.32223,176159.3767094,116
1658856806.32223,176159.3767156,105
1658856806.32223,176159.3767247,72
1658856806.32223,176159.3767351,51
1658856806.32223,176159.3767402,53
1658856806.32223,176159.376744,74
1658856806.32223,176159.3767513,93
1658856806.32223,176159.3767554,98
1658856806.32223,176159.376762,109
1658856806.32223,176159.3767674,128
1658856806.32223,176159.3767735,128
1658856806.32223,176159.3767852,109
1658856806.32223,176159.3767979,102
1658856806.32223,176159.3768123,123
1658856806.32223,176159.3768226,172
1658856806.32223,176159.3768292,175
1658856806.32223,176159.376837,18
1658856806.32223,176159.3768438,-252
1658856806.32223,176159.3768474,-312
1658856806.32223,176159.3768605,44
1658856806.32223,176159.3768725,338
1658856806.32223,176159.3768822,196
1658856806.32223,176159.3768943,42
1658856806.32223,176159.376902,102
1658856806.32223,176159.3769067,116
1658856806.32223,176159.376919,65
1658856806.32223,176159.3769266,79

1658856806.32223,176159.3769304,100
1658856806.32223,176159.3769434,81
1658856806.32223,176159.3769533,67
1658856806.32223,176159.3769606,74
1658856806.32223,176159.3769708,70
1658856806.32223,176159.3769821,53
1658856806.32223,176159.3769913,46
1658856806.32223,176159.3770005,37
1658856806.32223,176159.3770085,14
1658856806.32223,176159.3770168,-7
1658856806.32223,176159.3770292,-7
1658856806.32223,176159.3770383,-21
1658856806.34217,176159.3770476,-46
1658856806.34217,176159.3770545,-49
1658856806.34217,176159.377064,-42
1658856806.34217,176159.377075,-42
1658856806.34217,176159.3770842,-30
1658856806.34217,176159.3770938,0
1658856806.34217,176159.3771022,30
1658856806.34217,176159.3771126,53
1658856806.34217,176159.3771215,91
1658856806.34217,176159.3771285,137
1658856806.34217,176159.8617364,161
1658856806.34217,176159.8617572,161
1658856806.34217,176159.8617728,172
1658856806.34217,176159.8617866,184
1658856806.34217,176159.8617968,177
1658856806.34217,176159.8618063,170
1658856806.34217,176159.8618143,179
1658856806.34217,176159.8618218,177
1658856806.34217,176159.8618276,158
1658856806.34217,176159.8618369,154
1658856806.34217,176159.8618445,158
1658856806.34217,176159.8618529,149
1658856806.34217,176159.8618632,142
1658856806.34217,176159.861873,156
1658856806.91055,176159.8618814,165
1658856806.91055,176159.8618863,151
1658856806.91055,176159.8618927,140
1658856806.91055,176159.8618993,130
1658856806.91055,176159.8619056,107
1658856806.91055,176159.8619112,91
1658856806.91055,176159.8619173,77
1658856806.91055,176159.861926,74
1658856806.91055,176159.8619342,95
1658856806.91055,176159.8619433,109
1658856806.91055,176159.8619498,119
1658856806.91055,176159.8619542,144
1658856806.91055,176159.8619586,149
1658856806.91055,176159.8619649,133
1658856806.91055,176159.8619696,130
1658856806.91055,176159.8619756,126
1658856806.91055,176159.8619798,133
1658856806.91055,176159.861986,189
1658856806.91055,176159.8619904,154
1658856806.91055,176159.8619963,-81
1658856806.91055,176159.862001,-331
1658856806.91055,176159.8620072,-207
1658856806.91055,176159.8620121,249
1658856806.91055,176159.8620187,369
1658856806.91055,176159.8620253,107
1658856806.91055,176159.8620319,46
1658856806.91055,176159.8620368,142
1658856806.91055,176159.8620432,112
1658856806.91055,176159.8620481,67
1658856806.91055,176159.8620532,105
1658856806.91055,176159.862058,128
1658856806.91055,176159.8620666,105
1658856806.91055,176159.8620733,88
1658856806.91055,176159.8620794,95
1658856806.91055,176159.8620858,86
1658856806.91055,176159.8620916,63
1658856806.91055,176159.8620981,58
1658856806.91055,176159.8621029,58
1658856806.91055,176159.8621092,42
1658856806.91055,176159.8621142,16
1658856806.91055,176159.8621209,0
1658856806.91055,176159.8621254,0
1658856806.91055,176159.8621299,-9
1658856806.91055,176159.8621346,-18
1658856806.91055,176159.8621392,-18
1658856806.91055,176159.8621439,-14
1658856806.91055,176159.8621502,11
1658856806.91055,176159.8621552,49
1658856806.91055,176159.8621617,72
1658856806.91055,176159.8621673,107
1658856806.92152,176159.8621738,154
1658856806.92152,176159.8621786,179
1658856806.92152,176159.8621848,186
1658856806.92152,176159.8621893,189
1658856806.92152,176159.8621954,186
1658856806.92152,176159.8622004,189
1658856806.92152,176159.8622067,196
1658856806.92152,176159.8622117,191
1658856806.92152,176159.8622182,189
1658856806.92152,176160.4468826,189
1658856806.92152,176160.4469004,184
1658856806.92152,176160.4469108,168
1658856806.92152,176160.4469177,154
1658856806.92152,176160.4469289,156
1658856806.92152,176160.4469414,170
1658856806.92152,176160.4469475,163
1658856806.92152,176160.4469525,140
1658856806.92152,176160.4469604,126
1658856806.92152,176160.4469677,123
1658856806.92152,176160.4469752,102
1658856806.92152,176160.44698,72
1658856806.92152,176160.4469822,63
1658856806.92152,176160.4469853,77
1658856806.92152,176160.4469874,84
1658856807.44421,176160.4469907,77
1658856807.44421,176160.4469999,81
1658856807.44421,176160.4470121,102
1658856807.44421,176160.4470549,109
1658856807.44421,176160.4471059,95
1658856807.44421,176160.4471194,98
1658856807.44421,176160.4471312,126
1658856807.44421,176160.447143,175
1658856807.44421,176160.447155,205
1658856807.44421,176160.4471602,86
1658856807.44421,176160.4471624,-214
1658856807.44421,176160.4471647,-376
1658856807.44421,176160.4471669,-63
1658856807.44421,176160.4471695,308
1658856807.44421,176160.4471797,205
1658856807.44421,176160.4471885,7
1658856807.44421,176160.447191,72
1658856807.44421,176160.447228,123
1658856807.44421,176160.4472419,84
1658856807.44421,176160.447248,98
1658856807.44421,176160.4472511,114
1658856807.44421,176160.4472532,91
1658856807.44421,176160.4472591,88
1658856807.44421,176160.4472692,93
1658856807.44421,176160.4472779,67
1658856807.44421,176160.4472855,56
1658856807.44421,176160.447288,63
1658856807.44421,176160.4472944,58
1658856807.44421,176160.4473074,39
1658856807.44421,176160.4473202,21
1658856807.44421,176160.4473301,-2
1658856807.44421,176160.4473409,-16
1658856807.44421,176160.4473461,-18
1658856807.44421,176160.4473483,-16
1658856807.44421,176160.4473505,-23
1658856807.44421,176160.4473527,-35
1658856807.44421,176160.4473548,-32
1658856807.44421,176160.447357,0
1658856807.44421,176160.4473593,39
1658856807.44421,176160.4473614,77
1658856807.44421,176160.4473642,114
1658856807.44421,176160.4473773,142
1658856807.44421,176160.4473878,154
1658856807.44421,176160.4473972,163
1658856807.44421,176160.4474061,165
1658856807.44421,176160.4474143,165
1658856807.44421,176160.4474206,165
1658856807.44421,176160.4474276,165
1658856807.44421,176160.447436,175
1658856807.44421,176160.4474447,177
1658856807.4571,176160.4474529,165
1658856807.4571,176160.4474634,165
1658856807.4571,176160.447475,170
1658856807.4571,176160.4474882,163
1658856807.4571,176160.4474993,154
1658856807.4571,176160.4475106,142
1658856807.4571,176160.4475226,140
1658856807.4571,176160.4475287,147
1658856807.4571,176160.983713,140
1658856807.4571,176160.9837448,121
1658856807.4571,176160.9837528,100
1658856807.4571,176160.9837598,81
1658856807.4571,176160.9837668,86
1658856807.4571,176160.9837796,109
1658856807.4571,176160.9837955,121
1658856807.4571,176160.9838102,116
1658856807.4571,176160.9838248,130
1658856807.4571,176160.9838365,151
1658856807.4571,176160.983853,142
1658856807.4571,176160.9838687,112
1658856807.4571,176160.98388,112
1658856807.4571,176160.9838847,161
1658856807.4571,176160.9838912,219
1658856807.4571,176160.9838949,189
1658856808.07951,176160.9839006,-14
1658856808.07951,176160.9839116,-298
1658856808.07951,176160.9839164,-294
1658856808.07951,176160.9839186,98
1658856808.07951,176160.9839206,287
1658856808.07951,176160.9839227,86
1658856808.07951,176160.9839255,11
1658856808.07951,176160.983928,102
1658856808.07951,176160.98393,88
1658856808.07951,176160.9839321,56
1658856808.07951,176160.9839343,88
1658856808.07951,176160.9839367,98
1658856808.07951,176160.9839387,74
1658856808.07951,176160.9839407,63
1658856808.07951,176160.983943,60
1658856808.07951,176160.9839458,60
1658856808.07951,176160.9839479,63
1658856808.07951,176160.9839511,53
1658856808.07951,176160.9839532,35
1658856808.07951,176160.9839553,16
1658856808.07951,176160.9839574,4
1658856808.07951,176160.9839607,-2
1658856808.07951,176160.9839725,-16
1658856808.07951,176160.9839814,-37
1658856808.07951,176160.9839855,-37
1658856808.07951,176160.9839912,-30
1658856808.07951,176160.9839963,-37
1658856808.07951,176160.9840018,-30
1658856808.07951,176160.9840056,4
1658856808.07951,176160.9840092,49
1658856808.07951,176160.9840126,88
1658856808.07951,176160.9840232,126
1658856808.07951,176160.9840269,144
1658856808.07951,176160.9840307,151
1658856808.07951,176160.9840329,168
1658856808.07951,176160.9840351,179
1658856808.07951,176160.9840372,175
1658856808.07951,176160.9840394,170
1658856808.07951,176160.9840415,175
1658856808.07951,176160.9840437,170
1658856808.07951,176160.9840458,163
1658856808.07951,176160.9840481,158
1658856808.07951,176160.9840502,161
1658856808.07951,176160.9840524,161
1658856808.07951,176160.9840546,163
1658856808.07951,176160.9840567,168
1658856808.07951,176160.9840589,165
1658856808.07951,176160.9840611,151
1658856808.07951,176160.9840633,135
1658856808.07951,176160.9840654,121
1658856808.08948,176160.9840677,107
1658856808.08948,176160.9840698,79
1658856808.08948,176160.9840719,67
1658856808.08948,176160.9840741,102
1658856808.08948,176160.9840762,128
1658856808.08948,176160.9840784,121
1658856808.08948,176160.9840806,126
1658856808.08948,176161.6186495,151
1658856808.08948,176161.6186697,163
1658856808.08948,176161.6186846,149
1658856808.08948,176161.6186991,135
1658856808.08948,176161.6187097,161
1658856808.08948,176161.6187133,224
1658856808.08948,176161.6187525,226
1658856808.08948,176161.6187571,49
1658856808.08948,176161.618764,-238
1658856808.08948,176161.618769,-280
1658856808.08948,176161.6187739,77
1658856808.08948,176161.6187806,319
1658856808.08948,176161.6187837,144
1658856808.08948,176161.6187868,9
1658856808.08948,176161.6187898,84
1658856808.08948,176161.6187927,102
1658856808.08948,176161.6187957,65
1658856808.61287,176161.6187988,77
1658856808.61287,176161.6188055,86
1658856808.61287,176161.6188124,70
1658856808.61287,176161.6188193,60
1658856808.61287,176161.6188263,60
1658856808.61287,176161.61883,65
1658856808.61287,176161.6188343,65
1658856808.61287,176161.6188373,46
1658856808.61287,176161.6188401,30
1658856808.61287,176161.6188432,14
1658856808.61287,176161.6188466,0
1658856808.61287,176161.6188501,-4
1658856808.61287,176161.618853,-4
1658856808.61287,176161.618856,-18
1658856808.61287,176161.6188613,-44
1658856808.61287,176161.6188693,-53
1658856808.61287,176161.6188746,-42
1658856808.61287,176161.618881,-30
1658856808.61287,176161.6188848,-9
1658856808.61287,176161.6188882,32
1658856808.61287,176161.6188915,84
1658856808.61287,176161.6188949,121
1658856808.61287,176161.6188983,142
1658856808.61287,176161.6189018,154
1658856808.61287,176161.6189053,163
1658856808.61287,176161.6189091,163
1658856808.61287,176161.6189126,170
1658856808.61287,176161.6189161,182
1658856808.61287,176161.6189194,184
1658856808.61287,176161.6189224,170
1658856808.61287,176161.6189259,158
1658856808.61287,176161.6189297,161
1658856808.61287,176161.6189341,163
1658856808.61287,176161.6189376,161
1658856808.61287,176161.6189412,170
1658856808.61287,176161.6189452,168
1658856808.61287,176161.6189488,158
1658856808.61287,176161.6189524,163
1658856808.61287,176161.6189559,161
1658856808.61287,176161.6189595,133
1658856808.61287,176161.6189631,109
1658856808.61287,176161.618966,84
1658856808.61287,176161.6189714,70
1658856808.61287,176161.618978,93
1658856808.61287,176161.6189821,123
1658856808.61287,176161.6189876,133
1658856808.61287,176161.6189928,147
1658856808.61287,176161.6189992,165
1658856808.61287,176161.6190032,163
1658856808.61287,176161.6190063,149
1658856808.62384,176161.6190092,144
1658856808.62384,176161.6190187,163
1658856808.62384,176161.6190251,207
1658856808.62384,176161.6190297,226
1658856808.62384,176161.6190331,114
1658856808.62384,176161.6190364,-140
1658856808.62384,176162.153592,-280
1658856808.62384,176162.1536132,-18
1658856808.62384,176162.153619,331
1658856808.62384,176162.1536249,266
1658856808.62384,176162.1536428,67
1658856808.62384,176162.1536564,100
1658856808.62384,176162.1536705,142
1658856808.62384,176162.1536802,100
1658856808.62384,176162.1536879,100
1658856808.62384,176162.1536948,107
1658856808.62384,176162.1537012,84
1658856808.62384,176162.1537089,81
1658856808.62384,176162.1537159,88
1658856808.62384,176162.1537206,79
1658856808.62384,176162.1537292,70
1658856808.62384,176162.1537328,63
1658856808.62384,176162.1537375,35
1658856808.62384,176162.1537435,2
1658856809.19559,176162.1537508,-9
1658856809.19559,176162.1537551,-16
1658856809.19559,176162.153759,-39
1658856809.19559,176162.1537627,-49
1658856809.19559,176162.1537691,-46
1658856809.19559,176162.1537743,-58
1658856809.19559,176162.153781,-63
1658856809.19559,176162.1537851,-39
1658856809.19559,176162.1537887,-11
1658856809.19559,176162.1537933,11
1658856809.19559,176162.1538006,46
1658856809.19559,176162.1538063,86
1658856809.19559,176162.1538134,112
1658856809.19559,176162.1538214,135
1658856809.19559,176162.1538317,151
1658856809.19559,176162.153841,147
1658856809.19559,176162.1538532,142
1658856809.19559,176162.1538635,149
1658856809.19559,176162.1538721,142
1658856809.19559,176162.1538783,135
1658856809.19559,176162.1538863,142
1658856809.19559,176162.1538955,154
1658856809.19559,176162.1539066,156
1658856809.19559,176162.153911,149
1658856809.19559,176162.1539161,144
1658856809.19559,176162.1539224,142
1658856809.19559,176162.153932,147
1658856809.19559,176162.1539397,163
1658856809.19559,176162.1539466,163
1658856809.19559,176162.1539546,130
1658856809.19559,176162.1539599,98
1658856809.19559,176162.1539689,81
1658856809.19559,176162.1539761,86
1658856809.19559,176162.1539824,109
1658856809.19559,176162.1539909,114
1658856809.19559,176162.1539953,107
1658856809.19559,176162.1539991,133
1658856809.19559,176162.1540029,161
1658856809.19559,176162.1540074,154
1658856809.19559,176162.1540139,144
1658856809.19559,176162.1540177,142
1658856809.19559,176162.154023,158
1658856809.19559,176162.1540267,214
1658856809.19559,176162.1540301,247
1658856809.19559,176162.154035,130
1658856809.19559,176162.1540381,-135
1658856809.19559,176162.1540425,-284
1658856809.19559,176162.1540483,-16
1658856809.19559,176162.1540517,348
1658856809.19559,176162.1540553,263
1658856809.20556,176162.1540603,37
1658856809.20556,176162.1540671,84
1658856809.20556,176162.1540739,151
1658856809.20556,176162.1540809,95
1658856809.20556,176162.1540875,91
1658856809.20556,176162.7398445,133
1658856809.20556,176162.7398625,126
1658856809.20556,176162.7398676,102
1658856809.20556,176162.739879,95
1658856809.20556,176162.7398844,95
1658856809.20556,176162.7398931,84
1658856809.20556,176162.7398999,60
1658856809.20556,176162.7399058,37
1658856809.20556,176162.7399089,18
1658856809.20556,176162.7399122,0
1658856809.20556,176162.7399174,-9
1658856809.20556,176162.7399207,-7
1658856809.20556,176162.739924,-14
1658856809.20556,176162.7399274,-25
1658856809.20556,176162.739933,-39
1658856809.20556,176162.7399365,-56
1658856809.20556,176162.739942,-37
1658856809.20556,176162.7399469,0
1658856809.20556,176162.7399608,32
1658856809.73566,176162.7399724,67
1658856809.73566,176162.739976,77
1658856809.73566,176162.7399783,91
1658856809.73566,176162.7399846,128
1658856809.73566,176162.7399935,149
1658856809.73566,176162.7400013,158
1658856809.73566,176162.7400071,161
1658856809.73566,176162.7400141,149
1658856809.73566,176162.7400181,149
1658856809.73566,176162.7400223,158
1658856809.73566,176162.7400265,154
1658856809.73566,176162.740034,144
1658856809.73566,176162.7400411,147
1658856809.73566,176162.7400443,142
1658856809.73566,176162.7400474,140
1658856809.73566,176162.7400504,154
1658856809.73566,176162.7400535,156
1658856809.73566,176162.7400566,151
1658856809.73566,176162.7400595,156
1658856809.73566,176162.7400625,144
1658856809.73566,176162.7400656,105
1658856809.73566,176162.7400686,70
1658856809.73566,176162.7400715,67
1658856809.73566,176162.7400745,84
1658856809.73566,176162.7400775,102
1658856809.73566,176162.7400806,116
1658856809.73566,176162.7400883,128
1658856809.73566,176162.7400934,144
1658856809.73566,176162.7400991,149
1658856809.73566,176162.7401048,137
1658856809.73566,176162.7401122,137
1658856809.73566,176162.7401214,161
1658856809.73566,176162.7401242,203
1658856809.73566,176162.7401269,221
1658856809.73566,176162.740129,107
1658856809.73566,176162.7401352,-149
1658856809.73566,176162.7401486,-270
1658856809.73566,176162.7401565,21
1658856809.73566,176162.7401593,340
1658856809.73566,176162.7401678,210
1658856809.73566,176162.7401803,18
1658856809.73566,176162.7401864,93
1658856809.73566,176162.7401955,149
1658856809.73566,176162.7402078,100
1658856809.73566,176162.7402197,95
1658856809.73566,176162.7402338,116
1658856809.73566,176162.7402484,107
1658856809.73566,176162.7402607,98
1658856809.73566,176162.7402738,95
1658856809.73566,176162.7402804,88
1658856809.74663,176162.7402837,84
1658856809.74663,176162.7402955,77
1658856809.74663,176162.7403065,60
1658856809.74663,176162.7403146,42
1658856809.74663,176163.2744066,30
1658856809.74663,176163.2744274,18
1658856809.74663,176163.2744421,0
1658856809.74663,176163.2744567,-9
1658856809.74663,176163.2744699,-14
1658856809.74663,176163.2744831,-25
1658856809.74663,176163.2744972,-25
1658856809.74663,176163.2745057,-11
1658856809.74663,176163.2745084,2
1658856809.74663,176163.2745106,28
1658856809.74663,176163.2745127,72
1658856809.74663,176163.2745149,114
1658856809.74663,176163.2745176,142
1658856809.74663,176163.2745273,158
1658856809.74663,176163.2745356,175
1658856809.74663,176163.2745381,182
1658856809.74663,176163.2745403,170
1658856809.74663,176163.2745424,158
1658856809.74663,176163.274545,158
1658856809.74663,176163.274555,156
1658856810.26441,176163.2745633,147
1658856810.26441,176163.2745658,144
1658856810.26441,176163.2745679,142
1658856810.26441,176163.2745699,133
1658856810.26441,176163.2745719,137
1658856810.26441,176163.2745792,144
1658856810.26441,176163.2745906,137
1658856810.26441,176163.2745965,142
1658856810.26441,176163.2746006,140
1658856810.26441,176163.2746055,105
1658856810.26441,176163.2746107,72
1658856810.26441,176163.2746183,67
1658856810.26441,176163.2746291,67
1658856810.26441,176163.2746399,60
1658856810.26441,176163.2746497,70
1658856810.26441,176163.2746564,84
1658856810.26441,176163.2746698,100
1658856810.26441,176163.27468,109
1658856810.26441,176163.2746857,107
1658856810.26441,176163.2746986,100
1658856810.26441,176163.2747128,107
1658856810.26441,176163.2747254,142
1658856810.26441,176163.2747383,200
1658856810.26441,176163.2747515,198
1658856810.26441,176163.2747648,35
1658856810.26441,176163.2747775,-235
1658856810.26441,176163.2747906,-289
1658856810.26441,176163.2748023,53
1658856810.26441,176163.2748106,319
1658856810.26441,176163.2748147,163
1658856810.26441,176163.27482,14
1658856810.26441,176163.2748237,95
1658856810.26441,176163.2748287,128
1658856810.26441,176163.2748367,79
1658856810.26441,176163.2748425,84
1658856810.26441,176163.2748448,91
1658856810.26441,176163.274847,77
1658856810.26441,176163.2748491,84
1658856810.26441,176163.2748513,95
1658856810.26441,176163.2748555,88
1658856810.26441,176163.2748625,67
1658856810.26441,176163.2748736,49
1658856810.26441,176163.2748839,39
1658856810.26441,176163.2748896,32
1658856810.26441,176163.2749001,30
1658856810.26441,176163.2749064,11
1658856810.26441,176163.2749103,-18
1658856810.26441,176163.2749154,-30
1658856810.26441,176163.2749198,-39
1658856810.26441,176163.2749258,-56
1658856810.27638,176163.2749388,-44
1658856810.27638,176163.2749474,-9
1658856810.27638,176163.2749501,14
1658856810.27638,176163.810518,35
1658856810.27638,176163.8105383,74
1658856810.27638,176163.8105524,119
1658856810.27638,176163.8105657,156
1658856810.27638,176163.8105811,170
1658856810.27638,176163.8105947,170
1658856810.27638,176163.8106019,184
1658856810.27638,176163.8106053,200
1658856810.27638,176163.8106112,186
1658856810.27638,176163.8106145,168
1658856810.27638,176163.8106198,170
1658856810.27638,176163.8106241,177
1658856810.27638,176163.8106289,172
1658856810.27638,176163.8106326,156
1658856810.27638,176163.8106377,140
1658856810.27638,176163.8106413,142
1658856810.27638,176163.8106471,161
1658856810.27638,176163.8106508,172
1658856810.27638,176163.8106562,168
1658856810.27638,176163.8106594,142
1658856810.27638,176163.8106631,100
1658856810.80384,176163.8106669,70
1658856810.80384,176163.8106702,65
1658856810.80384,176163.8106738,84
1658856810.80384,176163.8106774,93
1658856810.80384,176163.8106812,81
1658856810.80384,176163.8106847,77
1658856810.80384,176163.8106882,114
1658856810.80384,176163.8106922,149
1658856810.80384,176163.8106959,133
1658856810.80384,176163.8106994,114
1658856810.80384,176163.810703,123
1658856810.80384,176163.8107077,154
1658856810.80384,176163.8107111,200
1658856810.80384,176163.8107147,170
1658856810.80384,176163.8107203,-44
1658856810.80384,176163.8107238,-301
1658856810.80384,176163.8107274,-214
1658856810.80384,176163.8107309,221
1658856810.80384,176163.8107343,385
1658856810.80384,176163.8107379,144
1658856810.80384,176163.810742,37
1658856810.80384,176163.8107457,123
1658856810.80384,176163.8107494,126
1658856810.80384,176163.810753,81
1658856810.80384,176163.8107568,95
1658856810.80384,176163.8107604,105
1658856810.80384,176163.8107646,88
1658856810.80384,176163.8107689,86
1658856810.80384,176163.8107727,91
1658856810.80384,176163.8107764,84
1658856810.80384,176163.81078,77
1658856810.80384,176163.8107837,63
1658856810.80384,176163.8107872,46
1658856810.80384,176163.810791,39
1658856810.80384,176163.8107946,21
1658856810.80384,176163.8107983,-4
1658856810.80384,176163.8108022,-18
1658856810.80384,176163.8108059,-25
1658856810.80384,176163.8108095,-30
1658856810.80384,176163.8108173,-28
1658856810.80384,176163.8108211,-32
1658856810.80384,176163.8108249,-21
1658856810.80384,176163.8108288,21
1658856810.80384,176163.810833,74
1658856810.80384,176163.8108369,126
1658856810.80384,176163.8108432,161
1658856810.80384,176163.8108528,177
1658856810.80384,176163.8108572,193
1658856810.80384,176163.8108609,207
1658856810.80384,176163.8108645,203
1658856810.81456,176163.810868,193
1658856810.81456,176163.8108714,196
1658856810.81456,176164.3475897,193
1658856810.81456,176164.347606,191
1658856810.81456,176164.3476132,200
1658856810.81456,176164.3476173,205
1658856810.81456,176164.3476213,198
1658856810.81456,176164.3476253,198
1658856810.81456,176164.3476293,196
1658856810.81456,176164.3476331,200
1658856810.81456,176164.3476368,212
1658856810.81456,176164.3476406,203
1658856810.81456,176164.3476446,161
1658856810.81456,176164.3476483,126
1658856810.81456,176164.347652,112
1658856810.81456,176164.3476557,105
1658856810.81456,176164.3476596,116
1658856810.81456,176164.3476635,135
1658856810.81456,176164.3476674,133
1658856810.81456,176164.3476711,128
1658856810.81456,176164.347677,142
1658856810.81456,176164.3476831,140
1658856810.81456,176164.3476877,126
1658856810.81456,176164.3476929,128
1658856811.38691,176164.3476977,137
1658856811.38691,176164.3477015,177
1658856811.38691,176164.3477051,224
1658856811.38691,176164.3477087,121
1658856811.38691,176164.3477124,-158
1658856811.38691,176164.3477162,-317
1658856811.38691,176164.3477197,-39
1658856811.38691,176164.3477234,324
1658856811.38691,176164.347727,245
1658856811.38691,176164.3477305,35
1658856811.38691,176164.347734,81
1658856811.38691,176164.3477376,142
1658856811.38691,176164.3477414,98
1658856811.38691,176164.3477473,98
1658856811.38691,176164.3477528,126
1658856811.38691,176164.3477565,112
1658856811.38691,176164.3477602,98
1658856811.38691,176164.3477641,102
1658856811.38691,176164.3477678,100
1658856811.38691,176164.3477715,84
1658856811.38691,176164.3477752,70
1658856811.38691,176164.3477789,58
1658856811.38691,176164.3477826,46
1658856811.38691,176164.3477863,28
1658856811.38691,176164.34779,9
1658856811.38691,176164.347794,-2
1658856811.38691,176164.3477978,-7
1658856811.38691,176164.3478037,-11
1658856811.38691,176164.3478102,-16
1658856811.38691,176164.3478141,-25
1658856811.38691,176164.3478181,-23
1658856811.38691,176164.347822,4
1658856811.38691,176164.347826,42
1658856811.38691,176164.3478297,74
1658856811.38691,176164.3478335,105
1658856811.38691,176164.3478373,140
1658856811.38691,176164.3478415,168
1658856811.38691,176164.3478454,175
1658856811.38691,176164.3478494,172
1658856811.38691,176164.3478535,175
1658856811.38691,176164.3478575,175
1658856811.38691,176164.3478613,172
1658856811.38691,176164.3478651,168
1658856811.38691,176164.3478686,161
1658856811.38691,176164.3478722,154
1658856811.38691,176164.3478755,163
1658856811.38691,176164.3478803,172
1658856811.38691,176164.3478837,158
1658856811.38691,176164.3478891,147
1658856811.38691,176164.3478943,158
1658856811.39788,176164.3478979,163
1658856811.39788,176164.9318511,151
1658856811.39788,176164.9318726,140
1658856811.39788,176164.9318945,119
1658856811.39788,176164.9319072,91
1658856811.39788,176164.9319169,88
1658856811.39788,176164.9319258,114
1658856811.39788,176164.9319344,123
1658856811.39788,176164.9319406,114
1658856811.39788,176164.931945,130
1658856811.39788,176164.9319481,156
1658856811.39788,176164.9319512,144
1658856811.39788,176164.9319542,112
1658856811.39788,176164.9319573,98
1658856811.39788,176164.9319602,123
1658856811.39788,176164.9319631,179
1658856811.39788,176164.931966,168
1658856811.39788,176164.9319691,-30
1658856811.39788,176164.9319721,-312
1658856811.39788,176164.9319753,-280
1658856811.39788,176164.9319819,121
1658856811.39788,176164.9319852,287
1658856811.39788,176164.931991,74
1658856811.39788,176164.9319942,-2
1658856811.92538,176164.9319999,91
1658856811.92538,176164.9320061,91
1658856811.92538,176164.9320129,65
1658856811.92538,176164.9320199,86
1658856811.92538,176164.9320255,84
1658856811.92538,176164.93203,65
1658856811.92538,176164.9320339,72
1658856811.92538,176164.932038,72
1658856811.92538,176164.9320414,58
1658856811.92538,176164.9320446,51
1658856811.92538,176164.9320477,51
1658856811.92538,176164.9320507,32
1658856811.92538,176164.9320537,9
1658856811.92538,176164.9320567,4
1658856811.92538,176164.9320597,-2
1658856811.92538,176164.9320628,-21
1658856811.92538,176164.9320658,-25
1658856811.92538,176164.9320688,-23
1658856811.92538,176164.9320717,-30
1658856811.92538,176164.9320748,-37
1658856811.92538,176164.932078,-23
1658856811.92538,176164.9320811,7
1658856811.92538,176164.9320841,49
1658856811.92538,176164.9320896,84
1658856811.92538,176164.9320926,102
1658856811.92538,176164.9320956,130
1658856811.92538,176164.9320986,165
1658856811.92538,176164.9321017,175
1658856811.92538,176164.9321073,175
1658856811.92538,176164.9321253,177
1658856811.92538,176164.9321346,168
1658856811.92538,176164.93214,156
1658856811.92538,176164.9321446,156
1658856811.92538,176164.9321488,163
1658856811.92538,176164.9321531,163
1658856811.92538,176164.9322031,156
1658856811.92538,176164.9322132,149
1658856811.92538,176164.9322185,161
1658856811.92538,176164.9322234,175
1658856811.92538,176164.9322287,175
1658856811.92538,176164.9322333,165
1658856811.92538,176164.9322407,156
1658856811.92538,176164.9322445,135
1658856811.92538,176164.9322484,102
1658856811.92538,176164.9322523,86
1658856811.92538,176164.932257,112
1658856811.92538,176164.9322619,140
1658856811.92538,176164.9322652,128
1658856811.92538,176164.932271,121
1658856811.92538,176164.9322743,154
1658856811.94062,176165.4679617,186
1658856811.94062,176165.4679789,177
1658856811.94062,176165.4679844,151
1658856811.94062,176165.4679913,149
1658856811.94062,176165.4679959,184
1658856811.94062,176165.4680016,224
1658856811.94062,176165.4680067,151
1658856811.94062,176165.4680123,-91
1658856811.94062,176165.4680158,-282
1658856811.94062,176165.468019,-98
1658856811.94062,176165.4680236,256
1658856811.94062,176165.4680339,238
1658856811.94062,176165.4680409,25
1658856811.94062,176165.4680454,49
1658856811.94062,176165.4680515,121
1658856811.94062,176165.4680571,72
1658856811.94062,176165.4680666,49
1658856811.94062,176165.4680736,65
1658856811.94062,176165.4680768,60
1658856811.94062,176165.4680798,51
1658856811.94062,176165.4680828,51
1658856811.94062,176165.4680857,46
1658856811.94062,176165.4680886,39
1658856811.94062,176165.4680916,35
1658856812.50793,176165.4680957,28
1658856812.50793,176165.4681026,14
1658856812.50793,176165.4681095,-4
1658856812.50793,176165.4681165,-16
1658856812.50793,176165.4681217,-28
1658856812.50793,176165.4681249,-39
1658856812.50793,176165.468128,-42
1658856812.50793,176165.468131,-44
1658856812.50793,176165.4681339,-49
1658856812.50793,176165.4681369,-44
1658856812.50793,176165.4681403,-25
1658856812.50793,176165.4681545,7
1658856812.50793,176165.4681678,42
1658856812.50793,176165.468181,77
1658856812.50793,176165.4681942,119
1658856812.50793,176165.4682075,147
1658856812.50793,176165.4682206,151
1658856812.50793,176165.4682337,156
1658856812.50793,176165.4682469,165
1658856812.50793,176165.4682601,168
1658856812.50793,176165.468273,151
1658856812.50793,176165.468286,144
1658856812.50793,176165.4682996,154
1658856812.50793,176165.4683125,156
1658856812.50793,176165.4683254,149
1658856812.50793,176165.4683385,144
1658856812.50793,176165.4683521,147
1658856812.50793,176165.4683654,154
1658856812.50793,176165.4683787,161
1658856812.50793,176165.4683917,163
1658856812.50793,176165.4684051,158
1658856812.50793,176165.4684196,140
1658856812.50793,176165.4684337,114
1658856812.50793,176165.4684439,93
1658856812.50793,176165.4684529,88
1658856812.50793,176165.4684652,107
1658856812.50793,176165.4684754,126
1658856812.50793,176165.4684844,133
1658856812.50793,176165.4684965,149
1658856812.50793,176165.4685065,170
1658856812.50793,176165.4685159,170
1658856812.50793,176165.4685285,158
1658856812.50793,176165.4685374,154
1658856812.50793,176165.4685486,161
1658856812.50793,176165.4685596,200
1658856812.50793,176165.4685681,228
1658856812.50793,176165.4685793,100
1658856812.50793,176165.4685914,-168
1658856812.50793,176165.4685966,-282
1658856812.50793,176166.053302,0
1658856812.51988,176166.0533413,305
1658856812.51988,176166.0533501,198
1658856812.51988,176166.0533539,21
1658856812.51988,176166.0533598,84
1658856812.51988,176166.0533645,126
1658856812.51988,176166.0533695,74
1658856812.51988,176166.0533728,70
1658856812.51988,176166.0533763,84
1658856812.51988,176166.053381,65
1658856812.51988,176166.0533844,53
1658856812.51988,176166.0533878,60
1658856812.51988,176166.0533913,53
1658856812.51988,176166.0533957,28
1658856812.51988,176166.0534005,9
1658856812.51988,176166.0534039,2
1658856812.51988,176166.0534075,-11
1658856812.51988,176166.0534123,-21
1658856812.51988,176166.0534158,-28
1658856812.51988,176166.0534192,-42
1658856812.51988,176166.053424,-65
1658856812.51988,176166.0534273,-74
1658856812.51988,176166.0534308,-67
1658856812.51988,176166.0534355,-60
1658856812.51988,176166.0534603,-58
1658856813.0967,176166.0534741,-46
1658856813.0967,176166.0534788,-11
1658856813.0967,176166.0534826,37
1658856813.0967,176166.0534863,72
1658856813.0967,176166.0534898,100
1658856813.0967,176166.0534934,128
1658856813.0967,176166.053497,147
1658856813.0967,176166.0535007,144
1658856813.0967,176166.0535043,130
1658856813.0967,176166.0535079,140
1658856813.0967,176166.0535114,158
1658856813.0967,176166.0535155,158
1658856813.0967,176166.0535212,156
1658856813.0967,176166.0535251,151
1658856813.0967,176166.0535303,137
1658856813.0967,176166.0535351,133
1658856813.0967,176166.0535404,144
1658856813.0967,176166.0535449,151
1658856813.0967,176166.0535503,158
1658856813.0967,176166.0535548,165
1658856813.0967,176166.0535882,137
1658856813.0967,176166.0536277,100
1658856813.0967,176166.0536385,98
1658856813.0967,176166.0536455,93
1658856813.0967,176166.053651,88
1658856813.0967,176166.053655,102
1658856813.0967,176166.053663,119
1658856813.0967,176166.0536669,126
1658856813.0967,176166.0536745,144
1658856813.0967,176166.053682,163
1658856813.0967,176166.0536875,165
1658856813.0967,176166.0536915,154
1658856813.0967,176166.0536944,147
1658856813.0967,176166.0536972,158
1658856813.0967,176166.0537002,210
1658856813.0967,176166.0537033,212
1658856813.0967,176166.0537064,42
1658856813.0967,176166.0537113,-235
1658856813.0967,176166.0537178,-282
1658856813.0967,176166.0537238,86
1658856813.0967,176166.0537276,362
1658856813.0967,176166.0537308,186
1658856813.0967,176166.0537366,30
1658856813.0967,176166.0537416,98
1658856813.0967,176166.0537447,105
1658856813.0967,176166.0537476,58
1658856813.0967,176166.0537506,84
1658856813.0967,176166.0537535,100
1658856813.0967,176166.6381257,84
1658856813.0967,176166.6381464,74
1658856813.10667,176166.6381508,72
1658856813.10667,176166.6381545,65
1658856813.10667,176166.6381678,56
1658856813.10667,176166.638174,49
1658856813.10667,176166.6381805,46
1658856813.10667,176166.6381868,37
1658856813.10667,176166.6381937,14
1658856813.10667,176166.6382007,-11
1658856813.10667,176166.6382075,-44
1658856813.10667,176166.6382115,-72
1658856813.10667,176166.6382146,-77
1658856813.10667,176166.6382177,-70
1658856813.10667,176166.638221,-58
1658856813.10667,176166.6382273,-46
1658856813.10667,176166.6382342,-53
1658856813.10667,176166.6382381,-37
1658856813.10667,176166.6382446,28
1658856813.10667,176166.6382505,81
1658856813.10667,176166.6382565,98
1658856813.10667,176166.6382648,121
1658856813.10667,176166.6382729,142
1658856813.10667,176166.6382806,140
1658856813.10667,176166.6382853,147
1658856813.10667,176166.6382923,149
1658856813.63618,176166.6383014,126
1658856813.63618,176166.6383081,107
1658856813.63618,176166.6383142,123
1658856813.63618,176166.6383202,140
1658856813.63618,176166.6383261,126
1658856813.63618,176166.6383319,128
1658856813.63618,176166.6383361,151
1658856813.63618,176166.6383395,154
1658856813.63618,176166.638343,147
1658856813.63618,176166.6383469,140
1658856813.63618,176166.6383507,121
1658856813.63618,176166.638355,102
1658856813.63618,176166.6383603,86
1658856813.63618,176166.6383648,67
1658856813.63618,176166.6383691,79
1658856813.63618,176166.6383726,109
1658856813.63618,176166.6383756,116
1658856813.63618,176166.6383793,121
1658856813.63618,176166.6383835,149
1658856813.63618,176166.6383896,163
1658856813.63618,176166.6383956,154
1658856813.63618,176166.6384071,151
1658856813.63618,176166.6384153,158
1658856813.63618,176166.6384217,196
1658856813.63618,176166.6384299,228
1658856813.63618,176166.6384368,114
1658856813.63618,176166.638444,-156
1658856813.63618,176166.6384475,-296
1658856813.63618,176166.6384507,0
1658856813.63618,176166.638454,376
1658856813.63618,176166.6384577,277
1658856813.63618,176166.6384661,39
1658856813.63618,176166.6384776,84
1658856813.63618,176166.6384909,142
1658856813.63618,176166.6385488,81
1658856813.63618,176166.6385588,72
1658856813.63618,176166.6385635,102
1658856813.63618,176166.6385717,93
1658856813.63618,176166.6385771,88
1658856813.63618,176166.6385829,95
1658856813.63618,176166.6385862,81
1658856813.63618,176166.6385895,72
1658856813.63618,176166.6385918,70
1658856813.63618,176166.6385938,53
1658856813.63618,176166.6385959,37
1658856813.63618,176166.638601,25
1658856813.63618,176166.6386122,14
1658856813.63618,176167.1747164,-4
1658856813.63618,176167.1747293,-25
1658856813.63618,176167.1747343,-25
1658856813.64714,176167.1747372,-11
1658856813.64714,176167.1747398,-11
1658856813.64714,176167.1747423,-11
1658856813.64714,176167.1747449,11
1658856813.64714,176167.1747474,46
1658856813.64714,176167.1747498,91
1658856813.64714,176167.1747533,140
1658856813.64714,176167.1747638,168
1658856813.64714,176167.174771,175
1658856813.64714,176167.1747773,184
1658856813.64714,176167.1747881,182
1658856813.64714,176167.1747932,168
1658856813.64714,176167.1747955,163
1658856813.64714,176167.1747976,165
1658856813.64714,176167.1747998,165
1658856813.64714,176167.1748021,168
1658856813.64714,176167.1748043,151
1658856813.64714,176167.1748064,128
1658856813.64714,176167.1748084,130
1658856813.64714,176167.1748105,147
1658856813.64714,176167.1748127,144
1658856813.64714,176167.1748148,142
1658856813.64714,176167.1748169,140
1658856813.64714,176167.174819,126
1658856814.17463,176167.1748211,105
1658856814.17463,176167.1748232,79

1658856814.17463,176167.1748252,65
1658856814.17463,176167.1748272,86
1658856814.17463,176167.1748291,109
1658856814.17463,176167.1748311,109
1658856814.17463,176167.1748331,121
1658856814.17463,176167.1748354,154
1658856814.17463,176167.174845,156
1658856814.17463,176167.1748524,142
1658856814.17463,176167.1748551,140
1658856814.17463,176167.1748572,154
1658856814.17463,176167.17486,203
1658856814.17463,176167.1748691,245
1658856814.17463,176167.1748814,133
1658856814.17463,176167.1748872,-140
1658856814.17463,176167.1748964,-312
1658856814.17463,176167.174907,-74
1658856814.17463,176167.1749104,298
1658856814.17463,176167.1749141,268
1658856814.17463,176167.1749163,60
1658856814.17463,176167.1749185,72
1658856814.17463,176167.1749206,119
1658856814.17463,176167.1749227,81
1658856814.17463,176167.1749248,81
1658856814.17463,176167.174927,95
1658856814.17463,176167.1749291,74
1658856814.17463,176167.1749312,77
1658856814.17463,176167.1749332,98
1658856814.17463,176167.1749355,91
1658856814.17463,176167.1749456,67
1658856814.17463,176167.1749541,53
1658856814.17463,176167.1749567,53
1658856814.17463,176167.1749591,49
1658856814.17463,176167.1749614,28
1658856814.17463,176167.1749635,4
1658856814.17463,176167.174966,-9
1658856814.17463,176167.1749741,-18
1658856814.17463,176167.174983,-25
1658856814.17463,176167.174988,-28
1658856814.17463,176167.1749941,-25
1658856814.17463,176167.174999,-14
1658856814.17463,176167.1750027,11
1658856814.17463,176167.1750065,44
1658856814.17463,176167.1750121,70
1658856814.17463,176167.1750166,100
1658856814.17463,176167.7126587,133
1658856814.17463,176167.7126739,158
1658856814.17463,176167.7126785,175
1658856814.17463,176167.7126836,182
1658856814.18461,176167.7126874,184
1658856814.18461,176167.7126899,182
1658856814.18461,176167.7126924,170
1658856814.18461,176167.7126948,161
1658856814.18461,176167.712697,172
1658856814.18461,176167.7126993,175
1658856814.18461,176167.7127018,149
1658856814.18461,176167.712704,137
1658856814.18461,176167.7127064,154
1658856814.18461,176167.7127087,158
1658856814.18461,176167.712711,151
1658856814.18461,176167.7127134,154
1658856814.18461,176167.7127158,140
1658856814.18461,176167.7127181,95
1658856814.18461,176167.7127204,63
1658856814.18461,176167.7127227,60
1658856814.18461,176167.7127267,86
1658856814.18461,176167.712737,112
1658856814.18461,176167.7127464,109
1658856814.18461,176167.7127491,116
1658856814.18461,176167.7127512,147
1658856814.18461,176167.7127533,158
1658856814.18461,176167.7127554,149
1658856814.18461,176167.7127575,151
1658856814.7513,176167.7127596,172
1658856814.7513,176167.7127616,219
1658856814.7513,176167.7127649,233
1658856814.7513,176167.7127755,86
1658856814.7513,176167.7127857,-182
1658856814.7513,176167.712792,-261
1658856814.7513,176167.7127962,63
1658856814.7513,176167.712801,348
1658856814.7513,176167.712806,196
1658856814.7513,176167.7128141,37
1658856814.7513,176167.7128188,123
1658856814.7513,176167.7128307,147
1658856814.7513,176167.7128411,84
1658856814.7513,176167.7128506,84
1658856814.7513,176167.7128583,93
1658856814.7513,176167.7128665,79
1658856814.7513,176167.712878,81
1658856814.7513,176167.7128881,91
1658856814.7513,176167.7128954,91
1658856814.7513,176167.7129052,77
1658856814.7513,176167.7129179,51
1658856814.7513,176167.7129242,44
1658856814.7513,176167.712929,42
1658856814.7513,176167.7129324,30
1658856814.7513,176167.7129384,16
1658856814.7513,176167.712945,4
1658856814.7513,176167.7129518,-7
1658856814.7513,176167.712958,-11
1658856814.7513,176167.7129626,-18
1658856814.7513,176167.7129695,-25
1658856814.7513,176167.7129744,-16
1658856814.7513,176167.7129879,21
1658856814.7513,176167.7130003,56
1658856814.7513,176167.7130087,81
1658856814.7513,176167.7130131,114
1658856814.7513,176167.7130203,144
1658856814.7513,176167.7130247,161
1658856814.7513,176167.71303,172
1658856814.7513,176167.7130337,175
1658856814.7513,176167.7130371,165
1658856814.7513,176167.7130402,168
1658856814.7513,176167.7130432,175
1658856814.7513,176167.7130462,175
1658856814.7513,176167.7130493,168
1658856814.7513,176167.7130523,156
1658856814.7513,176168.2959834,156
1658856814.7513,176168.2960055,165
1658856814.7513,176168.2960207,168
1658856814.7513,176168.2960342,170
1658856814.7513,176168.2960436,172
1658856814.76227,176168.2960504,158
1658856814.76227,176168.296059,128
1658856814.76227,176168.296066,93
1658856814.76227,176168.2960723,77
1658856814.76227,176168.2960788,88
1658856814.76227,176168.2960875,107
1658856814.76227,176168.2960956,109
1658856814.76227,176168.2961036,109
1658856814.76227,176168.2961159,133
1658856814.76227,176168.2961256,151
1658856814.76227,176168.2961348,151
1658856814.76227,176168.2961467,151
1658856814.76227,176168.2961567,156
1658856814.76227,176168.2961663,189
1658856814.76227,176168.2961788,231
1658856814.76227,176168.296188,144
1658856814.76227,176168.2961964,-116
1658856814.76227,176168.2962071,-333
1658856814.76227,176168.2962158,-151
1658856814.76227,176168.2962234,266
1658856814.76227,176168.2962303,289
1658856814.76227,176168.2962327,37
1658856814.76227,176168.2962349,39
1658856814.76227,176168.2962372,140
1658856815.29392,176168.2962393,93
1658856815.29392,176168.2962433,60
1658856815.29392,176168.2962532,93
1658856815.29392,176168.2962624,84
1658856815.29392,176168.2962679,53
1658856815.29392,176168.2962704,53
1658856815.29392,176168.2962769,63
1658856815.29392,176168.296288,58
1658856815.29392,176168.2962999,39
1658856815.29392,176168.29631,21
1658856815.29392,176168.2963178,14
1658856815.29392,176168.2963204,0
1658856815.29392,176168.2963226,-23
1658856815.29392,176168.2963248,-32
1658856815.29392,176168.296327,-37
1658856815.29392,176168.2963291,-46
1658856815.29392,176168.2963312,-49
1658856815.29392,176168.2963333,-42
1658856815.29392,176168.2963361,-42
1658856815.29392,176168.2963456,-28
1658856815.29392,176168.2963547,18
1658856815.29392,176168.2963573,53
1658856815.29392,176168.2963595,81
1658856815.29392,176168.2963618,130
1658856815.29392,176168.2963681,161
1658856815.29392,176168.2963794,163
1658856815.29392,176168.2963904,170
1658856815.29392,176168.296404,168
1658856815.29392,176168.2964184,151
1658856815.29392,176168.2964274,151
1658856815.29392,176168.2964307,161
1658856815.29392,176168.2964397,165
1658856815.29392,176168.2964484,168
1658856815.29392,176168.2964613,161
1658856815.29392,176168.2964718,161
1658856815.29392,176168.2964891,172
1658856815.29392,176168.2964994,177
1658856815.29392,176168.2965043,168
1658856815.29392,176168.2965091,156
1658856815.29392,176168.2965143,142
1658856815.29392,176168.2965183,121
1658856815.29392,176168.2965218,93
1658856815.29392,176168.2965251,86
1658856815.29392,176168.2965285,109
1658856815.29392,176168.8326103,133
1658856815.29392,176168.8326316,137
1658856815.29392,176168.832647,151
1658856815.29392,176168.8326666,175
1658856815.29392,176168.83268,177
1658856815.29392,176168.8326931,165
1658856815.30489,176168.8327021,168
1658856815.30489,176168.8327049,193
1658856815.30489,176168.8327072,249
1658856815.30489,176168.8327093,224
1658856815.30489,176168.8327116,-9
1658856815.30489,176168.8327138,-305
1658856815.30489,176168.8327159,-240
1658856815.30489,176168.832718,212
1658856815.30489,176168.8327202,387
1658856815.30489,176168.8327224,137
1658856815.30489,176168.8327245,16
1658856815.30489,176168.8327266,88
1658856815.30489,176168.832729,86
1658856815.30489,176168.8327312,58
1658856815.30489,176168.8327333,81
1658856815.30489,176168.8327354,98
1658856815.30489,176168.8327375,84
1658856815.30489,176168.8327396,65
1658856815.30489,176168.8327417,60
1658856815.30489,176168.8327438,58
1658856815.30489,176168.8327459,42
1658856815.30489,176168.832748,25
1658856815.30489,176168.8327501,14
1658856815.30489,176168.8327524,-2
1658856815.91981,176168.8327546,-21
1658856815.91981,176168.8327566,-37
1658856815.91981,176168.8327587,-46
1658856815.91981,176168.8327606,-49
1658856815.91981,176168.8327626,-53
1658856815.91981,176168.8327646,-56
1658856815.91981,176168.8327666,-44
1658856815.91981,176168.8327729,-18
1658856815.91981,176168.8327806,9
1658856815.91981,176168.8327852,42
1658856815.91981,176168.83279,88
1658856815.91981,176168.8327955,133
1658856815.91981,176168.8328028,163
1658856815.91981,176168.832813,175
1658856815.91981,176168.832819,172
1658856815.91981,176168.8328219,172
1658856815.91981,176168.8328241,182
1658856815.91981,176168.8328263,177
1658856815.91981,176168.8328283,165
1658856815.91981,176168.8328305,170
1658856815.91981,176168.8328326,179
1658856815.91981,176168.8328348,179
1658856815.91981,176168.8328369,175
1658856815.91981,176168.8328391,182
1658856815.91981,176168.8328412,189
1658856815.91981,176168.8328474,186
1658856815.91981,176168.8328584,175
1658856815.91981,176168.8328636,156
1658856815.91981,176168.8328659,133
1658856815.91981,176168.8328681,107
1658856815.91981,176168.8328703,116
1658856815.91981,176168.8328724,142
1658856815.91981,176168.8328782,142
1658856815.91981,176168.8328891,144
1658856815.91981,176168.8328942,177
1658856815.91981,176168.8328966,193
1658856815.91981,176168.8328989,182
1658856815.91981,176168.8329043,175
1658856815.91981,176168.8329154,179
1658856815.91981,176168.8329266,205
1658856815.91981,176168.8329394,266
1658856815.91981,176168.8329495,245
1658856815.91981,176168.8329529,21
1658856815.91981,176169.4657488,-242
1658856815.91981,176169.4657623,-163
1658856815.91981,176169.4657675,242
1658856815.91981,176169.4657719,355
1658856815.91981,176169.4657752,114
1658856815.91981,176169.4657811,65
1658856815.91981,176169.4657928,156
1658856815.93078,176169.4658074,112
1658856815.93078,176169.46582,74
1658856815.93078,176169.4658307,105
1658856815.93078,176169.4658386,95
1658856815.93078,176169.4658446,74
1658856815.93078,176169.4658521,79
1658856815.93078,176169.4658587,63
1658856815.93078,176169.4658661,42
1658856815.93078,176169.4658726,49
1658856815.93078,176169.4658806,51
1658856815.93078,176169.4658902,25
1658856815.93078,176169.4658976,0
1658856815.93078,176169.4659065,-25
1658856815.93078,176169.4659147,-42
1658856815.93078,176169.4659223,-39
1658856815.93078,176169.4659275,-42
1658856815.93078,176169.4659341,-56
1658856815.93078,176169.465939,-58
1658856815.93078,176169.4659454,-56
1658856815.93078,176169.4659502,-42
1658856815.93078,176169.465955,-4
1658856815.93078,176169.4659597,42
1658856815.93078,176169.465968,81
1658856815.93078,176169.4659974,116
1658856816.46188,176169.4660098,142
1658856816.46188,176169.4660178,151
1658856816.46188,176169.4660303,156
1658856816.46188,176169.4660412,163
1658856816.46188,176169.4660539,172
1658856816.46188,176169.4660663,168
1658856816.46188,176169.466078,154
1658856816.46188,176169.4660897,144
1658856816.46188,176169.4661004,140
1658856816.46188,176169.4661054,142
1658856816.46188,176169.4661099,149
1658856816.46188,176169.4661167,158
1658856816.46188,176169.466124,165
1658856816.46188,176169.4661284,161
1658856816.46188,176169.4661343,147
1658856816.46188,176169.466139,133
1658856816.46188,176169.4661521,112
1658856816.46188,176169.466162,91
1658856816.46188,176169.4661696,100
1658856816.46188,176169.4661778,126
1658856816.46188,176169.4661844,121
1658856816.46188,176169.4661892,119
1658856816.46188,176169.4661961,151
1658856816.46188,176169.4662022,179
1658856816.46188,176169.4662091,170
1658856816.46188,176169.4662181,161
1658856816.46188,176169.4662239,168
1658856816.46188,176169.466232,203
1658856816.46188,176169.4662398,252
1658856816.46188,176169.4662458,205
1658856816.46188,176169.4662529,-16
1658856816.46188,176169.4662609,-238
1658856816.46188,176169.4662682,-109
1658856816.46188,176169.4662746,284
1658856816.46188,176169.4662819,343
1658856816.46188,176169.4662867,100
1658856816.46188,176169.4662947,65
1658856816.46188,176169.4663019,144
1658856816.46188,176169.466309,109
1658856816.46188,176169.4663157,79
1658856816.46188,176169.4663241,107
1658856816.46188,176169.4663295,112
1658856816.46188,176170.0023497,102
1658856816.46188,176170.0023666,100
1658856816.46188,176170.0023709,93
1658856816.46188,176170.0023744,79
1658856816.46188,176170.0023776,72
1658856816.46188,176170.0023807,70
1658856816.46188,176170.0023838,56
1658856816.46188,176170.0023869,32
1658856816.47285,176170.00239,16
1658856816.47285,176170.0023932,4
1658856816.47285,176170.0023967,-11
1658856816.47285,176170.0024025,-32
1658856816.47285,176170.0024061,-44
1658856816.47285,176170.0024112,-44
1658856816.47285,176170.0024147,-37
1658856816.47285,176170.0024181,-25
1658856816.47285,176170.0024215,-11
1658856816.47285,176170.0024249,21
1658856816.47285,176170.0024301,72
1658856816.47285,176170.0024358,107
1658856816.47285,176170.0024398,123
1658856816.47285,176170.0024455,135
1658856816.47285,176170.0024505,137
1658856816.47285,176170.002456,133
1658856816.47285,176170.0024605,135
1658856816.47285,176170.0024671,135
1658856816.47285,176170.0024711,119
1658856816.47285,176170.0024761,109
1658856816.47285,176170.00248,114
1658856816.47285,176170.0024838,114
1658856816.47285,176170.0024876,119
1658856816.47285,176170.0024931,128
1658856816.99482,176170.0024982,133
1658856816.99482,176170.002502,133
1658856816.99482,176170.0025057,121
1658856816.99482,176170.0025088,93
1658856816.99482,176170.0025122,65
1658856816.99482,176170.0025158,51
1658856816.99482,176170.0025194,72
1658856816.99482,176170.0025228,100
1658856816.99482,176170.002526,107
1658856816.99482,176170.0025293,107
1658856816.99482,176170.0025324,130
1658856816.99482,176170.0025358,149
1658856816.99482,176170.0025393,147
1658856816.99482,176170.0025429,140
1658856816.99482,176170.0025465,154
1658856816.99482,176170.0025504,203
1658856816.99482,176170.0025542,242
1658856816.99482,176170.0025579,140
1658856816.99482,176170.0025615,-128
1658856816.99482,176170.0025656,-287
1658856816.99482,176170.0025693,-16
1658856816.99482,176170.002573,355
1658856816.99482,176170.0025764,275
1658856816.99482,176170.0025802,44
1658856816.99482,176170.0025855,86
1658856816.99482,176170.0025911,154
1658856816.99482,176170.0025993,102
1658856816.99482,176170.0026061,91
1658856816.99482,176170.0026171,112
1658856816.99482,176170.0026284,95
1658856816.99482,176170.0026384,74
1658856816.99482,176170.0026518,81
1658856816.99482,176170.0026656,84
1658856816.99482,176170.0026797,77
1658856816.99482,176170.0026897,67
1658856816.99482,176170.0026962,49
1658856816.99482,176170.0027056,30
1658856816.99482,176170.0027092,23
1658856816.99482,176170.0027315,7
1658856816.99482,176170.0027445,-21
1658856816.99482,176170.0027517,-25
1658856816.99482,176170.5393075,-18
1658856816.99482,176170.539329,-21
1658856816.99482,176170.5393408,-28
1658856816.99482,176170.5393654,-30
1658856816.99482,176170.5393735,-21
1658856816.99482,176170.539377,9
1658856816.99482,176170.5393911,56
1658856816.99482,176170.5394069,95
1658856816.99482,176170.5394151,126
1658856817.00579,176170.5394191,151
1658856817.00579,176170.5394314,163
1658856817.00579,176170.5394351,168
1658856817.00579,176170.5394385,170
1658856817.00579,176170.5394422,149
1658856817.00579,176170.5394474,133
1658856817.00579,176170.5394509,149
1658856817.00579,176170.5394557,158
1658856817.00579,176170.5394591,144
1658856817.00579,176170.5394639,133
1658856817.00579,176170.5394673,116
1658856817.00579,176170.5394721,109
1658856817.00579,176170.5394754,123
1658856817.00579,176170.5394802,121
1658856817.00579,176170.5394836,105
1658856817.00579,176170.5394886,88
1658856817.00579,176170.539492,58
1658856817.00579,176170.5394955,39
1658856817.00579,176170.5394989,70
1658856817.00579,176170.5395024,100
1658856817.00579,176170.5395058,105
1658856817.00579,176170.5395097,121
1658856817.00579,176170.5395148,144
1658856817.00579,176170.5395183,151
1658856817.58588,176170.5395231,156
1658856817.58588,176170.5395266,154
1658856817.58588,176170.5395675,156
1658856817.58588,176170.5395801,212
1658856817.58588,176170.5395856,231
1658856817.58588,176170.5395895,46
1658856817.58588,176170.5395936,-245
1658856817.58588,176170.5395996,-263
1658856817.58588,176170.5396035,128
1658856817.58588,176170.539609,390
1658856817.58588,176170.5396126,200
1658856817.58588,176170.5396163,46
1658856817.58588,176170.5396213,123
1658856817.58588,176170.539626,140
1658856817.58588,176170.5396313,98
1658856817.58588,176170.5396368,109
1658856817.58588,176170.5396404,116
1658856817.58588,176170.5396456,95
1658856817.58588,176170.5396491,86
1658856817.58588,176170.5396544,79
1658856817.58588,176170.5396657,70
1658856817.58588,176170.5396779,70
1658856817.58588,176170.5396854,70
1658856817.58588,176170.5396921,56
1658856817.58588,176170.5396971,35
1658856817.58588,176170.5397033,4
1658856817.58588,176170.5397088,-14
1658856817.58588,176170.5397149,-18
1658856817.58588,176170.5397192,-32
1658856817.58588,176170.5397249,-42
1658856817.58588,176170.5397303,-35
1658856817.58588,176170.5397411,-28
1658856817.58588,176170.5397476,-14
1658856817.58588,176170.5397502,9
1658856817.58588,176170.5397524,51
1658856817.58588,176170.5397552,102
1658856817.58588,176170.5397662,140
1658856817.58588,176170.5397738,149
1658856817.58588,176170.5397763,154
1658856817.58588,176170.5397791,177
1658856817.58588,176171.123257,186
1658856817.58588,176171.1232741,182
1658856817.58588,176171.1232779,184
1658856817.58588,176171.1232809,184
1658856817.58588,176171.1232838,184
1658856817.58588,176171.1232866,184
1658856817.58588,176171.1232894,158
1658856817.58588,176171.1232924,147
1658856817.58588,176171.1232953,170
1658856817.58588,176171.1232984,161
1658856817.59785,176171.1233018,130
1658856817.59785,176171.1233049,140
1658856817.59785,176171.1233084,147
1658856817.59785,176171.1233115,119
1658856817.59785,176171.1233146,86
1658856817.59785,176171.1233179,70
1658856817.59785,176171.1233212,65
1658856817.59785,176171.1233243,74
1658856817.59785,176171.123328,98
1658856817.59785,176171.1233328,121
1658856817.59785,176171.1233398,137
1658856817.59785,176171.1233632,144
1658856817.59785,176171.1233678,135
1658856817.59785,176171.1233772,119
1658856817.59785,176171.123385,123
1658856817.59785,176171.1233909,182
1658856817.59785,176171.123394,238
1658856817.59785,176171.1233975,142
1658856817.59785,176171.1234026,-128
1658856817.59785,176171.1234067,-331
1658856817.59785,176171.123414,-105
1658856817.59785,176171.1234268,336
1658856817.59785,176171.1234321,352
1658856817.59785,176171.1234369,95
1658856818.21936,176171.1234413,72
1658856818.21936,176171.123445,130
1658856818.21936,176171.1234486,86
1658856818.21936,176171.1234521,67
1658856818.21936,176171.1234573,81
1658856818.21936,176171.1234639,81
1658856818.21936,176171.1234702,84
1658856818.21936,176171.1234767,74
1658856818.21936,176171.1234833,58
1658856818.21936,176171.12349,53
1658856818.21936,176171.1234945,51
1658856818.21936,176171.1234981,39
1658856818.21936,176171.123501,23
1658856818.21936,176171.1235041,-4
1658856818.21936,176171.1235098,-32
1658856818.21936,176171.1235148,-44
1658856818.21936,176171.1235182,-39
1658856818.21936,176171.123522,-30
1658856818.21936,176171.123525,-21
1658856818.21936,176171.1235285,-28
1658856818.21936,176171.1235318,-44
1658856818.21936,176171.1235347,-25
1658856818.21936,176171.1235394,32
1658856818.21936,176171.1235452,77
1658856818.21936,176171.1235504,102
1658856818.21936,176171.1235586,130
1658856818.21936,176171.1235711,165
1658856818.21936,176171.1235799,186
1658856818.21936,176171.1235927,189
1658856818.21936,176171.1236064,184
1658856818.21936,176171.1236166,186
1658856818.21936,176171.1236244,177
1658856818.21936,176171.1236297,156
1658856818.21936,176171.1236433,156
1658856818.21936,176171.1236562,168
1658856818.21936,176171.1236683,170
1658856818.21936,176171.1236765,172
1658856818.21936,176171.1236822,179
1658856818.21936,176171.1236897,172
1658856818.21936,176171.7573741,156
1658856818.21936,176171.7573876,149
1658856818.21936,176171.7573922,130
1658856818.21936,176171.7573977,102
1658856818.21936,176171.7574005,88
1658856818.21936,176171.7574033,93
1658856818.21936,176171.757406,98
1658856818.21936,176171.7574087,86
1658856818.21936,176171.7574113,98
1658856818.21936,176171.757414,130
1658856818.21936,176171.7574167,142
1658856818.22933,176171.7574194,137
1658856818.22933,176171.7574222,144
1658856818.22933,176171.7574249,149
1658856818.22933,176171.7574276,186
1658856818.22933,176171.7574302,238
1658856818.22933,176171.7574329,140
1658856818.22933,176171.7574356,-149
1658856818.22933,176171.7574388,-319
1658856818.22933,176171.7574413,-65
1658856818.22933,176171.7574439,291
1658856818.22933,176171.7574466,217
1658856818.22933,176171.7574492,11
1658856818.22933,176171.757452,72
1658856818.22933,176171.7574546,140
1658856818.22933,176171.7574573,79
1658856818.22933,176171.75746,70
1658856818.22933,176171.7574628,93
1658856818.22933,176171.7574655,74
1658856818.22933,176171.7574679,65
1658856818.22933,176171.7574701,81
1658856818.22933,176171.7574724,70
1658856818.22933,176171.7574748,51
1658856818.22933,176171.7574772,49
1658856818.22933,176171.7574796,37
1658856818.66317,176171.7574819,25
1658856818.66317,176171.7574842,23
1658856818.66317,176171.7574863,4
1658856818.66317,176171.7574885,-23
1658856818.66317,176171.7574915,-28
1658856818.66317,176171.7574936,-25
1658856818.66317,176171.7574958,-39
1658856818.66317,176171.757498,-53
1658856818.66317,176171.7575001,-46
1658856818.66317,176171.7575023,-18
1658856818.66317,176171.7575045,18
1658856818.66317,176171.7575067,67
1658856818.66317,176171.7575089,121
1658856818.66317,176171.757511,161
1658856818.66317,176171.7575131,177
1658856818.66317,176171.7575154,179
1658856818.66317,176171.7575176,172
1658856818.66317,176171.7575198,168
1658856818.66317,176171.757522,182
1658856818.66317,176171.7575243,198
1658856818.66317,176171.7575266,189
1658856818.66317,176171.757529,163
1658856818.66317,176171.7575313,156
1658856818.66317,176171.7575336,170
1658856818.66317,176171.7575359,184
1658856818.66317,176171.7575381,179
1658856818.66317,176171.7575404,172
1658856818.66317,176171.7575427,175
1658856818.66317,176171.7575451,168
1658856818.66317,176171.7575474,137
1658856818.66317,176171.7575496,107
1658856818.66317,176171.7575519,95
1658856818.66317,176171.7575541,119
1658856818.66317,176171.7575583,156
1658856818.66317,176171.7575609,172
1658856818.66317,176171.7575678,170
1658856818.66317,176171.7575801,177
1658856818.66317,176171.7575862,179
1658856818.66317,176172.1981651,168
1658856818.66317,176172.1981779,175
1658856818.66317,176172.1981822,207
1658856818.66317,176172.1981852,249
1658856818.66317,176172.1981881,259
1658856818.66317,176172.1981908,121
1658856818.66317,176172.1981935,-154
1658856818.66317,176172.1981962,-226
1658856818.66317,176172.1981988,161
1658856818.66317,176172.1982013,476
1658856818.66317,176172.1982041,261
1658856818.66317,176172.1982068,28
1658856818.68113,176172.1982093,84
1658856818.68113,176172.1982118,119
1658856818.68113,176172.1982184,88
1658856818.68113,176172.1982305,93
1658856818.68113,176172.1982346,67
1658856818.68113,176172.1982369,32
1658856818.68113,176172.1982391,42
1658856818.68113,176172.1982412,60
1658856818.68113,176172.1982434,58
1658856818.68113,176172.1982503,44
1658856818.68113,176172.1982616,21
1658856818.68113,176172.1982646,2
1658856818.68113,176172.1982669,-11
1658856818.68113,176172.1982691,-32
1658856818.68113,176172.1982711,-44
1658856818.68113,176172.1982733,-56
1658856818.68113,176172.1982754,-81
1658856818.68113,176172.1982775,-91
1658856818.68113,176172.1982796,-79
1658856818.68113,176172.1982817,-72
1658856818.68113,176172.1982839,-67
1658856818.68113,176172.198286,-51
1658856818.68113,176172.1982881,-14
1658856818.68113,176172.1982902,46
1658856819.3008,176172.1982923,98
1658856819.3008,176172.1982945,128
1658856819.3008,176172.1982964,151
1658856819.3008,176172.1982984,158
1658856819.3008,176172.1983004,154
1658856819.3008,176172.1983023,158
1658856819.3008,176172.1983043,168
1658856819.3008,176172.1983062,161
1658856819.3008,176172.1983082,149
1658856819.3008,176172.1983102,161
1658856819.3008,176172.1983122,170
1658856819.3008,176172.1983141,158
1658856819.3008,176172.1983161,147
1658856819.3008,176172.1983194,144
1658856819.3008,176172.1983277,151
1658856819.3008,176172.1983331,147
1658856819.3008,176172.1983374,119
1658856819.3008,176172.1983424,105
1658856819.3008,176172.1983479,107
1658856819.3008,176172.1983532,98
1658856819.3008,176172.1983629,100
1658856819.3008,176172.1983689,116
1658856819.3008,176172.1983712,135
1658856819.3008,176172.1983733,156
1658856819.3008,176172.198382,172
1658856819.3008,176172.1983923,172
1658856819.3008,176172.1983978,172
1658856819.3008,176172.1984124,170
1658856819.3008,176172.1984266,198
1658856819.3008,176172.1984324,245
1658856819.3008,176172.1984389,177
1658856819.3008,176172.1984456,-56
1658856819.3008,176172.1984502,-238
1658856819.3008,176172.1984545,0
1658856819.3008,176172.1984583,467
1658856819.3008,176172.1984637,469
1658856819.3008,176172.1984673,154
1658856819.3008,176172.83135,81
1658856819.3008,176172.8313671,128
1658856819.3008,176172.8313752,86
1658856819.3008,176172.8313801,67
1658856819.3008,176172.8313944,91
1658856819.3008,176172.8314664,88
1658856819.3008,176172.831474,67
1658856819.3008,176172.8314769,44
1658856819.3008,176172.8314792,25
1658856819.3008,176172.8314814,21
1658856819.3008,176172.8314834,11
1658856819.3008,176172.831486,4
1658856819.3008,176172.8314949,-4
1658856819.31377,176172.8315072,-30
1658856819.31377,176172.8315132,-65
1658856819.31377,176172.8315158,-84
1658856819.31377,176172.8315241,-81
1658856819.31377,176172.8315347,-91
1658856819.31377,176172.8315437,-116
1658856819.31377,176172.8315531,-121
1658856819.31377,176172.8315644,-100
1658856819.31377,176172.8315737,-81
1658856819.31377,176172.8315805,-56
1658856819.31377,176172.8315853,0
1658856819.31377,176172.8315919,56
1658856819.31377,176172.8315986,79
1658856819.31377,176172.8316057,105
1658856819.31377,176172.8316112,130
1658856819.31377,176172.8316181,133
1658856819.31377,176172.8316227,130
1658856819.31377,176172.8316305,140
1658856819.31377,176172.8316417,140
1658856819.31377,176172.8316498,123
1658856819.31377,176172.8316582,116
1658856819.31377,176172.8316673,123
1658856819.31377,176172.8316743,135
1658856819.31377,176172.8316797,137
1658856819.826,176172.8316877,121
1658856819.826,176172.8316948,116
1658856819.826,176172.8317009,130
1658856819.826,176172.8317107,128
1658856819.826,176172.8317166,114
1658856819.826,176172.8317209,105
1658856819.826,176172.8317262,86
1658856819.826,176172.8317333,60
1658856819.826,176172.8317431,46
1658856819.826,176172.8317562,44
1658856819.826,176172.8317694,53
1658856819.826,176172.8317826,70
1658856819.826,176172.8317965,84
1658856819.826,176172.8318094,93
1658856819.826,176172.8318225,102
1658856819.826,176172.8318355,116
1658856819.826,176172.8318487,119
1658856819.826,176172.831862,147
1658856819.826,176172.8318751,207
1658856819.826,176172.8318885,147
1658856819.826,176172.8319014,-98
1658856819.826,176172.8319146,-324
1658856819.826,176172.8319268,-177
1658856819.826,176172.8319369,235
1658856819.826,176172.8319486,291
1658856819.826,176172.8319617,53
1658856819.826,176172.8319748,32
1658856819.826,176172.8319887,109
1658856819.826,176172.8320007,63
1658856819.826,176172.8320186,46
1658856819.826,176172.8321303,86
1658856819.826,176172.8321376,60
1658856819.826,176172.8321416,25
1658856819.826,176172.8321455,39
1658856819.826,176172.8321523,49
1658856819.826,176172.8321569,32
1658856819.826,176173.3657193,28
1658856819.826,176173.3657391,16
1658856819.826,176173.3657541,-11
1658856819.826,176173.3657689,-30
1658856819.826,176173.3657822,-39
1658856819.826,176173.3657954,-53
1658856819.826,176173.3658087,-72
1658856819.826,176173.3658173,-88
1658856819.826,176173.3658201,-98
1658856819.826,176173.3658224,-95
1658856819.826,176173.3658246,-91
1658856819.826,176173.3658267,-79
1658856819.826,176173.3658289,-44
1658856819.826,176173.365831,-4
1658856819.83697,176173.3658333,35
1658856819.83697,176173.3658355,74
1658856819.83697,176173.3658376,102
1658856819.83697,176173.3658398,121
1658856819.83697,176173.365842,140
1658856819.83697,176173.3658442,142
1658856819.83697,176173.3658464,135
1658856819.83697,176173.3658485,140
1658856819.83697,176173.3658506,135
1658856819.83697,176173.3658527,109
1658856819.83697,176173.3658548,102
1658856819.83697,176173.3658569,116
1658856819.83697,176173.365859,121
1658856819.83697,176173.3658612,119
1658856819.83697,176173.3658634,114
1658856819.83697,176173.3658655,105
1658856819.83697,176173.3658676,109
1658856819.83697,176173.3658697,112
1658856819.83697,176173.3658719,91
1658856819.83697,176173.3658741,72
1658856819.83697,176173.3658804,63
1658856819.83697,176173.3658909,51
1658856819.83697,176173.365896,56
1658856819.83697,176173.3659023,74
1658856820.36536,176173.365908,93
1658856820.36536,176173.3659125,119
1658856820.36536,176173.3659168,137
1658856820.36536,176173.365921,128
1658856820.36536,176173.3659254,130
1658856820.36536,176173.3659295,156
1658856820.36536,176173.3659338,200
1658856820.36536,176173.3659381,228
1658856820.36536,176173.3659423,135
1658856820.36536,176173.3659464,-86
1658856820.36536,176173.3659516,-163
1658856820.36536,176173.3659552,158
1658856820.36536,176173.3659616,471
1658856820.36536,176173.3659747,333
1658856820.36536,176173.3659881,121
1658856820.36536,176173.3660014,133
1658856820.36536,176173.3660099,147
1658856820.36536,176173.3660125,109
1658856820.36536,176173.3660148,116
1658856820.36536,176173.366017,128
1658856820.36536,176173.3660194,119
1658856820.36536,176173.3660222,123
1658856820.36536,176173.3660311,128
1658856820.36536,176173.3660432,119
1658856820.36536,176173.3660507,93
1658856820.36536,176173.3660596,74
1658856820.36536,176173.3660719,70
1658856820.36536,176173.3660761,65
1658856820.36536,176173.3660791,49
1658856820.36536,176173.3660895,30
1658856820.36536,176173.3660977,11
1658856820.36536,176173.3661004,-4
1658856820.36536,176173.3661027,-2
1658856820.36536,176173.3661048,9
1658856820.36536,176173.3661128,4
1658856820.36536,176173.9020283,0
1658856820.36536,176173.9020502,21
1658856820.36536,176173.9020645,58
1658856820.36536,176173.9020749,102
1658856820.36536,176173.9020841,158
1658856820.36536,176173.9020914,198
1658856820.36536,176173.9020969,207
1658856820.36536,176173.9021059,217
1658856820.36536,176173.9021125,235
1658856820.36536,176173.9021206,240
1658856820.36536,176173.902127,228
1658856820.36536,176173.9021352,233
1658856820.36536,176173.9021428,231
1658856820.36536,176173.9021506,203
1658856820.36536,176173.9021569,191
1658856820.38032,176173.9021651,203
1658856820.38032,176173.902172,198
1658856820.38032,176173.9021802,186
1658856820.38032,176173.9021869,184
1658856820.38032,176173.9021952,175
1658856820.38032,176173.9022015,170
1658856820.38032,176173.9022097,161
1658856820.38032,176173.902216,135
1658856820.38032,176173.9022241,123
1658856820.38032,176173.9022305,126
1658856820.38032,176173.9022391,128
1658856820.38032,176173.9022477,135
1658856820.38032,176173.9022528,135
1658856820.38032,176173.9022617,128
1658856820.38032,176173.902268,137
1658856820.38032,176173.9022766,156
1658856820.38032,176173.9022824,165
1658856820.38032,176173.9022909,165
1658856820.38032,176173.9022976,184
1658856820.38032,176173.9023055,219
1658856820.38032,176173.9023123,170
1658856820.38032,176173.9023199,-30
1658856820.38032,176173.9023265,-217
1658856820.38032,176173.9023355,-21
1658856821.00424,176173.9023419,441
1658856821.00424,176173.9023481,483
1658856821.00424,176173.9023546,189
1658856821.00424,176173.9023601,116
1658856821.00424,176173.9023663,161
1658856821.00424,176173.9023718,116
1658856821.00424,176173.9023764,100
1658856821.00424,176173.902383,130
1658856821.00424,176173.90239,128
1658856821.00424,176173.9023969,105
1658856821.00424,176173.9024057,98
1658856821.00424,176173.9024103,102
1658856821.00424,176173.9024147,95
1658856821.00424,176173.9024233,79
1658856821.00424,176173.9024293,67
1658856821.00424,176173.9024433,51
1658856821.00424,176173.9024552,35
1658856821.00424,176173.9024696,23
1658856821.00424,176173.9024826,16
1658856821.00424,176173.9024958,4
1658856821.00424,176173.9025089,-2
1658856821.00424,176173.9025222,-11
1658856821.00424,176173.9025351,-16
1658856821.00424,176173.9025482,-2
1658856821.00424,176173.9025594,11
1658856821.00424,176173.9026046,25
1658856821.00424,176173.9026152,70
1658856821.00424,176173.9026203,137
1658856821.00424,176173.9026263,172
1658856821.00424,176173.9026298,198
1658856821.00424,176173.9026334,231
1658856821.00424,176173.9026392,231
1658856821.00424,176173.902643,217
1658856821.00424,176173.9026511,217
1658856821.00424,176174.536333,217
1658856821.00424,176174.5363553,212
1658856821.00424,176174.536369,207
1658856821.00424,176174.5363814,200
1658856821.00424,176174.5363933,200
1658856821.00424,176174.5364063,205
1658856821.00424,176174.5364197,200
1658856821.00424,176174.5364331,193
1658856821.00424,176174.5364463,193
1658856821.00424,176174.5364602,189
1658856821.00424,176174.5364734,163
1658856821.00424,176174.5364787,137
1658856821.00424,176174.5364838,119
1658856821.00424,176174.5364936,100
1658856821.00424,176174.5365029,105
1658856821.00424,176174.5365103,112
1658856821.0192,176174.5365171,95
1658856821.0192,176174.5365207,91
1658856821.0192,176174.5365284,123
1658856821.0192,176174.5365337,144
1658856821.0192,176174.5365377,123
1658856821.0192,176174.5365444,93
1658856821.0192,176174.5365514,102
1658856821.0192,176174.5365624,168
1658856821.0192,176174.536573,214
1658856821.0192,176174.5365797,102
1658856821.0192,176174.5365838,-156
1658856821.0192,176174.5365887,-242
1658856821.0192,176174.5365945,84
1658856821.0192,176174.5365992,378
1658856821.0192,176174.536603,252
1658856821.0192,176174.5366068,58
1658856821.0192,176174.5366112,30
1658856821.0192,176174.5366152,25
1658856821.0192,176174.5366225,25
1658856821.0192,176174.5366271,51
1658856821.0192,176174.536632,56
1658856821.0192,176174.536637,56
1658856821.0192,176174.5366414,93
1658856821.0192,176174.5366464,114
1658856821.47812,176174.5366516,65
1658856821.47812,176174.5366557,23
1658856821.47812,176174.5366604,21
1658856821.47812,176174.5366646,0
1658856821.47812,176174.5366694,-16
1658856821.47812,176174.5366762,-7
1658856821.47812,176174.5366807,-11
1658856821.47812,176174.5366851,-37
1658856821.47812,176174.5366897,-53
1658856821.47812,176174.5366942,-46
1658856821.47812,176174.5366984,-53
1658856821.47812,176174.5367025,-77
1658856821.47812,176174.5367072,-63
1658856821.47812,176174.5367127,-28
1658856821.47812,176174.5367189,-7
1658856821.47812,176174.5367235,25
1658856821.47812,176174.5367278,77
1658856821.47812,176174.5367321,98
1658856821.47812,176174.5367369,105
1658856821.47812,176174.5367409,126
1658856821.47812,176174.5367457,142
1658856821.47812,176174.5367523,154
1658856821.47812,176174.536757,165
1658856821.47812,176174.5367633,144
1658856821.47812,176174.5367732,114
1658856821.47812,176174.5367812,116
1658856821.47812,176174.5367875,128
1658856821.47812,176174.5367931,133
1658856821.47812,176174.5367988,154
1658856821.47812,176174.5368057,172
1658856821.47812,176174.5368095,170
1658856821.47812,176174.5368137,163
1658856821.47812,176174.5368221,168
1658856821.47812,176175.0238833,172
1658856821.47812,176175.0239021,144
1658856821.47812,176175.0239075,109
1658856821.47812,176175.0239154,119
1658856821.47812,176175.0239196,133
1658856821.47812,176175.0239291,126
1658856821.47812,176175.0239435,123

1658856821.47812,176175.0239571,137
1658856821.47812,176175.0239702,151
1658856821.47812,176175.0239838,154
1658856821.47812,176175.0239971,158
1658856821.47812,176175.0240056,179
1658856821.47812,176175.0240163,224
1658856821.47812,176175.0240342,233
1658856821.47812,176175.0240481,98
1658856821.47812,176175.0240562,-177
1658856821.47812,176175.0240615,-324
1658856821.4871,176175.0240682,-42
1658856821.4871,176175.0240737,343
1658856821.4871,176175.0240804,282
1658856821.4871,176175.0240854,67
1658856821.4871,176175.0240927,109
1658856821.4871,176175.0240993,177
1658856821.4871,176175.0241043,126
1658856821.4871,176175.0241105,105
1658856821.4871,176175.0241153,109
1658856821.4871,176175.0241201,77
1658856821.4871,176175.0241262,67
1658856821.4871,176175.0241307,79
1658856821.4871,176175.0241373,65
1658856821.4871,176175.0241417,60
1658856821.4871,176175.0241459,70
1658856821.4871,176175.0241504,70
1658856821.4871,176175.0241561,51
1658856821.4871,176175.0241604,25
1658856821.4871,176175.0241671,2
1658856821.4871,176175.0241714,-11
1658856821.4871,176175.0241758,-21
1658856821.4871,176175.0241801,-32
1658856821.4871,176175.0241861,-37
1658856821.4871,176175.0241904,-25
1658856822.07432,176175.024197,-16
1658856822.07432,176175.0242015,0
1658856822.07432,176175.024206,39
1658856822.07432,176175.0242104,84
1658856822.07432,176175.0242147,128
1658856822.07432,176175.0242188,175
1658856822.07432,176175.024223,196
1658856822.07432,176175.0242279,179
1658856822.07432,176175.024232,177
1658856822.07432,176175.0242367,196
1658856822.07432,176175.0242413,200
1658856822.07432,176175.024246,198
1658856822.07432,176175.0242527,205
1658856822.07432,176175.0242591,207
1658856822.07432,176175.0242639,205
1658856822.07432,176175.0242703,200
1658856822.07432,176175.0242749,200
1658856822.07432,176175.0242811,196
1658856822.07432,176175.0242853,191
1658856822.07432,176175.0242914,203
1658856822.07432,176175.0242981,219
1658856822.07432,176175.0243029,210
1658856822.07432,176175.0243072,182
1658856822.07432,176175.024313,161
1658856822.07432,176175.0243176,154
1658856822.07432,176175.0243239,156
1658856822.07432,176175.024329,156
1658856822.07432,176175.0243332,161
1658856822.07432,176175.0243378,184
1658856822.07432,176175.0243444,212
1658856822.07432,176175.0243486,214
1658856822.07432,176175.0243528,191
1658856822.07432,176175.6093048,182
1658856822.07432,176175.6093258,219
1658856822.07432,176175.6093405,275
1658856822.07432,176175.6093536,252
1658856822.07432,176175.609365,60
1658856822.07432,176175.6093767,-268
1658856822.07432,176175.609382,-355
1658856822.07432,176175.6093849,95
1658856822.07432,176175.6093871,474
1658856822.07432,176175.6093892,287
1658856822.07432,176175.6093914,67
1658856822.07432,176175.609394,126
1658856822.07432,176175.6094043,142
1658856822.07432,176175.6094123,72
1658856822.07432,176175.6094148,86
1658856822.07432,176175.6094169,98
1658856822.07432,176175.609419,49
1658856822.07432,176175.6094211,49
1658856822.09128,176175.6094234,72
1658856822.09128,176175.6094255,46
1658856822.09128,176175.6094276,32
1658856822.09128,176175.6094297,39
1658856822.09128,176175.6094319,14
1658856822.09128,176175.609434,-25
1658856822.09128,176175.6094361,-32
1658856822.09128,176175.6094382,-42
1658856822.09128,176175.6094403,-70
1658856822.09128,176175.6094424,-81
1658856822.09128,176175.6094446,-86
1658856822.09128,176175.6094466,-95
1658856822.09128,176175.6094488,-91
1658856822.09128,176175.6094509,-67
1658856822.09128,176175.6094531,-37
1658856822.09128,176175.6094552,-7
1658856822.09128,176175.6094628,37
1658856822.09128,176175.6094768,88
1658856822.09128,176175.6094896,123
1658856822.09128,176175.6095026,135
1658856822.09128,176175.6095157,142
1658856822.09128,176175.609531,149
1658856822.09128,176175.6095429,154
1658856822.09128,176175.6095506,156
1658856822.6577,176175.609558,161
1658856822.6577,176175.6095653,154
1658856822.6577,176175.6095725,130
1658856822.6577,176175.6095796,123
1658856822.6577,176175.6095851,135
1658856822.6577,176175.6095908,133
1658856822.6577,176175.6095951,130
1658856822.6577,176175.6096076,140
1658856822.6577,176175.6096182,144
1658856822.6577,176175.6096218,133
1658856822.6577,176175.6096333,121
1658856822.6577,176175.6096418,123
1658856822.6577,176175.6096442,102
1658856822.6577,176175.6096465,84
1658856822.6577,176175.6096488,95
1658856822.6577,176175.6096509,105
1658856822.6577,176175.6096535,105
1658856822.6577,176175.6096556,128
1658856822.6577,176175.6096578,130
1658856822.6577,176175.6096599,95
1658856822.6577,176175.609662,105
1658856822.6577,176175.6096641,144
1658856822.6577,176175.6096661,158
1658856822.6577,176175.609669,196
1658856822.6577,176175.6096711,161
1658856822.6577,176175.6096732,-116
1658856822.6577,176175.6096755,-455
1658856822.6577,176175.6096777,-345
1658856822.6577,176175.6096798,186
1658856822.6577,176175.6096819,378
1658856822.6577,176175.609684,137
1658856822.6577,176176.1941254,23
1658856822.6577,176176.1941487,53
1658856822.6577,176176.1941585,35
1658856822.6577,176176.194165,21
1658856822.6577,176176.1941738,39
1658856822.6577,176176.1941809,46
1658856822.6577,176176.194193,37
1658856822.6577,176176.1941998,25
1658856822.6577,176176.1942063,4
1658856822.6577,176176.194215,-28
1658856822.6577,176176.1942223,-28
1658856822.6577,176176.1942287,-16
1658856822.6577,176176.1942336,-35
1658856822.6577,176176.1942373,-60
1658856822.6577,176176.194246,-84
1658856822.6577,176176.1942522,-114
1658856822.6577,176176.1942634,-135
1658856822.6577,176176.1942669,-135
1658856822.6577,176176.1942708,-121
1658856822.66967,176176.1942729,-123
1658856822.66967,176176.1942751,-133
1658856822.66967,176176.1942774,-95
1658856822.66967,176176.1942858,-44
1658856822.66967,176176.1942963,-9
1658856822.66967,176176.1943003,32
1658856822.66967,176176.1943024,88
1658856822.66967,176176.1943046,119
1658856822.66967,176176.1943067,114
1658856822.66967,176176.1943088,123
1658856822.66967,176176.1943118,161
1658856822.66967,176176.1943249,172
1658856822.66967,176176.1943307,149
1658856822.66967,176176.1943336,135
1658856822.66967,176176.1943357,144
1658856822.66967,176176.1943411,154
1658856822.66967,176176.1943522,140
1658856822.66967,176176.1943576,133
1658856822.66967,176176.1943606,163
1658856822.66967,176176.1943627,177
1658856822.66967,176176.1943689,156
1658856822.66967,176176.19438,151
1658856822.66967,176176.1943849,184
1658856822.66967,176176.1943874,200
1658856823.23574,176176.1943896,158
1658856823.23574,176176.1943918,112
1658856823.23574,176176.1943939,121
1658856823.23574,176176.1943966,144
1658856823.23574,176176.1944072,128
1658856823.23574,176176.1944134,121
1658856823.23574,176176.1944236,177
1658856823.23574,176176.1944359,217
1658856823.23574,176176.1944434,163
1658856823.23574,176176.1944459,123
1658856823.23574,176176.1944482,186
1658856823.23574,176176.1944504,254
1658856823.23574,176176.1944533,242
1658856823.23574,176176.1944641,42
1658856823.23574,176176.194477,-380
1658856823.23574,176176.1944912,-513
1658856823.23574,176176.1945042,74
1658856823.23574,176176.1945178,595
1658856823.23574,176176.1945308,355
1658856823.23574,176176.194544,39
1658856823.23574,176176.194557,112
1658856823.23574,176176.19457,128
1658856823.23574,176176.1945832,46
1658856823.23574,176176.194596,84
1658856823.23574,176176.1946092,86
1658856823.23574,176176.1946222,23
1658856823.23574,176176.1946352,39
1658856823.23574,176176.1946482,49
1658856823.23574,176176.1946613,32
1658856823.23574,176176.1946745,56
1658856823.23574,176176.7798237,44
1658856823.23574,176176.7798371,2
1658856823.23574,176176.7798418,-9
1658856823.23574,176176.7798466,-28
1658856823.23574,176176.7798487,-63
1658856823.23574,176176.7798572,-70
1658856823.23574,176176.7798593,-63
1658856823.23574,176176.7798614,-63
1658856823.23574,176176.7798636,-67
1658856823.23574,176176.7798657,-81
1658856823.23574,176176.7798677,-72
1658856823.23574,176176.7798698,-44
1658856823.23574,176176.779872,-2
1658856823.23574,176176.7798741,70
1658856823.23574,176176.7798769,133
1658856823.23574,176176.7798858,137
1658856823.23574,176176.7798964,135
1658856823.23574,176176.7798998,170
1658856823.23574,176176.779904,184
1658856823.23574,176176.7799069,158
1658856823.24648,176176.77992,165
1658856823.24648,176176.7799349,182
1658856823.24648,176176.7799418,161
1658856823.24648,176176.7799472,135
1658856823.24648,176176.7799513,128
1658856823.24648,176176.779958,109
1658856823.24648,176176.7799619,114
1658856823.24648,176176.7799676,163
1658856823.24648,176176.7799715,172
1658856823.24648,176176.7799754,135
1658856823.24648,176176.7799826,130
1658856823.24648,176176.7799872,140
1658856823.24648,176176.7799905,137
1658856823.24648,176176.7799963,137
1658856823.24648,176176.7800001,133
1658856823.24648,176176.7800042,119
1658856823.24648,176176.7800106,93
1658856823.24648,176176.7800162,102
1658856823.24648,176176.780023,156
1658856823.24648,176176.7800266,170
1658856823.24648,176176.7800336,137
1658856823.24648,176176.780037,121
1658856823.24648,176176.7800425,137
1658856823.24648,176176.7800503,200
1658856823.72408,176176.7800587,247
1658856823.72408,176176.7800694,84
1658856823.72408,176176.7800763,-319
1658856823.72408,176176.7800855,-518
1658856823.72408,176176.7800916,-28
1658856823.72408,176176.7800964,637
1658856823.72408,176176.7801022,565
1658856823.72408,176176.7801073,147
1658856823.72408,176176.7801127,88
1658856823.72408,176176.7801175,107
1658856823.72408,176176.7801233,32
1658856823.72408,176176.7801325,67
1658856823.72408,176176.780141,119
1658856823.72408,176176.7801484,60
1658856823.72408,176176.7801532,7
1658856823.72408,176176.7801617,21
1658856823.72408,176176.780173,44
1658856823.72408,176176.7801782,51
1658856823.72408,176176.7801823,37
1658856823.72408,176176.7801862,23
1658856823.72408,176176.7801904,9
1658856823.72408,176176.780195,-23
1658856823.72408,176176.780199,-56
1658856823.72408,176176.7802044,-81
1658856823.72408,176176.7802084,-81
1658856823.72408,176176.7802122,-60
1658856823.72408,176176.7802166,-56
1658856823.72408,176176.7802217,-63
1658856823.72408,176176.7802263,-51
1658856823.72408,176177.2672017,-16
1658856823.72408,176177.2672202,35
1658856823.72408,176177.2672302,74
1658856823.72408,176177.2672364,107
1658856823.72408,176177.2672432,151
1658856823.72408,176177.2672483,184
1658856823.72408,176177.2672553,200
1658856823.72408,176177.267263,217
1658856823.72408,176177.2672728,224
1658856823.72408,176177.2672839,214
1658856823.72408,176177.2672917,191
1658856823.72408,176177.2672954,177
1658856823.72408,176177.2672991,182
1658856823.72408,176177.2673028,184
1658856823.72408,176177.2673067,186
1658856823.72408,176177.2673119,177
1658856823.72408,176177.2673156,163
1658856823.72408,176177.2673191,168
1658856823.72408,176177.267323,175
1658856823.72408,176177.2673488,172
1658856823.72408,176177.2673625,177
1658856823.73605,176177.2673687,189
1658856823.73605,176177.2673734,193
1658856823.73605,176177.2673778,205
1658856823.73605,176177.267382,196
1658856823.73605,176177.2673861,163
1658856823.73605,176177.2673901,163
1658856823.73605,176177.2673942,191
1658856823.73605,176177.2673982,196
1658856823.73605,176177.2674496,189
1658856823.73605,176177.2674588,191
1658856823.73605,176177.2674629,193
1658856823.73605,176177.2674667,221
1658856823.73605,176177.2674705,301
1658856823.73605,176177.2674743,270
1658856823.73605,176177.2674782,-23
1658856823.73605,176177.2674823,-385
1658856823.73605,176177.267486,-282
1658856823.73605,176177.2674898,432
1658856823.73605,176177.2674936,787
1658856823.73605,176177.2674972,350
1658856823.73605,176177.2675009,65
1658856823.73605,176177.2675048,182
1658856823.73605,176177.2675088,172
1658856823.73605,176177.2675129,86
1658856824.31153,176177.267517,126
1658856824.31153,176177.2675212,154
1658856824.31153,176177.2675253,123
1658856824.31153,176177.267529,116
1658856824.31153,176177.2675328,114
1658856824.31153,176177.2675375,93
1658856824.31153,176177.2675416,84
1658856824.31153,176177.2675457,79
1658856824.31153,176177.2675496,72
1658856824.31153,176177.2675533,60
1658856824.31153,176177.267557,30
1658856824.31153,176177.2675614,4
1658856824.31153,176177.2675658,0
1658856824.31153,176177.2675698,-4
1658856824.31153,176177.2675738,-9
1658856824.31153,176177.2675779,-7
1658856824.31153,176177.2675822,-9
1658856824.31153,176177.2675862,0
1658856824.31153,176177.26759,37
1658856824.31153,176177.2675937,86
1658856824.31153,176177.2675987,128
1658856824.31153,176177.2676023,161
1658856824.31153,176177.2676061,189
1658856824.31153,176177.2676095,221
1658856824.31153,176177.2676131,240
1658856824.31153,176177.2676174,224
1658856824.31153,176177.2676243,203
1658856824.31153,176177.267636,203
1658856824.31153,176177.85091,198
1658856824.31153,176177.8509553,193
1658856824.31153,176177.8509697,191
1658856824.31153,176177.8509767,177
1658856824.31153,176177.8510033,170
1658856824.31153,176177.8510157,184
1658856824.31153,176177.8510206,189
1658856824.31153,176177.8510427,182
1658856824.31153,176177.8510506,184
1658856824.31153,176177.8510545,186
1658856824.31153,176177.8510577,175
1658856824.31153,176177.851061,165
1658856824.31153,176177.8510644,156
1658856824.31153,176177.8510685,142
1658856824.31153,176177.8510756,135
1658856824.31153,176177.8510825,114
1658856824.31153,176177.8510895,98
1658856824.31153,176177.8510963,100
1658856824.31153,176177.8511583,100
1658856824.31153,176177.8511874,102
1658856824.31153,176177.8511955,119
1658856824.31153,176177.8511996,116
1658856824.32349,176177.8512062,100
1658856824.32349,176177.8512101,109
1658856824.32349,176177.8512135,177
