Time,TimeLsl,Value
1658855657.77334,175009.7910766,170
1658855657.77334,175009.7910961,137
1658855657.77334,175009.7911032,116
1658855657.77334,175009.7911097,123
1658855657.77334,175009.7911155,133
1658855657.77334,175009.7911193,114
1658855657.77334,175009.7911225,116
1658855657.77334,175009.7911258,154
1658855657.77334,175009.7911298,161
1658855657.77334,175009.7911345,140
1658855657.77334,175009.7911379,137
1658855657.77334,175009.7911408,158
1658855657.77334,175009.7911435,203
1658855657.77334,175009.7911462,177
1658855657.77334,175009.791149,-30
1658855657.77334,175009.7911517,-294
1658855657.77334,175009.7911545,-219
1658855657.77334,175009.7911572,217
1658855657.77334,175009.79116,378
1658855657.77334,175009.7911626,121
1658855657.77334,175009.7911653,18
1658855657.77334,175009.7911679,114
1658855657.77334,175009.7911705,102
1658855657.77334,175009.7911732,51
1658855657.77334,175009.7911758,65
1658855657.77334,175009.7911785,70
1658855657.77334,175009.7911811,67
1658855657.77334,175009.7911837,79
1658855657.77334,175009.7911864,72
1658855657.77334,175009.791189,51
1658855657.77334,175009.7911917,32
1658855657.77334,175009.7911943,21
1658855657.77334,175009.7911973,14
1658855657.77334,175009.7912,0
1658855657.77334,175009.7912027,-14
1658855657.77334,175009.7912054,-28
1658855657.77334,175009.791208,-39
1658855657.77334,175009.7912108,-32
1658855657.77334,175009.7912136,-35
1658855657.77334,175009.7912164,-49
1658855657.77334,175009.7912197,-49
1658855657.77334,175009.7912246,-32
1658855657.77334,175009.791228,9
1658855657.77334,175009.7912317,65
1658855657.77334,175009.7912348,102
1658855657.77334,175009.7912381,121
1658855657.77334,175009.7912427,130
1658855657.77334,175009.7912466,133
1658855657.77334,175009.7912535,147
1658855657.77334,175009.7912566,165
1658855657.9021,175009.7912596,165
1658855657.9021,175009.7912626,151
1658855657.9021,175009.7912656,151
1658855657.9021,175009.7912687,151
1658855657.9021,175009.7912718,142
1658855657.9021,175009.7912748,126
1658855657.9021,175009.7912778,123
1658855657.9021,175009.7912808,133
1658855657.9021,175009.7912837,137
1658855657.9021,175009.7912866,140
1658855657.9021,175009.7912897,149
1658855657.9021,175009.7912928,156
1658855657.9021,175009.7912958,142
1658855657.9021,175009.7912989,100
1658855657.9021,175009.7913018,77
1658855657.9021,175009.7913048,93
1658855657.9021,175009.7913079,109
1658855657.9021,175009.791311,109
1658855657.9021,175009.7913205,123
1658855657.9021,175009.7913292,140
1658855657.9021,175009.7913394,144
1658855657.9021,175009.7913491,142
1658855657.9021,175009.7913548,133
1658855657.9021,175010.3258304,151
1658855657.9021,175010.3258472,217
1658855657.9021,175010.3258551,247
1658855657.9021,175010.3258596,109
1658855657.9021,175010.3258635,-170
1658855657.9021,175010.3258671,-273
1658855657.9021,175010.3258708,60
1658855657.9021,175010.3258745,385
1658855657.9021,175010.3258795,240
1658855657.9021,175010.3258854,25
1658855657.9021,175010.3258907,72
1658855657.9021,175010.3258947,114
1658855657.9021,175010.3258989,65
1658855657.9021,175010.3259038,72
1658855657.9021,175010.3259075,93
1658855657.9021,175010.3259135,60
1658855657.9021,175010.3259191,37
1658855657.9021,175010.3259224,39
1658855657.9021,175010.3259261,39
1658855657.9021,175010.3259295,32
1658855657.9021,175010.3259332,28
1658855657.9021,175010.3259389,16
1658855657.9021,175010.3259425,-14
1658855657.9021,175010.3259461,-28
1658855657.9021,175010.3259496,-23
1658855657.9021,175010.3259531,-35
1658855657.9021,175010.3259566,-63
1658855657.96644,175010.3259602,-72
1658855657.96644,175010.3259637,-70
1658855657.96644,175010.3259673,-70
1658855657.96644,175010.3259707,-65
1658855657.96644,175010.3259742,-44
1658855657.96644,175010.3259776,-11
1658855657.96644,175010.325981,30
1658855657.96644,175010.3259846,70
1658855657.96644,175010.3259879,93
1658855657.96644,175010.3259914,114
1658855657.96644,175010.3259949,140
1658855657.96644,175010.3259986,144
1658855657.96644,175010.3260022,137
1658855657.96644,175010.3260057,140
1658855657.96644,175010.3260093,144
1658855657.96644,175010.3260142,140
1658855657.96644,175010.3260215,135
1658855657.96644,175010.3260294,128
1658855657.96644,175010.3260373,128
1658855657.96644,175010.326041,140
1658855657.96644,175010.3260445,142
1658855657.96644,175010.32605,130
1658855657.96644,175010.326057,130
1658855657.96644,175010.3260642,142
1658855657.96644,175010.3260732,135
1658855657.96644,175010.3260824,102
1658855657.96644,175010.3260892,74
1658855657.96644,175010.3260959,77
1658855657.96644,175010.3261016,95
1658855657.96644,175010.3261082,98
1658855657.96644,175010.3261146,102
1658855657.96644,175010.3261209,130
1658855657.96644,175010.3261295,154
1658855657.96644,175010.3261382,147
1658855657.96644,175010.3261443,130
1658855657.96644,175010.3261506,130
1658855657.96644,175010.3261566,179
1658855657.96644,175010.3261627,247
1658855657.96644,175010.3261686,186
1658855657.96644,175010.3261746,-60
1658855657.96644,175010.3261827,-287
1658855657.96644,175010.3261888,-112
1658855657.96644,175010.326195,305
1658855657.96644,175010.326201,319
1658855657.96644,175010.326207,65
1658855657.96644,175010.326213,65
1658855657.96644,175010.8619787,151
1658855657.96644,175010.8619956,105
1658855657.96644,175010.8620005,81
1658855657.96644,175010.8620039,121
1658855657.98838,175010.8620069,114
1658855657.98838,175010.8620101,91
1658855657.98838,175010.8620136,100
1658855657.98838,175010.8620169,93
1658855657.98838,175010.8620203,65
1658855657.98838,175010.8620239,60
1658855657.98838,175010.8620275,63
1658855657.98838,175010.8620331,39
1658855657.98838,175010.862048,2
1658855657.98838,175010.862052,-21
1658855657.98838,175010.8620566,-23
1658855657.98838,175010.8620623,-28
1658855657.98838,175010.8620668,-39
1658855657.98838,175010.862071,-49
1658855657.98838,175010.8620757,-60
1658855657.98838,175010.8620799,-56
1658855657.98838,175010.8620829,-28
1658855657.98838,175010.8620859,7
1658855657.98838,175010.8620901,35
1658855657.98838,175010.8620949,63
1658855657.98838,175010.8621005,102
1658855657.98838,175010.8621053,140
1658855657.98838,175010.8621097,154
1658855657.98838,175010.8621142,156
1658855657.98838,175010.8621179,156
1658855657.98838,175010.8621224,154
1658855657.98838,175010.8621261,147
1658855657.98838,175010.8621313,142
1658855657.98838,175010.8621348,144
1658855657.98838,175010.8621425,144
1658855657.98838,175010.86215,140
1658855657.98838,175010.8621585,140
1658855657.98838,175010.8621666,147
1658855657.98838,175010.8621739,156
1658855657.98838,175010.8621813,161
1658855657.98838,175010.8621899,147
1658855657.98838,175010.8621961,135
1658855657.98838,175010.8622024,119
1658855657.98838,175010.8622104,86
1658855657.98838,175010.8622184,65
1658855657.98838,175010.8622226,72
1658855657.98838,175010.8622258,81
1658855657.98838,175010.862231,91
1658855657.98838,175010.8622444,112
1658855657.98838,175010.8622579,133
1658855657.98838,175010.8622716,128
1658855657.98838,175010.8622846,114
1658855657.98838,175010.8622978,114
1658855657.98838,175010.8623109,135
1658855657.98838,175010.8623198,196
1658855658.00135,175010.8623277,235
1658855658.00135,175010.8623401,84
1658855658.00135,175010.8623489,-219
1658855658.00135,175010.8623582,-294
1658855658.00135,175010.8623699,67
1658855658.00135,175010.862377,348
1658855658.00135,175010.8623893,179
1658855658.00135,175010.8624028,21
1658855658.00135,175010.8624115,91
1658855658.00135,175010.8624191,114
1658855658.00135,175010.8624279,72
1658855658.00135,175010.862436,79
1658855658.00135,175010.8624483,91
1658855658.00135,175010.862458,91
1658855658.00135,175010.8624662,91
1658855658.00135,175010.862478,77
1658855658.00135,175010.8624861,63
1658855658.00135,175010.8624964,63
1658855658.00135,175010.8625071,49
1658855658.00135,175011.3987429,28
1658855658.00135,175011.3987565,21
1658855658.00135,175011.3987609,4
1658855658.4403,175011.3987644,-23
1658855658.4403,175011.3987677,-39
1658855658.4403,175011.398771,-39
1658855658.4403,175011.3987745,-39
1658855658.4403,175011.3987778,-46
1658855658.4403,175011.3987812,-60
1658855658.4403,175011.3987844,-51
1658855658.4403,175011.3987877,-9
1658855658.4403,175011.398791,32
1658855658.4403,175011.3987943,63
1658855658.4403,175011.3987977,93
1658855658.4403,175011.398801,107
1658855658.4403,175011.3988043,114
1658855658.4403,175011.3988077,137
1658855658.4403,175011.398811,144
1658855658.4403,175011.3988144,135
1658855658.4403,175011.3988177,135
1658855658.4403,175011.3988211,137
1658855658.4403,175011.3988244,123
1658855658.4403,175011.3988277,114
1658855658.4403,175011.398831,126
1658855658.4403,175011.3988345,133
1658855658.4403,175011.3988376,126
1658855658.4403,175011.3988406,128
1658855658.4403,175011.3988454,133
1658855658.4403,175011.3988498,123
1658855658.4403,175011.3988542,128
1658855658.4403,175011.3988582,140
1658855658.4403,175011.3988622,107
1658855658.4403,175011.398866,63
1658855658.4403,175011.3988694,63
1658855658.4403,175011.3988727,84
1658855658.4403,175011.3988763,81
1658855658.4403,175011.3988802,72
1658855658.4403,175011.3988837,81
1658855658.4403,175011.3988868,102
1658855658.4403,175011.3988907,107
1658855658.4403,175011.398894,107
1658855658.4403,175011.3988978,105
1658855658.4403,175011.3989013,135
1658855658.4403,175011.3989062,205
1658855658.4403,175011.3989121,170
1658855658.4403,175011.3989164,-81
1658855658.4403,175011.3989204,-366
1658855658.4403,175011.3989255,-261
1658855658.4403,175011.3989305,226
1658855658.4403,175011.3989363,401
1658855658.4403,175011.3989406,149
1658855658.4403,175011.3989448,42
1658855658.4403,175011.3989481,102
1658855658.45327,175011.3989512,70
1658855658.45327,175011.3989552,28
1658855658.45327,175011.3989584,65
1658855658.45327,175011.3989616,95
1658855658.45327,175011.3989653,74
1658855658.45327,175011.3989697,49
1658855658.45327,175011.3989735,49
1658855658.45327,175011.3989778,44
1658855658.45327,175011.3989814,25
1658855658.45327,175011.3989847,11
1658855658.45327,175011.3989883,-7
1658855658.45327,175011.3989917,-35
1658855658.45327,175011.3989951,-46
1658855658.45327,175011.3989985,-51
1658855658.45327,175011.399002,-63
1658855658.45327,175011.3990054,-72
1658855658.45327,175011.3990091,-77
1658855658.45327,175011.3990129,-72
1658855658.45327,175011.3990166,-70
1658855658.45327,175011.3990203,-60
1658855658.45327,175011.9855767,-18
1658855658.45327,175011.9855959,37
1658855658.45327,175011.9856048,74
1658855658.45327,175011.9856136,98
1658855659.02273,175011.9856201,121
1658855659.02273,175011.9856255,133
1658855659.02273,175011.9856291,137
1658855659.02273,175011.9856327,154
1658855659.02273,175011.9856358,151
1658855659.02273,175011.9856394,126
1658855659.02273,175011.9856452,116
1658855659.02273,175011.9856508,109
1658855659.02273,175011.9856554,93
1658855659.02273,175011.9856599,102
1658855659.02273,175011.9856638,116
1658855659.02273,175011.9856676,119
1658855659.02273,175011.9856806,126
1658855659.02273,175011.9856873,137
1658855659.02273,175011.9856913,133
1658855659.02273,175011.9857016,133
1658855659.02273,175011.9857167,135
1658855659.02273,175011.9857217,109
1658855659.02273,175011.9857303,84
1658855659.02273,175011.9857431,91
1658855659.02273,175011.9857518,102
1658855659.02273,175011.9857572,95
1658855659.02273,175011.985765,100
1658855659.02273,175011.985774,130
1658855659.02273,175011.9857825,144
1658855659.02273,175011.9857903,123
1658855659.02273,175011.9858004,119
1658855659.02273,175011.9858095,137
1658855659.02273,175011.9858186,177
1658855659.02273,175011.9858273,233
1658855659.02273,175011.9858569,179
1658855659.02273,175011.9858655,-72
1658855659.02273,175011.9858707,-308
1658855659.02273,175011.9858779,-116
1658855659.02273,175011.9858858,390
1658855659.02273,175011.9858945,481
1658855659.02273,175011.9859046,154
1658855659.02273,175011.9859138,39
1658855659.02273,175011.9859183,116
1658855659.02273,175011.9859239,107
1658855659.02273,175011.9859313,84
1658855659.02273,175011.9859406,100
1658855659.02273,175011.9859479,102
1658855659.02273,175011.9859536,100
1658855659.02273,175011.9859599,109
1658855659.02273,175011.9859631,100
1658855659.02273,175011.9859677,81
1658855659.02273,175011.9859742,74
1658855659.02273,175011.9859803,65
1658855659.02273,175011.985986,44
1658855659.0357,175011.9859947,30
1658855659.0357,175011.9860018,18
1658855659.0357,175011.986006,-2
1658855659.0357,175011.9860092,-11
1658855659.0357,175011.9860155,-7
1658855659.0357,175011.9860232,-14
1658855659.0357,175011.9860324,-25
1658855659.0357,175011.9860374,-7
1658855659.0357,175011.9860435,39
1658855659.0357,175011.9860467,72
1658855659.0357,175011.9860544,84
1658855659.0357,175011.9860593,105
1658855659.0357,175011.986065,135
1658855659.0357,175011.9860729,156
1658855659.0357,175011.9860817,184
1658855659.0357,175011.9860901,207
1658855659.0357,175011.9860965,193
1658855659.0357,175011.9860998,170
1658855659.0357,175011.9861067,170
1658855659.0357,175012.5695609,184
1658855659.0357,175012.5695804,175
1658855659.0357,175012.5695867,151
1658855659.0357,175012.5695925,144
1658855659.0357,175012.5695984,154
1658855659.56631,175012.569604,158
1658855659.56631,175012.5696077,163
1658855659.56631,175012.5696112,163
1658855659.56631,175012.5696147,163
1658855659.56631,175012.5696181,161
1658855659.56631,175012.5696216,154
1658855659.56631,175012.5696256,149
1658855659.56631,175012.5696291,144
1658855659.56631,175012.5696326,128
1658855659.56631,175012.5696361,98
1658855659.56631,175012.5696396,77
1658855659.56631,175012.5696432,81
1658855659.56631,175012.5696466,102
1658855659.56631,175012.5696503,121
1658855659.56631,175012.5696537,133
1658855659.56631,175012.5696572,121
1658855659.56631,175012.5696606,91
1658855659.56631,175012.5696641,77
1658855659.56631,175012.5696675,105
1658855659.56631,175012.5696712,163
1658855659.56631,175012.5696746,170
1658855659.56631,175012.5696781,14
1658855659.56631,175012.5696817,-240
1658855659.56631,175012.5696852,-263
1658855659.56631,175012.5696887,107
1658855659.56631,175012.5696922,352
1658855659.56631,175012.5696956,154
1658855659.56631,175012.5696994,9
1658855659.56631,175012.5697031,93
1658855659.56631,175012.5697064,98
1658855659.56631,175012.5697099,60
1658855659.56631,175012.5697134,93
1658855659.56631,175012.569718,98
1658855659.56631,175012.569721,67
1658855659.56631,175012.5697243,70
1658855659.56631,175012.5697274,72
1658855659.56631,175012.5697306,58
1658855659.56631,175012.5697342,51
1658855659.56631,175012.5697375,53
1658855659.56631,175012.5697409,37
1658855659.56631,175012.5697446,16
1658855659.56631,175012.569748,7
1658855659.56631,175012.5697518,-7
1658855659.56631,175012.569756,-18
1658855659.56631,175012.5697597,-16
1658855659.56631,175012.5697634,-21
1658855659.56631,175012.569767,-25
1658855659.56631,175012.5697706,-18
1658855659.56631,175012.5697744,2
1658855659.56631,175012.5697777,30
1658855659.57927,175012.5697814,53
1658855659.57927,175012.5697851,91
1658855659.57927,175012.5697888,140
1658855659.57927,175012.5697926,165
1658855659.57927,175012.5697962,165
1658855659.57927,175012.5698021,175
1658855659.57927,175012.5698081,186
1658855659.57927,175012.5698119,186
1658855659.57927,175012.5698158,182
1658855659.57927,175012.5698221,182
1658855659.57927,175012.5698258,177
1658855659.57927,175012.5698313,163
1658855659.57927,175012.5698384,163
1658855659.57927,175012.5698422,170
1658855659.57927,175012.5698461,165
1658855659.57927,175012.5698515,161
1658855659.57927,175012.5698587,168
1658855659.57927,175012.5698627,172
1658855659.57927,175013.1056104,168
1658855659.57927,175013.1056262,161
1658855659.57927,175013.105631,165
1658855659.57927,175013.1056353,158
1658855659.57927,175013.1056397,112
1658855659.57927,175013.1056438,65
1658855660.20022,175013.1056478,65
1658855660.20022,175013.105652,98
1658855660.20022,175013.1056561,116
1658855660.20022,175013.1056603,119
1658855660.20022,175013.1056645,126
1658855660.20022,175013.1056687,135
1658855660.20022,175013.1056729,126
1658855660.20022,175013.105677,116
1658855660.20022,175013.1056815,121
1658855660.20022,175013.1056856,151
1658855660.20022,175013.1056896,200
1658855660.20022,175013.1056937,149
1658855660.20022,175013.1056982,-86
1658855660.20022,175013.1057025,-298
1658855660.20022,175013.105707,-133
1658855660.20022,175013.1057113,261
1658855660.20022,175013.1057151,291
1658855660.20022,175013.1057184,53
1658855660.20022,175013.1057222,21
1658855660.20022,175013.1057258,98
1658855660.20022,175013.1057294,79
1658855660.20022,175013.1057324,63
1658855660.20022,175013.1057354,84
1658855660.20022,175013.1057384,74
1658855660.20022,175013.1057416,58
1658855660.20022,175013.1057453,70
1658855660.20022,175013.1057489,74
1658855660.20022,175013.1057524,53
1658855660.20022,175013.105756,37
1658855660.20022,175013.1057592,30
1658855660.20022,175013.1057624,18
1658855660.20022,175013.1057654,4
1658855660.20022,175013.1057689,-11
1658855660.20022,175013.1057721,-30
1658855660.20022,175013.1057755,-46
1658855660.20022,175013.1057824,-58
1658855660.20022,175013.1057881,-51
1658855660.20022,175013.1057923,-42
1658855660.20022,175013.1057972,-42
1658855660.20022,175013.1058005,-28
1658855660.20022,175013.1058041,4
1658855660.20022,175013.1058096,39
1658855660.20022,175013.1058129,72
1658855660.20022,175013.1058171,98
1658855660.20022,175013.1058225,116
1658855660.20022,175013.1058272,133
1658855660.20022,175013.1058308,142
1658855660.20022,175013.105834,137
1658855660.20022,175013.1058373,137
1658855660.20022,175013.1058407,147
1658855660.21219,175013.1058441,147
1658855660.21219,175013.1058493,140
1658855660.21219,175013.1058525,137
1658855660.21219,175013.105856,137
1658855660.21219,175013.1058609,137
1658855660.21219,175013.1058664,133
1658855660.21219,175013.1058698,128
1658855660.21219,175013.1058734,126
1658855660.21219,175013.1058782,123
1658855660.21219,175013.1058845,135
1658855660.21219,175013.105888,158
1658855660.21219,175013.105895,163
1658855660.21219,175013.1059083,151
1658855660.21219,175013.1059169,137
1658855660.21219,175013.1059228,109
1658855660.21219,175013.1059343,81
1658855660.21219,175013.1059392,77
1658855660.21219,175013.738734,105
1658855660.21219,175013.7387481,121
1658855660.21219,175013.7387529,102
1658855660.21219,175013.7387577,88
1658855660.21219,175013.7387608,100
1658855660.21219,175013.7387639,102
1658855660.21219,175013.7387671,88
1658855660.78844,175013.7387694,81
1658855660.78844,175013.7387723,102
1658855660.78844,175013.7387752,161
1658855660.78844,175013.7387783,147
1658855660.78844,175013.7387858,-58
1658855660.78844,175013.7387959,-326
1658855660.78844,175013.7388068,-294
1658855660.78844,175013.7388143,91
1658855660.78844,175013.7388268,289
1658855660.78844,175013.7388354,114
1658855660.78844,175013.738838,4
1658855660.78844,175013.7388403,67
1658855660.78844,175013.7388424,67
1658855660.78844,175013.7388444,28
1658855660.78844,175013.7388464,32
1658855660.78844,175013.7388485,35
1658855660.78844,175013.7388506,32
1658855660.78844,175013.7388525,35
1658855660.78844,175013.7388546,30
1658855660.78844,175013.7388566,30
1658855660.78844,175013.7388586,25
1658855660.78844,175013.7388607,4
1658855660.78844,175013.738863,0
1658855660.78844,175013.738865,-4
1658855660.78844,175013.7388671,-30
1658855660.78844,175013.7388691,-53
1658855660.78844,175013.7388712,-70
1658855660.78844,175013.7388733,-72
1658855660.78844,175013.7388753,-58
1658855660.78844,175013.7388774,-51
1658855660.78844,175013.7388794,-53
1658855660.78844,175013.7388814,-35
1658855660.78844,175013.7388839,-4
1658855660.78844,175013.738886,30
1658855660.78844,175013.7388882,67
1658855660.78844,175013.7388903,105
1658855660.78844,175013.7388924,130
1658855660.78844,175013.7388944,149
1658855660.78844,175013.7388964,170
1658855660.78844,175013.7388985,182
1658855660.78844,175013.7389005,170
1658855660.78844,175013.7389026,161
1658855660.78844,175013.7389047,156
1658855660.78844,175013.7389067,144
1658855660.78844,175013.7389086,140
1658855660.78844,175013.7389107,156
1658855660.78844,175013.7389127,161
1658855660.78844,175013.7389148,149
1658855660.78844,175013.738917,147
1658855660.78844,175013.7389191,158
1658855660.8024,175013.7389211,163
1658855660.8024,175013.7389231,147
1658855660.8024,175013.7389252,142
1658855660.8024,175013.7389273,165
1658855660.8024,175013.7389292,179
1658855660.8024,175013.7389313,165
1658855660.8024,175013.7389334,158
1658855660.8024,175013.7389354,154
1658855660.8024,175013.7389381,119
1658855660.8024,175013.7389401,93
1658855660.8024,175013.7389422,95
1658855660.8024,175013.7389442,93
1658855660.8024,175013.7389462,81
1658855660.8024,175013.7389483,86
1658855660.8024,175013.7389503,105
1658855660.8024,175013.7389525,114
1658855660.8024,175014.323045,116
1658855660.8024,175014.3230582,116
1658855660.8024,175014.3230615,116
1658855660.8024,175014.3230642,137
1658855660.8024,175014.3230667,189
1658855660.8024,175014.3230691,149
1658855660.8024,175014.3230714,-79
1658855660.8024,175014.3230737,-348
1658855661.27251,175014.3230759,-242
1658855661.27251,175014.3230782,259
1658855661.27251,175014.3230804,453
1658855661.27251,175014.3230828,172
1658855661.27251,175014.3230858,28
1658855661.27251,175014.3230939,107
1658855661.27251,175014.3231012,109
1658855661.27251,175014.3231084,77
1658855661.27251,175014.3231157,95
1658855661.27251,175014.323121,88
1658855661.27251,175014.3231316,56
1658855661.27251,175014.3231421,53
1658855661.27251,175014.3231518,56
1658855661.27251,175014.323159,39
1658855661.27251,175014.3231633,37
1658855661.27251,175014.3231653,32
1658855661.27251,175014.3231674,11
1658855661.27251,175014.3231694,7
1658855661.27251,175014.3231716,-2
1658855661.27251,175014.3231736,-28
1658855661.27251,175014.3231766,-35
1658855661.27251,175014.3231895,-25
1658855661.27251,175014.3231955,-30
1658855661.27251,175014.3231979,-30
1658855661.27251,175014.3232001,-23
1658855661.27251,175014.3232025,-14
1658855661.27251,175014.3232126,21
1658855661.27251,175014.323221,74
1658855661.27251,175014.3232234,119
1658855661.27251,175014.3232256,147
1658855661.27251,175014.3232277,161
1658855661.27251,175014.3232298,170
1658855661.27251,175014.3232373,189
1658855661.27251,175014.3232482,207
1658855661.27251,175014.3232517,193
1658855661.27251,175014.3232557,175
1658855661.27251,175014.3232604,182
1658855661.27251,175014.3232719,186
1658855661.27251,175014.3232792,175
1658855661.27251,175014.323282,165
1658855661.27251,175014.3232905,170
1658855661.27251,175014.3232987,175
1658855661.27251,175014.3233055,179
1658855661.27251,175014.3233139,182
1658855661.27251,175014.3233211,175
1658855661.27251,175014.3233247,165
1658855661.27251,175014.3233297,165
1658855661.27251,175014.3233335,168
1658855661.27251,175014.3233393,168
1658855661.27251,175014.3233455,175
1658855661.28548,175014.3233493,182
1658855661.28548,175014.3233528,177
1658855661.28548,175014.3233564,179
1658855661.28548,175014.32336,175
1658855661.28548,175014.3233635,119
1658855661.28548,175014.323369,70
1658855661.28548,175014.3233733,98
1658855661.28548,175014.3233778,121
1658855661.28548,175014.3233852,105
1658855661.28548,175014.3233916,114
1658855661.28548,175014.3233995,140
1658855661.28548,175014.323409,137
1658855661.28548,175014.3234151,119
1658855661.28548,175014.3234231,119
1658855661.28548,175014.3234308,144
1658855661.28548,175014.8107917,207
1658855661.28548,175014.8108132,224
1658855661.28548,175014.8108235,72
1658855661.28548,175014.8108268,-205
1658855661.28548,175014.8108291,-317
1658855661.28548,175014.8108313,-4
1658855661.28548,175014.8108334,357
1658855661.28548,175014.8108354,268
1658855661.28548,175014.8108374,51
1658855661.81532,175014.8108396,88
1658855661.81532,175014.8108416,154
1658855661.81532,175014.8108436,119
1658855661.81532,175014.8108455,119
1658855661.81532,175014.8108475,135
1658855661.81532,175014.8108494,112
1658855661.81532,175014.8108514,98
1658855661.81532,175014.8108533,100
1658855661.81532,175014.8108552,86
1658855661.81532,175014.8108579,74
1658855661.81532,175014.8108647,77
1658855661.81532,175014.8108717,60
1658855661.81532,175014.8108784,30
1658855661.81532,175014.8108833,16
1658855661.81532,175014.8108898,4
1658855661.81532,175014.8108968,-18
1658855661.81532,175014.8109116,-32
1658855661.81532,175014.8109201,-25
1658855661.81532,175014.8109263,-28
1658855661.81532,175014.8109388,-39
1658855661.81532,175014.8109482,-32
1658855661.81532,175014.8109507,-4
1658855661.81532,175014.8109529,28
1658855661.81532,175014.8109549,63
1658855661.81532,175014.810957,98
1658855661.81532,175014.8109591,128
1658855661.81532,175014.8109611,147
1658855661.81532,175014.8109632,163
1658855661.81532,175014.8109653,177
1658855661.81532,175014.8109674,179
1658855661.81532,175014.8109695,177
1658855661.81532,175014.8109716,161
1658855661.81532,175014.8109738,147
1658855661.81532,175014.8109759,151
1658855661.81532,175014.810978,161
1658855661.81532,175014.81098,154
1658855661.81532,175014.8109821,149
1658855661.81532,175014.8109841,163
1658855661.81532,175014.8109862,168
1658855661.81532,175014.8109882,154
1658855661.81532,175014.8109903,147
1658855661.81532,175014.8109924,158
1658855661.81532,175014.8109944,163
1658855661.81532,175014.8109965,151
1658855661.81532,175014.8109985,135
1658855661.81532,175014.8110006,126
1658855661.81532,175014.8110026,147
1658855661.81532,175014.8110047,168
1658855661.81532,175014.8110068,161
1658855661.81532,175014.8110088,161
1658855661.82729,175014.8110109,156
1658855661.82729,175014.811013,114
1658855661.82729,175014.8110151,72
1658855661.82729,175014.8110172,74
1658855661.82729,175014.8110192,86
1658855661.82729,175014.8110214,81
1658855661.82729,175014.8110235,86
1658855661.82729,175014.8110256,102
1658855661.82729,175014.8110281,121
1658855661.82729,175014.8110302,126
1658855661.82729,175014.8110322,119
1658855661.82729,175014.8110343,116
1658855661.82729,175014.8110363,133
1658855661.82729,175014.8110384,172
1658855661.82729,175015.3495867,158
1658855661.82729,175015.3496107,-7
1658855661.82729,175015.3496249,-249
1658855661.82729,175015.3496344,-254
1658855661.82729,175015.3496409,109
1658855661.82729,175015.3496475,352
1658855661.82729,175015.3496552,179
1658855661.82729,175015.3496746,23
1658855661.82729,175015.3496813,88
1658855661.82729,175015.3496848,123
1658855662.34407,175015.3496887,84
1658855662.34407,175015.3496953,74
1658855662.34407,175015.349702,84
1658855662.34407,175015.3497087,81
1658855662.34407,175015.3497157,65
1658855662.34407,175015.3497217,60
1658855662.34407,175015.3497261,58
1658855662.34407,175015.3497316,35
1658855662.34407,175015.3497395,4
1658855662.34407,175015.3497457,-2
1658855662.34407,175015.3497534,-7
1658855662.34407,175015.3497591,-28
1658855662.34407,175015.3497656,-51
1658855662.34407,175015.3497687,-67
1658855662.34407,175015.349772,-72
1658855662.34407,175015.3497784,-70
1658855662.34407,175015.3497857,-65
1658855662.34407,175015.3497915,-49
1658855662.34407,175015.3497965,-39
1658855662.34407,175015.3498008,-28
1658855662.34407,175015.3498045,4
1658855662.34407,175015.3498104,42
1658855662.34407,175015.3498136,77
1658855662.34407,175015.3498168,102
1658855662.34407,175015.3498199,112
1658855662.34407,175015.349824,116
1658855662.34407,175015.3498284,140
1658855662.34407,175015.3498316,149
1658855662.34407,175015.3498346,133
1658855662.34407,175015.3498376,119
1658855662.34407,175015.3498405,119
1658855662.34407,175015.3498435,116
1658855662.34407,175015.3498464,109
1658855662.34407,175015.3498494,107
1658855662.34407,175015.3498533,107
1658855662.34407,175015.3498576,114
1658855662.34407,175015.3498607,126
1658855662.34407,175015.3498637,109
1658855662.34407,175015.3498667,79
1658855662.34407,175015.3498697,79
1658855662.34407,175015.3498726,95
1658855662.34407,175015.3498756,107
1658855662.34407,175015.3498785,116
1658855662.34407,175015.3498838,114
1658855662.34407,175015.3498885,107
1658855662.34407,175015.3498947,116
1658855662.34407,175015.3498978,121
1658855662.34407,175015.3499007,114
1658855662.34407,175015.3499037,116
1658855662.34407,175015.3499067,114
1658855662.36002,175015.3499098,93
1658855662.36002,175015.3499128,58
1658855662.36002,175015.3499158,39
1658855662.36002,175015.3499187,58
1658855662.36002,175015.3499216,65
1658855662.36002,175015.3499245,58
1658855662.36002,175015.3499275,77
1658855662.36002,175015.3499304,105
1658855662.36002,175015.3499335,98
1658855662.36002,175015.3499364,79
1658855662.36002,175015.3499395,79
1658855662.36002,175015.3499424,93
1658855662.36002,175015.3499454,133
1658855662.36002,175015.8851793,149
1658855662.36002,175015.8851986,14
1658855662.36002,175015.8852045,-254
1658855662.36002,175015.8852097,-362
1658855662.36002,175015.8852146,-56
1658855662.36002,175015.8852193,308
1658855662.36002,175015.8852242,240
1658855662.36002,175015.885229,32
1658855662.36002,175015.8852338,58
1658855662.36002,175015.8852386,107
1658855662.36002,175015.8852431,63
1658855662.97261,175015.8852477,58
1658855662.97261,175015.8852523,81
1658855662.97261,175015.8852569,60
1658855662.97261,175015.8852614,30
1658855662.97261,175015.885266,25
1658855662.97261,175015.8852706,32
1658855662.97261,175015.8852756,32
1658855662.97261,175015.8852807,18
1658855662.97261,175015.8852854,-2
1658855662.97261,175015.8852918,-18
1658855662.97261,175015.8852965,-39
1658855662.97261,175015.8853012,-53
1658855662.97261,175015.8853057,-63
1658855662.97261,175015.8853105,-67
1658855662.97261,175015.885315,-60
1658855662.97261,175015.8853196,-63
1658855662.97261,175015.8853245,-72
1658855662.97261,175015.8853295,-65
1658855662.97261,175015.8853344,-44
1658855662.97261,175015.8853391,-18
1658855662.97261,175015.885344,18
1658855662.97261,175015.885349,53
1658855662.97261,175015.8853736,86
1658855662.97261,175015.885381,121
1658855662.97261,175015.8853857,144
1658855662.97261,175015.8853902,144
1658855662.97261,175015.8853948,140
1658855662.97261,175015.8853994,144
1658855662.97261,175015.8854039,149
1658855662.97261,175015.8854087,140
1658855662.97261,175015.8854135,121
1658855662.97261,175015.8854185,112
1658855662.97261,175015.8854234,121
1658855662.97261,175015.8854297,135
1658855662.97261,175015.8854347,135
1658855662.97261,175015.885442,126
1658855662.97261,175015.885476,128
1658855662.97261,175015.8854872,130
1658855662.97261,175015.885494,128
1658855662.97261,175015.8854987,133
1658855662.97261,175015.8855044,140
1658855662.97261,175015.8855077,137
1658855662.97261,175015.8855111,137
1658855662.97261,175015.8855145,142
1658855662.97261,175015.8855178,151
1658855662.97261,175015.8855232,154
1658855662.97261,175015.8855267,147
1658855662.97261,175015.8855324,144
1658855662.97261,175015.8855359,123
1658855662.97261,175015.8855413,84
1658855662.98715,175015.8855448,65
1658855662.98715,175015.8855483,74
1658855662.98715,175015.8855546,79
1658855662.98715,175015.8855587,74
1658855662.98715,175015.8855726,84
1658855662.98715,175015.8855807,105
1658855662.98715,175015.8855855,105
1658855662.98715,175015.885592,84
1658855662.98715,175015.8855968,86
1658855662.98715,175015.8856029,126
1658855662.98715,175015.8856076,163
1658855662.98715,175015.8856126,128
1658855662.98715,175016.5175339,-46
1658855662.98715,175016.5175587,-319
1658855662.98715,175016.517569,-364
1658855662.98715,175016.517573,46
1658855662.98715,175016.5175766,397
1658855662.98715,175016.5175798,233
1658855662.98715,175016.517583,25
1658855662.98715,175016.5175864,74
1658855662.98715,175016.5175918,93
1658855662.98715,175016.5175951,39
1658855662.98715,175016.5175986,53
1658855662.98715,175016.5176033,65
1658855663.51185,175016.5176094,30
1658855663.51185,175016.5176138,30
1658855663.51185,175016.5176177,44
1658855663.51185,175016.5176206,30
1658855663.51185,175016.5176237,16
1658855663.51185,175016.5176286,4
1658855663.51185,175016.5176342,-14
1658855663.51185,175016.5176378,-32
1658855663.51185,175016.5176441,-51
1658855663.51185,175016.5176509,-74
1658855663.51185,175016.5176577,-84
1658855663.51185,175016.5176648,-86
1658855663.51185,175016.5176684,-91
1658855663.51185,175016.517673,-81
1658855663.51185,175016.5176787,-70
1658855663.51185,175016.517686,-63
1658855663.51185,175016.5176926,-28
1658855663.51185,175016.5176977,18
1658855663.51185,175016.5177045,51
1658855663.51185,175016.5177112,91
1658855663.51185,175016.5177179,121
1658855663.51185,175016.5177248,130
1658855663.51185,175016.5177339,144
1658855663.51185,175016.5177428,165
1658855663.51185,175016.5177486,168
1658855663.51185,175016.5177535,158
1658855663.51185,175016.5177582,163
1658855663.51185,175016.5177643,170
1658855663.51185,175016.5177731,161
1658855663.51185,175016.5177781,161
1658855663.51185,175016.5177863,177
1658855663.51185,175016.5177937,179
1658855663.51185,175016.5178002,168
1658855663.51185,175016.5178056,161
1658855663.51185,175016.5178112,158
1658855663.51185,175016.5178152,154
1658855663.51185,175016.5178186,168
1658855663.51185,175016.517822,189
1658855663.51185,175016.5178285,189
1658855663.51185,175016.5178351,184
1658855663.51185,175016.5178417,186
1658855663.51185,175016.517847,175
1658855663.51185,175016.5178562,177
1658855663.51185,175016.5178626,193
1658855663.51185,175016.517871,175
1658855663.51185,175016.5178793,128
1658855663.51185,175016.5178874,107
1658855663.51185,175016.5178915,116
1658855663.51185,175016.5178956,119
1658855663.51185,175016.517908,121
1658855663.53179,175016.5179218,137
1658855663.53179,175016.517931,151
1658855663.53179,175016.5179438,154
1658855663.53179,175016.5179508,154
1658855663.53179,175016.5179572,151
1658855663.53179,175016.5179659,175
1658855663.53179,175016.5179752,231
1658855663.53179,175016.5179831,200
1658855663.53179,175016.5179891,-25
1658855663.53179,175016.5179982,-312
1658855663.53179,175016.5180062,-287
1658855663.53179,175017.0535908,147
1658855663.53179,175017.0536033,390
1658855663.53179,175017.0536082,175
1658855663.53179,175017.0536105,49
1658855663.53179,175017.0536127,149
1658855663.53179,175017.0536148,158
1658855663.53179,175017.0536169,123
1658855663.53179,175017.053619,149
1658855663.53179,175017.053621,147
1658855663.53179,175017.053623,112
1658855663.53179,175017.0536251,107
1658855663.53179,175017.0536272,105
1658855663.53179,175017.0536293,86
1658855664.05046,175017.0536314,67
1658855664.05046,175017.0536333,51
1658855664.05046,175017.0536359,35
1658855664.05046,175017.053645,28
1658855664.05046,175017.0536523,16
1658855664.05046,175017.0536575,-9
1658855664.05046,175017.0536643,-28
1658855664.05046,175017.0536678,-46
1658855664.05046,175017.0536712,-60
1658855664.05046,175017.0536755,-51
1658855664.05046,175017.0536785,-37
1658855664.05046,175017.0536829,-35
1658855664.05046,175017.0536862,-16
1658855664.05046,175017.0536891,14
1658855664.05046,175017.0536936,44
1658855664.05046,175017.0536999,79
1658855664.05046,175017.053706,114
1658855664.05046,175017.0537117,137
1658855664.05046,175017.0537187,144
1658855664.05046,175017.0537223,147
1658855664.05046,175017.0537256,149
1658855664.05046,175017.0537287,151
1658855664.05046,175017.0537318,149
1658855664.05046,175017.0537351,140
1658855664.05046,175017.0537385,133
1658855664.05046,175017.053742,137
1658855664.05046,175017.0537457,151
1658855664.05046,175017.0537536,154
1658855664.05046,175017.0537671,149
1658855664.05046,175017.0537811,140
1658855664.05046,175017.0537887,128
1658855664.05046,175017.0537992,126
1658855664.05046,175017.053811,137
1658855664.05046,175017.0538146,144
1658855664.05046,175017.0538243,147
1658855664.05046,175017.0538336,158
1658855664.05046,175017.0538386,165
1658855664.05046,175017.0538456,154

1658855664.05046,175017.0538496,142
1658855664.05046,175017.0538549,123
1658855664.05046,175017.0538598,93
1658855664.05046,175017.0538651,91
1658855664.05046,175017.0538745,107
1658855664.05046,175017.053885,107
1658855664.05046,175017.0538934,112
1658855664.05046,175017.0539033,137
1658855664.05046,175017.0539092,144
1658855664.05046,175017.0539156,126
1658855664.05046,175017.0539254,121
1658855664.05046,175017.0539285,140
1658855664.06641,175017.0539348,179
1658855664.06641,175017.0539464,221
1658855664.06641,175017.0539603,142
1658855664.06641,175017.0539722,-109
1658855664.06641,175017.0539858,-322
1658855664.06641,175017.0540002,-158
1658855664.06641,175017.0540102,254
1658855664.06641,175017.0540186,317
1658855664.06641,175017.0540331,98
1658855664.06641,175017.0540407,86
1658855664.06641,175017.5897357,161
1658855664.06641,175017.5897559,116
1658855664.06641,175017.5897612,100
1658855664.06641,175017.5897654,121
1658855664.06641,175017.5897697,102
1658855664.06641,175017.5897737,91
1658855664.06641,175017.5897778,100
1658855664.06641,175017.5897817,91
1658855664.06641,175017.5897856,79
1658855664.06641,175017.5897893,79
1658855664.06641,175017.5897932,72
1658855664.06641,175017.589797,37
1658855664.06641,175017.5898006,2
1658855664.06641,175017.5898047,-7
1658855664.64242,175017.5898088,-18
1658855664.64242,175017.5898127,-35
1658855664.64242,175017.5898165,-37
1658855664.64242,175017.5898204,-46
1658855664.64242,175017.5898245,-67
1658855664.64242,175017.5898284,-77
1658855664.64242,175017.5898324,-51
1658855664.64242,175017.5898362,-11
1658855664.64242,175017.5898399,18
1658855664.64242,175017.5898436,56
1658855664.64242,175017.5898476,93
1658855664.64242,175017.5898514,109
1658855664.64242,175017.5898552,121
1658855664.64242,175017.5898591,137
1658855664.64242,175017.5898629,147
1658855664.64242,175017.589867,151
1658855664.64242,175017.589871,149
1658855664.64242,175017.589875,137
1658855664.64242,175017.5898789,130
1658855664.64242,175017.5898829,133
1658855664.64242,175017.5898868,128
1658855664.64242,175017.5898915,126
1658855664.64242,175017.5898957,130
1658855664.64242,175017.5898997,130
1658855664.64242,175017.5899037,135
1658855664.64242,175017.5899077,137
1658855664.64242,175017.5899114,133
1658855664.64242,175017.5899152,140
1658855664.64242,175017.5899191,140
1658855664.64242,175017.5899229,137
1658855664.64242,175017.5899268,151
1658855664.64242,175017.5899306,151
1658855664.64242,175017.5899341,112
1658855664.64242,175017.5899379,86
1658855664.64242,175017.5899416,88
1658855664.64242,175017.5899455,95
1658855664.64242,175017.5899494,93
1658855664.64242,175017.5899531,102
1658855664.64242,175017.5899569,123
1658855664.64242,175017.589961,137
1658855664.64242,175017.589965,135
1658855664.64242,175017.5899687,123
1658855664.64242,175017.5899726,119
1658855664.64242,175017.5899766,142
1658855664.64242,175017.5899804,207
1658855664.64242,175017.5899859,212
1658855664.64242,175017.5899901,30
1658855664.64242,175017.5899961,-245
1658855664.64242,175017.5900001,-259
1658855664.64242,175017.590006,119
1658855664.65738,175017.5900102,364
1658855664.65738,175017.5900142,177
1658855664.65738,175017.5900195,35
1658855664.65738,175017.5900253,114
1658855664.65738,175017.5900295,130
1658855664.65738,175017.5900335,84
1658855664.65738,175017.5900375,95
1658855664.65738,175017.5900412,112
1658855664.65738,175017.5900704,102
1658855664.65738,175018.1746917,98
1658855664.65738,175018.1747087,84
1658855664.65738,175018.1747129,72
1658855664.65738,175018.174718,79
1658855664.65738,175018.1747227,72
1658855664.65738,175018.174726,44
1658855664.65738,175018.1747291,32
1658855664.65738,175018.174732,14
1658855664.65738,175018.1747351,-25
1658855664.65738,175018.1747383,-49
1658855664.65738,175018.1747414,-44
1658855664.65738,175018.1747462,-46
1658855664.65738,175018.1747493,-60
1658855664.65738,175018.1747527,-60
1658855664.65738,175018.1747573,-53
1658855665.21875,175018.1747603,-46
1658855665.21875,175018.1747634,-16
1658855665.21875,175018.1747664,35
1658855665.21875,175018.1747695,77
1658855665.21875,175018.1747725,100
1658855665.21875,175018.1747753,114
1658855665.21875,175018.1747781,123
1658855665.21875,175018.1747811,137
1658855665.21875,175018.1747841,147
1658855665.21875,175018.1747871,133
1658855665.21875,175018.1747901,114
1658855665.21875,175018.1747929,116
1658855665.21875,175018.1747957,119
1658855665.21875,175018.1747986,116
1658855665.21875,175018.1748014,133
1658855665.21875,175018.1748042,142
1658855665.21875,175018.174807,130
1658855665.21875,175018.1748099,130
1658855665.21875,175018.1748126,144
1658855665.21875,175018.1748154,140
1658855665.21875,175018.1748181,128
1658855665.21875,175018.174821,128
1658855665.21875,175018.1748238,144
1658855665.21875,175018.1748267,151
1658855665.21875,175018.1748296,121
1658855665.21875,175018.1748327,86
1658855665.21875,175018.1748434,79
1658855665.21875,175018.1748478,98
1658855665.21875,175018.1748501,112
1658855665.21875,175018.1748523,112
1658855665.21875,175018.1748545,123
1658855665.21875,175018.1748566,144
1658855665.21875,175018.1748587,140
1658855665.21875,175018.1748608,123
1658855665.21875,175018.1748628,123
1658855665.21875,175018.1748649,140
1658855665.21875,175018.1748669,184
1658855665.21875,175018.174869,189
1658855665.21875,175018.174871,25
1658855665.21875,175018.1748732,-238
1658855665.21875,175018.1748753,-280
1658855665.21875,175018.1748774,65
1658855665.21875,175018.1748795,364
1658855665.21875,175018.1748843,231
1658855665.21875,175018.1748962,42
1658855665.21875,175018.1749019,79
1658855665.21875,175018.1749048,112
1658855665.21875,175018.1749069,84
1658855665.21875,175018.174909,100
1658855665.21875,175018.1749111,112
1658855665.23271,175018.1749142,88
1658855665.23271,175018.1749248,79
1658855665.23271,175018.1749322,77
1658855665.23271,175018.1749349,63
1658855665.23271,175018.1749421,51
1658855665.23271,175018.1749484,56
1658855665.23271,175018.1749566,46
1658855665.23271,175018.1749647,16
1658855665.23271,175018.7609862,-4
1658855665.23271,175018.7609995,-9
1658855665.23271,175018.7610037,-23
1658855665.23271,175018.7610058,-39
1658855665.23271,175018.7610081,-46
1658855665.23271,175018.7610102,-56
1658855665.23271,175018.7610123,-51
1658855665.23271,175018.7610144,-32
1658855665.23271,175018.7610165,-11
1658855665.23271,175018.7610187,16
1658855665.23271,175018.7610207,53
1658855665.23271,175018.7610229,86
1658855665.23271,175018.7610249,116
1658855665.23271,175018.7610269,140
1658855665.23271,175018.7610289,144
1658855665.23271,175018.7610342,149
1658855665.70154,175018.7610466,149
1658855665.70154,175018.7610512,121
1658855665.70154,175018.7610536,100
1658855665.70154,175018.7610556,114
1658855665.70154,175018.7610576,128
1658855665.70154,175018.7610596,121
1658855665.70154,175018.7610615,116
1658855665.70154,175018.7610648,123
1658855665.70154,175018.7610734,123
1658855665.70154,175018.7610809,119
1658855665.70154,175018.7610871,123
1658855665.70154,175018.7610937,133
1658855665.70154,175018.7610988,137
1658855665.70154,175018.7611091,142
1658855665.70154,175018.7611156,137
1658855665.70154,175018.7611189,116
1658855665.70154,175018.7611211,91
1658855665.70154,175018.7611233,84
1658855665.70154,175018.7611255,95
1658855665.70154,175018.7611277,114
1658855665.70154,175018.7611298,121
1658855665.70154,175018.7611318,114
1658855665.70154,175018.7611339,128
1658855665.70154,175018.7611361,156
1658855665.70154,175018.7611382,149
1658855665.70154,175018.7611403,126
1658855665.70154,175018.7611423,140
1658855665.70154,175018.7611444,186
1658855665.70154,175018.7611464,221
1658855665.70154,175018.7611485,149
1658855665.70154,175018.7611506,-95
1658855665.70154,175018.7611526,-310
1658855665.70154,175018.7611547,-121
1658855665.70154,175018.7611569,315
1658855665.70154,175018.761159,350
1658855665.70154,175018.7611611,86
1658855665.70154,175018.7611632,65
1658855665.70154,175018.7611653,142
1658855665.70154,175018.7611673,100
1658855665.70154,175018.7611693,98
1658855665.70154,175018.7611714,130
1658855665.70154,175018.7611735,105
1658855665.70154,175018.7611755,86
1658855665.70154,175018.7611776,98
1658855665.70154,175018.7611796,93
1658855665.70154,175018.7611817,84
1658855665.70154,175018.7611838,74
1658855665.70154,175018.7611858,53
1658855665.70154,175018.7611878,32
1658855665.70154,175018.7611899,23
1658855665.72547,175018.7611919,16
1658855665.72547,175018.761194,14
1658855665.72547,175018.7611961,2
1658855665.72547,175018.7611981,-16
1658855665.72547,175018.7612002,-35
1658855665.72547,175018.7612023,-44
1658855665.72547,175018.7612044,-28
1658855665.72547,175019.2474782,0
1658855665.72547,175019.2474984,25
1658855665.72547,175019.2475049,63
1658855665.72547,175019.2475115,102
1658855665.72547,175019.2475157,126
1658855665.72547,175019.2475197,151
1658855665.72547,175019.2475228,172
1658855665.72547,175019.2475261,170
1658855665.72547,175019.2475292,170
1658855665.72547,175019.2475324,179
1658855665.72547,175019.2475358,175
1658855665.72547,175019.2475391,158
1658855665.72547,175019.2475424,154
1658855665.72547,175019.2475461,156
1658855665.72547,175019.2475514,149
1658855665.72547,175019.2475578,140
1658855665.72547,175019.2475662,133
1658855666.34619,175019.2475728,135
1658855666.34619,175019.2475788,142
1658855666.34619,175019.247585,144
1658855666.34619,175019.2475912,135
1658855666.34619,175019.2475973,123
1658855666.34619,175019.2476034,126
1658855666.34619,175019.2476093,114
1658855666.34619,175019.2476165,81
1658855666.34619,175019.2476224,72
1658855666.34619,175019.2476286,91
1658855666.34619,175019.2476345,91
1658855666.34619,175019.2476376,84
1658855666.34619,175019.2476418,98
1658855666.34619,175019.2476469,114
1658855666.34619,175019.247652,119
1658855666.34619,175019.2476577,128
1658855666.34619,175019.2476613,128
1658855666.34619,175019.2476661,135
1658855666.34619,175019.2476708,191
1658855666.34619,175019.2476767,200
1658855666.34619,175019.2476833,21
1658855666.34619,175019.2476894,-263
1658855666.34619,175019.2476937,-289
1658855666.34619,175019.2476985,88
1658855666.34619,175019.2477016,345
1658855666.34619,175019.2477098,170
1658855666.34619,175019.2477167,32
1658855666.34619,175019.2477191,112
1658855666.34619,175019.2477212,121
1658855666.34619,175019.2477234,70
1658855666.34619,175019.2477254,81
1658855666.34619,175019.2477276,98
1658855666.34619,175019.2477296,91
1658855666.34619,175019.2477317,86
1658855666.34619,175019.2477337,77
1658855666.34619,175019.2477358,74
1658855666.34619,175019.2477378,72
1658855666.34619,175019.2477398,53
1658855666.34619,175019.2477419,35
1658855666.34619,175019.247744,23
1658855666.34619,175019.247746,7
1658855666.34619,175019.2477483,-11
1658855666.34619,175019.2477504,-23
1658855666.34619,175019.2477525,-25
1658855666.34619,175019.2477546,-25
1658855666.34619,175019.2477567,-39
1658855666.34619,175019.2477588,-51
1658855666.34619,175019.2477608,-35
1658855666.34619,175019.2477629,-11
1658855666.34619,175019.247765,14
1658855666.36414,175019.247767,67
1658855666.36414,175019.2477691,121
1658855666.36414,175019.2477711,140
1658855666.36414,175019.2477732,147
1658855666.36414,175019.2477752,151
1658855666.36414,175019.2477773,149
1658855666.36414,175019.8825832,156
1658855666.36414,175019.8825982,168
1658855666.36414,175019.8826021,161
1658855666.36414,175019.8826055,137
1658855666.36414,175019.8826088,119
1658855666.36414,175019.8826121,114
1658855666.36414,175019.8826154,123
1658855666.36414,175019.8826186,126
1658855666.36414,175019.8826219,116
1658855666.36414,175019.8826252,123
1658855666.36414,175019.8826286,119
1658855666.36414,175019.8826319,93
1658855666.36414,175019.8826353,95
1658855666.36414,175019.8826386,102
1658855666.36414,175019.8826418,70
1658855666.36414,175019.8826451,42
1658855666.36414,175019.8826489,51
1658855666.36414,175019.8826522,67
1658855666.87103,175019.8826556,70
1658855666.87103,175019.8826588,86
1658855666.87103,175019.8826636,121
1658855666.87103,175019.8826669,126
1658855666.87103,175019.8826702,105
1658855666.87103,175019.8826734,102
1658855666.87103,175019.8826768,112
1658855666.87103,175019.8826801,151
1658855666.87103,175019.8826833,210
1658855666.87103,175019.8826866,151
1658855666.87103,175019.88269,-93
1658855666.87103,175019.8826933,-324
1658855666.87103,175019.8826966,-177
1658855666.87103,175019.8826999,249
1658855666.87103,175019.8827032,338
1658855666.87103,175019.8827065,86
1658855666.87103,175019.8827098,23
1658855666.87103,175019.8827131,114
1658855666.87103,175019.8827164,100
1658855666.87103,175019.8827196,79
1658855666.87103,175019.8827229,112
1658855666.87103,175019.8827261,102
1658855666.87103,175019.8827302,72
1658855666.87103,175019.8827337,79
1658855666.87103,175019.8827369,86
1658855666.87103,175019.8827692,58
1658855666.87103,175019.8827737,32
1658855666.87103,175019.882777,32
1658855666.87103,175019.8827803,32
1658855666.87103,175019.8827836,16
1658855666.87103,175019.882787,0
1658855666.87103,175019.8827903,-18
1658855666.87103,175019.8827936,-39
1658855666.87103,175019.8827969,-44
1658855666.87103,175019.8828002,-42
1658855666.87103,175019.8828036,-39
1658855666.87103,175019.8828068,-37
1658855666.87103,175019.8828217,-16
1658855666.87103,175019.8828354,16
1658855666.87103,175019.8828483,49
1658855666.87103,175019.8828585,84
1658855666.87103,175019.8828717,121
1658855666.87103,175019.8828847,140
1658855666.87103,175019.8828979,147
1658855666.87103,175019.8829107,158
1658855666.87103,175019.8829239,165
1658855666.87103,175019.8829375,156
1658855666.87103,175019.882949,154
1658855666.87103,175019.8829619,156
1658855666.87103,175019.882976,154
1658855666.88698,175019.8829891,142
1658855666.88698,175019.8829974,140
1658855666.88698,175019.8830015,151
1658855666.88698,175019.8830036,158
1658855666.88698,175019.8830057,156
1658855666.88698,175020.4175282,147
1658855666.88698,175020.4175485,140
1658855666.88698,175020.4175848,144
1658855666.88698,175020.417593,128
1658855666.88698,175020.417617,86
1658855666.88698,175020.4176262,70
1658855666.88698,175020.4176303,79
1658855666.88698,175020.4176352,91
1658855666.88698,175020.4176388,105
1658855666.88698,175020.4176424,126
1658855666.88698,175020.417646,147
1658855666.88698,175020.417651,154
1658855666.88698,175020.4176545,140
1658855666.88698,175020.4176582,114
1658855666.88698,175020.4176623,100
1658855666.88698,175020.4176673,142
1658855666.88698,175020.4176713,207
1658855666.88698,175020.4176762,112
1658855666.88698,175020.417739,-170
1658855667.46762,175020.4177513,-362
1658855667.46762,175020.4177573,-130
1658855667.46762,175020.4177643,310
1658855667.46762,175020.4177711,329
1658855667.46762,175020.4177782,49
1658855667.46762,175020.4177854,14
1658855667.46762,175020.4177908,88
1658855667.46762,175020.417795,42
1658855667.46762,175020.4178019,14
1658855667.46762,175020.4178089,44
1658855667.46762,175020.4178136,39
1658855667.46762,175020.4178275,23
1658855667.46762,175020.41785,25
1658855667.46762,175020.4178658,14
1658855667.46762,175020.4178858,-2
1658855667.46762,175020.417893,2
1658855667.46762,175020.4178993,0
1658855667.46762,175020.417903,-23
1658855667.46762,175020.4179069,-39
1658855667.46762,175020.4179112,-56
1658855667.46762,175020.4179176,-74
1658855667.46762,175020.417924,-84
1658855667.46762,175020.4179274,-81
1658855667.46762,175020.4179326,-77
1658855667.46762,175020.4179379,-77
1658855667.46762,175020.4179457,-72
1658855667.46762,175020.4179601,-42
1658855667.46762,175020.4179728,9
1658855667.46762,175020.4179874,56
1658855667.46762,175020.4180015,88
1658855667.46762,175020.4180146,109
1658855667.46762,175020.4180278,123
1658855667.46762,175020.418041,137
1658855667.46762,175020.4180542,142
1658855667.46762,175020.4180675,140
1658855667.46762,175020.4180807,147
1658855667.46762,175020.4180939,151
1658855667.46762,175020.4181073,142
1658855667.46762,175020.4181206,137
1658855667.46762,175020.4181323,149
1658855667.46762,175020.4181599,147
1658855667.46762,175020.4181778,137
1658855667.46762,175020.4181896,147
1658855667.46762,175020.4182042,163
1658855667.46762,175020.4182173,168
1658855667.46762,175020.4182303,156
1658855667.46762,175020.4182421,137
1658855667.46762,175020.4182518,119
1658855667.46762,175020.4182584,109
1658855667.46762,175020.4182646,109
1658855667.49255,175020.4182713,116
1658855667.49255,175020.4182777,121
1658855667.49255,175020.4182847,130
1658855667.49255,175020.4182911,161
1658855667.49255,175021.0044083,182
1658855667.49255,175021.0044289,175
1658855667.49255,175021.0044426,175
1658855667.49255,175021.0044543,177
1658855667.49255,175021.0044645,191
1658855667.49255,175021.004468,252
1658855667.49255,175021.004471,254
1658855667.49255,175021.004474,56
1658855667.49255,175021.0044773,-249
1658855667.49255,175021.0044805,-268
1658855667.49255,175021.0044853,156
1658855667.49255,175021.0044903,408
1658855667.49255,175021.0044934,172
1658855667.49255,175021.0044964,21
1658855667.49255,175021.0044993,114
1658855667.49255,175021.0045021,116
1658855667.49255,175021.0045052,67
1658855667.49255,175021.0045083,84
1658855667.49255,175021.0045116,81
1658855667.49255,175021.004515,60
1658855668.00318,175021.0045191,63
1658855668.00318,175021.0045228,58
1658855668.00318,175021.0045271,44
1658855668.00318,175021.0045317,35
1658855668.00318,175021.0045354,28
1658855668.00318,175021.0045403,16
1658855668.00318,175021.0045444,-4
1658855668.00318,175021.0045475,-21
1658855668.00318,175021.0045504,-25
1658855668.00318,175021.0045535,-28
1658855668.00318,175021.0045597,-44
1658855668.00318,175021.0045644,-56
1658855668.00318,175021.0045684,-46
1658855668.00318,175021.0045737,-30
1658855668.00318,175021.0045807,-9
1658855668.00318,175021.0045877,21
1658855668.00318,175021.0045946,60
1658855668.00318,175021.0046001,86
1658855668.00318,175021.0046043,114
1658855668.00318,175021.0046086,154
1658855668.00318,175021.0046143,172
1658855668.00318,175021.0046216,170
1658855668.00318,175021.0046275,161
1658855668.00318,175021.0046325,147
1658855668.00318,175021.0046383,147
1658855668.00318,175021.0046422,154
1658855668.00318,175021.0046468,144
1658855668.00318,175021.0046505,137
1658855668.00318,175021.0046536,142
1658855668.00318,175021.0046567,147
1658855668.00318,175021.0046598,156
1658855668.00318,175021.0046628,158
1658855668.00318,175021.0046658,151
1658855668.00318,175021.0046728,154
1658855668.00318,175021.0046784,144
1658855668.00318,175021.0046815,109
1658855668.00318,175021.0046845,86
1658855668.00318,175021.0046875,95
1658855668.00318,175021.0046904,112
1658855668.00318,175021.0046935,123
1658855668.00318,175021.0046964,130
1658855668.00318,175021.0046994,142
1658855668.00318,175021.0047024,156
1658855668.00318,175021.0047053,151
1658855668.00318,175021.0047083,154
1658855668.00318,175021.0047113,172
1658855668.00318,175021.0047143,186
1658855668.00318,175021.0047173,226
1658855668.00318,175021.0047203,235
1658855668.00318,175021.0047233,58
1658855668.02013,175021.0047263,-231
1658855668.02013,175021.0047292,-235
1658855668.02013,175021.0047323,163
1658855668.02013,175021.5391151,385
1658855668.02013,175021.5391435,165
1658855668.02013,175021.5391499,35
1658855668.02013,175021.5391537,130
1658855668.02013,175021.5391572,126
1658855668.02013,175021.5391606,67
1658855668.02013,175021.5391638,91
1658855668.02013,175021.5391671,112
1658855668.02013,175021.5391705,93
1658855668.02013,175021.5391739,74
1658855668.02013,175021.5391774,79
1658855668.02013,175021.5391819,79
1658855668.02013,175021.5391859,58
1658855668.02013,175021.539192,30
1658855668.02013,175021.5391981,14
1658855668.02013,175021.5392044,0
1658855668.02013,175021.5392092,-16
1658855668.02013,175021.5392138,-35
1658855668.02013,175021.5392202,-44
1658855668.02013,175021.5392266,-44
1658855668.02013,175021.5392302,-51
1658855668.5948,175021.5392336,-56
1658855668.5948,175021.5392373,-53
1658855668.5948,175021.539241,-32
1658855668.5948,175021.5392446,9
1658855668.5948,175021.5392485,46
1658855668.5948,175021.5392521,74
1658855668.5948,175021.5392556,100
1658855668.5948,175021.539259,119
1658855668.5948,175021.5392625,130
1658855668.5948,175021.5392663,140
1658855668.5948,175021.53927,140
1658855668.5948,175021.5392734,137
1658855668.5948,175021.5392773,137
1658855668.5948,175021.5392811,133
1658855668.5948,175021.5392847,119
1658855668.5948,175021.5392885,102
1658855668.5948,175021.5392923,109
1658855668.5948,175021.5392964,121
1658855668.5948,175021.5393033,114
1658855668.5948,175021.5393138,114
1658855668.5948,175021.53932,123
1658855668.5948,175021.5393284,112
1658855668.5948,175021.5393337,86
1658855668.5948,175021.5393408,63
1658855668.5948,175021.5393482,56
1658855668.5948,175021.5393536,74
1658855668.5948,175021.5393581,95
1658855668.5948,175021.5393619,100
1658855668.5948,175021.5393659,121
1658855668.5948,175021.5393698,154
1658855668.5948,175021.5393744,156
1658855668.5948,175021.5393784,144
1658855668.5948,175021.5393834,149
1658855668.5948,175021.5393874,154
1658855668.5948,175021.5393922,189
1658855668.5948,175021.539399,240
1658855668.5948,175021.5394032,161
1658855668.5948,175021.5394089,-91
1658855668.5948,175021.539415,-268
1658855668.5948,175021.5394191,-51
1658855668.5948,175021.5394228,338
1658855668.5948,175021.5394266,317
1658855668.5948,175021.5394315,65
1658855668.5948,175021.5394352,70
1658855668.5948,175021.539439,156
1658855668.5948,175021.5394436,112
1658855668.5948,175021.5394493,91
1658855668.5948,175021.5394533,116
1658855668.5948,175021.539458,105
1658855668.5948,175021.539462,88
1658855668.61974,175021.5394684,88
1658855668.61974,175021.5394723,79
1658855668.61974,175022.1231856,74
1658855668.61974,175022.1231992,70
1658855668.61974,175022.1232026,56
1658855668.61974,175022.1232146,35
1658855668.61974,175022.1232267,9
1658855668.61974,175022.1232321,-9
1658855668.61974,175022.1232342,-7
1658855668.61974,175022.1232363,-9
1658855668.61974,175022.1232386,-25
1658855668.61974,175022.1232406,-25
1658855668.61974,175022.1232427,-30
1658855668.61974,175022.1232458,-42
1658855668.61974,175022.1232551,-14
1658855668.61974,175022.1232623,35
1658855668.61974,175022.1232668,72
1658855668.61974,175022.1232736,109
1658855668.61974,175022.1232799,140
1658855668.61974,175022.1232902,137
1658855668.61974,175022.123295,135
1658855668.61974,175022.1232972,154
1658855668.61974,175022.1233014,158
1658855668.61974,175022.1233042,151
1658855669.06939,175022.1233116,149
1658855669.06939,175022.1233193,144
1658855669.06939,175022.1233265,135
1658855669.06939,175022.1233321,135
1658855669.06939,175022.1233376,140
1658855669.06939,175022.1233671,130
1658855669.06939,175022.123376,128
1658855669.06939,175022.1233815,140
1658855669.06939,175022.1233865,128
1658855669.06939,175022.1233917,88
1658855669.06939,175022.1234039,63
1658855669.06939,175022.1234125,65
1658855669.06939,175022.1234191,81
1658855669.06939,175022.1234274,100
1658855669.06939,175022.1234344,100
1658855669.06939,175022.1234425,102
1658855669.06939,175022.1234475,135
1658855669.06939,175022.1234565,161
1658855669.06939,175022.1234655,156
1658855669.06939,175022.1234695,144
1658855669.06939,175022.123474,144
1658855669.06939,175022.123477,179
1658855669.06939,175022.12348,231
1658855669.06939,175022.1234831,182
1658855669.06939,175022.1234861,-53
1658855669.06939,175022.1234891,-275
1658855669.06939,175022.123492,-109
1658855669.06939,175022.123495,310
1658855669.06939,175022.1234982,355
1658855669.06939,175022.1235012,86
1658855669.06939,175022.1235041,46
1658855669.06939,175022.1235071,137
1658855669.06939,175022.1235101,112
1658855669.06939,175022.1235131,79
1658855669.06939,175022.1235161,102
1658855669.06939,175022.123519,109
1658855669.06939,175022.123522,88
1658855669.06939,175022.123525,70
1658855669.06939,175022.123528,70
1658855669.06939,175022.1235309,70
1658855669.06939,175022.1235339,53
1658855669.06939,175022.1235368,44
1658855669.06939,175022.1235397,32
1658855669.06939,175022.1235427,4
1658855669.06939,175022.1235457,-21
1658855669.06939,175022.1235487,-25
1658855669.06939,175022.1235517,-28
1658855669.06939,175022.1235546,-39
1658855669.06939,175022.1235576,-51
1658855669.06939,175022.1235606,-49
1658855669.09532,175022.1235638,-25
1658855669.09532,175022.6113755,-2
1658855669.09532,175022.6113952,30
1658855669.09532,175022.61141,81
1658855669.09532,175022.6114241,123
1658855669.09532,175022.6114384,144
1658855669.09532,175022.6114519,154
1658855669.09532,175022.6114649,170
1658855669.09532,175022.6114778,172
1658855669.09532,175022.6114875,154
1658855669.09532,175022.6114949,147
1658855669.09532,175022.6115021,154
1658855669.09532,175022.6115132,154
1658855669.09532,175022.6115226,144
1658855669.09532,175022.6115271,147
1658855669.09532,175022.6115326,137
1658855669.09532,175022.6115367,112
1658855669.09532,175022.6115421,107
1658855669.09532,175022.6115472,128
1658855669.09532,175022.6115508,126
1658855669.09532,175022.6115545,95
1658855669.09532,175022.6115608,74
1658855669.09532,175022.6115705,60
1658855669.09532,175022.6115806,51
1658855669.71339,175022.6115864,63
1658855669.71339,175022.6115902,84
1658855669.71339,175022.6115939,88
1658855669.71339,175022.6115974,91
1658855669.71339,175022.6116028,119
1658855669.71339,175022.6116125,135
1658855669.71339,175022.6116187,130
1658855669.71339,175022.6116244,130
1658855669.71339,175022.6116289,142
1658855669.71339,175022.611633,182
1658855669.71339,175022.6116368,198
1658855669.71339,175022.6116405,53
1658855669.71339,175022.6116443,-224
1658855669.71339,175022.6116482,-282
1658855669.71339,175022.6116522,100
1658855669.71339,175022.6116561,422
1658855669.71339,175022.6116608,242
1658855669.71339,175022.6116648,23
1658855669.71339,175022.6116684,84
1658855669.71339,175022.6116743,123
1658855669.71339,175022.6116782,74
1658855669.71339,175022.6116823,91
1658855669.71339,175022.6116861,112
1658855669.71339,175022.6116918,86
1658855669.71339,175022.6116971,72
1658855669.71339,175022.6117012,74
1658855669.71339,175022.6117063,67
1658855669.71339,175022.611711,60
1658855669.71339,175022.6117164,49
1658855669.71339,175022.6117204,23
1658855669.71339,175022.6117257,4
1658855669.71339,175022.6117296,-11
1658855669.71339,175022.6117348,-30
1658855669.71339,175022.6117388,-37
1658855669.71339,175022.6117443,-37
1658855669.71339,175022.611748,-49
1658855669.71339,175022.6117532,-51
1658855669.71339,175022.6117585,-32
1658855669.71339,175022.6117637,-14
1658855669.71339,175022.6117682,11
1658855669.71339,175022.6117733,60
1658855669.71339,175022.611777,105
1658855669.71339,175022.6117808,130
1658855669.71339,175022.611786,151
1658855669.71339,175022.6117897,168
1658855669.71339,175022.6117948,175
1658855669.71339,175022.6117986,184
1658855669.71339,175022.6118038,203
1658855669.71339,175022.6118075,200
1658855669.71339,175022.6118113,182
1658855669.73433,175023.2450368,179
1658855669.73433,175023.2450577,186
1658855669.73433,175023.2450728,184
1658855669.73433,175023.2450863,182
1658855669.73433,175023.2450964,170
1658855669.73433,175023.245104,154
1658855669.73433,175023.2451149,147
1658855669.73433,175023.2451258,144
1658855669.73433,175023.2451332,130
1658855669.73433,175023.2451439,107
1658855669.73433,175023.2451552,67
1658855669.73433,175023.2451618,49
1658855669.73433,175023.245175,70
1658855669.73433,175023.245186,88
1658855669.73433,175023.245195,84
1658855669.73433,175023.2452056,91
1658855669.73433,175023.2452163,126
1658855669.73433,175023.245226,133
1658855669.73433,175023.2452603,114
1658855669.73433,175023.2452671,116
1658855669.73433,175023.2452715,149
1658855669.73433,175023.2452762,200
1658855669.73433,175023.245283,198
1658855669.73433,175023.2452879,16
1658855670.28617,175023.2452938,-266
1658855670.28617,175023.245298,-245
1658855670.28617,175023.2453021,177
1658855670.28617,175023.245306,380
1658855670.28617,175023.2453114,144
1658855670.28617,175023.2453181,21
1658855670.28617,175023.2453242,112
1658855670.28617,175023.2453309,112
1658855670.28617,175023.245338,72
1658855670.28617,175023.2453425,100
1658855670.28617,175023.2453544,107
1658855670.28617,175023.2453604,79
1658855670.28617,175023.2453648,77
1658855670.28617,175023.2453689,84
1658855670.28617,175023.2453732,70
1658855670.28617,175023.24538,58
1658855670.28617,175023.2453841,49
1658855670.28617,175023.2453883,28
1658855670.28617,175023.2453926,4
1658855670.28617,175023.2453983,-9
1658855670.28617,175023.2454379,-21
1658855670.28617,175023.2454429,-37
1658855670.28617,175023.2454486,-37
1658855670.28617,175023.2454528,-30
1658855670.28617,175023.2454585,-37
1658855670.28617,175023.2454626,-42
1658855670.28617,175023.245471,-21
1658855670.28617,175023.2454777,16
1658855670.28617,175023.2454862,53
1658855670.28617,175023.2454933,91
1658855670.28617,175023.2455008,128
1658855670.28617,175023.2455068,156
1658855670.28617,175023.245511,168
1658855670.28617,175023.2455165,170
1658855670.28617,175023.2455207,158
1658855670.28617,175023.2455264,161
1658855670.28617,175023.2455305,184
1658855670.28617,175023.2455365,184
1658855670.28617,175023.2455418,163
1658855670.28617,175023.2455475,154
1658855670.28617,175023.2455523,154
1658855670.28617,175023.2455578,154
1658855670.28617,175023.2455625,158
1658855670.28617,175023.2455686,158
1658855670.28617,175023.2455729,149
1658855670.28617,175023.2455785,135
1658855670.28617,175023.2455838,121
1658855670.28617,175023.2455897,109
1658855670.28617,175023.2455958,98
1658855670.28617,175023.8300685,95
1658855670.31061,175023.8300963,112
1658855670.31061,175023.8301047,119
1658855670.31061,175023.8301085,119
1658855670.31061,175023.8301138,133
1658855670.31061,175023.8301193,147
1658855670.31061,175023.8301245,140
1658855670.31061,175023.830128,126
1658855670.31061,175023.8301316,128
1658855670.31061,175023.8301365,175
1658855670.31061,175023.830144,235
1658855670.31061,175023.8301474,161
1658855670.31061,175023.8301521,-84
1658855670.31061,175023.8301575,-284
1658855670.31061,175023.8301633,-114
1658855670.31061,175023.8301668,273
1658855670.31061,175023.8301703,291
1658855670.31061,175023.8301756,44
1658855670.31061,175023.8301807,37
1658855670.31061,175023.830184,119
1658855670.31061,175023.8301891,56
1658855670.31061,175023.8301923,23
1658855670.31061,175023.8301954,67
1658855670.31061,175023.8301989,72
1658855670.31061,175023.8302025,53
1658855670.83696,175023.8302077,46
1658855670.83696,175023.8302121,32
1658855670.83696,175023.8302156,23
1658855670.83696,175023.8302193,28
1658855670.83696,175023.8302229,21
1658855670.83696,175023.8302264,2
1658855670.83696,175023.8302299,-14
1658855670.83696,175023.8302335,-35
1658855670.83696,175023.8302367,-53
1658855670.83696,175023.8302401,-53
1658855670.83696,175023.8302431,-49
1658855670.83696,175023.8302465,-58
1658855670.83696,175023.8302496,-63
1658855670.83696,175023.830253,-46
1658855670.83696,175023.8302561,-23
1658855670.83696,175023.8302594,11
1658855670.83696,175023.8302624,65
1658855670.83696,175023.8302658,112
1658855670.83696,175023.8302691,126
1658855670.83696,175023.8302724,135
1658855670.83696,175023.8302762,154
1658855670.83696,175023.8302812,163
1658855670.83696,175023.8302874,163
1658855670.83696,175023.8302916,165
1658855670.83696,175023.8302949,156
1658855670.83696,175023.8303009,154
1658855670.83696,175023.8303073,165
1658855670.83696,175023.8303108,161
1658855670.83696,175023.8303141,151
1658855670.83696,175023.8303174,161
1658855670.83696,175023.8303206,172
1658855670.83696,175023.830324,168
1658855670.83696,175023.8303289,156
1658855670.83696,175023.8303339,142
1658855670.83696,175023.8303372,121
1658855670.83696,175023.8303407,91
1658855670.83696,175023.8303457,79
1658855670.83696,175023.8303495,112
1658855670.83696,175023.8303532,140
1658855670.83696,175023.8303583,123
1658855670.83696,175023.8303617,121
1658855670.83696,175023.8303661,154
1658855670.83696,175023.8303732,177
1658855670.83696,175023.8303871,170
1658855670.83696,175023.8303906,158
1658855670.83696,175023.8304601,161
1658855670.83696,175023.8304687,191
1658855670.83696,175023.8304722,205
1658855670.83696,175024.366086,79
1658855670.83696,175024.3660987,-182
1658855670.85591,175024.3661013,-266
1658855670.85591,175024.3661037,65
1658855670.85591,175024.366106,373
1658855670.85591,175024.3661081,221
1658855670.85591,175024.3661102,30
1658855670.85591,175024.3661122,98
1658855670.85591,175024.3661144,128
1658855670.85591,175024.3661165,77
1658855670.85591,175024.3661185,81
1658855670.85591,175024.3661206,81
1658855670.85591,175024.3661229,65
1658855670.85591,175024.3661277,70
1658855670.85591,175024.3661384,67
1658855670.85591,175024.3661465,51
1658855670.85591,175024.3661554,37
1658855670.85591,175024.3661629,11
1658855670.85591,175024.3661656,-18
1658855670.85591,175024.3661678,-23
1658855670.85591,175024.3661699,-28
1658855670.85591,175024.366172,-42
1658855670.85591,175024.3661741,-53
1658855670.85591,175024.3661762,-60
1658855670.85591,175024.3661783,-74
1658855670.85591,175024.3661805,-77
1658855671.41916,175024.3661826,-63
1658855671.41916,175024.3661846,-49
1658855671.41916,175024.3661866,-28
1658855671.41916,175024.3661885,9
1658855671.41916,175024.3661907,51
1658855671.41916,175024.3661928,86
1658855671.41916,175024.3661947,116
1658855671.41916,175024.3661967,137
1658855671.41916,175024.3661986,147
1658855671.41916,175024.3662006,142
1658855671.41916,175024.3662026,142
1658855671.41916,175024.3662046,147
1658855671.41916,175024.3662065,147
1658855671.41916,175024.3662085,144
1658855671.41916,175024.3662109,140
1658855671.41916,175024.3662213,137
1658855671.41916,175024.3662335,137
1658855671.41916,175024.3662416,135
1658855671.41916,175024.3662452,137
1658855671.41916,175024.3662475,142
1658855671.41916,175024.3662496,142
1658855671.41916,175024.3662518,130
1658855671.41916,175024.3662539,107
1658855671.41916,175024.366257,77
1658855671.41916,175024.3662702,65
1658855671.41916,175024.366276,93
1658855671.41916,175024.3662784,119
1658855671.41916,175024.3662805,114
1658855671.41916,175024.3662825,128
1658855671.41916,175024.3662846,156
1658855671.41916,175024.3662866,144
1658855671.41916,175024.3662886,123
1658855671.41916,175024.3662907,130
1658855671.41916,175024.3662928,168
1658855671.41916,175024.3662949,219
1658855671.41916,175024.366297,193
1658855671.41916,175024.3662991,-2
1658855671.41916,175024.3663012,-266
1658855671.41916,175024.3663033,-238
1658855671.41916,175024.3663053,172
1658855671.41916,175024.3663074,373
1658855671.41916,175024.3663095,128
1658855671.41916,175024.3663116,-2
1658855671.41916,175024.3663137,102
1658855671.41916,175024.3663158,105
1658855671.41916,175024.3663178,56
1658855671.41916,175024.36632,88
1658855671.41916,175024.9512241,98
1658855671.41916,175024.9512423,56
1658855671.41916,175024.9512502,53
1658855671.45406,175024.951267,72
1658855671.45406,175024.9512802,63
1658855671.45406,175024.9512887,32
1658855671.45406,175024.9512953,11
1658855671.45406,175024.9513011,-11
1658855671.45406,175024.9513063,-37
1658855671.45406,175024.9513136,-46
1658855671.45406,175024.9513273,-44
1658855671.45406,175024.9513373,-56
1658855671.45406,175024.9513462,-77
1658855671.45406,175024.951354,-81
1658855671.45406,175024.9513603,-81
1658855671.45406,175024.9513681,-84
1658855671.45406,175024.9513768,-60
1658855671.45406,175024.9513814,-28
1658855671.45406,175024.9513855,4
1658855671.45406,175024.9513934,51
1658855671.45406,175024.951442,88
1658855671.45406,175024.9514555,95
1658855671.45406,175024.9514653,109
1658855671.45406,175024.9514745,123
1658855671.45406,175024.9514859,123
1658855671.45406,175024.9514929,123
1658855671.45406,175024.9515004,123
1658855671.90072,175024.9515095,116
1658855671.90072,175024.9515124,105

1658855671.90072,175024.9515147,105
1658855671.90072,175024.9515229,107
1658855671.90072,175024.9515313,116
1658855671.90072,175024.9515395,130
1658855671.90072,175024.9515485,135
1658855671.90072,175024.9515547,133
1658855671.90072,175024.9515602,126
1658855671.90072,175024.9515643,102
1658855671.90072,175024.9515775,81
1658855671.90072,175024.9515919,67
1658855671.90072,175024.9516052,60
1658855671.90072,175024.9516137,74
1658855671.90072,175024.9516163,88
1658855671.90072,175024.9516185,93
1658855671.90072,175024.9516207,126
1658855671.90072,175024.9516228,149
1658855671.90072,175024.9516295,123
1658855671.90072,175024.9516404,109
1658855671.90072,175024.951645,123
1658855671.90072,175024.9516472,165
1658855671.90072,175024.9516499,203
1658855671.90072,175024.9516602,112
1658855671.90072,175024.9516675,-156
1658855671.90072,175024.95167,-352
1658855671.90072,175024.9516721,-112
1658855671.90072,175024.9516742,340
1658855671.90072,175024.9516817,345
1658855671.90072,175024.9516923,56
1658855671.90072,175024.9517021,14
1658855671.90072,175024.9517103,86
1658855671.90072,175024.9517179,53
1658855671.90072,175024.9517215,46
1658855671.90072,175024.9517237,72
1658855671.90072,175024.9517259,56
1658855671.90072,175024.951728,39
1658855671.90072,175024.9517301,44
1658855671.90072,175024.9517321,39
1658855671.90072,175024.9517342,37
1658855671.90072,175024.9517421,28
1658855671.90072,175024.9517531,4
1658855671.90072,175024.9517633,-9
1658855671.90072,175024.9518265,-21
1658855671.90072,175024.9518399,-49
1658855671.90072,175024.9518535,-72
1658855671.90072,175025.4389383,-67
1658855671.90072,175025.4389628,-56
1658855671.90072,175025.4389715,-58
1658855671.90072,175025.4389801,-63
1658855671.92588,175025.4389868,-60
1658855671.92588,175025.438993,-42
1658855671.92588,175025.4389971,0
1658855671.92588,175025.4390003,53
1658855671.92588,175025.4390034,100
1658855671.92588,175025.4390065,119
1658855671.92588,175025.4390133,114
1658855671.92588,175025.4390218,119
1658855671.92588,175025.439028,137
1658855671.92588,175025.439037,144
1658855671.92588,175025.4390445,147
1658855671.92588,175025.4390514,156
1658855671.92588,175025.4390597,137
1658855671.92588,175025.4390667,102
1658855671.92588,175025.4390761,102
1658855671.92588,175025.4390827,121
1658855671.92588,175025.4390922,128
1658855671.92588,175025.4391014,130
1658855671.92588,175025.4391109,137
1658855671.92588,175025.4391199,135
1658855671.92588,175025.4391268,114
1658855671.92588,175025.4391351,95
1658855671.92588,175025.4391417,91
1658855671.92588,175025.4391502,84
1658855672.44553,175025.4391564,95
1658855672.44553,175025.4391628,114
1658855672.44553,175025.439169,112
1658855672.44553,175025.4391755,121
1658855672.44553,175025.4391824,161
1658855672.44553,175025.4391888,175
1658855672.44553,175025.439195,158
1658855672.44553,175025.4391984,154
1658855672.44553,175025.4392036,186
1658855672.44553,175025.4392082,242
1658855672.44553,175025.4392142,219
1658855672.44553,175025.4392189,18
1658855672.44553,175025.439223,-261
1658855672.44553,175025.439226,-228
1658855672.44553,175025.439229,217
1658855672.44553,175025.439232,429
1658855672.44553,175025.439235,163
1658855672.44553,175025.439238,32
1658855672.44553,175025.439241,147
1658855672.44553,175025.4392444,133
1658855672.44553,175025.4392492,60
1658855672.44553,175025.4392546,91
1658855672.44553,175025.4392685,123
1658855672.44553,175025.4392785,107
1658855672.44553,175025.4392871,93
1658855672.44553,175025.4392927,86
1658855672.44553,175025.4393008,65
1658855672.44553,175025.4393091,53
1658855672.44553,175025.4393162,53
1658855672.44553,175025.4393227,46
1658855672.44553,175025.4393297,30
1658855672.44553,175025.4393358,14
1658855672.44553,175025.4393401,2
1658855672.44553,175025.4393487,-9
1658855672.44553,175025.4393553,-21
1658855672.44553,175025.4393617,-23
1658855672.44553,175025.4393685,-21
1658855672.44553,175025.4393767,-14
1658855672.44553,175025.439385,4
1658855672.44553,175025.4393906,28
1658855672.44553,175025.4394491,72
1658855672.44553,175025.4394588,119
1658855672.44553,175025.4394678,144
1658855672.44553,175025.4394744,161
1658855672.44553,175025.4394814,179
1658855672.44553,175025.9746137,177
1658855672.44553,175025.974627,168
1658855672.44553,175025.9746298,177
1658855672.44553,175025.9746319,186
1658855672.44553,175025.9746341,179
1658855672.46348,175025.9746362,168
1658855672.46348,175025.9746382,158
1658855672.46348,175025.9746403,151
1658855672.46348,175025.9746424,149
1658855672.46348,175025.9746445,156
1658855672.46348,175025.9746465,151
1658855672.46348,175025.9746486,142
1658855672.46348,175025.974652,144
1658855672.46348,175025.9746599,128
1658855672.46348,175025.9746872,86
1658855672.46348,175025.9747005,60
1658855672.46348,175025.9747085,58
1658855672.46348,175025.9747147,74
1658855672.46348,175025.9747411,93
1658855672.46348,175025.9747493,98
1658855672.46348,175025.9747545,114
1658855672.46348,175025.9747906,142
1658855672.46348,175025.9747996,154
1658855672.46348,175025.9748082,142
1658855672.46348,175025.9748175,142
1658855672.46348,175025.9748235,189
1658855672.46348,175025.9748267,231
1658855672.46348,175025.9748306,137
1658855672.46348,175025.9748598,-116
1658855673.11877,175025.97487,-289
1658855673.11877,175025.9749043,-60
1658855673.11877,175025.9749504,319
1658855673.11877,175025.9749611,273
1658855673.11877,175025.9749725,37
1658855673.11877,175025.9749794,63
1658855673.11877,175025.975002,135
1658855673.11877,175025.9750158,84
1658855673.11877,175025.9750247,70
1658855673.11877,175025.9750335,107
1658855673.11877,175025.9750418,98
1658855673.11877,175025.9750444,70
1658855673.11877,175025.9750508,60
1658855673.11877,175025.9750639,53
1658855673.11877,175025.9750788,42
1658855673.11877,175025.975087,32
1658855673.11877,175025.9750929,25
1658855673.11877,175025.9750968,9
1658855673.11877,175025.9751021,-2
1658855673.11877,175025.9751069,-9
1658855673.11877,175025.9751124,-23
1658855673.11877,175025.9751162,-42
1658855673.11877,175025.9751215,-51
1658855673.11877,175025.9751254,-58
1658855673.11877,175025.9751312,-46
1658855673.11877,175025.9751359,-23
1658855673.11877,175025.9751409,2
1658855673.11877,175025.9751449,32
1658855673.11877,175025.9751484,65
1658855673.11877,175025.9751522,100
1658855673.11877,175025.9751562,135
1658855673.11877,175025.9751614,151
1658855673.11877,175025.9751665,154
1658855673.11877,175025.9751729,156
1658855673.11877,175025.9751775,149
1658855673.11877,175025.9751818,147
1658855673.11877,175025.9751881,151
1658855673.11877,175025.9751927,149
1658855673.11877,175025.9751984,151
1658855673.11877,175025.9752029,161
1658855673.11877,175025.9752079,156
1658855673.11877,175025.9752113,151
1658855673.11877,175025.9752147,163
1658855673.11877,175025.9752202,158
1658855673.11877,175026.6582022,140
1658855673.11877,175026.6582212,128
1658855673.11877,175026.6582278,114
1658855673.11877,175026.6582363,84
1658855673.11877,175026.6582397,56
1658855673.11877,175026.658243,65
1658855673.13572,175026.6582493,88
1658855673.13572,175026.6582524,93
1658855673.13572,175026.6582581,102
1658855673.13572,175026.6582613,128
1658855673.13572,175026.6582659,126
1658855673.13572,175026.6582698,112
1658855673.13572,175026.6582728,114
1658855673.13572,175026.658276,144
1658855673.13572,175026.65828,193
1658855673.13572,175026.658299,142
1658855673.13572,175026.6583146,-84
1658855673.13572,175026.6583211,-303
1658855673.13572,175026.6583262,-163
1658855673.13572,175026.6583306,252
1658855673.13572,175026.6583349,326
1658855673.13572,175026.65834,60
1658855673.13572,175026.6583444,4
1658855673.13572,175026.6583488,100
1658855673.13572,175026.6583539,67
1658855673.13572,175026.6583608,30
1658855673.13572,175026.6583805,65
1658855673.13572,175026.6583851,79
1658855673.13572,175026.6583894,72
1658855673.13572,175026.6583945,63
1658855673.59863,175026.6583989,51
1658855673.59863,175026.6584044,44
1658855673.59863,175026.6584088,35
1658855673.59863,175026.6584129,16
1658855673.59863,175026.6584173,-7
1658855673.59863,175026.6584221,-25
1658855673.59863,175026.6584262,-42
1658855673.59863,175026.6584305,-49
1658855673.59863,175026.6584347,-56
1658855673.59863,175026.6584388,-79
1658855673.59863,175026.6584431,-84
1658855673.59863,175026.6584563,-60
1658855673.59863,175026.6584623,-49
1658855673.59863,175026.6584664,-32
1658855673.59863,175026.6584705,9
1658855673.59863,175026.658475,53
1658855673.59863,175026.6584791,91
1658855673.59863,175026.6584842,123
1658855673.59863,175026.6584909,140
1658855673.59863,175026.658495,142
1658855673.59863,175026.6585007,158
1658855673.59863,175026.6585056,168
1658855673.59863,175026.6585116,144
1658855673.59863,175026.6585157,133
1658855673.59863,175026.6585199,147
1658855673.59863,175026.6585256,149
1658855673.59863,175026.6585381,142
1658855673.59863,175026.6585457,147
1658855673.59863,175026.65855,149
1658855673.59863,175026.6585539,151
1658855673.59863,175026.6585579,147
1658855673.59863,175026.65857,142
1658855673.59863,175026.6585747,128
1658855673.59863,175026.6585821,107
1658855673.59863,175026.6586132,91
1658855673.59863,175026.6586181,81
1658855673.59863,175026.6586223,77
1658855673.59863,175026.6586262,105
1658855673.59863,175026.6586303,135
1658855673.59863,175026.6586344,140
1658855673.59863,175026.6586393,137
1658855673.59863,175026.6586456,147
1658855673.59863,175026.6586498,158
1658855673.59863,175027.1446328,156
1658855673.59863,175027.144648,161
1658855673.59863,175027.1446508,217
1658855673.59863,175027.1446529,207
1658855673.59863,175027.1446551,-9
1658855673.59863,175027.1446572,-301
1658855673.59863,175027.1446592,-242
1658855673.61957,175027.1446613,207
1658855673.61957,175027.1446634,399
1658855673.61957,175027.1446654,156
1658855673.61957,175027.1446675,42
1658855673.61957,175027.1446695,128
1658855673.61957,175027.1446715,102
1658855673.61957,175027.1446736,30
1658855673.61957,175027.1446757,28
1658855673.61957,175027.1446778,46
1658855673.61957,175027.1446845,53
1658855673.61957,175027.144696,49
1658855673.61957,175027.1447017,42
1658855673.61957,175027.144705,25
1658855673.61957,175027.1447072,0
1658855673.61957,175027.1447094,-14
1658855673.61957,175027.1447115,-21
1658855673.61957,175027.1447136,-39
1658855673.61957,175027.1447157,-63
1658855673.61957,175027.1447179,-81
1658855673.61957,175027.14472,-98
1658855673.61957,175027.1447223,-112
1658855673.61957,175027.1447305,-114
1658855673.61957,175027.1447427,-107
1658855673.61957,175027.1447563,-91
1658855674.15033,175027.1447627,-63
1658855674.15033,175027.144765,-39
1658855674.15033,175027.1447671,-9
1658855674.15033,175027.1447693,42
1658855674.15033,175027.1447712,95
1658855674.15033,175027.1447737,123
1658855674.15033,175027.1447827,133
1658855674.15033,175027.1447959,137
1658855674.15033,175027.1448077,140
1658855674.15033,175027.1448189,142
1658855674.15033,175027.1448378,149
1658855674.15033,175027.1448454,151
1658855674.15033,175027.144848,135
1658855674.15033,175027.1448502,109
1658855674.15033,175027.1448523,102
1658855674.15033,175027.1448544,123
1658855674.15033,175027.1448566,137
1658855674.15033,175027.1448586,142
1658855674.15033,175027.1448606,147
1658855674.15033,175027.1448628,133
1658855674.15033,175027.1448648,95
1658855674.15033,175027.1448668,63
1658855674.15033,175027.1448689,60
1658855674.15033,175027.144871,79
1658855674.15033,175027.144873,102
1658855674.15033,175027.1448754,107
1658855674.15033,175027.1448854,121
1658855674.15033,175027.1448941,147
1658855674.15033,175027.1448967,154
1658855674.15033,175027.144899,137
1658855674.15033,175027.1449011,133
1658855674.15033,175027.144909,170
1658855674.15033,175027.1449238,242
1658855674.15033,175027.1449534,214
1658855674.15033,175027.1449684,-14
1658855674.15033,175027.144981,-310
1658855674.15033,175027.1449915,-280
1658855674.15033,175027.1450033,191
1658855674.15033,175027.1450144,455
1658855674.15033,175027.1450209,207
1658855674.15033,175027.1450296,37
1658855674.15033,175027.145037,119
1658855674.15033,175027.681377,126
1658855674.15033,175027.681394,81
1658855674.15033,175027.6814052,107
1658855674.15033,175027.6814152,116
1658855674.15033,175027.6814246,93
1658855674.15033,175027.6814316,84
1658855674.15033,175027.6814423,81
1658855674.15033,175027.6814501,63
1658855674.17327,175027.681456,46
1658855674.17327,175027.6814599,42
1658855674.17327,175027.681464,28
1658855674.17327,175027.6814696,-9
1658855674.17327,175027.6814756,-25
1658855674.17327,175027.6814812,-23
1658855674.17327,175027.6814854,-37
1658855674.17327,175027.6814911,-53
1658855674.17327,175027.6814952,-58
1658855674.17327,175027.6815007,-60
1658855674.17327,175027.6815047,-58
1658855674.17327,175027.6815086,-44
1658855674.17327,175027.6815127,-23
1658855674.17327,175027.6815167,23
1658855674.17327,175027.6815273,77
1658855674.17327,175027.6815351,114
1658855674.17327,175027.6815394,133
1658855674.17327,175027.6815452,140
1658855674.17327,175027.681549,154
1658855674.17327,175027.6815545,172
1658855674.17327,175027.6815585,189
1658855674.17327,175027.6815641,184
1658855674.17327,175027.6815689,170
1658855674.17327,175027.6815728,168
1658855674.77553,175027.6815769,170
1658855674.77553,175027.6815809,170
1658855674.77553,175027.6815848,170
1658855674.77553,175027.6815888,175
1658855674.77553,175027.6815927,175
1658855674.77553,175027.6815966,168
1658855674.77553,175027.6816006,158
1658855674.77553,175027.6816063,144
1658855674.77553,175027.6816111,123
1658855674.77553,175027.6816166,109
1658855674.77553,175027.6816207,119
1658855674.77553,175027.6816266,137
1658855674.77553,175027.6816326,140
1658855674.77553,175027.6816363,154
1658855674.77553,175027.6816404,189
1658855674.77553,175027.6816444,191
1658855674.77553,175027.68165,165
1658855674.77553,175027.6816547,163
1658855674.77553,175027.6816587,219
1658855674.77553,175027.6816644,294
1658855674.77553,175027.6816692,226
1658855674.77553,175027.6816731,-44
1658855674.77553,175027.6816787,-305
1658855674.77553,175027.6816828,-161
1658855674.77553,175027.6816871,301
1658855674.77553,175027.6816912,394
1658855674.77553,175027.6816951,114
1658855674.77553,175027.6816993,63
1658855674.77553,175027.681705,177
1658855674.77553,175027.6817091,142
1658855674.77553,175027.6817132,100
1658855674.77553,175027.6817188,144
1658855674.77553,175027.6817227,154
1658855674.77553,175027.6817267,119
1658855674.77553,175027.6817323,105
1658855674.77553,175027.6817374,102
1658855674.77553,175027.681743,81
1658855674.77553,175027.6817468,63
1658855674.77553,175027.6817509,60
1658855674.77553,175027.6817549,53
1658855674.77553,175027.6817588,39
1658855674.77553,175028.3145645,23
1658855674.77553,175028.3145819,9
1658855674.77553,175028.3145925,2
1658855674.77553,175028.3146077,-4
1658855674.77553,175028.3146221,-11
1658855674.77553,175028.3146343,-16
1658855674.77553,175028.314641,-18
1658855674.77553,175028.3146473,-4
1658855674.77553,175028.3146523,21
1658855674.80046,175028.3146599,58
1658855674.80046,175028.3146665,98
1658855674.80046,175028.3146719,137
1658855674.80046,175028.3146759,149
1658855674.80046,175028.3146794,128
1658855674.80046,175028.3146847,119
1658855674.80046,175028.3146898,130
1658855674.80046,175028.314693,126
1658855674.80046,175028.3146961,114
1658855674.80046,175028.3147005,121
1658855674.80046,175028.314707,130
1658855674.80046,175028.3147104,121
1658855674.80046,175028.3147152,114
1658855674.80046,175028.3147183,135
1658855674.80046,175028.3147217,158
1658855674.80046,175028.3147272,144
1658855674.80046,175028.3147312,112
1658855674.80046,175028.314738,95
1658855674.80046,175028.3147413,88
1658855674.80046,175028.314745,67
1658855674.80046,175028.3147497,58
1658855674.80046,175028.3147531,77
1658855674.80046,175028.3147567,95
1658855674.80046,175028.3147616,107
1658855675.31571,175028.3147651,128
1658855675.31571,175028.3147686,149
1658855675.31571,175028.314772,151
1658855675.31571,175028.3147753,149
1658855675.31571,175028.3147786,158
1658855675.31571,175028.3147819,196
1658855675.31571,175028.3147853,233
1658855675.31571,175028.3147885,149
1658855675.31571,175028.3147918,-98
1658855675.31571,175028.3147951,-287
1658855675.31571,175028.3147986,-60
1658855675.31571,175028.3148019,336
1658855675.31571,175028.3148051,301
1658855675.31571,175028.3148084,46
1658855675.31571,175028.3148115,63
1658855675.31571,175028.3148148,147
1658855675.31571,175028.3148193,107
1658855675.31571,175028.3148232,100
1658855675.31571,175028.3148269,123
1658855675.31571,175028.3148308,105
1658855675.31571,175028.3148345,88
1658855675.31571,175028.3148399,91
1658855675.31571,175028.3148445,88
1658855675.31571,175028.3148479,74
1658855675.31571,175028.3148528,56
1658855675.31571,175028.3148561,39
1658855675.31571,175028.3148596,28
1658855675.31571,175028.3148631,16
1658855675.31571,175028.3148679,7
1658855675.31571,175028.3148713,0
1658855675.31571,175028.314876,-7
1658855675.31571,175028.3148813,-18
1658855675.31571,175028.3148848,-21
1658855675.31571,175028.3148884,-25
1658855675.31571,175028.3148934,-30
1658855675.31571,175028.3148984,-2
1658855675.31571,175028.3149047,51
1658855675.31571,175028.3149097,88
1658855675.31571,175028.3149149,114
1658855675.31571,175028.3149194,140
1658855675.31571,175028.8515043,163
1658855675.31571,175028.8515253,179
1658855675.31571,175028.8515651,189
1658855675.31571,175028.8515802,186
1658855675.31571,175028.8515863,172
1658855675.31571,175028.8515913,154
1658855675.31571,175028.8515984,151
1658855675.31571,175028.8516023,158
1658855675.31571,175028.8516061,151
1658855675.31571,175028.8516099,147
1658855675.33319,175028.8516139,142
1658855675.33319,175028.8516202,137
1658855675.33319,175028.8516245,140
1658855675.33319,175028.8516305,128
1658855675.33319,175028.8516346,98
1658855675.33319,175028.8516403,74
1658855675.33319,175028.8516441,63
1658855675.33319,175028.85165,65
1658855675.33319,175028.8516563,88
1658855675.33319,175028.8516606,105
1658855675.33319,175028.8516646,109
1658855675.33319,175028.8516705,123
1658855675.33319,175028.8516744,133
1658855675.33319,175028.8516782,114
1658855675.33319,175028.8516821,98
1658855675.33319,175028.8516858,126
1658855675.33319,175028.8516893,189
1658855675.33319,175028.8516931,191
1658855675.33319,175028.851699,18
1658855675.33319,175028.8517033,-256
1658855675.33319,175028.8517092,-280
1658855675.33319,175028.8517139,116
1658855675.33319,175028.8517199,378
1658855675.33319,175028.8517241,172
1658855675.79879,175028.8517299,11
1658855675.79879,175028.8517334,86
1658855675.79879,175028.8517372,93
1658855675.79879,175028.8517417,53
1658855675.79879,175028.8517457,77
1658855675.79879,175028.8517497,74
1658855675.79879,175028.8517537,49
1658855675.79879,175028.8517577,58
1658855675.79879,175028.8517615,70
1658855675.79879,175028.8517653,56
1658855675.79879,175028.8517692,42
1658855675.79879,175028.8517725,30
1658855675.79879,175028.8517758,16
1658855675.79879,175028.8517795,0
1658855675.79879,175028.8517831,-16
1658855675.79879,175028.8517868,-32
1658855675.79879,175028.8517906,-39
1658855675.79879,175028.8517942,-49
1658855675.79879,175028.8517978,-63
1658855675.79879,175028.851802,-60
1658855675.79879,175028.8518061,-46
1658855675.79879,175028.8518101,-35
1658855675.79879,175028.8518144,-21
1658855675.79879,175028.8518204,18
1658855675.79879,175028.8518248,72
1658855675.79879,175028.851829,109
1658855675.79879,175028.8518352,135
1658855675.79879,175028.8518395,154
1658855675.79879,175028.8518437,154
1658855675.79879,175028.8518494,151
1658855675.79879,175028.8518537,154
1658855675.79879,175028.8518594,158
1658855675.79879,175028.8518637,154
1658855675.79879,175028.8518696,142
1658855675.79879,175028.8518738,142
1658855675.79879,175028.8518795,142
1658855675.79879,175028.8518844,137
1658855675.79879,175028.8518908,135
1658855675.79879,175028.8518966,135
1658855675.79879,175029.3389285,130
1658855675.79879,175029.3389412,116
1658855675.79879,175029.3389524,93
1658855675.79879,175029.3389546,67
1658855675.79879,175029.3389566,60
1658855675.79879,175029.3389603,74
1658855675.79879,175029.3389625,95
1658855675.79879,175029.3389645,100
1658855675.79879,175029.3389665,105
1658855675.79879,175029.3389686,128
1658855675.79879,175029.3389706,144
1658855675.81674,175029.3389761,135
1658855675.81674,175029.338987,130
1658855675.81674,175029.3389912,149
1658855675.81674,175029.3389943,184
1658855675.81674,175029.3389972,158
1658855675.81674,175029.3390002,-42
1658855675.81674,175029.3390032,-310
1658855675.81674,175029.3390063,-233
1658855675.81674,175029.3390092,214
1658855675.81674,175029.3390122,357
1658855675.81674,175029.3390151,84
1658855675.81674,175029.339018,-14
1658855675.81674,175029.3390209,72
1658855675.81674,175029.3390238,53
1658855675.81674,175029.3390275,30
1658855675.81674,175029.3390298,63
1658855675.81674,175029.339032,51
1658855675.81674,175029.3390341,30
1658855675.81674,175029.3390363,44
1658855675.81674,175029.3390384,46
1658855675.81674,175029.3390406,28
1658855675.81674,175029.3390439,7
1658855675.81674,175029.3390576,-2
1658855675.81674,175029.3390636,0
1658855676.43398,175029.3390666,-9
1658855676.43398,175029.3390687,-37
1658855676.43398,175029.3390707,-49
1658855676.43398,175029.3390727,-53
1658855676.43398,175029.3390752,-65
1658855676.43398,175029.3390843,-77
1658855676.43398,175029.3390904,-77
1658855676.43398,175029.3390949,-67
1658855676.43398,175029.3391001,-51
1658855676.43398,175029.3391079,-14
1658855676.43398,175029.3391147,46
1658855676.43398,175029.3391302,107
1658855676.43398,175029.3391384,130
1658855676.43398,175029.3391411,123
1658855676.43398,175029.3391433,128
1658855676.43398,175029.3391455,151
1658855676.43398,175029.3391477,168
1658855676.43398,175029.3391498,168
1658855676.43398,175029.3391526,156
1658855676.43398,175029.3391634,149
1658855676.43398,175029.3391707,158
1658855676.43398,175029.3391784,163
1658855676.43398,175029.3391911,158
1658855676.43398,175029.3391995,156
1658855676.43398,175029.339205,156
1658855676.43398,175029.3392183,170
1658855676.43398,175029.3392272,175
1658855676.43398,175029.3392392,128
1658855676.43398,175029.3392506,77
1658855676.43398,175029.3392555,67
1658855676.43398,175029.3392577,77
1658855676.43398,175029.3392652,95
1658855676.43398,175029.3392767,116
1658855676.43398,175029.3392817,123
1658855676.43398,175029.3392839,133
1658855676.43398,175029.339286,142
1658855676.43398,175029.3392881,135
1658855676.43398,175029.3392903,130
1658855676.43398,175029.9721528,147
1658855676.43398,175029.9721747,210
1658855676.43398,175029.9721907,226
1658855676.43398,175029.9722046,30
1658855676.43398,175029.972215,-305
1658855676.43398,175029.9722228,-364
1658855676.43398,175029.9722315,67
1658855676.43398,175029.9722365,415
1658855676.43398,175029.9722456,228
1658855676.43398,175029.9722541,14
1658855676.43398,175029.9722589,65
1658855676.43398,175029.9722652,79
1658855676.45193,175029.9722718,32
1658855676.45193,175029.9722817,53
1658855676.45193,175029.9722901,74
1658855676.45193,175029.9723034,60
1658855676.45193,175029.9723172,51
1658855676.45193,175029.9723296,42
1658855676.45193,175029.9723418,39
1658855676.45193,175029.972348,44
1658855676.45193,175029.9723505,35
1658855676.45193,175029.9723527,21
1658855676.45193,175029.9723548,2
1658855676.45193,175029.972357,-23
1658855676.45193,175029.9723591,-35
1658855676.45193,175029.9723612,-32
1658855676.45193,175029.9723633,-44
1658855676.45193,175029.9723663,-53
1658855676.45193,175029.9723771,-44
1658855676.45193,175029.9723849,-30
1658855676.45193,175029.9723882,-18
1658855676.45193,175029.9723904,2
1658855676.45193,175029.972394,44
1658855676.45193,175029.972405,93
1658855676.45193,175029.9724137,128
1658855676.45193,175029.9724218,154
1658855676.96639,175029.9724323,182
1658855676.96639,175029.972439,186
1658855676.96639,175029.9724489,179
1658855676.96639,175029.9724589,182
1658855676.96639,175029.9724693,191
1658855676.96639,175029.9724801,193
1658855676.96639,175029.9724884,182
1658855676.96639,175029.9724969,175
1658855676.96639,175029.972508,184
1658855676.96639,175029.9725191,189
1658855676.96639,175029.972527,193
1658855676.96639,175029.9725386,203
1658855676.96639,175029.9725492,196
1658855676.96639,175029.9725571,172
1658855676.96639,175029.9725671,142
1658855676.96639,175029.9725781,107
1658855676.96639,175029.9725874,107
1658855676.96639,175029.9725984,144
1658855676.96639,175029.972609,156
1658855676.96639,175029.9726183,142
1658855676.96639,175029.9726287,165
1658855676.96639,175029.9726391,189
1658855676.96639,175029.9726487,175
1658855676.96639,175029.9726549,172
1658855676.96639,175029.9726649,200
1658855676.96639,175029.9726736,235
1658855676.96639,175029.9726868,254
1658855676.96639,175029.9727008,140
1658855676.96639,175029.9727146,-149
1658855676.96639,175029.9727286,-308
1658855676.96639,175029.9727423,0
1658855676.96639,175029.9727558,387
1658855676.96639,175029.9727698,289
1658855676.96639,175029.9727835,58
1658855676.96639,175029.9727988,109
1658855676.96639,175029.9728126,170
1658855676.96639,175029.9728264,119
1658855676.96639,175030.5087836,114
1658855676.96639,175030.5088054,123
1658855676.96639,175030.5088423,102
1658855676.96639,175030.5088505,91
1658855676.96639,175030.5088541,86
1658855676.96639,175030.5088574,91
1658855676.96639,175030.5088605,98
1658855676.96639,175030.5088638,79
1658855676.96639,175030.508869,53
1658855676.96639,175030.5088736,44
1658855676.96639,175030.508877,32
1658855676.96639,175030.5088828,18
1658855676.96639,175030.5088871,4
1658855676.98733,175030.5088907,-18
1658855676.98733,175030.5088944,-37
1658855676.98733,175030.5088981,-39
1658855676.98733,175030.5089044,-44
1658855676.98733,175030.5089079,-32
1658855676.98733,175030.5089127,11
1658855676.98733,175030.508916,44
1658855676.98733,175030.5089193,56
1658855676.98733,175030.5089226,81
1658855676.98733,175030.5089281,107
1658855676.98733,175030.5089315,116
1658855676.98733,175030.5089368,140
1658855676.98733,175030.50894,156
1658855676.98733,175030.5089436,135
1658855676.98733,175030.5089488,126
1658855676.98733,175030.5089524,140
1658855676.98733,175030.5089578,144
1658855676.98733,175030.5089614,144
1658855676.98733,175030.5089665,144
1658855676.98733,175030.50897,140
1658855676.98733,175030.5089735,137
1658855676.98733,175030.5089785,142
1658855676.98733,175030.5089818,144
1658855676.98733,175030.5089852,133
1658855677.50567,175030.5089886,102
1658855677.50567,175030.5089918,74
1658855677.50567,175030.5089982,70
1658855677.50567,175030.5090015,93
1658855677.50567,175030.5090048,116
1658855677.50567,175030.5090081,123
1658855677.50567,175030.5090112,137
1658855677.50567,175030.5090146,158
1658855677.50567,175030.5090179,158
1658855677.50567,175030.5090488,147
1658855677.50567,175030.5090634,149
1658855677.50567,175030.5090782,175
1658855677.50567,175030.5090862,224
1658855677.50567,175030.5090888,205
1658855677.50567,175030.5090911,23
1658855677.50567,175030.5090965,-235
1658855677.50567,175030.5091084,-212
1658855677.50567,175030.509112,186
1658855677.50567,175030.5091142,373
1658855677.50567,175030.5091164,133
1658855677.50567,175030.5091185,16
1658855677.50567,175030.5091206,112
1658855677.50567,175030.5091226,112
1658855677.50567,175030.5091255,77
1658855677.50567,175030.5091364,107
1658855677.50567,175030.5091438,98
1658855677.50567,175030.5091473,67
1658855677.50567,175030.5091506,84
1658855677.50567,175030.5091634,93
1658855677.50567,175030.509169,72
1658855677.50567,175030.5091713,63
1658855677.50567,175030.5091763,53
1658855677.50567,175030.5091895,35
1658855677.50567,175030.5091951,28
1658855677.50567,175030.5092394,18
1658855677.50567,175030.5092464,-2
1658855677.50567,175031.0453619,-14
1658855677.50567,175031.0453956,-18
1658855677.50567,175031.0454109,-21
1658855677.50567,175031.0454212,-23
1658855677.50567,175031.0454262,-21
1658855677.50567,175031.0454307,-9
1658855677.50567,175031.0454371,23
1658855677.50567,175031.0454424,65
1658855677.50567,175031.0454482,105
1658855677.50567,175031.0454519,137
1658855677.50567,175031.0454553,147
1658855677.50567,175031.0454683,144
1658855677.50567,175031.0454783,149
1658855677.50567,175031.0454877,154
1658855677.52362,175031.0454949,149
1658855677.52362,175031.0454985,149
1658855677.52362,175031.0455015,142
1658855677.52362,175031.0455048,130
1658855677.52362,175031.045508,126
1658855677.52362,175031.0455111,126
1658855677.52362,175031.0455142,126
1658855677.52362,175031.0455173,128
1658855677.52362,175031.0455202,130
1658855677.52362,175031.0455235,126
1658855677.52362,175031.0455281,107
1658855677.52362,175031.0455314,77
1658855677.52362,175031.0455347,60
1658855677.52362,175031.0455384,67
1658855677.52362,175031.0455421,88
1658855677.52362,175031.0455455,107
1658855677.52362,175031.0455494,105
1658855677.52362,175031.045553,114
1658855677.52362,175031.0455565,140
1658855677.52362,175031.04556,144
1658855677.52362,175031.0455636,140
1658855677.52362,175031.0455672,147
1658855677.52362,175031.0455707,170
1658855677.52362,175031.0455744,224
1658855678.10243,175031.0455781,193
1658855678.10243,175031.0455818,-21
1658855678.10243,175031.0455861,-263
1658855678.10243,175031.0455897,-170
1658855678.10243,175031.0455937,238
1658855678.10243,175031.0455974,352
1658855678.10243,175031.0456013,93
1658855678.10243,175031.0456053,11
1658855678.10243,175031.0456093,98
1658855678.10243,175031.045613,79
1658855678.10243,175031.0456168,58
1658855678.10243,175031.0456204,81
1658855678.10243,175031.0456243,70
1658855678.10243,175031.0456279,58
1658855678.10243,175031.0456353,72
1658855678.10243,175031.045639,67
1658855678.10243,175031.0456431,49
1658855678.10243,175031.0456468,35
1658855678.10243,175031.0456503,16
1658855678.10243,175031.0456544,7
1658855678.10243,175031.0456581,4
1658855678.10243,175031.0456618,-11
1658855678.10243,175031.0456657,-39
1658855678.10243,175031.0456695,-53
1658855678.10243,175031.0456736,-46
1658855678.10243,175031.0456777,-42
1658855678.10243,175031.0456815,-49
1658855678.10243,175031.0456853,-42
1658855678.10243,175031.0456894,-23
1658855678.10243,175031.0456933,-4
1658855678.10243,175031.045697,35
1658855678.10243,175031.0457003,86
1658855678.10243,175031.045705,119
1658855678.10243,175031.0457085,142
1658855678.10243,175031.0457123,161
1658855678.10243,175031.6299442,168
1658855678.10243,175031.6299603,170
1658855678.10243,175031.6299651,177
1658855678.10243,175031.6299709,172
1658855678.10243,175031.6299767,158
1658855678.10243,175031.6299823,151
1658855678.10243,175031.6299868,135
1658855678.10243,175031.6299924,107
1658855678.10243,175031.6299964,107
1658855678.10243,175031.6300004,123
1658855678.10243,175031.6300044,128
1658855678.10243,175031.6300085,121
1658855678.10243,175031.6300142,93
1658855678.10243,175031.6300283,51
1658855678.10243,175031.630044,32
1658855678.12437,175031.6300697,49
1658855678.12437,175031.6300756,74
1658855678.12437,175031.6300793,79
1658855678.12437,175031.6300831,86
1658855678.12437,175031.6300866,102
1658855678.12437,175031.6300903,109
1658855678.12437,175031.6300938,114
1658855678.12437,175031.6300974,123
1658855678.12437,175031.6301012,130
1658855678.12437,175031.630112,175
1658855678.12437,175031.6301178,217
1658855678.12437,175031.6301215,100
1658855678.12437,175031.6301253,-172
1658855678.12437,175031.6301289,-294
1658855678.12437,175031.6301326,14
1658855678.12437,175031.6301362,399
1658855678.12437,175031.6301398,310
1658855678.12437,175031.6301433,56
1658855678.12437,175031.6301469,56
1658855678.12437,175031.6301542,95
1658855678.12437,175031.6301596,46
1658855678.12437,175031.6301633,44
1658855678.12437,175031.6301685,70
1658855678.12437,175031.6301721,56
1658855678.72599,175031.6301766,42
1658855678.72599,175031.6301802,51
1658855678.72599,175031.6301838,46
1658855678.72599,175031.6301874,28
1658855678.72599,175031.630191,21
1658855678.72599,175031.6301946,16
1658855678.72599,175031.6301982,-4
1658855678.72599,175031.6302018,-23
1658855678.72599,175031.6302054,-37
1658855678.72599,175031.630209,-51
1658855678.72599,175031.6302125,-60
1658855678.72599,175031.6302161,-77
1658855678.72599,175031.6302198,-79
1658855678.72599,175031.6302233,-56
1658855678.72599,175031.6302268,-35
1658855678.72599,175031.6302304,-23
1658855678.72599,175031.6302341,14
1658855678.72599,175031.6302377,70
1658855678.72599,175031.6302433,109
1658855678.72599,175031.6302469,133
1658855678.72599,175031.6302505,149
1658855678.72599,175031.6302544,163
1658855678.72599,175031.6302597,165
1658855678.72599,175031.6302635,163
1658855678.72599,175031.6302794,163
1658855678.72599,175031.6302897,165
1658855678.72599,175031.6302939,165
1658855678.72599,175031.6302978,165
1658855678.72599,175031.6303015,158
1658855678.72599,175031.6303049,151
1658855678.72599,175031.6303085,154
1658855678.72599,175031.630312,149
1658855678.72599,175031.6303156,140
1658855678.72599,175031.6303192,133
1658855678.72599,175032.2640358,114
1658855678.72599,175032.2640557,84
1658855678.72599,175032.2640704,72
1658855678.72599,175032.2640833,84
1658855678.72599,175032.2641419,109
1658855678.72599,175032.264156,114
1658855678.72599,175032.2641702,116
1658855678.72599,175032.2641849,151
1658855678.72599,175032.2641991,170
1658855678.72599,175032.2642121,144
1658855678.72599,175032.2642246,114
1658855678.72599,175032.2642321,123
1658855678.72599,175032.2642389,193
1658855678.72599,175032.2642456,217
1658855678.72599,175032.2642527,32
1658855678.72599,175032.2642591,-275
1658855678.74876,175032.2642655,-315
1658855678.74876,175032.2642722,105
1658855678.74876,175032.264279,418
1658855678.74876,175032.2642849,203
1658855678.74876,175032.2642884,-7
1658855678.74876,175032.2643019,72
1658855678.74876,175032.2643147,102
1658855678.74876,175032.264326,44
1658855678.74876,175032.2643319,53
1658855678.74876,175032.2643364,70
1658855678.74876,175032.2643411,58
1658855678.74876,175032.264346,53
1658855678.74876,175032.2643514,39
1658855678.74876,175032.264356,18
1658855678.74876,175032.264361,9
1658855678.74876,175032.2643658,2
1658855678.74876,175032.2643709,-9
1658855678.74876,175032.2643792,-23
1658855678.74876,175032.264387,-37
1658855678.74876,175032.2644211,-56
1658855678.74876,175032.2644348,-65
1658855678.74876,175032.2644434,-58
1658855678.74876,175032.264446,-60
1658855678.74876,175032.2644483,-67
1658855679.15872,175032.2644504,-49
1658855679.15872,175032.2644524,-28
1658855679.15872,175032.2644544,-4
1658855679.15872,175032.2644564,39
1658855679.15872,175032.2644583,88
1658855679.15872,175032.2644602,123
1658855679.15872,175032.2644622,147
1658855679.15872,175032.2644642,165
1658855679.15872,175032.2644662,177
1658855679.15872,175032.2644681,179
1658855679.15872,175032.2644701,179
1658855679.15872,175032.264472,179
1658855679.15872,175032.2644746,186
1658855679.15872,175032.264483,186
1658855679.15872,175032.2644913,177
1658855679.15872,175032.2645022,170
1658855679.15872,175032.2645152,172
1658855679.15872,175032.2645285,182
1658855679.15872,175032.264537,191
1658855679.15872,175032.2645396,184
1658855679.15872,175032.2645419,161
1658855679.15872,175032.264544,137
1658855679.15872,175032.2645461,114
1658855679.15872,175032.2645482,93
1658855679.15872,175032.2645503,107
1658855679.15872,175032.2645524,142
1658855679.15872,175032.2645545,154
1658855679.15872,175032.2645566,156
1658855679.15872,175032.2645587,179
1658855679.15872,175032.2645609,191
1658855679.15872,175032.2645629,182
1658855679.15872,175032.264565,184
1658855679.15872,175032.2645671,210
1658855679.15872,175032.7026615,259
1658855679.15872,175032.7026874,226
1658855679.15872,175032.7027002,4
1658855679.15872,175032.7027111,-256
1658855679.15872,175032.7027207,-168
1658855679.15872,175032.7027287,275
1658855679.15872,175032.7027346,427

1658855679.15872,175032.7027432,161
1658855679.15872,175032.7027493,63
1658855679.15872,175032.7027577,156
1658855679.15872,175032.7027661,130
1658855679.15872,175032.702775,91
1658855679.15872,175032.702783,126
1658855679.15872,175032.7027909,112
1658855679.15872,175032.7027972,67
1658855679.15872,175032.7028053,70
1658855679.15872,175032.7028121,88
1658855679.17767,175032.7028204,79
1658855679.17767,175032.7028266,60
1658855679.17767,175032.7028342,35
1658855679.17767,175032.7028396,4
1658855679.17767,175032.7028482,-9
1658855679.17767,175032.7028545,-14
1658855679.17767,175032.702864,-32
1658855679.17767,175032.7028701,-49
1658855679.17767,175032.7028737,-51
1658855679.17767,175032.702877,-67
1658855679.17767,175032.7028826,-79
1658855679.17767,175032.702891,-70
1658855679.17767,175032.7029013,-51
1658855679.17767,175032.7029136,-18
1658855679.17767,175032.7029213,32
1658855679.17767,175032.7029307,79
1658855679.17767,175032.7029395,105
1658855679.17767,175032.7029456,119
1658855679.17767,175032.7029497,128
1658855679.17767,175032.7029526,137
1658855679.17767,175032.7029547,154
1658855679.17767,175032.702957,168
1658855679.17767,175032.7029591,161
1658855679.17767,175032.7029612,137
1658855679.80465,175032.7029632,130
1658855679.80465,175032.702966,142
1658855679.80465,175032.7029747,151
1658855679.80465,175032.702981,151
1658855679.80465,175032.7029911,151
1658855679.80465,175032.7029984,144
1658855679.80465,175032.7030056,144
1658855679.80465,175032.7030147,144
1658855679.80465,175032.7030238,123
1658855679.80465,175032.7030319,88
1658855679.80465,175032.7030401,74
1658855679.80465,175032.7030455,84
1658855679.80465,175032.7030476,114
1658855679.80465,175032.7030497,128
1658855679.80465,175032.7030518,126
1658855679.80465,175032.703054,147
1658855679.80465,175032.7030561,161
1658855679.80465,175032.7030583,147
1658855679.80465,175032.7030603,147
1658855679.80465,175032.7030629,182
1658855679.80465,175032.7030716,238
1658855679.80465,175032.7030818,224
1658855679.80465,175032.7030874,39
1658855679.80465,175032.7031012,-221
1658855679.80465,175032.7031139,-205
1658855679.80465,175032.703127,196
1658855679.80465,175032.7031401,404
1658855679.80465,175032.7031533,170
1658855679.80465,175032.7031667,37
1658855679.80465,175032.7031797,133
1658855679.80465,175032.7031931,137
1658855679.80465,175032.7032062,93
1658855679.80465,175033.3364786,116
1658855679.80465,175033.3365042,121
1658855679.80465,175033.3365123,100
1658855679.80465,175033.3365256,95
1658855679.80465,175033.3365291,77
1658855679.80465,175033.3365323,56
1658855679.80465,175033.3365355,49
1658855679.80465,175033.3365384,44
1658855679.80465,175033.3365412,35
1658855679.80465,175033.3365444,9
1658855679.80465,175033.3365476,-32
1658855679.80465,175033.3365509,-58
1658855679.80465,175033.3365543,-65
1658855679.80465,175033.3365578,-79
1658855679.80465,175033.3365642,-86
1658855679.80465,175033.3365675,-79
1658855679.80465,175033.3365706,-74
1658855679.80465,175033.3365736,-65
1658855679.8226,175033.3365766,-28
1658855679.8226,175033.3365796,21
1658855679.8226,175033.3365826,60
1658855679.8226,175033.3365861,91
1658855679.8226,175033.3365918,109
1658855679.8226,175033.3365968,126
1658855679.8226,175033.3366006,140
1658855679.8226,175033.3366037,149
1658855679.8226,175033.3366065,154
1658855679.8226,175033.3366099,151
1658855679.8226,175033.3366132,142
1658855679.8226,175033.336616,140
1658855679.8226,175033.3366188,147
1658855679.8226,175033.336622,147
1658855679.8226,175033.3366251,144
1658855679.8226,175033.3366291,144
1658855679.8226,175033.3366326,144
1658855679.8226,175033.3366377,151
1658855679.8226,175033.3366415,144
1658855679.8226,175033.3366488,112
1658855679.8226,175033.3366525,91
1658855679.8226,175033.3366582,98
1658855679.8226,175033.3366628,107
1658855679.8226,175033.3366679,107
1658855680.3858,175033.3366724,107
1658855680.3858,175033.3366757,116
1658855680.3858,175033.3366794,140
1658855680.3858,175033.3366834,156
1658855680.3858,175033.3366932,151
1658855680.3858,175033.336699,140
1658855680.3858,175033.3367064,158
1658855680.3858,175033.3367127,217
1658855680.3858,175033.3367241,214
1658855680.3858,175033.3367381,42
1658855680.3858,175033.3367483,-212
1658855680.3858,175033.3367536,-219
1658855680.3858,175033.3367598,158
1658855680.3858,175033.3367645,390
1658855680.3858,175033.3367685,172
1658855680.3858,175033.3367748,23
1658855680.3858,175033.3367802,114
1658855680.3858,175033.3367857,121
1658855680.3858,175033.3367902,67
1658855680.3858,175033.3367961,100
1658855680.3858,175033.3367999,119
1658855680.3858,175033.3368241,86
1658855680.3858,175033.336831,81
1658855680.3858,175033.3368348,86
1658855680.3858,175033.3368385,67
1658855680.3858,175033.3368421,60
1658855680.3858,175033.3368456,58
1658855680.3858,175033.3368498,37
1658855680.3858,175033.3368556,11
1658855680.3858,175033.3368628,0
1658855680.3858,175033.3368664,-7
1658855680.3858,175033.9218297,-25
1658855680.3858,175033.9218511,-42
1658855680.3858,175033.9218587,-44
1658855680.3858,175033.9218642,-49
1658855680.3858,175033.9218679,-58
1658855680.3858,175033.9218721,-42
1658855680.3858,175033.9218754,-14
1658855680.3858,175033.9218871,21
1658855680.3858,175033.9218928,63
1658855680.3858,175033.9218967,95
1658855680.3858,175033.9219078,114
1658855680.3858,175033.9219141,130
1658855680.3858,175033.9219184,144
1658855680.3858,175033.921922,128
1658855680.3858,175033.9219255,105
1658855680.3858,175033.921929,112
1658855680.3858,175033.9219325,133
1658855680.3858,175033.9219364,133
1658855680.3858,175033.9219418,121
1658855680.40176,175033.9219477,112
1658855680.40176,175033.9219526,102
1658855680.40176,175033.9219575,102
1658855680.40176,175033.9219632,102
1658855680.40176,175033.9219703,95
1658855680.40176,175033.9219771,102
1658855680.40176,175033.9219824,84
1658855680.40176,175033.9219876,39
1658855680.40176,175033.9219936,30
1658855680.40176,175033.9219973,56
1658855680.40176,175033.9220026,77
1658855680.40176,175033.9220064,86
1658855680.40176,175033.9220136,98
1658855680.40176,175033.9220172,112
1658855680.40176,175033.9220209,114
1658855680.40176,175033.922025,116
1658855680.40176,175033.9220294,112
1658855680.40176,175033.9220328,126
1658855680.40176,175033.9220375,189
1658855680.40176,175033.9220432,182
1658855680.40176,175033.9220465,-32
1658855680.40176,175033.92205,-301
1658855680.40176,175033.9220559,-233
1658855680.40176,175033.922062,205
1658855680.86806,175033.9220669,390
1658855680.86806,175033.9220728,140
1658855680.86806,175033.9220768,21
1658855680.86806,175033.9220812,109
1658855680.86806,175033.9220859,95
1658855680.86806,175033.9220894,49
1658855680.86806,175033.9220927,79
1658855680.86806,175033.9220959,86
1658855680.86806,175033.9220991,63
1658855680.86806,175033.9221022,60
1658855680.86806,175033.9221056,60
1658855680.86806,175033.9221088,53
1658855680.86806,175033.9221121,46
1658855680.86806,175033.9221156,35
1658855680.86806,175033.9221191,18
1658855680.86806,175033.9221244,4
1658855680.86806,175033.9221278,-11
1658855680.86806,175033.9221312,-32
1658855680.86806,175033.9221367,-44
1658855680.86806,175033.9221434,-53
1658855680.86806,175033.9221487,-63
1658855680.86806,175033.922157,-65
1658855680.86806,175033.9221643,-56
1658855680.86806,175033.922169,-28
1658855680.86806,175033.9221711,14
1658855680.86806,175033.9221799,56
1658855680.86806,175033.9221938,84
1658855680.86806,175033.9222002,107
1658855680.86806,175033.922211,128
1658855680.86806,175033.9222217,144
1658855680.86806,175034.4092179,154
1658855680.86806,175034.4092389,163
1658855680.86806,175034.409246,163
1658855680.86806,175034.4092522,158
1658855680.86806,175034.4092587,149
1658855680.86806,175034.4092627,137
1658855680.86806,175034.4092666,135
1658855680.86806,175034.4092697,135
1658855680.86806,175034.4092728,128
1658855680.86806,175034.4092769,119
1658855680.86806,175034.4092819,119
1658855680.86806,175034.4092869,126
1658855680.86806,175034.4092903,119
1658855680.86806,175034.4092935,86
1658855680.86806,175034.4092985,53
1658855680.86806,175034.4093041,49
1658855680.86806,175034.4093073,53
1658855680.86806,175034.4093124,56
1658855680.86806,175034.4093166,74
1658855680.86806,175034.4093224,95
1658855680.88402,175034.4093255,105
1658855680.88402,175034.4093285,112
1658855680.88402,175034.4093315,107
1658855680.88402,175034.4093612,105
1658855680.88402,175034.4093721,142
1658855680.88402,175034.4093868,196
1658855680.88402,175034.4094476,98
1658855680.88402,175034.4094612,-200
1658855680.88402,175034.4094746,-399
1658855680.88402,175034.4094815,-112
1658855680.88402,175034.409484,357
1658855680.88402,175034.4094863,336
1658855680.88402,175034.4094947,56
1658855680.88402,175034.4095074,49
1658855680.88402,175034.4095137,112
1658855680.88402,175034.409516,56
1658855680.88402,175034.4095182,46
1658855680.88402,175034.4095238,86
1658855680.88402,175034.4095365,77
1658855680.88402,175034.4095454,58
1658855680.88402,175034.4095486,60
1658855680.88402,175034.4095605,56
1658855680.88402,175034.4095742,46
1658855680.88402,175034.409588,42
1658855681.4709,175034.4096018,28
1658855681.4709,175034.4096094,7
1658855681.4709,175034.4096167,-4
1658855681.4709,175034.4096239,-11
1658855681.4709,175034.4096306,-16
1658855681.4709,175034.4096412,-25
1658855681.4709,175034.4096542,-35
1658855681.4709,175034.4096627,-44
1658855681.4709,175034.4096664,-44
1658855681.4709,175034.4096687,-28
1658855681.4709,175034.4096708,2
1658855681.4709,175034.4096729,39
1658855681.4709,175034.409675,77
1658855681.4709,175034.409677,116
1658855681.4709,175034.4096791,151
1658855681.4709,175034.4096812,170
1658855681.4709,175034.4096835,179
1658855681.4709,175034.4096855,189
1658855681.4709,175034.4096876,193
1658855681.4709,175034.4096896,186
1658855681.4709,175034.4096924,165
1658855681.4709,175034.4096945,161
1658855681.4709,175034.4096965,165
1658855681.4709,175034.4096986,154
1658855681.4709,175034.4097007,151
1658855681.4709,175034.4097027,170
1658855681.4709,175034.4097047,172
1658855681.4709,175034.4097067,172
1658855681.4709,175034.4097088,182
1658855681.4709,175034.9935061,156
1658855681.4709,175034.9935238,114
1658855681.4709,175034.9935293,112
1658855681.4709,175034.9935316,128
1658855681.4709,175034.9935339,142
1658855681.4709,175034.993536,156
1658855681.4709,175034.9935381,165
1658855681.4709,175034.9935402,158
1658855681.4709,175034.9935424,149
1658855681.4709,175034.9935649,149
1658855681.4709,175034.9935748,165
1658855681.4709,175034.9935827,203
1658855681.4709,175034.9936145,252
1658855681.4709,175034.9936264,205
1658855681.4709,175034.9936353,-28
1658855681.4709,175034.9936436,-305
1658855681.4709,175034.9936483,-235
1658855681.4709,175034.9936518,226
1658855681.4709,175034.9936593,411
1658855681.4709,175034.9936646,130
1658855681.4709,175034.9936718,7
1658855681.49384,175034.9936995,119
1658855681.49384,175034.9937274,116
1658855681.49384,175034.9937377,67
1658855681.49384,175034.9937416,95
1658855681.49384,175034.9937455,105
1658855681.49384,175034.9937478,84
1658855681.49384,175034.9937767,77
1658855681.49384,175034.9937891,79
1658855681.49384,175034.9938169,77
1658855681.49384,175034.9938279,67
1658855681.49384,175034.9938318,53
1658855681.49384,175034.9938341,37
1658855681.49384,175034.9938596,25
1658855681.49384,175034.9938733,9
1658855681.49384,175034.9938795,-9
1658855681.49384,175034.9938817,-18
1658855681.49384,175034.9938842,-16
1658855681.49384,175034.993892,-14
1658855681.49384,175034.9939006,-18
1658855681.49384,175034.9939053,-21
1658855681.49384,175034.9939112,-4
1658855681.49384,175034.9939167,23
1658855681.49384,175034.993923,63
1658855681.49384,175034.9939274,112
1658855681.99687,175034.9939336,147
1658855681.99687,175034.9939378,161
1658855681.99687,175034.9939423,165
1658855681.99687,175034.993947,168
1658855681.99687,175034.9939513,168
1658855681.99687,175034.9939554,172
1658855681.99687,175034.9939597,170
1658855681.99687,175034.9939643,158
1658855681.99687,175034.9939701,154
1658855681.99687,175034.9939754,161
1658855681.99687,175034.9939807,170
1658855681.99687,175034.9939893,168
1658855681.99687,175034.9939954,151
1658855681.99687,175034.9939976,142
1658855681.99687,175034.9939998,147
1658855681.99687,175034.9940019,135
1658855681.99687,175034.994004,105
1658855681.99687,175034.9940062,91
1658855681.99687,175034.9940082,91
1658855681.99687,175034.9940103,98
1658855681.99687,175034.9940124,105
1658855681.99687,175034.9940144,114
1658855681.99687,175034.9940165,142
1658855681.99687,175034.9940185,177
1658855681.99687,175034.9940206,177
1658855681.99687,175034.9940227,147
1658855681.99687,175034.9940248,154
1658855681.99687,175034.994027,212
1658855681.99687,175035.5297758,247
1658855681.99687,175035.529793,142
1658855681.99687,175035.5298074,-102
1658855681.99687,175035.5298154,-240
1658855681.99687,175035.5298258,21
1658855681.99687,175035.5298418,392
1658855681.99687,175035.5298499,308
1658855681.99687,175035.5298945,46
1658855681.99687,175035.529942,60
1658855681.99687,175035.5299891,112
1658855681.99687,175035.5300223,44
1658855681.99687,175035.5300537,37
1658855681.99687,175035.530069,79
1658855681.99687,175035.530083,63
1658855681.99687,175035.5300974,42
1658855681.99687,175035.5301108,51
1658855681.99687,175035.5301242,37
1658855681.99687,175035.5301385,4
1658855681.99687,175035.5301518,-11
1658855681.99687,175035.5301652,-16
1658855681.99687,175035.5301794,-28
1658855681.99687,175035.5301925,-39
