Time,TimeLsl,Value
1658853191.03031,172543.2096472,74
1658853191.03031,172543.2096666,77
1658853191.03031,172543.2096774,107
1658853191.03031,172543.2096821,119
1658853191.03031,172543.2096909,100
1658853191.03031,172543.2096978,84
1658853191.03031,172543.2097019,70
1658853191.03031,172543.2097069,53
1658853191.03031,172543.2097103,39
1658853191.03031,172543.2097165,30
1658853191.03031,172543.2097239,44
1658853191.03031,172543.2097298,77
1658853191.03031,172543.2097347,98
1658853191.03031,172543.2097432,95
1658853191.03031,172543.2097522,88
1658853191.03031,172543.2097591,77
1658853191.03031,172543.2097633,81
1658853191.03031,172543.2097686,121
1658853191.03031,172543.2097725,70
1658853191.03031,172543.2097787,-161
1658853191.03031,172543.2097841,-390
1658853191.03031,172543.2097879,-210
1658853191.03031,172543.2097936,305
1658853191.03031,172543.2097974,432
1658853191.03031,172543.209803,144
1658853191.03031,172543.2098067,30
1658853191.03031,172543.2098123,77
1658853191.03031,172543.209816,65
1658853191.03031,172543.2098213,67
1658853191.03031,172543.2098252,81
1658853191.03031,172543.2098318,67
1658853191.03031,172543.2098356,65
1658853191.03031,172543.2098419,67
1658853191.03031,172543.2098457,51
1658853191.03031,172543.2098512,28
1658853191.03031,172543.2098549,21
1658853191.03031,172543.2098606,37
1658853191.03031,172543.2098644,42
1658853191.03031,172543.2098698,23
1658853191.03031,172543.2098737,11
1658853191.03031,172543.209879,0
1658853191.03031,172543.2098829,-28
1658853191.03031,172543.2098886,-46
1658853191.03031,172543.2098923,-30
1658853191.03031,172543.2098977,11
1658853191.03031,172543.2099015,25
1658853191.03031,172543.2099068,16
1658853191.03031,172543.2099105,28
1658853191.03031,172543.2099158,49
1658853191.03031,172543.2099197,72
1658853191.17095,172543.209925,107
1658853191.17095,172543.2099293,140
1658853191.17095,172543.2099355,156
1658853191.17095,172543.2099393,151
1658853191.17095,172543.2099431,144
1658853191.17095,172543.2099468,147
1658853191.17095,172543.2099524,140
1658853191.17095,172543.2099561,137
1658853191.17095,172543.20996,154
1658853191.17095,172543.2099637,161
1658853191.17095,172543.2099693,158
1658853191.17095,172543.2099729,168
1658853191.17095,172543.2099765,170
1658853191.17095,172543.2099821,177
1658853191.17095,172543.2099856,186
1658853191.17095,172543.209989,186
1658853191.17095,172543.2099922,184
1658853191.17095,172543.2099955,186
1658853191.17095,172543.2099989,186
1658853191.17095,172543.2100022,170
1658853191.17095,172543.2100057,154
1658853191.17095,172543.2100089,154
1658853191.17095,172543.2100122,177
1658853191.17095,172543.7447722,203
1658853191.17095,172543.7447885,207
1658853191.17095,172543.7447937,200
1658853191.17095,172543.7447976,207
1658853191.17095,172543.7448012,210
1658853191.17095,172543.7448048,207
1658853191.17095,172543.7448083,249
1658853191.17095,172543.7448122,275
1658853191.17095,172543.744816,151
1658853191.17095,172543.74482,-102
1658853191.17095,172543.7448244,-224
1658853191.17095,172543.7448287,49
1658853191.17095,172543.7448326,413
1658853191.17095,172543.7448386,348
1658853191.17095,172543.7448426,119
1658853191.17095,172543.7448478,128
1658853191.17095,172543.744854,182
1658853191.17095,172543.7448593,142
1658853191.17095,172543.744863,121
1658853191.17095,172543.7448668,123
1658853191.17095,172543.7448731,109
1658853191.17095,172543.7448771,114
1658853191.17095,172543.7448829,128
1658853191.17095,172543.7448879,119
1658853191.17095,172543.744896,100
1658853191.17095,172543.7449003,79
1658853191.17095,172543.744906,58
1658853191.25124,172543.74491,44
1658853191.25124,172543.7449153,35
1658853191.25124,172543.7449191,32
1658853191.25124,172543.7449242,37
1658853191.25124,172543.7449293,25
1658853191.25124,172543.7449332,14
1658853191.25124,172543.744937,16
1658853191.25124,172543.7449426,16
1658853191.25124,172543.7449465,16
1658853191.25124,172543.7449527,35
1658853191.25124,172543.7449573,72
1658853191.25124,172543.744961,107
1658853191.25124,172543.7449661,123
1658853191.25124,172543.744971,137
1658853191.25124,172543.7449764,144
1658853191.25124,172543.7449806,126
1658853191.25124,172543.7449858,112
1658853191.25124,172543.7449905,119
1658853191.25124,172543.7449963,121
1658853191.25124,172543.7450001,114
1658853191.25124,172543.7450054,114
1658853191.25124,172543.745009,128
1658853191.25124,172543.7450146,144
1658853191.25124,172543.7450199,147
1658853191.25124,172543.7450238,137
1658853191.25124,172543.7450286,128
1658853191.25124,172543.7450321,114
1658853191.25124,172543.745036,126
1658853191.25124,172543.7450413,163
1658853191.25124,172543.7450459,163
1658853191.25124,172543.7450498,130
1658853191.25124,172543.7450538,116
1658853191.25124,172543.7450589,119
1658853191.25124,172543.7450631,112
1658853191.25124,172543.7450669,112
1658853191.25124,172543.7450707,116
1658853191.25124,172543.7450749,116
1658853191.25124,172543.74508,137
1658853191.25124,172543.7450838,165
1658853191.25124,172543.7450893,161
1658853191.25124,172543.7450943,137
1658853191.25124,172543.7450984,165
1658853191.25124,172543.7451025,242
1658853191.25124,172543.7451079,226
1658853191.25124,172543.7451116,7
1658853191.25124,172543.7451172,-284
1658853191.25124,172544.2814985,-270
1658853191.25124,172544.2815125,147
1658853191.48926,172544.2815175,378
1658853191.48926,172544.281523,170
1658853191.48926,172544.2815269,56
1658853191.48926,172544.2815304,151
1658853191.48926,172544.2815338,161
1658853191.48926,172544.2815383,121
1658853191.48926,172544.2815425,121
1658853191.48926,172544.2815471,91
1658853191.48926,172544.2815539,67
1658853191.48926,172544.2815593,88
1658853191.48926,172544.2815638,79
1658853191.48926,172544.281567,44
1658853191.48926,172544.2815702,46
1658853191.48926,172544.281575,56
1658853191.48926,172544.2815804,25
1658853191.48926,172544.2815898,-7
1658853191.48926,172544.2815994,-25
1658853191.48926,172544.2816124,-39
1658853191.48926,172544.2816257,-58
1658853191.48926,172544.2816381,-81
1658853191.48926,172544.2816462,-77
1658853191.48926,172544.2816555,-44
1658853191.48926,172544.2816632,-25
1658853191.48926,172544.2816753,-21
1658853191.48926,172544.2816828,0
1658853191.48926,172544.2816873,23
1658853191.48926,172544.2816944,44
1658853191.48926,172544.2816993,63
1658853191.48926,172544.2817087,72
1658853191.48926,172544.2817224,72
1658853191.48926,172544.2817335,65
1658853191.48926,172544.2817432,56
1658853191.48926,172544.281751,67
1658853191.48926,172544.2817575,84
1658853191.48926,172544.281765,72
1658853191.48926,172544.2817731,58
1658853191.48926,172544.281781,65
1658853191.48926,172544.2817917,72
1658853191.48926,172544.2818004,70
1658853191.48926,172544.281826,67
1658853191.48926,172544.2818358,74
1658853191.48926,172544.2818418,77
1658853191.48926,172544.2818461,77
1658853191.48926,172544.2818516,100
1658853191.48926,172544.2818555,123
1658853191.48926,172544.281861,100
1658853191.48926,172544.2818649,53
1658853191.48926,172544.2818703,44
1658853191.48926,172544.2818747,77
1658853191.48926,172544.2818801,102
1658853191.54371,172544.281884,93
1658853191.54371,172544.2818894,88
1658853191.54371,172544.2818933,119
1658853191.54371,172544.2818987,140
1658853191.54371,172544.2819035,114
1658853191.54371,172544.281909,100
1658853191.54371,172544.2819129,165
1658853191.54371,172544.2819182,228
1658853191.54371,172544.281922,123
1658853191.54371,172544.2819273,-168
1658853191.54371,172544.2819312,-392
1658853191.54371,172544.2819365,-170
1658853191.54371,172544.2819404,296
1658853191.54371,172544.2819457,338
1658853191.54371,172544.2819496,86
1658853191.54371,172544.2819557,67
1658853191.54371,172544.2819595,151
1658853191.54371,172544.2819648,119
1658853191.54371,172544.2819686,86
1658853191.54371,172544.2819738,93
1658853191.54371,172544.2819777,93
1658853191.54371,172544.8674705,121
1658853191.54371,172544.8675064,135
1658853191.54371,172544.8675261,100
1658853191.86018,172544.8675435,74
1658853191.86018,172544.8675575,67
1658853191.86018,172544.8675725,44
1658853191.86018,172544.8675856,18
1658853191.86018,172544.8675968,9
1658853191.86018,172544.8676056,-2
1658853191.86018,172544.8676169,-11
1658853191.86018,172544.8676292,-25
1658853191.86018,172544.8676416,-46
1658853191.86018,172544.8676549,-51
1658853191.86018,172544.867669,-39
1658853191.86018,172544.8676864,-35
1658853191.86018,172544.8677024,-23
1658853191.86018,172544.8677198,-4
1658853191.86018,172544.8677379,14
1658853191.86018,172544.8677552,53
1658853191.86018,172544.867771,105
1658853191.86018,172544.8677885,121
1658853191.86018,172544.8678038,112
1658853191.86018,172544.8678205,107
1658853191.86018,172544.8678371,102
1658853191.86018,172544.8678549,91
1658853191.86018,172544.8678716,81
1658853191.86018,172544.8678888,88
1658853191.86018,172544.867903,102
1658853191.86018,172544.8679155,105
1658853191.86018,172544.8679312,95
1658853191.86018,172544.8679443,91
1658853191.86018,172544.8679587,107
1658853191.86018,172544.8679747,116
1658853191.86018,172544.8679903,102
1658853191.86018,172544.8680014,102
1658853191.86018,172544.8680133,135
1658853191.86018,172544.8680287,154
1658853191.86018,172544.8680444,128
1658853191.86018,172544.8680564,84
1658853191.86018,172544.8680679,70
1658853191.86018,172544.8680839,95
1658853191.86018,172544.8682233,119
1658853191.86018,172544.8682399,133
1658853191.86018,172544.8682745,151
1658853191.86018,172544.8682999,154
1658853191.86018,172544.8683181,140
1658853191.86018,172544.8683391,144
1658853191.86018,172544.8683633,163
1658853191.86018,172544.8683835,207
1658853191.86018,172544.8684014,252
1658853191.86018,172544.8684164,149
1658853191.86018,172544.8684295,-133
1658853191.86018,172544.8684455,-322
1658853191.87015,172544.868459,-77
1658853191.87015,172544.8684772,338
1658853191.87015,172544.868492,322
1658853191.87015,172544.8685091,86
1658853191.87015,172544.8685252,112
1658853191.87015,172544.8685403,191
1658853191.87015,172544.868553,140
1658853191.87015,172544.8685696,121
1658853191.87015,172544.8685856,147
1658853191.87015,172544.8685994,130
1658853191.87015,172544.8686124,114
1658853191.87015,172544.8686264,121
1658853191.87015,172544.8686395,119
1658853191.87015,172544.8686473,109
1658853191.87015,172544.8686549,107
1658853191.87015,172544.8686665,84
1658853191.87015,172544.8686786,49
1658853191.87015,172544.8686925,44
1658853191.87015,172544.8687042,63
1658853191.87015,172544.868721,49
1658853191.87015,172545.4029886,21
1658853191.87015,172545.4030075,21
1658853191.87015,172545.4030159,30
1658853191.87015,172545.4030232,9
1658853192.44299,172545.403029,-4
1658853192.44299,172545.4030323,42
1658853192.44299,172545.4030371,102
1658853192.44299,172545.4030416,112
1658853192.44299,172545.4030473,98
1658853192.44299,172545.4030511,102
1658853192.44299,172545.4030542,109
1658853192.44299,172545.4030576,107
1658853192.44299,172545.4030613,102
1658853192.44299,172545.4030656,109
1658853192.44299,172545.4030706,105
1658853192.44299,172545.4030743,81
1658853192.44299,172545.4030812,84
1658853192.44299,172545.4030875,114
1658853192.44299,172545.4030962,107
1658853192.44299,172545.4031012,86
1658853192.44299,172545.4031095,93
1658853192.44299,172545.4031173,100
1658853192.44299,172545.4031231,93
1658853192.44299,172545.4031297,93
1658853192.44299,172545.4031345,102
1658853192.44299,172545.4031432,100
1658853192.44299,172545.403152,86
1658853192.44299,172545.4031589,56
1658853192.44299,172545.4031676,35
1658853192.44299,172545.4031741,60
1658853192.44299,172545.4031822,84
1658853192.44299,172545.4031884,81
1658853192.44299,172545.4032012,98
1658853192.44299,172545.4032123,123
1658853192.44299,172545.4032205,121
1658853192.44299,172545.4032279,116
1658853192.44299,172545.4032363,128
1658853192.44299,172545.403243,158
1658853192.44299,172545.4032503,214
1658853192.44299,172545.4032559,198
1658853192.44299,172545.403261,-11
1658853192.44299,172545.4032657,-298
1658853192.44299,172545.403274,-282
1658853192.44299,172545.4032816,130
1658853192.44299,172545.4032878,340
1658853192.44299,172545.4032944,126
1658853192.44299,172545.4032983,23
1658853192.44299,172545.403302,119
1658853192.44299,172545.4033063,119
1658853192.44299,172545.4033124,95
1658853192.44299,172545.4033176,135
1658853192.44299,172545.4033234,126
1658853192.44299,172545.4033271,86
1658853192.44299,172545.4033309,93
1658853192.45396,172545.4033359,112
1658853192.45396,172545.4033401,98
1658853192.45396,172545.4033467,86
1658853192.45396,172545.4033531,88
1658853192.45396,172545.4033617,65
1658853192.45396,172545.4033688,30
1658853192.45396,172545.403378,28
1658853192.45396,172545.4033848,28
1658853192.45396,172545.4033893,7
1658853192.45396,172545.4033947,-7
1658853192.45396,172545.4033992,-2
1658853192.45396,172545.4034068,-2
1658853192.45396,172545.4034123,-4
1658853192.45396,172545.4034157,7
1658853192.45396,172545.403421,35
1658853192.45396,172545.4034243,70
1658853192.45396,172545.4034299,98
1658853192.45396,172545.4034334,121
1658853192.45396,172545.4034386,130
1658853192.45396,172545.9877537,128
1658853192.45396,172545.9877737,140
1658853192.45396,172545.987781,147
1658853192.45396,172545.987787,130
1658853192.45396,172545.9877911,109
1658853193.0338,172545.9877967,102
1658853193.0338,172545.9878014,100
1658853193.0338,172545.9878052,112
1658853193.0338,172545.9878086,121
1658853193.0338,172545.9878123,114
1658853193.0338,172545.9878155,114
1658853193.0338,172545.9878191,116
1658853193.0338,172545.9878225,119
1658853193.0338,172545.9878256,112
1658853193.0338,172545.9878287,100
1658853193.0338,172545.9878323,95
1658853193.0338,172545.987836,86
1658853193.0338,172545.9878396,63
1658853193.0338,172545.9878434,39
1658853193.0338,172545.9878465,46
1658853193.0338,172545.9878494,72
1658853193.0338,172545.9878525,86
1658853193.0338,172545.9878559,95
1658853193.0338,172545.9878591,114
1658853193.0338,172545.9878628,121
1658853193.0338,172545.9878662,105
1658853193.0338,172545.9878692,93
1658853193.0338,172545.9878722,119
1658853193.0338,172545.9878753,182
1658853193.0338,172545.9878794,170
1658853193.0338,172545.9878842,-2
1658853193.0338,172545.9878884,-247
1658853193.0338,172545.9878916,-252
1658853193.0338,172545.987895,116
1658853193.0338,172545.9878987,352
1658853193.0338,172545.9879046,163
1658853193.0338,172545.9879099,30
1658853193.0338,172545.9879143,112
1658853193.0338,172545.9879196,116
1658853193.0338,172545.9879276,74
1658853193.0338,172545.9879373,102
1658853193.0338,172545.9879448,112
1658853193.0338,172545.9879527,84
1658853193.0338,172545.9879601,84
1658853193.0338,172545.987967,91
1658853193.0338,172545.9879737,79
1658853193.0338,172545.9879803,65
1658853193.0338,172545.9879876,51
1658853193.0338,172545.9879967,35
1658853193.0338,172545.9880036,9
1658853193.0338,172545.9880113,-16
1658853193.0338,172545.9880193,-25
1658853193.0338,172545.9880265,-23
1658853193.0338,172545.9880313,-23
1658853193.0338,172545.988036,-25
1658853193.04577,172545.9880408,-25
1658853193.04577,172545.9880456,-28
1658853193.04577,172545.9880504,-37
1658853193.04577,172545.9880553,-25
1658853193.04577,172545.98806,14
1658853193.04577,172545.9880649,51
1658853193.04577,172545.9880696,72
1658853193.04577,172545.9880757,86
1658853193.04577,172545.9880825,88
1658853193.04577,172545.9880895,81
1658853193.04577,172545.9880958,79
1658853193.04577,172545.9881016,86
1658853193.04577,172545.9881092,81
1658853193.04577,172545.9881139,65
1658853193.04577,172545.9881188,63
1658853193.04577,172545.9881235,77
1658853193.04577,172545.9881284,88
1658853193.04577,172545.988133,86
1658853193.04577,172546.5726775,98
1658853193.04577,172546.5727011,112
1658853193.04577,172546.5727113,105
1658853193.04577,172546.5727209,100
1658853193.04577,172546.5727269,102
1658853193.04577,172546.5727326,91
1658853193.61332,172546.5727371,60
1658853193.61332,172546.5727414,25
1658853193.61332,172546.5727475,4
1658853193.61332,172546.5727548,9
1658853193.61332,172546.5727608,30
1658853193.61332,172546.5727647,49
1658853193.61332,172546.5727686,67
1658853193.61332,172546.5727732,70
1658853193.61332,172546.5727768,60
1658853193.61332,172546.5727803,51
1658853193.61332,172546.5727848,42
1658853193.61332,172546.5727905,77
1658853193.61332,172546.5727954,121
1658853193.61332,172546.5727991,-2
1658853193.61332,172546.5728031,-294
1658853193.61332,172546.5728097,-399
1658853193.61332,172546.5728137,-46
1658853193.61332,172546.5728175,324
1658853193.61332,172546.5728215,210
1658853193.61332,172546.5728252,-9
1658853193.61332,172546.5728287,23
1658853193.61332,172546.5728326,56
1658853193.61332,172546.5728362,14
1658853193.61332,172546.5728401,32
1658853193.61332,172546.5728441,79
1658853193.61332,172546.572848,74
1658853193.61332,172546.5728521,56
1658853193.61332,172546.5728561,46
1658853193.61332,172546.5728597,35
1658853193.61332,172546.5728631,23
1658853193.61332,172546.5728663,23
1658853193.61332,172546.5728696,18
1658853193.61332,172546.5728734,2
1658853193.61332,172546.5728768,-21
1658853193.61332,172546.5728804,-39
1658853193.61332,172546.5728839,-39
1658853193.61332,172546.5728874,-30
1658853193.61332,172546.5728908,-35
1658853193.61332,172546.5728944,-42
1658853193.61332,172546.5728981,-28
1658853193.61332,172546.5729014,-16
1658853193.61332,172546.5729046,-9
1658853193.61332,172546.5729078,18
1658853193.61332,172546.572911,58
1658853193.61332,172546.5729145,91
1658853193.61332,172546.5729177,109
1658853193.61332,172546.5729209,123
1658853193.61332,172546.5729246,137
1658853193.61332,172546.5729286,149
1658853193.61332,172546.5729325,144
1658853193.62429,172546.5729362,135
1658853193.62429,172546.57294,140
1658853193.62429,172546.5729443,144
1658853193.62429,172546.5729482,142
1658853193.62429,172546.5729522,142
1658853193.62429,172546.572956,142
1658853193.62429,172546.5729601,144
1658853193.62429,172546.5729638,161
1658853193.62429,172546.5729676,177
1658853193.62429,172546.5729715,177
1658853193.62429,172546.5729755,175
1658853193.62429,172546.5729795,161
1658853193.62429,172546.5729835,135
1658853193.62429,172546.5729874,121
1658853193.62429,172546.5729911,130
1658853193.62429,172546.5729952,140
1658853193.62429,172546.572999,142
1658853193.62429,172547.1601554,144
1658853193.62429,172547.1601712,163
1658853193.62429,172547.1601847,170
1658853193.62429,172547.1601917,158
1658853193.62429,172547.1602,151
1658853193.62429,172547.1602058,161
1658853193.62429,172547.1602105,203
1658853194.09692,172547.160216,226
1658853194.09692,172547.1602199,105
1658853194.09692,172547.1602237,-128
1658853194.09692,172547.1602276,-189
1658853194.09692,172547.1602308,105
1658853194.09692,172547.1602353,362
1658853194.09692,172547.1602385,210
1658853194.09692,172547.1602417,21
1658853194.09692,172547.1602458,81
1658853194.09692,172547.16025,123
1658853194.09692,172547.1602532,70
1658853194.09692,172547.1602567,58
1658853194.09692,172547.1602605,67
1658853194.09692,172547.1602643,46
1658853194.09692,172547.1602696,35
1658853194.09692,172547.160273,46
1658853194.09692,172547.1602782,39
1658853194.09692,172547.1602825,18
1658853194.09692,172547.1602898,4
1658853194.09692,172547.1602956,2
1658853194.09692,172547.1603045,4
1658853194.09692,172547.160312,-11
1658853194.09692,172547.1603199,-35
1658853194.09692,172547.1603272,-49
1658853194.09692,172547.1603307,-56
1658853194.09692,172547.1603374,-65
1658853194.09692,172547.1603452,-72
1658853194.09692,172547.1603586,-58
1658853194.09692,172547.1603695,-35
1658853194.09692,172547.1603782,-11
1658853194.09692,172547.1603878,7
1658853194.09692,172547.1603985,30
1658853194.09692,172547.1604057,60
1658853194.09692,172547.1604091,86
1658853194.09692,172547.1604113,100
1658853194.09692,172547.1604134,102
1658853194.09692,172547.1604156,91
1658853194.09692,172547.1604177,79
1658853194.09692,172547.1604198,84
1658853194.09692,172547.1604219,86
1658853194.09692,172547.1604259,81
1658853194.09692,172547.1604317,81
1658853194.09692,172547.1604362,79
1658853194.09692,172547.1604419,79
1658853194.09692,172547.1604508,86
1658853194.09692,172547.1604639,84
1658853194.09692,172547.160473,84
1658853194.09692,172547.1604818,88
1658853194.09692,172547.1604905,81
1658853194.09692,172547.1604996,72
1658853194.10988,172547.1605089,60
1658853194.10988,172547.1605171,37
1658853194.10988,172547.1605232,32
1658853194.10988,172547.1605308,44
1658853194.10988,172547.1605378,58
1658853194.10988,172547.1605462,84
1658853194.10988,172547.1605534,112
1658853194.10988,172547.1605611,102
1658853194.10988,172547.1605699,84
1658853194.10988,172547.1605787,93
1658853194.10988,172547.1605891,121
1658853194.10988,172547.1605994,135
1658853194.10988,172547.1606065,42
1658853194.10988,172547.1606202,-177
1658853194.10988,172547.1606304,-289
1658853194.10988,172547.1606408,-39
1658853194.10988,172547.6453322,287
1658853194.10988,172547.6453473,214
1658853194.10988,172547.6453523,2
1658853194.10988,172547.6453591,39
1658853194.10988,172547.6453631,105
1658853194.10988,172547.6453671,65
1658853194.10988,172547.6453724,63
1658853194.10988,172547.6453764,79
1658853194.68873,172547.6453804,53
1658853194.68873,172547.6453843,46
1658853194.68873,172547.6453881,58
1658853194.68873,172547.6453919,46
1658853194.68873,172547.6453956,28
1658853194.68873,172547.6453994,28
1658853194.68873,172547.6454032,14
1658853194.68873,172547.645407,-25
1658853194.68873,172547.6454107,-49
1658853194.68873,172547.6454143,-51
1658853194.68873,172547.6454182,-63
1658853194.68873,172547.6454221,-79
1658853194.68873,172547.6454273,-95
1658853194.68873,172547.6454308,-114
1658853194.68873,172547.645436,-112
1658853194.68873,172547.6454396,-91
1658853194.68873,172547.6454432,-74
1658853194.68873,172547.645448,-56
1658853194.68873,172547.6454538,-28
1658853194.68873,172547.6454586,7
1658853194.68873,172547.645463,46
1658853194.68873,172547.6454678,67
1658853194.68873,172547.6454713,67
1658853194.68873,172547.6454747,56
1658853194.68873,172547.6454797,49
1658853194.68873,172547.6454846,56
1658853194.68873,172547.6454896,60
1658853194.68873,172547.6454939,63
1658853194.68873,172547.6454974,72
1658853194.68873,172547.6455023,88
1658853194.68873,172547.645507,107
1658853194.68873,172547.6455122,107
1658853194.68873,172547.645517,95
1658853194.68873,172547.6455224,98
1658853194.68873,172547.6455273,114
1658853194.68873,172547.6455323,114
1658853194.68873,172547.6455372,81
1658853194.68873,172547.6455416,49
1658853194.68873,172547.6455463,51
1658853194.68873,172547.6455512,67
1658853194.68873,172547.645556,72
1658853194.68873,172547.6455604,84
1658853194.68873,172547.6455653,105
1658853194.68873,172547.6455695,107
1658853194.68873,172547.6455744,100
1658853194.68873,172547.6455793,107
1658853194.68873,172547.6455839,128
1658853194.68873,172547.6455886,158
1658853194.68873,172547.645593,135
1658853194.68873,172547.6455979,-28
1658853194.6997,172547.6456013,-247
1658853194.6997,172547.6456048,-193
1658853194.6997,172547.6456095,207
1658853194.6997,172547.6456129,404
1658853194.6997,172547.6456164,189
1658853194.6997,172547.6456212,46
1658853194.6997,172547.6456254,102
1658853194.6997,172547.6456301,93
1658853194.6997,172547.6456334,51
1658853194.6997,172547.6456368,84
1658853194.6997,172547.6456416,105
1658853194.6997,172547.6456451,74
1658853194.6997,172547.6456486,67
1658853194.6997,172547.6456532,74
1658853194.6997,172547.6456565,58
1658853194.6997,172548.2300974,44
1658853194.6997,172548.230112,49
1658853194.6997,172548.2301157,49
1658853194.6997,172548.2301262,30
1658853194.6997,172548.2301345,-4
1658853194.6997,172548.2301414,-46
1658853194.6997,172548.2301489,-70
1658853194.6997,172548.2301533,-67
1658853194.6997,172548.2301594,-67
1658853195.32276,172548.2301634,-72
1658853195.32276,172548.2301673,-72
1658853195.32276,172548.2301714,-67
1658853195.32276,172548.2301755,-51
1658853195.32276,172548.2301799,-9
1658853195.32276,172548.2301841,25
1658853195.32276,172548.2301881,44
1658853195.32276,172548.2301917,67
1658853195.32276,172548.2301956,84
1658853195.32276,172548.2302014,77
1658853195.32276,172548.2302048,79
1658853195.32276,172548.2302082,93
1658853195.32276,172548.2302115,93
1658853195.32276,172548.2302149,93
1658853195.32276,172548.2302185,91
1658853195.32276,172548.2302219,81
1658853195.32276,172548.2302252,88
1658853195.32276,172548.2302286,112
1658853195.32276,172548.230232,126
1658853195.32276,172548.2302364,130
1658853195.32276,172548.2302427,130
1658853195.32276,172548.230247,121
1658853195.32276,172548.2302532,100
1658853195.32276,172548.2302571,79
1658853195.32276,172548.2302635,81
1658853195.32276,172548.230268,100
1658853195.32276,172548.2302735,107
1658853195.32276,172548.2302772,119
1658853195.32276,172548.2302825,142
1658853195.32276,172548.230286,154
1658853195.32276,172548.2302895,149
1658853195.32276,172548.230296,144
1658853195.32276,172548.2303049,154
1658853195.32276,172548.2303119,193
1658853195.32276,172548.2303222,189
1658853195.32276,172548.2303326,42
1658853195.32276,172548.2303383,-161
1658853195.32276,172548.2303425,-119
1658853195.32276,172548.2303454,249
1658853195.32276,172548.2303476,434
1658853195.32276,172548.2303497,205
1658853195.32276,172548.2303518,37
1658853195.32276,172548.2303539,84
1658853195.32276,172548.230356,98
1658853195.32276,172548.230358,74
1658853195.32276,172548.2303603,98
1658853195.32276,172548.2303624,100
1658853195.32276,172548.2303645,72
1658853195.32276,172548.2303666,70
1658853195.32276,172548.2303687,77
1658853195.33473,172548.2303708,60
1658853195.33473,172548.230373,53
1658853195.33473,172548.2303752,56
1658853195.33473,172548.2303773,35
1658853195.33473,172548.2303794,11
1658853195.33473,172548.2303816,-2
1658853195.33473,172548.2303842,-25
1658853195.33473,172548.2303864,-39
1658853195.33473,172548.2303885,-39
1658853195.33473,172548.2303905,-42
1658853195.33473,172548.2303927,-53
1658853195.33473,172548.2303948,-51
1658853195.33473,172548.2303967,-32
1658853195.33473,172548.2303988,-9
1658853195.33473,172548.8649355,23
1658853195.33473,172548.8649562,63
1658853195.33473,172548.8649689,91
1658853195.33473,172548.864975,102
1658853195.33473,172548.8649816,105
1658853195.33473,172548.8649922,114
1658853195.33473,172548.8650039,121
1658853195.33473,172548.8650176,107
1658853195.33473,172548.8650261,91
1658853195.33473,172548.8650288,88
1658853195.81175,172548.8650313,93
1658853195.81175,172548.8650409,102
1658853195.81175,172548.8650508,116
1658853195.81175,172548.8650582,126
1658853195.81175,172548.8650626,112
1658853195.81175,172548.8650673,91
1658853195.81175,172548.8650749,91
1658853195.81175,172548.8650849,84
1658853195.81175,172548.8650929,53
1658853195.81175,172548.8650955,44
1658853195.81175,172548.8650977,67
1658853195.81175,172548.8651,84
1658853195.81175,172548.8651082,84
1658853195.81175,172548.8651189,98
1658853195.81175,172548.865123,123
1658853195.81175,172548.8651251,126
1658853195.81175,172548.8651273,105
1658853195.81175,172548.8651524,109
1658853195.81175,172548.8651627,168
1658853195.81175,172548.8651704,205
1658853195.81175,172548.8651779,100
1658853195.81175,172548.8651849,-109
1658853195.81175,172548.8651909,-182
1658853195.81175,172548.8651976,91
1658853195.81175,172548.8652041,380
1658853195.81175,172548.8652116,259
1658853195.81175,172548.8652234,32
1658853195.81175,172548.8652283,49
1658853195.81175,172548.8652408,98
1658853195.81175,172548.8652496,70
1658853195.81175,172548.8652596,74
1658853195.81175,172548.8652727,86
1658853195.81175,172548.8652827,63
1658853195.81175,172548.8652911,58
1658853195.81175,172548.8652971,77
1658853195.81175,172548.8653014,63
1658853195.81175,172548.865308,21
1658853195.81175,172548.8653157,0
1658853195.81175,172548.865329,2
1658853195.81175,172548.8653421,2
1658853195.81175,172548.8653511,-7
1658853195.81175,172548.8653579,-25
1658853195.81175,172548.8653661,-53
1658853195.81175,172548.8653737,-58
1658853195.81175,172548.8653815,-51
1658853195.81175,172548.8653934,-58
1658853195.81175,172548.8654024,-63
1658853195.81175,172548.8654113,-53
1658853195.81175,172548.8654208,-46
1658853195.81175,172548.8654269,-16
1658853195.82272,172548.8654374,37
1658853195.82272,172548.8654504,79
1658853195.82272,172548.8654588,86
1658853195.82272,172548.8654641,77
1658853195.82272,172548.8654689,84
1658853195.82272,172548.8654736,105
1658853195.82272,172548.8654782,102
1658853195.82272,172548.8654864,88
1658853195.82272,172548.8654952,98
1658853195.82272,172548.8655036,105
1658853195.82272,172548.8655091,88
1658853195.82272,172548.8655171,79
1658853195.82272,172548.8655242,95
1658853195.82272,172549.3509496,107
1658853195.82272,172549.3509617,105
1658853195.82272,172549.3509661,98
1658853195.82272,172549.3509685,81
1658853195.82272,172549.3509706,60
1658853195.82272,172549.3509728,53
1658853195.82272,172549.350975,65
1658853195.82272,172549.3509771,63
1658853195.82272,172549.3509791,46
1658853195.82272,172549.3509812,60
1658853195.82272,172549.3509832,91
1658853196.39024,172549.3509853,84
1658853196.39024,172549.3509873,67
1658853196.39024,172549.3509892,77
1658853196.39024,172549.3509911,95
1658853196.39024,172549.350993,128
1658853196.39024,172549.350995,88
1658853196.39024,172549.350998,-133
1658853196.39024,172549.3510087,-385
1658853196.39024,172549.3510158,-263
1658853196.39024,172549.3510294,163
1658853196.39024,172549.3510356,261
1658853196.39024,172549.351038,18
1658853196.39024,172549.3510402,-32
1658853196.39024,172549.3510423,77
1658853196.39024,172549.3510496,74
1658853196.39024,172549.3510605,9
1658853196.39024,172549.3510651,16
1658853196.39024,172549.3510674,49
1658853196.39024,172549.3510696,28
1658853196.39024,172549.3510731,-7
1658853196.39024,172549.3510752,-7
1658853196.39024,172549.3510773,9
1658853196.39024,172549.3510794,25
1658853196.39024,172549.3510823,14
1658853196.39024,172549.3510844,-37
1658853196.39024,172549.3510865,-86
1658853196.39024,172549.3510887,-112
1658853196.39024,172549.3510908,-119
1658853196.39024,172549.3510929,-95
1658853196.39024,172549.3510951,-70
1658853196.39024,172549.3510972,-88
1658853196.39024,172549.3510994,-114
1658853196.39024,172549.3511015,-79
1658853196.39024,172549.3511036,-32
1658853196.39024,172549.3511118,-18
1658853196.39024,172549.3511223,0
1658853196.39024,172549.3511256,56
1658853196.39024,172549.3511294,95
1658853196.39024,172549.3511315,86
1658853196.39024,172549.3511336,84
1658853196.39024,172549.3511375,119
1658853196.39024,172549.3511397,135
1658853196.39024,172549.3511418,123
1658853196.39024,172549.3511439,126
1658853196.39024,172549.3511472,135
1658853196.39024,172549.3511607,133
1658853196.39024,172549.3511648,144
1658853196.39024,172549.3511712,165
1658853196.39024,172549.3511751,165
1658853196.39024,172549.3511781,154
1658853196.40121,172549.3511816,161
1658853196.40121,172549.3511866,161
1658853196.40121,172549.3511897,137
1658853196.40121,172549.3511928,126
1658853196.40121,172549.3511968,140
1658853196.40121,172549.3512,154
1658853196.40121,172549.3512034,158
1658853196.40121,172549.3512067,172
1658853196.40121,172549.3512098,193
1658853196.40121,172549.3512126,210
1658853196.40121,172549.3512156,217
1658853196.40121,172549.3512189,210
1658853196.40121,172549.9363135,219
1658853196.40121,172549.9363314,289
1658853196.40121,172549.9363387,319
1658853196.40121,172549.9363452,170
1658853196.40121,172549.9363507,-74
1658853196.40121,172549.9363597,-77
1658853196.40121,172549.9363693,296
1658853196.40121,172549.9363769,504
1658853196.40121,172549.9363817,259
1658853196.40121,172549.9363874,74
1658853196.40121,172549.9363908,161
1658853196.40121,172549.9363959,184
1658853196.97905,172549.9363995,130
1658853196.97905,172549.9364028,156
1658853196.97905,172549.936406,172
1658853196.97905,172549.9364091,121
1658853196.97905,172549.9364122,91
1658853196.97905,172549.9364157,100
1658853196.97905,172549.9364192,98
1658853196.97905,172549.9364226,84
1658853196.97905,172549.936426,72
1658853196.97905,172549.9364295,51
1658853196.97905,172549.9364327,30
1658853196.97905,172549.9364358,16
1658853196.97905,172549.936439,2
1658853196.97905,172549.9364424,-9
1658853196.97905,172549.9364509,-14
1658853196.97905,172549.9364595,-11
1658853196.97905,172549.9364675,-11
1658853196.97905,172549.9364752,-28
1658853196.97905,172549.9364798,-32
1658853196.97905,172549.9364842,9
1658853196.97905,172549.9364889,44
1658853196.97905,172549.9364936,58
1658853196.97905,172549.9364983,86
1658853196.97905,172549.9365028,126
1658853196.97905,172549.9365076,140
1658853196.97905,172549.9365141,112
1658853196.97905,172549.9365202,86
1658853196.97905,172549.936525,95
1658853196.97905,172549.9365295,102
1658853196.97905,172549.9365341,88
1658853196.97905,172549.9365387,86
1658853196.97905,172549.9365443,95
1658853196.97905,172549.9365507,93
1658853196.97905,172549.9365555,93
1658853196.97905,172549.9365616,102
1658853196.97905,172549.9365662,109
1658853196.97905,172549.9365709,91
1658853196.97905,172549.9365788,53
1658853196.97905,172549.9365872,35
1658853196.97905,172549.9365941,42
1658853196.97905,172549.9366026,58
1658853196.97905,172549.9366088,79
1658853196.97905,172549.9366164,98
1658853196.97905,172549.9366204,105
1658853196.97905,172549.9366249,109
1658853196.97905,172549.9366286,130
1658853196.97905,172549.9366319,144
1658853196.97905,172549.9366352,140
1658853196.97905,172549.9366385,175
1658853196.97905,172549.9366419,217
1658853196.98902,172549.9366453,119
1658853196.98902,172549.9366487,-123
1658853196.98902,172549.9366523,-247
1658853196.98902,172549.9366554,7
1658853196.98902,172549.9366587,340
1658853196.98902,172549.9366619,259
1658853196.98902,172549.9366652,37
1658853196.98902,172549.9366684,67
1658853196.98902,172549.9366728,126
1658853196.98902,172549.9366774,74
1658853196.98902,172549.936683,67
1658853196.98902,172550.5209581,95
1658853196.98902,172550.5209702,74
1658853196.98902,172550.5209727,46
1658853196.98902,172550.520975,51
1658853196.98902,172550.520977,51
1658853196.98902,172550.5209791,35
1658853196.98902,172550.5209812,18
1658853196.98902,172550.5209832,7
1658853196.98902,172550.5209855,-4
1658853196.98902,172550.5209876,-18
1658853196.98902,172550.5209896,-35
1658853196.98902,172550.5209917,-63
1658853196.98902,172550.5209937,-95
1658853197.51799,172550.5209959,-102
1658853197.51799,172550.5209979,-95
1658853197.51799,172550.5209999,-86
1658853197.51799,172550.5210018,-67
1658853197.51799,172550.5210038,-53
1658853197.51799,172550.5210057,-44
1658853197.51799,172550.5210077,-9
1658853197.51799,172550.5210109,30
1658853197.51799,172550.5210192,46
1658853197.51799,172550.5210246,51
1658853197.51799,172550.5210284,44
1658853197.51799,172550.5210332,35
1658853197.51799,172550.5210386,46
1658853197.51799,172550.5210435,58
1658853197.51799,172550.5210551,53
1658853197.51799,172550.5210588,49
1658853197.51799,172550.5210611,49
1658853197.51799,172550.5210633,37
1658853197.51799,172550.5210705,39
1658853197.51799,172550.5210826,58
1658853197.51799,172550.521091,70
1658853197.51799,172550.521095,70
1658853197.51799,172550.5210971,60
1658853197.51799,172550.5210994,32
1658853197.51799,172550.5211015,18
1658853197.51799,172550.5211037,30
1658853197.51799,172550.5211058,44
1658853197.51799,172550.5211078,44
1658853197.51799,172550.52111,53
1658853197.51799,172550.5211121,91
1658853197.51799,172550.5211147,116
1658853197.51799,172550.5211169,93
1658853197.51799,172550.521119,77
1658853197.51799,172550.5211222,102
1658853197.51799,172550.5211328,147
1658853197.51799,172550.5211374,137
1658853197.51799,172550.5211411,-21
1658853197.51799,172550.5211445,-287

1658853197.51799,172550.5211495,-312
1658853197.51799,172550.5211532,74
1658853197.51799,172550.5211586,340
1658853197.51799,172550.5211633,158
1658853197.51799,172550.5211675,-11
1658853197.51799,172550.5211717,53
1658853197.51799,172550.5211769,93
1658853197.51799,172550.5211803,53
1658853197.51799,172550.521185,46
1658853197.51799,172550.5211884,46
1658853197.51799,172550.5211944,32
1658853197.51799,172550.5211979,30
1658853197.53094,172550.5212014,25
1658853197.53094,172550.5212072,7
1658853197.53094,172550.5212111,7
1658853197.53094,172550.5212154,14
1658853197.53094,172550.5212211,-4
1658853197.53094,172550.5212261,-32
1658853197.53094,172550.5212316,-56
1658853197.53094,172550.5212351,-86
1658853197.53094,172550.5212402,-112
1658853197.53094,172550.5212438,-107
1658853197.53094,172551.0603065,-91
1658853197.53094,172551.0603304,-93
1658853197.53094,172551.0603412,-86
1658853197.53094,172551.0604497,-67
1658853197.53094,172551.0604621,-42
1658853197.53094,172551.0604669,0
1658853197.53094,172551.0604707,39
1658853197.53094,172551.060474,56
1658853197.53094,172551.0604776,58
1658853197.53094,172551.0604844,77
1658853197.53094,172551.0604919,102
1658853197.53094,172551.0604951,95
1658853197.53094,172551.0604997,81
1658853197.53094,172551.0605028,88
1658853198.05374,172551.0605078,91
1658853198.05374,172551.0605111,81
1658853198.05374,172551.0605144,86
1658853198.05374,172551.0605174,105
1658853198.05374,172551.0605205,105
1658853198.05374,172551.0605233,84
1658853198.05374,172551.0605262,70
1658853198.05374,172551.0605293,70
1658853198.05374,172551.0605323,63
1658853198.05374,172551.0605356,46
1658853198.05374,172551.0605391,37
1658853198.05374,172551.0605425,42
1658853198.05374,172551.0605483,53
1658853198.05374,172551.0605544,65
1658853198.05374,172551.0605598,84
1658853198.05374,172551.0605671,109
1658853198.05374,172551.0605742,116
1658853198.05374,172551.0605784,114
1658853198.05374,172551.0605859,123
1658853198.05374,172551.0605933,156
1658853198.05374,172551.0606002,193
1658853198.05374,172551.0606111,116
1658853198.05374,172551.0606219,-112
1658853198.05374,172551.0606287,-268
1658853198.05374,172551.0606333,-18
1658853198.05374,172551.060637,415
1658853198.05374,172551.0606501,415
1658853198.05374,172551.0606637,133
1658853198.05374,172551.0606737,88
1658853198.05374,172551.0606804,163
1658853198.05374,172551.0606854,137
1658853198.05374,172551.0606921,114
1658853198.05374,172551.0606969,140
1658853198.05374,172551.0607036,142
1658853198.05374,172551.0607082,133
1658853198.05374,172551.0607156,142
1658853198.05374,172551.0607244,147
1658853198.05374,172551.060734,128
1658853198.05374,172551.0607403,105
1658853198.05374,172551.0607438,93
1658853198.05374,172551.0607495,79
1658853198.05374,172551.0607528,56
1658853198.05374,172551.0607601,35
1658853198.05374,172551.0607847,21
1658853198.05374,172551.0607933,16
1658853198.05374,172551.0608003,21
1658853198.05374,172551.0608064,25
1658853198.05374,172551.0608149,28
1658853198.05374,172551.0608232,44
1658853198.05374,172551.0608318,77
1658853198.06614,172551.0608432,112
1658853198.06614,172551.0608559,133
1658853198.06614,172551.0608657,140
1658853198.06614,172551.0608721,154
1658853198.06614,172551.0608783,177
1658853198.06614,172551.0608841,189
1658853198.06614,172551.0608889,198
1658853198.06614,172551.0608966,191
1658853198.06614,172551.0609053,168
1658853198.06614,172551.5947012,158
1658853198.06614,172551.5947219,165
1658853198.06614,172551.5947277,172
1658853198.06614,172551.5947301,177
1658853198.06614,172551.5947323,177
1658853198.06614,172551.5947344,177
1658853198.06614,172551.5947365,182
1658853198.06614,172551.5947386,186
1658853198.06614,172551.5947406,170
1658853198.06614,172551.5947427,144
1658853198.06614,172551.5947447,112
1658853198.06614,172551.5947468,72
1658853198.06614,172551.5947488,70
1658853198.06614,172551.5947509,100
1658853198.06614,172551.5947529,116
1658853198.58837,172551.594755,128
1658853198.58837,172551.594757,151
1658853198.58837,172551.594759,151
1658853198.58837,172551.5947611,133
1658853198.58837,172551.5947631,140
1658853198.58837,172551.5947651,191
1658853198.58837,172551.594767,240
1658853198.58837,172551.594769,179
1658853198.58837,172551.594772,-44
1658853198.58837,172551.5947803,-280
1658853198.58837,172551.5947862,-156
1658853198.58837,172551.5947906,259
1658853198.58837,172551.5947952,340
1658853198.58837,172551.594801,91
1658853198.58837,172551.594806,42
1658853198.58837,172551.5948172,144
1658853198.58837,172551.5948233,137
1658853198.58837,172551.5948255,116
1658853198.58837,172551.5948276,137
1658853198.58837,172551.5948296,123
1658853198.58837,172551.5948317,107
1658853198.58837,172551.5948338,119
1658853198.58837,172551.594836,121
1658853198.58837,172551.5948382,107
1658853198.58837,172551.5948403,109
1658853198.58837,172551.5948424,116
1658853198.58837,172551.5948446,93
1658853198.58837,172551.5948467,44
1658853198.58837,172551.5948488,23
1658853198.58837,172551.5948509,30
1658853198.58837,172551.594853,23
1658853198.58837,172551.5948551,16
1658853198.58837,172551.5948572,28
1658853198.58837,172551.5948593,37
1658853198.58837,172551.5948614,37
1658853198.58837,172551.5948634,58
1658853198.58837,172551.5948655,93
1658853198.58837,172551.5948677,126
1658853198.58837,172551.5948698,163
1658853198.58837,172551.594872,193
1658853198.58837,172551.594874,191
1658853198.58837,172551.5948762,182
1658853198.58837,172551.5948783,196
1658853198.58837,172551.5948804,207
1658853198.58837,172551.5948825,198
1658853198.58837,172551.5948846,189
1658853198.58837,172551.5948867,193
1658853198.58837,172551.5948888,198
1658853198.58837,172551.5948908,203
1658853198.58837,172551.5948929,212
1658853198.59934,172551.594895,214
1658853198.59934,172551.594897,212
1658853198.59934,172551.5948991,219
1658853198.59934,172551.5949011,226
1658853198.59934,172551.5949031,217
1658853198.59934,172551.5949052,193
1658853198.59934,172551.5949073,168
1658853198.59934,172551.5949094,163
1658853198.59934,172552.1305245,172
1658853198.59934,172552.1305377,170
1658853198.59934,172552.1305425,175
1658853198.59934,172552.1305451,200
1658853198.59934,172552.1305476,221
1658853198.59934,172552.13055,214
1658853198.59934,172552.1305524,200
1658853198.59934,172552.1305548,198
1658853198.59934,172552.1305572,207
1658853198.59934,172552.1305595,240
1658853198.59934,172552.1305619,203
1658853198.59934,172552.1305642,9
1658853198.59934,172552.1305665,-189
1658853198.59934,172552.1305689,-70
1658853198.59934,172552.1305711,275
1658853198.59934,172552.1305734,317
1658853199.22086,172552.1305757,100
1658853199.22086,172552.1305779,72
1658853199.22086,172552.1305802,154
1658853199.22086,172552.1305824,128
1658853199.22086,172552.1305846,100
1658853199.22086,172552.1305869,121
1658853199.22086,172552.1305891,116
1658853199.22086,172552.1305913,98
1658853199.22086,172552.1305939,100
1658853199.22086,172552.1305961,100
1658853199.22086,172552.1305983,81
1658853199.22086,172552.1306012,67
1658853199.22086,172552.1306035,63
1658853199.22086,172552.1306058,53
1658853199.22086,172552.1306082,25
1658853199.22086,172552.1306104,-4
1658853199.22086,172552.1306127,-18
1658853199.22086,172552.1306149,-25
1658853199.22086,172552.1306173,-32
1658853199.22086,172552.1306195,-37
1658853199.22086,172552.1306218,-35
1658853199.22086,172552.130624,-21
1658853199.22086,172552.1306263,-7
1658853199.22086,172552.1306286,9
1658853199.22086,172552.1306309,42
1658853199.22086,172552.1306332,81
1658853199.22086,172552.1306354,121
1658853199.22086,172552.1306377,149
1658853199.22086,172552.1306399,142
1658853199.22086,172552.1306422,119
1658853199.22086,172552.1306444,109
1658853199.22086,172552.1306466,112
1658853199.22086,172552.1306489,109
1658853199.22086,172552.1306511,112
1658853199.22086,172552.1306534,123
1658853199.22086,172552.1306557,116
1658853199.22086,172552.130658,102
1658853199.22086,172552.1306601,109
1658853199.22086,172552.1306624,128
1658853199.22086,172552.1306647,128
1658853199.22086,172552.1306669,123
1658853199.22086,172552.1306691,128
1658853199.22086,172552.1306713,126
1658853199.22086,172552.1306736,112
1658853199.22086,172552.1306759,88
1658853199.22086,172552.1306782,70
1658853199.22086,172552.1306804,74
1658853199.22086,172552.1306827,95
1658853199.22086,172552.130685,109
1658853199.22086,172552.1306871,109
1658853199.23283,172552.1306893,91
1658853199.23283,172552.1306915,79
1658853199.23283,172552.1306938,91
1658853199.23283,172552.130696,95
1658853199.23283,172552.1306982,107
1658853199.23283,172552.1307004,149
1658853199.23283,172552.1307027,112
1658853199.23283,172552.7636666,-109
1658853199.23283,172552.7636923,-350
1658853199.23283,172552.7636953,-219
1658853199.23283,172552.7636976,231
1658853199.23283,172552.7636999,340
1658853199.23283,172552.763702,70
1658853199.23283,172552.763704,-11
1658853199.23283,172552.7637061,81
1658853199.23283,172552.7637081,65
1658853199.23283,172552.7637102,37
1658853199.23283,172552.7637122,60
1658853199.23283,172552.7637143,44
1658853199.23283,172552.7637164,9
1658853199.23283,172552.7637185,14
1658853199.23283,172552.7637206,18
1658853199.23283,172552.7637233,2
1658853199.23283,172552.7637317,-7
1658853199.75487,172552.7637429,-18
1658853199.75487,172552.7637465,-35
1658853199.75487,172552.7637494,-49
1658853199.75487,172552.7637523,-56
1658853199.75487,172552.7637551,-67
1658853199.75487,172552.763758,-81
1658853199.75487,172552.7637608,-79
1658853199.75487,172552.7637637,-79
1658853199.75487,172552.7637665,-91
1658853199.75487,172552.7637699,-79
1658853199.75487,172552.7637797,-42
1658853199.75487,172552.7637904,-21
1658853199.75487,172552.7638022,0
1658853199.75487,172552.7638064,46
1658853199.75487,172552.7638085,81
1658853199.75487,172552.7638107,93
1658853199.75487,172552.7638128,105
1658853199.75487,172552.763815,109
1658853199.75487,172552.7638179,100
1658853199.75487,172552.7638308,98
1658853199.75487,172552.7638374,100
1658853199.75487,172552.7638398,95
1658853199.75487,172552.763842,100
1658853199.75487,172552.763844,114
1658853199.75487,172552.7638467,116
1658853199.75487,172552.7638571,109
1658853199.75487,172552.7638651,105
1658853199.75487,172552.7638677,112
1658853199.75487,172552.7638699,130
1658853199.75487,172552.763872,140
1658853199.75487,172552.7638752,144
1658853199.75487,172552.763888,144
1658853199.75487,172552.7638938,126
1658853199.75487,172552.7638961,100
1658853199.75487,172552.7638982,100
1658853199.75487,172552.7639006,100
1658853199.75487,172552.7639085,91
1658853199.75487,172552.7639191,102
1658853199.75487,172552.7639227,133
1658853199.75487,172552.7639263,147
1658853199.75487,172552.7639294,133
1658853199.75487,172552.7639403,114
1658853199.75487,172552.7639473,102
1658853199.75487,172552.7639498,130
1658853199.75487,172552.7639519,196
1658853199.75487,172552.7639546,142
1658853199.75487,172552.7639649,-119
1658853199.75487,172552.7639735,-378
1658853199.75487,172552.7639762,-238
1658853199.75487,172552.7639784,240
1658853199.76584,172552.7639806,385
1658853199.76584,172552.7639883,126
1658853199.76584,172552.7639992,37
1658853199.76584,172552.7640027,137
1658853199.76584,172552.7640063,147
1658853199.76584,172552.7640091,114
1658853199.76584,172553.3005549,114
1658853199.76584,172553.3005702,95
1658853199.76584,172553.3005746,84
1658853199.76584,172553.3005798,100
1658853199.76584,172553.300583,105
1658853199.76584,172553.3005861,93
1658853199.76584,172553.3005892,86
1658853199.76584,172553.3005932,79
1658853199.76584,172553.3005965,56
1658853199.76584,172553.3005996,28
1658853199.76584,172553.3006028,11
1658853199.76584,172553.3006059,0
1658853199.76584,172553.3006091,-9
1658853199.76584,172553.3006123,-16
1658853199.76584,172553.3006207,-28
1658853199.76584,172553.300633,-39
1658853199.76584,172553.300643,-32
1658853199.76584,172553.3006519,-9
1658853200.29237,172553.3006832,25
1658853200.29237,172553.3006898,58
1658853200.29237,172553.3006941,74
1658853200.29237,172553.3006982,81
1658853200.29237,172553.3007021,102
1658853200.29237,172553.3007077,126
1658853200.29237,172553.3007202,137
1658853200.29237,172553.3007241,137
1658853200.29237,172553.3007377,121
1658853200.29237,172553.3007508,112
1658853200.29237,172553.3007583,123
1658853200.29237,172553.3007661,128
1658853200.29237,172553.3007808,128
1658853200.29237,172553.3007911,140
1658853200.29237,172553.3008008,149
1658853200.29237,172553.300808,151
1658853200.29237,172553.3008127,154
1658853200.29237,172553.30082,151
1658853200.29237,172553.3008244,158
1658853200.29237,172553.3008314,177
1658853200.29237,172553.3008368,177
1658853200.29237,172553.3008433,144
1658853200.29237,172553.3008507,121
1658853200.29237,172553.3008593,123
1658853200.29237,172553.3008652,133
1658853200.29237,172553.3008695,140
1658853200.29237,172553.3008754,158
1658853200.29237,172553.3008807,182
1658853200.29237,172553.3008895,184
1658853200.29237,172553.3008955,165
1658853200.29237,172553.3009022,151
1658853200.29237,172553.3009055,161
1658853200.29237,172553.3009117,205
1658853200.29237,172553.3009177,224
1658853200.29237,172553.3009265,91
1658853200.29237,172553.3009338,-179
1658853200.29237,172553.3009408,-296
1658853200.29237,172553.3009468,-7
1658853200.29237,172553.3009524,333
1658853200.29237,172553.3009557,247
1658853200.29237,172553.3009606,49
1658853200.29237,172553.30097,105
1658853200.29237,172553.3009795,179
1658853200.29237,172553.3009848,140
1658853200.29237,172553.3009982,133
1658853200.29237,172553.3010033,154
1658853200.29237,172553.3010086,147
1658853200.29237,172553.3010174,135
1658853200.29237,172553.301025,135
1658853200.29237,172553.301031,128
1658853200.30434,172553.3010392,114
1658853200.30434,172553.3010431,107
1658853200.30434,172553.3010503,105
1658853200.30434,172553.3010564,98
1658853200.30434,172553.3010602,84
1658853200.30434,172553.8363015,58
1658853200.30434,172553.8363153,37
1658853200.30434,172553.8363203,32
1658853200.30434,172553.8363315,35
1658853200.30434,172553.8363409,37
1658853200.30434,172553.8363461,51
1658853200.30434,172553.836353,67
1658853200.30434,172553.836358,74
1658853200.30434,172553.8363646,98
1658853200.30434,172553.8363696,133
1658853200.30434,172553.8363759,151
1658853200.30434,172553.8363806,156
1658853200.30434,172553.8363868,158
1658853200.30434,172553.8363947,163
1658853200.30434,172553.8364024,165
1658853200.30434,172553.8364051,165
1658853200.30434,172553.8364072,161
1658853200.30434,172553.8364094,144
1658853200.30434,172553.8364118,123
1658853200.8758,172553.8364176,121
1658853200.8758,172553.836425,128
1658853200.8758,172553.8364291,126
1658853200.8758,172553.8364327,126
1658853200.8758,172553.8364362,133
1658853200.8758,172553.8364398,137
1658853200.8758,172553.8364432,140
1658853200.8758,172553.8364464,149
1658853200.8758,172553.8364494,154
1658853200.8758,172553.8364525,135
1658853200.8758,172553.8364557,102
1658853200.8758,172553.8364586,86
1658853200.8758,172553.836462,98
1658853200.8758,172553.8364652,119
1658853200.8758,172553.8364682,133
1658853200.8758,172553.8364713,147
1658853200.8758,172553.8364746,163
1658853200.8758,172553.8364775,165
1658853200.8758,172553.8364805,151
1658853200.8758,172553.8364835,135
1658853200.8758,172553.8364864,147
1658853200.8758,172553.8364898,200
1658853200.8758,172553.8364951,212
1658853200.8758,172553.836499,51
1658853200.8758,172553.8365023,-214
1658853200.8758,172553.8365079,-263
1658853200.8758,172553.8365117,74
1658853200.8758,172553.8365149,340
1658853200.8758,172553.8365182,193
1658853200.8758,172553.8365231,37
1658853200.8758,172553.8365265,109
1658853200.8758,172553.8365316,147
1658853200.8758,172553.8365348,114
1658853200.8758,172553.8365381,128
1658853200.8758,172553.8365415,140
1658853200.8758,172553.8365448,109
1658853200.8758,172553.83655,93
1658853200.8758,172553.8365532,95
1658853200.8758,172553.8365566,88
1658853200.8758,172553.836562,81
1658853200.8758,172553.8365673,77
1658853200.8758,172553.836571,63
1658853200.8758,172553.8365762,32
1658853200.8758,172553.8365799,7
1658853200.8758,172553.8365851,2
1658853200.8758,172553.8365887,-4
1658853200.8758,172553.8365938,-23
1658853200.8758,172553.8365976,-35
1658853200.8758,172553.8366025,-30
1658853200.8758,172553.8366067,-23
1658853200.88677,172553.8366118,-9
1658853200.88677,172553.8366158,11
1658853200.88677,172553.8366206,32
1658853200.88677,172553.8366241,56
1658853200.88677,172554.4217615,81
1658853200.88677,172554.4217781,102
1658853200.88677,172554.4217827,112
1658853200.88677,172554.4217899,116
1658853200.88677,172554.4217934,116
1658853200.88677,172554.421797,105
1658853200.88677,172554.421803,95
1658853200.88677,172554.4218069,91
1658853200.88677,172554.4218123,84
1658853200.88677,172554.4218171,67
1658853200.88677,172554.4218206,60
1658853200.88677,172554.4218259,63
1658853200.88677,172554.4218294,65
1658853200.88677,172554.4218333,72
1658853200.88677,172554.4218389,63
1658853200.88677,172554.4218435,44
1658853200.88677,172554.4218492,56
1658853200.88677,172554.421854,79
1658853200.88677,172554.4218594,65
1658853200.88677,172554.4218634,28
1658853201.42131,172554.4218666,4
1658853201.42131,172554.4218697,9
1658853201.42131,172554.4218732,21
1658853201.42131,172554.4218765,28
1658853201.42131,172554.4218798,39
1658853201.42131,172554.4218832,60
1658853201.42131,172554.4218865,72
1658853201.42131,172554.421917,58
1658853201.42131,172554.4219264,49
1658853201.42131,172554.4219402,70
1658853201.42131,172554.4219534,112
1658853201.42131,172554.4219652,114
1658853201.42131,172554.4219748,-44
1658853201.42131,172554.4219807,-343
1658853201.42131,172554.4219876,-420
1658853201.42131,172554.4219938,-51
1658853201.42131,172554.422,268
1658853201.42131,172554.422006,133
1658853201.42131,172554.4220104,-42
1658853201.42131,172554.4220159,23
1658853201.42131,172554.4220198,60
1658853201.42131,172554.4220238,16
1658853201.42131,172554.4220294,14
1658853201.42131,172554.4220329,30
1658853201.42131,172554.4220381,23
1658853201.42131,172554.4220417,18
1658853201.42131,172554.422047,16
1658853201.42131,172554.4220505,11
1658853201.42131,172554.4220556,11
1658853201.42131,172554.42206,9
1658853201.42131,172554.4220634,-9
1658853201.42131,172554.4220669,-30
1658853201.42131,172554.4220705,-49
1658853201.42131,172554.4220736,-67
1658853201.42131,172554.4220766,-81
1658853201.42131,172554.4220797,-77
1658853201.42131,172554.4220829,-74
1658853201.42131,172554.422086,-79
1658853201.42131,172554.4220913,-70
1658853201.42131,172554.4220946,-53
1658853201.42131,172554.4220994,-30
1658853201.42131,172554.4221028,-2
1658853201.42131,172554.4221087,28
1658853201.42131,172554.4221119,56
1658853201.42131,172554.4221153,79
1658853201.42131,172554.4221207,86
1658853201.42131,172554.4221258,93
1658853201.42131,172554.4221315,98
1658853201.42131,172554.4221354,95
1658853201.42131,172554.4221404,93
1658853201.43627,172554.422144,93
1658853201.43627,172554.4221477,88
1658853201.43627,172554.422153,86
1658853201.43627,172554.9598233,91
1658853201.43627,172554.9598357,98
1658853201.43627,172554.9598432,109
1658853201.43627,172554.9598536,121
1658853201.43627,172554.959867,121
1658853201.43627,172554.9598712,114
1658853201.43627,172554.9598801,121
1658853201.43627,172554.9598907,135
1658853201.43627,172554.9598955,133
1658853201.43627,172554.9598976,114
1658853201.43627,172554.9599006,84
1658853201.43627,172554.9599028,58
1658853201.43627,172554.9599049,65
1658853201.43627,172554.9599071,91
1658853201.43627,172554.9599091,105
1658853201.43627,172554.9599112,116
1658853201.43627,172554.9599133,128
1658853201.43627,172554.9599153,112
1658853201.43627,172554.9599175,88
1658853201.43627,172554.9599195,102
1658853201.43627,172554.9599215,158
1658853201.95304,172554.9599236,189
1658853201.95304,172554.9599256,77
1658853201.95304,172554.9599277,-200
1658853201.95304,172554.9599297,-362
1658853201.95304,172554.9599316,-58
1658853201.95304,172554.9599337,378
1658853201.95304,172554.9599356,329
1658853201.95304,172554.9599376,72
1658853201.95304,172554.9599396,77
1658853201.95304,172554.9599417,140
1658853201.95304,172554.9599438,102
1658853201.95304,172554.9599459,102
1658853201.95304,172554.9599479,128
1658853201.95304,172554.95995,114
1658853201.95304,172554.9599521,109
1658853201.95304,172554.9599541,121
1658853201.95304,172554.9599562,121
1658853201.95304,172554.9599583,109
1658853201.95304,172554.9599603,100
1658853201.95304,172554.9599624,91
1658853201.95304,172554.9599645,74
1658853201.95304,172554.9599665,53
1658853201.95304,172554.9599686,37
1658853201.95304,172554.9599707,30
1658853201.95304,172554.9599728,30
1658853201.95304,172554.9599748,30
1658853201.95304,172554.9599769,32
1658853201.95304,172554.959979,39
1658853201.95304,172554.9599811,49
1658853201.95304,172554.9599831,72
1658853201.95304,172554.9599851,102
1658853201.95304,172554.9599872,130
1658853201.95304,172554.9599892,147
1658853201.95304,172554.9599913,170
1658853201.95304,172554.9599934,189
1658853201.95304,172554.9599955,200
1658853201.95304,172554.9599975,207
1658853201.95304,172554.9599996,205
1658853201.95304,172554.9600016,193
1658853201.95304,172554.9600039,193
1658853201.95304,172554.9600059,198
1658853201.95304,172554.9600079,200
1658853201.95304,172554.96001,205
1658853201.95304,172554.960012,210
1658853201.95304,172554.9600141,210
1658853201.95304,172554.9600161,217
1658853201.95304,172554.9600182,224
1658853201.95304,172554.9600202,224
1658853201.95304,172554.9600223,231
1658853201.95304,172554.9600243,240
1658853201.96401,172554.9600264,226
1658853201.96401,172554.9600285,186
1658853201.96401,172555.494037,170
1658853201.96401,172555.4940494,186
1658853201.96401,172555.4940535,200
1658853201.96401,172555.4940587,210
1658853201.96401,172555.494061,224
1658853201.96401,172555.4940635,238
1658853201.96401,172555.4940656,242
1658853201.96401,172555.4940676,219
1658853201.96401,172555.4940697,189
1658853201.96401,172555.4940717,210
1658853201.96401,172555.4940739,275
1658853201.96401,172555.4940761,235
1658853201.96401,172555.4940783,7
1658853201.96401,172555.4940805,-249
1658853201.96401,172555.4940828,-156
1658853201.96401,172555.494085,263
1658853201.96401,172555.4940872,397
1658853201.96401,172555.4940898,165
1658853201.96401,172555.494092,102
1658853201.96401,172555.4940941,198
1658853201.96401,172555.494096,168
1658853201.96401,172555.4940981,112
1658853202.64889,172555.4941001,126
1658853202.64889,172555.4941023,130
1658853202.64889,172555.4941045,114
1658853202.64889,172555.4941066,116
1658853202.64889,172555.4941088,121
1658853202.64889,172555.4941108,119
1658853202.64889,172555.494113,112
1658853202.64889,172555.4941151,100
1658853202.64889,172555.4941173,84
1658853202.64889,172555.4941194,70
1658853202.64889,172555.4941216,51
1658853202.64889,172555.4941236,30
1658853202.64889,172555.4941257,23
1658853202.64889,172555.4941277,30
1658853202.64889,172555.4941298,30
1658853202.64889,172555.4941318,23
1658853202.64889,172555.4941338,30
1658853202.64889,172555.4941358,49
1658853202.64889,172555.4941378,72
1658853202.64889,172555.4941398,109
1658853202.64889,172555.4941418,144
1658853202.64889,172555.4941438,161
1658853202.64889,172555.4941459,165
1658853202.64889,172555.4941479,165
1658853202.64889,172555.4941499,165
1658853202.64889,172555.4941519,165
1658853202.64889,172555.494154,165
1658853202.64889,172555.494156,163
1658853202.64889,172555.494158,163
1658853202.64889,172555.49416,161
1658853202.64889,172555.494162,158
1658853202.64889,172555.494164,163
1658853202.64889,172555.494166,172
1658853202.64889,172555.494168,175
1658853202.64889,172555.49417,177
1658853202.64889,172555.4941721,179
1658853202.64889,172555.4941741,175
1658853202.64889,172555.4941761,170
1658853202.64889,172555.4941783,172
1658853202.64889,172555.4941803,158
1658853202.64889,172555.4941823,133
1658853202.64889,172555.4941843,128
1658853202.64889,172555.4941863,144
1658853202.64889,172555.4941896,149
1658853202.64889,172555.494195,156
1658853202.64889,172555.4941981,177
1658853202.64889,172555.4942019,189
1658853202.64889,172555.4942044,184
1658853202.64889,172555.494214,177
1658853202.64889,172555.4942231,179
1658853202.67926,172555.4942257,214
1658853202.67926,172556.1793394,247
1658853202.67926,172556.1793644,142
1658853202.67926,172556.1793732,-112
1658853202.67926,172556.1793772,-242
1658853202.67926,172556.1793831,23
1658853202.67926,172556.1793995,345
1658853202.67926,172556.1794166,252
1658853202.67926,172556.1794318,58
1658853202.67926,172556.1794459,112
1658853202.67926,172556.1794594,168
1658853202.67926,172556.1794774,116
1658853202.67926,172556.17948,107
1658853202.67926,172556.1794823,123
1658853202.67926,172556.1794845,105
1658853202.67926,172556.1794865,81
1658853202.67926,172556.1794886,79
1658853202.67926,172556.1794907,74
1658853202.67926,172556.1794935,60
1658853202.67926,172556.1795006,51
1658853202.67926,172556.1795145,49
1658853202.67926,172556.1795255,42
1658853202.67926,172556.1795344,23
1658853202.67926,172556.1795476,-2
1658853203.16601,172556.1795594,-23
1658853203.16601,172556.1795678,-30
1658853203.16601,172556.1795744,-28
1658853203.16601,172556.1795813,-23
1658853203.16601,172556.1795873,-18
1658853203.16601,172556.1795931,-11
1658853203.16601,172556.1796017,7
1658853203.16601,172556.1796075,37
1658853203.16601,172556.179612,74
1658853203.16601,172556.1796163,114
1658853203.16601,172556.1796216,130
1658853203.16601,172556.1796268,130
1658853203.16601,172556.1796315,128
1658853203.16601,172556.1796361,123
1658853203.16601,172556.179641,114
1658853203.16601,172556.1796456,105
1658853203.16601,172556.1796522,102
1658853203.16601,172556.1796609,107
1658853203.16601,172556.1796706,121
1658853203.16601,172556.1796809,119
1658853203.16601,172556.1796888,109
1658853203.16601,172556.1797016,116
1658853203.16601,172556.1797162,130
1658853203.16601,172556.1797253,128
1658853203.16601,172556.1797324,121
1658853203.16601,172556.1797386,128
1658853203.16601,172556.1797451,137
1658853203.16601,172556.1797498,109
1658853203.16601,172556.1797591,70
1658853203.16601,172556.1797713,63
1658853203.16601,172556.1797789,86
1658853203.16601,172556.1797861,98
1658853203.16601,172556.1797911,102
1658853203.16601,172556.1797987,116
1658853203.16601,172556.1798041,128
1658853203.16601,172556.1798183,126
1658853203.16601,172556.1798278,119
1658853203.16601,172556.1798346,116
1658853203.16601,172556.1798426,142
1658853203.16601,172556.1798478,170
1658853203.16601,172556.1798567,93
1658853203.16601,172556.1798637,-128
1658853203.16601,172556.1798694,-291
1658853203.16601,172556.1798767,-91
1658853203.16601,172556.179885,282
1658853203.16601,172556.179891,282
1658853203.16601,172556.179898,44
1658853203.16601,172556.1799062,32
1658853203.16601,172556.1799279,109
1658853203.16601,172556.1799381,77
1658853203.17698,172556.7130408,53
1658853203.17698,172556.7130668,84
1658853203.17698,172556.7130799,79
1658853203.17698,172556.713087,53
1658853203.17698,172556.7130952,53
1658853203.17698,172556.7131014,51
1658853203.17698,172556.7131097,28
1658853203.17698,172556.7131175,2
1658853203.17698,172556.7131258,-9
1658853203.17698,172556.7131348,-18
1658853203.17698,172556.7131434,-32
1658853203.17698,172556.71315,-51
1658853203.17698,172556.7131582,-74
1658853203.17698,172556.7131646,-93
1658853203.17698,172556.7131727,-109
1658853203.17698,172556.7131791,-109
1658853203.17698,172556.7131872,-91
1658853203.17698,172556.7131934,-74
1658853203.17698,172556.7132011,-63
1658853203.17698,172556.7132073,-44
1658853203.17698,172556.7132154,-25
1658853203.17698,172556.7132233,4
1658853203.17698,172556.7132314,46
1658853203.17698,172556.7132383,65
1658853203.70452,172556.7132461,74
1658853203.70452,172556.7132535,74
1658853203.70452,172556.7132599,49
1658853203.70452,172556.7132668,23
1658853203.70452,172556.7132729,28
1658853203.70452,172556.7132794,42
1658853203.70452,172556.7132859,39
1658853203.70452,172556.7132925,39
1658853203.70452,172556.7132991,42
1658853203.70452,172556.7133075,44
1658853203.70452,172556.7133142,49
1658853203.70452,172556.7133225,58
1658853203.70452,172556.7133292,67
1658853203.70452,172556.7133659,72
1658853203.70452,172556.7133759,74
1658853203.70452,172556.713434,60
1658853203.70452,172556.7134508,37
1658853203.70452,172556.7134644,23
1658853203.70452,172556.7134743,37
1658853203.70452,172556.7134826,53
1658853203.70452,172556.7134908,58
1658853203.70452,172556.7134963,84
1658853203.70452,172556.713505,109
1658853203.70452,172556.7135147,105
1658853203.70452,172556.7135192,98
1658853203.70452,172556.7135249,102
1658853203.70452,172556.7135285,133
1658853203.70452,172556.7135339,163
1658853203.70452,172556.7135397,70
1658853203.70452,172556.7135464,-172
1658853203.70452,172556.7135547,-310
1658853203.70452,172556.7135614,-30
1658853203.70452,172556.7135698,390
1658853203.70452,172556.7135762,357
1658853203.70452,172556.7135831,91
1658853203.70452,172556.7135922,74
1658853203.70452,172556.7135996,144
1658853203.70452,172556.713608,112
1658853203.70452,172556.7136123,107
1658853203.70452,172556.7136191,137
1658853203.70452,172556.7136269,126
1658853203.70452,172556.7136356,109
1658853203.70452,172556.7136414,114
1658853203.70452,172556.7136474,109
1658853203.70452,172556.7136535,98
1658853203.70452,172556.7136623,95
1658853203.70452,172556.7136703,86
1658853203.70452,172556.7136768,58
1658853203.70452,172556.713683,28
1658853203.70452,172557.2495606,16
1658853203.71449,172557.2495784,14
1658853203.71449,172557.249583,4
1658853203.71449,172557.2495872,0
1658853203.71449,172557.2495913,4
1658853203.71449,172557.2495954,11
1658853203.71449,172557.2495995,21
1658853203.71449,172557.2496036,44
1658853203.71449,172557.2496073,86
1658853203.71449,172557.2496113,128
1658853203.71449,172557.2496156,142
1658853203.71449,172557.2496197,144
1658853203.71449,172557.2496239,161
1658853203.71449,172557.2496279,179
1658853203.71449,172557.249632,184
1658853203.71449,172557.2496366,182
1658853203.71449,172557.2496408,179
1658853203.71449,172557.249645,175
1658853203.71449,172557.2496496,170
1658853203.71449,172557.2496537,170
1658853203.71449,172557.2496579,182
1658853203.71449,172557.2496621,191
1658853203.71449,172557.2496661,193
1658853203.71449,172557.2496702,182
1658853203.71449,172557.2496743,163
1658853204.23914,172557.2496784,168
1658853204.23914,172557.2496826,189
1658853204.23914,172557.2496867,177
1658853204.23914,172557.2496908,137
1658853204.23914,172557.2496949,126
1658853204.23914,172557.2496989,140
1658853204.23914,172557.2497027,149
1658853204.23914,172557.2497063,156
1658853204.23914,172557.24971,179
1658853204.23914,172557.2497145,205
1658853204.23914,172557.2497196,203
1658853204.23914,172557.2497244,175
1658853204.23914,172557.2497299,168
1658853204.23914,172557.2497339,212
1658853204.23914,172557.249738,268
1658853204.23914,172557.249742,217
1658853204.23914,172557.249746,0
1658853204.23914,172557.24975,-214
1658853204.23914,172557.2497538,-72
1658853204.23914,172557.2497579,343
1658853204.23914,172557.2497621,413
1658853204.23914,172557.2497662,151
1658853204.23914,172557.2497703,98
1658853204.23914,172557.2497743,186
1658853204.23914,172557.2497784,156
1658853204.23914,172557.2497825,123
1658853204.23914,172557.2497867,151
1658853204.23914,172557.2497926,151
1658853204.23914,172557.2497981,137
1658853204.23914,172557.2498057,137
1658853204.23914,172557.2498114,128
1658853204.23914,172557.2498172,112
1658853204.23914,172557.2498229,109
1658853204.23914,172557.2498272,100
1658853204.23914,172557.2498331,86
1658853204.23914,172557.2498381,74
1658853204.23914,172557.2498438,49
1658853204.23914,172557.2498487,25
1658853204.23914,172557.2498546,21
1658853204.23914,172557.2498588,18
1658853204.23914,172557.2498646,7
1658853204.23914,172557.2498689,4
1658853204.23914,172557.2498747,14
1658853204.23914,172557.2498788,32
1658853204.23914,172557.2498865,60
1658853204.23914,172557.2498909,91
1658853204.23914,172557.2498966,121
1658853204.23914,172557.2499008,149
1658853204.23914,172557.7851675,163
1658853204.23914,172557.7851857,151
1658853204.25111,172557.7851959,147
1658853204.25111,172557.785204,156
1658853204.25111,172557.7852107,158
1658853204.25111,172557.7852182,156
1658853204.25111,172557.7852265,154
1658853204.25111,172557.7852345,147
1658853204.25111,172557.7852486,137
1658853204.25111,172557.7852614,135
1658853204.25111,172557.7852699,144
1658853204.25111,172557.7852785,154
1658853204.25111,172557.7852869,154
1658853204.25111,172557.7852993,142
1658853204.25111,172557.78531,116
1658853204.25111,172557.7853179,88
1658853204.25111,172557.7853303,72
1658853204.25111,172557.7853409,72
1658853204.25111,172557.7853499,88
1658853204.25111,172557.7853577,98
1658853204.25111,172557.7853708,86
1658853204.25111,172557.7853803,91
1658853204.25111,172557.7853901,121
1658853204.25111,172557.7853976,123
1658853204.25111,172557.7854032,109
1658853204.25111,172557.785412,126
1658853204.78683,172557.7854192,170
1658853204.78683,172557.7854251,196
1658853204.78683,172557.7854313,119
1658853204.78683,172557.7854358,-98
1658853204.78683,172557.7854427,-263
1658853204.78683,172557.7854528,-60
1658853204.78683,172557.7854595,303
1658853204.78683,172557.785466,282
1658853204.78683,172557.7854757,51
1658853204.78683,172557.7854886,60
1658853204.78683,172557.785502,135
1658853204.78683,172557.7855174,98
1658853204.78683,172557.7855291,98
1658853204.78683,172557.7855349,128
1658853204.78683,172557.7855429,100
1658853204.78683,172557.7855473,74
1658853204.78683,172557.7855505,84
1658853204.78683,172557.7855543,84
1658853204.78683,172557.7855582,72
1658853204.78683,172557.7855617,67
1658853204.78683,172557.7855648,56
1658853204.78683,172557.7855681,30
1658853204.78683,172557.7855713,14
1658853204.78683,172557.7855756,2
1658853204.78683,172557.7855798,-9
1658853204.78683,172557.7855828,-18
1658853204.78683,172557.7855869,-23
1658853204.78683,172557.78559,-35
1658853204.78683,172557.7855932,-32
1658853204.78683,172557.7855965,-11
1658853204.78683,172557.7855999,7
1658853204.78683,172557.7856052,25
1658853204.78683,172557.7856092,51
1658853204.78683,172557.7856123,79
1658853204.78683,172557.7856153,102
1658853204.78683,172557.7856183,119
1658853204.78683,172557.7856213,119
1658853204.78683,172557.7856254,114
1658853204.78683,172557.785629,116
1658853204.78683,172557.7856326,116
1658853204.78683,172557.785636,116
1658853204.78683,172557.7856395,116
1658853204.78683,172557.7856434,123
1658853204.78683,172557.7856474,123
1658853204.78683,172557.7856512,119
1658853204.78683,172557.7856548,121
1658853204.78683,172557.7856586,123
1658853204.78683,172558.3226042,116
1658853204.78683,172558.3226216,112
1658853204.78683,172558.3226346,102
1658853204.83071,172558.3226444,84
1658853204.83071,172558.3226536,67
1658853204.83071,172558.3226625,70
1658853204.83071,172558.3226672,84
1658853204.83071,172558.3226773,98
1658853204.83071,172558.3226822,119
1658853204.83071,172558.3226844,142
1658853204.83071,172558.3226867,128
1658853204.83071,172558.3226888,88
1658853204.83071,172558.3226909,86
1658853204.83071,172558.3226931,126
1658853204.83071,172558.3226951,177
1658853204.83071,172558.3226973,158
1658853204.83071,172558.3226995,-28
1658853204.83071,172558.3227049,-294
1658853204.83071,172558.3227166,-259
1658853204.83071,172558.3227222,135
1658853204.83071,172558.3227244,319
1658853204.83071,172558.3227265,107
1658853204.83071,172558.3227287,-2
1658853204.83071,172558.3227307,84
1658853204.83071,172558.3227356,81
1658853204.83071,172558.3227471,37
1658853204.83071,172558.3227526,65
1658853205.33627,172558.3227549,79
1658853205.33627,172558.322757,58

1658853205.33627,172558.322759,51
1658853205.33627,172558.3227612,51
1658853205.33627,172558.3227688,35
1658853205.33627,172558.3227781,23
1658853205.33627,172558.3227883,21
1658853205.33627,172558.3227963,0
1658853205.33627,172558.3228094,-32
1658853205.33627,172558.3228152,-39
1658853205.33627,172558.3228173,-44
1658853205.33627,172558.3228194,-60
1658853205.33627,172558.3228221,-72
1658853205.33627,172558.3228322,-67
1658853205.33627,172558.3228416,-63
1658853205.33627,172558.3228441,-63
1658853205.33627,172558.3228463,-49
1658853205.33627,172558.3228484,-4
1658853205.33627,172558.3228542,35
1658853205.33627,172558.3228657,53
1658853205.33627,172558.322871,77
1658853205.33627,172558.3228732,102
1658853205.33627,172558.3228753,107
1658853205.33627,172558.3228775,100
1658853205.33627,172558.3228802,98
1658853205.33627,172558.3228901,98
1658853205.33627,172558.322899,91
1658853205.33627,172558.3229015,84
1658853205.33627,172558.3229037,88
1658853205.33627,172558.3229057,100
1658853205.33627,172558.3229085,107
1658853205.33627,172558.3229186,109
1658853205.33627,172558.3229271,107
1658853205.33627,172558.3229296,107
1658853205.33627,172558.3229317,112
1658853205.33627,172558.3229338,102
1658853205.33627,172558.3229361,60
1658853205.33627,172558.3229438,35
1658853205.33627,172558.3229544,53
1658853205.33627,172558.3229589,79
1658853205.33627,172558.3229612,81
1658853205.33627,172558.3229679,93
1658853205.33627,172558.3229791,123
1658853205.33627,172558.3229821,140
1658853205.33627,172558.3229844,126
1658853205.33627,172558.3229865,114
1658853205.33627,172558.8594652,137
1658853205.33627,172558.8594812,189
1658853205.33627,172558.8594868,170
1658853205.33627,172558.8594937,-18
1658853205.38414,172558.8594983,-273
1658853205.38414,172558.859513,-212
1658853205.38414,172558.8595182,245
1658853205.38414,172558.8595247,443
1658853205.38414,172558.8595296,168
1658853205.38414,172558.859536,14
1658853205.38414,172558.8595417,88
1658853205.38414,172558.8595486,88
1658853205.38414,172558.8595533,56
1658853205.38414,172558.8595626,70
1658853205.38414,172558.8595693,56
1658853205.38414,172558.8595754,30
1658853205.38414,172558.8595817,30
1658853205.38414,172558.8595868,30
1658853205.38414,172558.8595936,16
1658853205.38414,172558.8595988,11
1658853205.38414,172558.8596029,7
1658853205.38414,172558.859606,-18
1658853205.38414,172558.8596082,-49
1658853205.38414,172558.8596104,-67
1658853205.38414,172558.8596125,-74
1658853205.38414,172558.8596147,-88
1658853205.38414,172558.8596168,-100
1658853205.38414,172558.859619,-93
1658853205.96305,172558.8596211,-86
1658853205.96305,172558.8596232,-84
1658853205.96305,172558.859625,-58
1658853205.96305,172558.8596269,-11
1658853205.96305,172558.8596289,23
1658853205.96305,172558.8596308,49
1658853205.96305,172558.8596328,74
1658853205.96305,172558.8596347,100
1658853205.96305,172558.8596366,112
1658853205.96305,172558.8596398,119
1658853205.96305,172558.8596484,119
1658853205.96305,172558.8596538,107
1658853205.96305,172558.8596577,98
1658853205.96305,172558.8596625,105
1658853205.96305,172558.8596674,107
1658853205.96305,172558.8596724,100
1658853205.96305,172558.8596781,100
1658853205.96305,172558.8596891,102
1658853205.96305,172558.8596981,107
1658853205.96305,172558.8597289,112
1658853205.96305,172558.8597461,95
1658853205.96305,172558.8597541,63
1658853205.96305,172558.8597695,56
1658853205.96305,172558.8597775,58
1658853205.96305,172558.8597872,53
1658853205.96305,172558.8597978,72
1658853205.96305,172558.8598062,93
1658853205.96305,172558.8598134,100
1658853205.96305,172558.8598223,112
1658853205.96305,172558.859835,114
1658853205.96305,172558.8598449,98
1658853205.96305,172558.85985,100
1658853205.96305,172558.859853,147
1658853205.96305,172558.8598624,196
1658853205.96305,172558.8598768,123
1658853205.96305,172558.8598854,-109
1658853205.96305,172558.8598915,-284
1658853205.96305,172558.8598961,-60
1658853205.96305,172558.859901,336
1658853205.96305,172558.859959,303
1658853205.96305,172558.8599721,44
1658853205.96305,172558.8599842,35
1658853205.96305,172558.8599964,100
1658853205.96305,172558.8600057,63
1658853205.96305,172558.8600161,58
1658853205.96305,172559.4920796,81
1658853205.96305,172559.4920996,67
1658853205.96305,172559.4921144,58
1658853205.96305,172559.4921286,60
1658853205.96305,172559.4921411,30
1658853206.01192,172559.492147,2
1658853206.01192,172559.4921531,-2
1658853206.01192,172559.4921581,-9
1658853206.01192,172559.4921651,-25
1658853206.01192,172559.4921781,-44
1658853206.01192,172559.4921925,-79
1658853206.01192,172559.4922032,-107
1658853206.01192,172559.4922128,-107
1658853206.01192,172559.4922178,-109
1658853206.01192,172559.4922313,-123
1658853206.01192,172559.4922413,-121
1658853206.01192,172559.492248,-102
1658853206.01192,172559.492256,-79
1658853206.01192,172559.4922587,-42
1658853206.01192,172559.4922609,0
1658853206.01192,172559.4922631,28
1658853206.01192,172559.4922651,49
1658853206.01192,172559.4922672,60
1658853206.01192,172559.4922692,70
1658853206.01192,172559.4922718,72
1658853206.01192,172559.4922819,72
1658853206.01192,172559.4922905,67
1658853206.01192,172559.492293,65
1658853206.01192,172559.4922953,65
1658853206.49357,172559.4922974,70
1658853206.49357,172559.4922995,74
1658853206.49357,172559.4923071,77
1658853206.49357,172559.4923186,84
1658853206.49357,172559.4923242,93
1658853206.49357,172559.4923281,79
1658853206.49357,172559.4923326,42
1658853206.49357,172559.4923375,14
1658853206.49357,172559.492342,23
1658853206.49357,172559.4923527,49
1658853206.49357,172559.4923582,65
1658853206.49357,172559.4923605,74
1658853206.49357,172559.4923722,88
1658853206.49357,172559.4923811,107
1658853206.49357,172559.4923836,116
1658853206.49357,172559.4924111,116
1658853206.49357,172559.4924233,121
1658853206.49357,172559.4924342,156
1658853206.49357,172559.492437,203
1658853206.49357,172559.4924392,126
1658853206.49357,172559.4924414,-114
1658853206.49357,172559.4924494,-270
1658853206.49357,172559.4924651,-39
1658853206.49357,172559.4925015,329
1658853206.49357,172559.4925127,289
1658853206.49357,172559.492519,49
1658853206.49357,172559.4925245,44
1658853206.49357,172559.4925318,109
1658853206.49357,172559.492538,74
1658853206.49357,172559.4925415,67
1658853206.49357,172559.492545,98
1658853206.49357,172559.4925507,86
1658853206.49357,172559.4925552,63
1658853206.49357,172559.4925589,63
1658853206.49357,172559.4925627,63
1658853206.49357,172559.4925671,56
1658853206.49357,172559.4925707,49
1658853206.49357,172559.4925743,42
1658853206.49357,172559.4925778,16
1658853206.49357,172559.4925816,-16
1658853206.49357,172559.4925853,-32
1658853206.49357,172559.4925891,-37
1658853206.49357,172559.4925927,-42
1658853206.49357,172559.4925964,-53
1658853206.49357,172560.0274774,-60
1658853206.49357,172560.0274897,-49
1658853206.49357,172560.027495,-37
1658853206.49357,172560.0274978,-18
1658853206.49357,172560.0275003,16
1658853206.49357,172560.0275026,49
1658853206.54444,172560.0275048,77
1658853206.54444,172560.0275069,98
1658853206.54444,172560.027509,102
1658853206.54444,172560.0275111,112
1658853206.54444,172560.0275132,121
1658853206.54444,172560.0275161,119
1658853206.54444,172560.0275243,112
1658853206.54444,172560.0275349,102
1658853206.54444,172560.0275384,84
1658853206.54444,172560.0275414,81
1658853206.54444,172560.0275444,102
1658853206.54444,172560.0275473,114
1658853206.54444,172560.0275545,123
1658853206.54444,172560.0275655,123
1658853206.54444,172560.0275686,93
1658853206.54444,172560.0275708,58
1658853206.54444,172560.0275729,51
1658853206.54444,172560.0275751,51
1658853206.54444,172560.0275772,63
1658853206.54444,172560.0275793,81
1658853206.54444,172560.0275814,77
1658853206.54444,172560.0275836,77
1658853206.54444,172560.0275865,91
1658853206.54444,172560.0275974,91
1658853207.0294,172560.0276043,84
1658853207.0294,172560.0276066,95
1658853207.0294,172560.0276086,140
1658853207.0294,172560.0276106,196
1658853207.0294,172560.0276161,144
1658853207.0294,172560.0276259,-88
1658853207.0294,172560.02763,-315
1658853207.0294,172560.0276322,-163
1658853207.0294,172560.0276343,275
1658853207.0294,172560.0276407,352
1658853207.0294,172560.027649,91
1658853207.0294,172560.0276599,28
1658853207.0294,172560.027665,102
1658853207.0294,172560.0276743,91
1658853207.0294,172560.027683,88
1658853207.0294,172560.0276856,105
1658853207.0294,172560.0276878,81
1658853207.0294,172560.0276899,72
1658853207.0294,172560.0276927,88
1658853207.0294,172560.0277032,84
1658853207.0294,172560.0277107,67
1658853207.0294,172560.0277132,60
1658853207.0294,172560.0277154,53
1658853207.0294,172560.0277176,37
1658853207.0294,172560.0277196,23
1658853207.0294,172560.0277217,7
1658853207.0294,172560.0277238,-7
1658853207.0294,172560.0277259,-16
1658853207.0294,172560.027728,-25
1658853207.0294,172560.0277301,-28
1658853207.0294,172560.0277322,-23
1658853207.0294,172560.0277346,0
1658853207.0294,172560.0277367,35
1658853207.0294,172560.0277388,65
1658853207.0294,172560.0277409,95
1658853207.0294,172560.0277429,133
1658853207.0294,172560.027745,161
1658853207.0294,172560.027747,172
1658853207.0294,172560.0277491,179
1658853207.0294,172560.0277511,177
1658853207.0294,172560.0277532,170
1658853207.0294,172560.0277552,168
1658853207.0294,172560.0277573,165
1658853207.0294,172560.564439,161
1658853207.0294,172560.5644586,156
1658853207.0294,172560.5644739,154
1658853207.0294,172560.5644883,163
1658853207.0294,172560.5644982,184
1658853207.0294,172560.5645009,193
1658853207.0294,172560.564503,175
1658853207.07583,172560.5645051,147
1658853207.07583,172560.5645072,126
1658853207.07583,172560.5645093,109
1658853207.07583,172560.5645115,107
1658853207.07583,172560.5645136,130
1658853207.07583,172560.5645157,149
1658853207.07583,172560.5645178,158
1658853207.07583,172560.5645198,177
1658853207.07583,172560.5645219,184
1658853207.07583,172560.5645239,168
1658853207.07583,172560.5645261,158
1658853207.07583,172560.5645283,182
1658853207.07583,172560.5645304,231
1658853207.07583,172560.5645325,221
1658853207.07583,172560.5645345,67
1658853207.07583,172560.5645375,-172
1658853207.07583,172560.5645397,-168
1658853207.07583,172560.5645418,228
1658853207.07583,172560.564544,455
1658853207.07583,172560.564546,219
1658853207.07583,172560.5645481,51
1658853207.07583,172560.5645501,135
1658853207.07583,172560.5645523,151
1658853207.07583,172560.5645544,100
1658853207.6761,172560.5645565,112
1658853207.6761,172560.5645585,130
1658853207.6761,172560.5645605,126
1658853207.6761,172560.5645625,130
1658853207.6761,172560.5645645,135
1658853207.6761,172560.5645665,128
1658853207.6761,172560.5645684,119
1658853207.6761,172560.5645703,102
1658853207.6761,172560.5645724,74
1658853207.6761,172560.5645743,53
1658853207.6761,172560.5645763,37
1658853207.6761,172560.5645783,16
1658853207.6761,172560.5645802,-9
1658853207.6761,172560.5645822,-18
1658853207.6761,172560.5645841,-16
1658853207.6761,172560.5645861,-14
1658853207.6761,172560.564588,-14
1658853207.6761,172560.5645899,4
1658853207.6761,172560.5645919,39
1658853207.6761,172560.5645939,70
1658853207.6761,172560.5645972,98
1658853207.6761,172560.5646093,126
1658853207.6761,172560.5646158,149
1658853207.6761,172560.5646201,156
1658853207.6761,172560.5646222,154
1658853207.6761,172560.5646255,156
1658853207.6761,172560.5646356,163
1658853207.6761,172560.5646439,163
1658853207.6761,172560.5646463,151
1658853207.6761,172560.5646485,137
1658853207.6761,172560.5646506,135
1658853207.6761,172560.5646527,147
1658853207.6761,172560.5646548,156
1658853207.6761,172560.5646568,154
1658853207.6761,172560.564659,154
1658853207.6761,172560.564661,156
1658853207.6761,172560.5646632,137
1658853207.6761,172560.5646654,112
1658853207.6761,172560.5646675,107
1658853207.6761,172560.5646696,116
1658853207.6761,172560.5646716,133
1658853207.6761,172560.5646737,151
1658853207.6761,172561.1989022,168
1658853207.6761,172561.1989142,182
1658853207.6761,172561.1989187,198
1658853207.6761,172561.1989211,203
1658853207.6761,172561.1989235,200
1658853207.6761,172561.198927,214
1658853207.6761,172561.1989389,256
1658853207.6761,172561.1989469,247
1658853207.72351,172561.1989522,100
1658853207.72351,172561.1989609,-133
1658853207.72351,172561.1989694,-156
1658853207.72351,172561.1989782,184
1658853207.72351,172561.1989837,401
1658853207.72351,172561.198986,182
1658853207.72351,172561.1989882,7
1658853207.72351,172561.1989903,93
1658853207.72351,172561.1989924,121
1658853207.72351,172561.1989944,70
1658853207.72351,172561.1989966,86
1658853207.72351,172561.1989986,93
1658853207.72351,172561.1990007,58
1658853207.72351,172561.1990028,60
1658853207.72351,172561.199005,74
1658853207.72351,172561.1990072,60
1658853207.72351,172561.1990136,49
1658853207.72351,172561.1990477,53
1658853207.72351,172561.1990678,42
1658853207.72351,172561.1990776,18
1658853207.72351,172561.1990844,-4
1658853207.72351,172561.1990908,-21
1658853207.72351,172561.1990958,-28
1658853207.72351,172561.1991018,-28
1658853208.16107,172561.1991098,-28
1658853208.16107,172561.1991139,-28
1658853208.16107,172561.199122,-21
1658853208.16107,172561.1991309,-4
1658853208.16107,172561.199137,25
1658853208.16107,172561.1991473,63
1658853208.16107,172561.1991566,93
1658853208.16107,172561.1991661,112
1658853208.16107,172561.1991789,128
1658853208.16107,172561.1991875,144
1658853208.16107,172561.1991901,149
1658853208.16107,172561.1991921,149
1658853208.16107,172561.1991943,144
1658853208.16107,172561.1991969,142
1658853208.16107,172561.1991991,140
1658853208.16107,172561.1992011,144
1658853208.16107,172561.1992032,147
1658853208.16107,172561.1992053,142
1658853208.16107,172561.1992073,137
1658853208.16107,172561.1992094,133
1658853208.16107,172561.1992114,130
1658853208.16107,172561.1992135,133
1658853208.16107,172561.1992155,140
1658853208.16107,172561.1992175,142
1658853208.16107,172561.1992196,121
1658853208.16107,172561.1992216,95
1658853208.16107,172561.1992236,98
1658853208.16107,172561.1992256,107
1658853208.16107,172561.1992277,107
1658853208.16107,172561.1992299,119
1658853208.16107,172561.1992319,142
1658853208.16107,172561.1992341,156
1658853208.16107,172561.1992361,154
1658853208.16107,172561.1992383,149
1658853208.16107,172561.1992403,154
1658853208.16107,172561.1992424,184
1658853208.16107,172561.1992445,228
1658853208.16107,172561.1992465,165
1658853208.16107,172561.1992486,-72
1658853208.16107,172561.1992507,-266
1658853208.16107,172561.1992527,-72
1658853208.16107,172561.6857349,308
1658853208.16107,172561.6857492,305
1658853208.16107,172561.685752,79
1658853208.16107,172561.6857554,81
1658853208.16107,172561.6857649,161
1658853208.16107,172561.685773,116
1658853208.16107,172561.6857754,79
1658853208.16107,172561.6857777,95
1658853208.16107,172561.6857798,95
1658853208.20895,172561.6857819,84
1658853208.20895,172561.6857839,79
1658853208.20895,172561.685786,77
1658853208.20895,172561.685788,74
1658853208.20895,172561.6857901,60
1658853208.20895,172561.6857923,42
1658853208.20895,172561.6857944,30
1658853208.20895,172561.6857966,0
1658853208.20895,172561.6857988,-42
1658853208.20895,172561.6858011,-60
1658853208.20895,172561.6858031,-58
1658853208.20895,172561.6858052,-65
1658853208.20895,172561.6858073,-72
1658853208.20895,172561.6858094,-74
1658853208.20895,172561.685813,-74
1658853208.20895,172561.6858179,-60
1658853208.20895,172561.6858249,-23
1658853208.20895,172561.6858297,9
1658853208.20895,172561.6858361,39
1658853208.20895,172561.6858409,67
1658853208.20895,172561.6858453,70
1658853208.20895,172561.6858474,77
1658853208.20895,172561.6858496,91
1658853208.20895,172561.6858517,93
1658853208.68302,172561.6858537,86
1658853208.68302,172561.685856,86
1658853208.68302,172561.6858579,81
1658853208.68302,172561.6858598,74
1658853208.68302,172561.6858618,86
1658853208.68302,172561.6858637,98
1658853208.68302,172561.6858665,95
1658853208.68302,172561.6858712,98
1658853208.68302,172561.6858733,107
1658853208.68302,172561.6858753,107
1658853208.68302,172561.6858773,102
1658853208.68302,172561.6858793,102
1658853208.68302,172561.6858828,86
1658853208.68302,172561.6858904,58
1658853208.68302,172561.6858989,53
1658853208.68302,172561.6859094,67
1658853208.68302,172561.6859196,81
1658853208.68302,172561.6859298,100
1658853208.68302,172561.6859419,121
1658853208.68302,172561.6859535,128
1658853208.68302,172561.6859638,116
1658853208.68302,172561.6859696,119
1658853208.68302,172561.6859751,135
1658853208.68302,172561.6859808,158
1658853208.68302,172561.6859867,184
1658853208.68302,172561.6859931,121
1658853208.68302,172561.6859996,-98
1658853208.68302,172561.6860033,-294
1658853208.68302,172561.6860088,-126
1658853208.68302,172561.686014,291
1658853208.68302,172561.6860273,364
1658853208.68302,172561.6860373,123
1658853208.68302,172561.6860447,63
1658853208.68302,172561.6860519,126
1658853208.68302,172561.6860652,100
1658853208.68302,172561.6860775,84
1658853208.68302,172561.6860873,109
1658853208.68302,172561.6860983,91
1658853208.68302,172561.6861069,65
1658853208.68302,172561.6861123,72
1658853208.68302,172562.2219219,67
1658853208.68302,172562.2219352,37
1658853208.68302,172562.2219409,23
1658853208.68302,172562.2219537,23
1658853208.68302,172562.2219638,7
1658853208.68302,172562.2219666,-16
1658853208.68302,172562.221969,-42
1658853208.68302,172562.2219711,-74
1658853208.68302,172562.2219732,-95
1658853208.68302,172562.2219752,-98
1658853208.73137,172562.2219773,-98
1658853208.73137,172562.2219801,-81
1658853208.73137,172562.2219931,-63
1658853208.73137,172562.2220017,-56
1658853208.73137,172562.2220084,-32
1658853208.73137,172562.2220192,2
1658853208.73137,172562.2220228,30
1658853208.73137,172562.2220258,53
1658853208.73137,172562.2220288,79
1658853208.73137,172562.2220318,95
1658853208.73137,172562.2220398,91
1658853208.73137,172562.2220507,86
1658853208.73137,172562.2220621,91
1658853208.73137,172562.2220682,95
1658853208.73137,172562.2220704,95
1658853208.73137,172562.2220725,91
1658853208.73137,172562.2220746,88
1658853208.73137,172562.2220767,91
1658853208.73137,172562.2220788,95
1658853208.73137,172562.2220808,105
1658853208.73137,172562.2220828,114
1658853208.73137,172562.2220849,109
1658853208.73137,172562.2220869,112
1658853208.73137,172562.2220929,126
1658853209.34463,172562.2221035,123
1658853209.34463,172562.2221098,98
1658853209.34463,172562.2221194,84
1658853209.34463,172562.2221303,86
1658853209.34463,172562.2221388,93
1658853209.34463,172562.2221446,100
1658853209.34463,172562.2221517,116
1658853209.34463,172562.2221571,142
1658853209.34463,172562.222168,154
1658853209.34463,172562.2221735,151
1658853209.34463,172562.2221757,142
1658853209.34463,172562.2221777,135
1658853209.34463,172562.2221799,177
1658853209.34463,172562.2221828,212
1658853209.34463,172562.2221894,93
1658853209.34463,172562.2222008,-156
1658853209.34463,172562.2222087,-221
1658853209.34463,172562.2222192,114
1658853209.34463,172562.2222279,413
1658853209.34463,172562.2222305,270
1658853209.34463,172562.2222327,72
1658853209.34463,172562.2222363,123
1658853209.34463,172562.2222451,165
1658853209.34463,172562.2222541,116
1658853209.34463,172562.2222586,109
1658853209.34463,172562.2222656,128
1658853209.34463,172562.2222762,123
1658853209.34463,172562.2222857,123
1658853209.34463,172562.222291,119
1658853209.34463,172562.2222978,88
1658853209.34463,172562.2223028,63
1658853209.34463,172562.2223088,51
1658853209.34463,172562.2223138,35
1658853209.34463,172562.2223202,14
1658853209.34463,172562.2223246,-2
1658853209.34463,172562.222329,-18
1658853209.34463,172562.2223351,-28
1658853209.34463,172562.2223395,-37
1658853209.34463,172562.2223451,-53
1658853209.34463,172562.8554161,-58
1658853209.34463,172562.8554307,-37
1658853209.34463,172562.855434,-16
1658853209.34463,172562.8554396,-9
1658853209.34463,172562.8554419,9
1658853209.34463,172562.855444,46
1658853209.34463,172562.855454,72
1658853209.34463,172562.855456,86
1658853209.34463,172562.8554579,100
1658853209.34463,172562.8554609,107
1658853209.34463,172562.8554629,91
1658853209.39311,172562.855465,74
1658853209.39311,172562.855467,81
1658853209.39311,172562.8554691,91
1658853209.39311,172562.8554711,81
1658853209.39311,172562.8554732,72
1658853209.39311,172562.8554754,72
1658853209.39311,172562.8554786,79
1658853209.39311,172562.8554895,93
1658853209.39311,172562.8554988,91
1658853209.39311,172562.8555014,79
1658853209.39311,172562.8555035,91
1658853209.39311,172562.8555057,102
1658853209.39311,172562.8555087,95
1658853209.39311,172562.8555166,84
1658853209.39311,172562.8555232,81
1658853209.39311,172562.8555265,63
1658853209.39311,172562.8555295,35
1658853209.39311,172562.8555326,35
1658853209.39311,172562.8555358,53
1658853209.39311,172562.8555403,60
1658853209.39311,172562.8555433,72
1658853209.39311,172562.8555464,102
1658853209.39311,172562.8555495,112
1658853209.39311,172562.8555523,84
1658853209.91336,172562.8555553,67
1658853209.91336,172562.8555581,91
1658853209.91336,172562.8555609,135
1658853209.91336,172562.8555638,158
1658853209.91336,172562.8555666,53
1658853209.91336,172562.8555693,-189
1658853209.91336,172562.8555722,-303
1658853209.91336,172562.855575,-30
1658853209.91336,172562.8555778,289
1658853209.91336,172562.8555807,200
1658853209.91336,172562.8555842,9
1658853209.91336,172562.8555871,58
1658853209.91336,172562.8555899,126
1658853209.91336,172562.8555927,91
1658853209.91336,172562.855605,81
1658853209.91336,172562.8556147,98
1658853209.91336,172562.8556186,86
1658853209.91336,172562.8556219,81
1658853209.91336,172562.8556259,88
1658853209.91336,172562.8556299,84
1658853209.91336,172562.8556355,67
1658853209.91336,172562.855639,39
1658853209.91336,172562.8556426,18
1658853209.91336,172562.8556477,7
1658853209.91336,172562.855651,-7
1658853209.91336,172562.855655,-30
1658853209.91336,172562.8556584,-49
1658853209.91336,172562.8556617,-53
1658853209.91336,172562.855665,-58
1658853209.91336,172562.8556684,-56
1658853209.91336,172562.8556718,-44
1658853209.91336,172562.8556755,-32
1658853209.91336,172562.8556838,-18
1658853209.91336,172562.8556902,11
1658853209.91336,172562.8556986,44
1658853209.91336,172562.8557057,70
1658853209.91336,172562.8557139,100
1658853209.91336,172562.855721,119
1658853209.91336,172563.4402856,114
1658853209.91336,172563.4403023,105
1658853209.91336,172563.4403115,107
1658853209.91336,172563.4403183,112
1658853209.91336,172563.4403221,107
1658853209.91336,172563.4403271,98
1658853209.91336,172563.4403327,98
1658853209.91336,172563.4403393,102
1658853209.91336,172563.4403463,102
1658853209.91336,172563.4403569,100
1658853209.91336,172563.4403632,95
1658853209.91336,172563.4403669,100
1658853209.95639,172563.4403717,109
1658853209.95639,172563.4403782,100
1658853209.95639,172563.4403903,79
1658853209.95639,172563.4403939,77
1658853209.95639,172563.4403961,74
1658853209.95639,172563.4403983,53
1658853209.95639,172563.4404005,37
1658853209.95639,172563.4404025,18
1658853209.95639,172563.4404046,4
1658853209.95639,172563.4404067,18
1658853209.95639,172563.4404088,35
1658853209.95639,172563.4404114,39
1658853209.95639,172563.4404136,56
1658853209.95639,172563.4404157,70
1658853209.95639,172563.4404178,58
1658853209.95639,172563.4404199,44
1658853209.95639,172563.440422,70
1658853209.95639,172563.4404241,126
1658853209.95639,172563.4404261,95
1658853209.95639,172563.4404283,-100
1658853209.95639,172563.4404304,-326
1658853209.95639,172563.4404325,-249
1658853209.95639,172563.4404346,128
1658853209.95639,172563.4404366,273
1658853210.38992,172563.4404387,79
1658853210.38992,172563.4404408,11
1658853210.38992,172563.4404427,93
1658853210.38992,172563.4404448,86
1658853210.38992,172563.4404467,56
1658853210.38992,172563.4404486,79
1658853210.38992,172563.4404506,79
1658853210.38992,172563.4404531,60
1658853210.38992,172563.4404603,58
1658853210.38992,172563.4404684,53
1658853210.38992,172563.4404803,49
1658853210.38992,172563.4404956,46
1658853210.38992,172563.4405091,28
1658853210.38992,172563.4405228,-2
1658853210.38992,172563.4405364,-25
1658853210.38992,172563.44055,-51
1658853210.38992,172563.4405633,-74
1658853210.38992,172563.4405769,-81
1658853210.38992,172563.4405902,-84
1658853210.38992,172563.4406037,-84
1658853210.38992,172563.4406172,-81
1658853210.38992,172563.4406306,-81
1658853210.38992,172563.440644,-67
1658853210.38992,172563.4406574,-23
1658853210.38992,172563.4406708,18
1658853210.38992,172563.4406842,39
1658853210.38992,172563.4406978,63
1658853210.38992,172563.4407113,91
1658853210.38992,172563.4407247,100
1658853210.38992,172563.4407382,93
1658853210.38992,172563.4407517,95
1658853210.38992,172563.4407652,102
1658853210.38992,172563.4407806,100
1658853210.38992,172563.4407939,98
1658853210.38992,172563.4408082,98
1658853210.38992,172563.4408137,95
1658853210.38992,172563.4408184,86
1658853210.38992,172563.9280709,91
1658853210.38992,172563.9280899,102
1658853210.38992,172563.9281043,98
1658853210.38992,172563.9281168,93
1658853210.38992,172563.9281268,114
1658853210.38992,172563.9281389,128
1658853210.38992,172563.9281486,116
1658853210.38992,172563.9281557,98
1658853210.38992,172563.9281639,88
1658853210.38992,172563.9281758,65
1658853210.38992,172563.9281895,35
1658853210.38992,172563.9282015,44
1658853210.38992,172563.9282126,77
1658853210.39989,172563.9282262,77
1658853210.39989,172563.9282362,74
1658853210.39989,172563.9282455,100
1658853210.39989,172563.928252,98
1658853210.39989,172563.9282596,67
1658853210.39989,172563.9282674,74
1658853210.39989,172563.9282742,95
1658853210.39989,172563.9282779,114
1658853210.39989,172563.9282851,102
1658853210.39989,172563.9282936,-49
1658853210.39989,172563.9283003,-319
1658853210.39989,172563.9283058,-352
1658853210.39989,172563.9283186,32
1658853210.39989,172563.9283378,319
1658853210.39989,172563.9283509,151
1658853210.39989,172563.9283567,-18
1658853210.39989,172563.9283642,51
1658853210.39989,172563.9283716,88
1658853210.39989,172563.9283787,44
1658853210.39989,172563.9283845,49
1658853210.39989,172563.9283899,67
1658853210.39989,172563.9283936,53
1658853210.39989,172563.9283971,46
1658853210.39989,172563.9284006,44
1658853211.00281,172563.9284062,30
1658853211.00281,172563.9284128,11
1658853211.00281,172563.9284179,4
1658853211.00281,172563.9284244,2
1658853211.00281,172563.9284297,-11
1658853211.00281,172563.9284335,-44
1658853211.00281,172563.9284365,-74
1658853211.00281,172563.92844,-81
1658853211.00281,172563.9284433,-79
1658853211.00281,172563.9284477,-81
1658853211.00281,172563.9284522,-79
1658853211.00281,172563.928456,-72
1658853211.00281,172563.9284625,-51
1658853211.00281,172563.9284658,-16
1658853211.00281,172563.928469,18
1658853211.00281,172563.928472,51
1658853211.00281,172563.9284754,84
1658853211.00281,172563.9284785,105
1658853211.00281,172563.9284816,114
1658853211.00281,172563.9284851,126
1658853211.00281,172563.9284884,133
1658853211.00281,172563.9284923,133
1658853211.00281,172563.928499,133
1658853211.00281,172563.9285048,133
1658853211.00281,172563.9285104,121
1658853211.00281,172563.9285156,123
1658853211.00281,172563.9285192,142
1658853211.00281,172563.9285222,149
1658853211.00281,172563.9285258,147
1658853211.00281,172563.928532,147
1658853211.00281,172563.9285349,140
1658853211.00281,172563.9285381,147
1658853211.00281,172563.9285409,170
1658853211.00281,172563.9285439,177
1658853211.00281,172563.9285469,168
1658853211.00281,172563.9285498,149
1658853211.00281,172564.5128628,119
1658853211.00281,172564.5128849,105
1658853211.00281,172564.5128941,123
1658853211.00281,172564.5128969,140
1658853211.00281,172564.5128991,140
1658853211.00281,172564.5129013,147
1658853211.00281,172564.5129034,161
1658853211.00281,172564.5129055,151
1658853211.00281,172564.5129075,133
1658853211.00281,172564.5129096,130
1658853211.00281,172564.5129117,151
1658853211.00281,172564.5129138,200
1658853211.00281,172564.5129165,212
1658853211.00281,172564.5129234,58
1658853211.05638,172564.5129295,-217
1658853211.05638,172564.5129339,-287
1658853211.05638,172564.5129399,51
1658853211.05638,172564.5129479,364
1658853211.05638,172564.5129552,233
1658853211.05638,172564.5129601,46
1658853211.05638,172564.5129645,112
1658853211.05638,172564.5129696,163
1658853211.05638,172564.5129765,116
1658853211.05638,172564.5129797,121
1658853211.05638,172564.5129826,140
1658853211.05638,172564.5129855,119
1658853211.05638,172564.5129896,112
1658853211.05638,172564.5129967,114
1658853211.05638,172564.5130013,109
1658853211.05638,172564.5130077,102
1658853211.05638,172564.5130126,86
1658853211.05638,172564.5130167,60
1658853211.05638,172564.5130198,49
1658853211.05638,172564.5130222,39
1658853211.05638,172564.5130319,16
1658853211.05638,172564.5130459,-9
1658853211.05638,172564.513059,-23
1658853211.05638,172564.5130682,-23
1658853211.5558,172564.5130716,-18
1658853211.5558,172564.5130745,-18
1658853211.5558,172564.5130819,-7
1658853211.5558,172564.5130933,18
1658853211.5558,172564.513101,44
1658853211.5558,172564.5131057,77
1658853211.5558,172564.5131099,105
1658853211.5558,172564.5131141,119
1658853211.5558,172564.5131182,130
1658853211.5558,172564.5131229,147
1658853211.5558,172564.5131277,151
1658853211.5558,172564.5131331,149
1658853211.5558,172564.5131369,147
1658853211.5558,172564.5131432,135
1658853211.5558,172564.5131469,130
1658853211.5558,172564.5131514,137
1658853211.5558,172564.5131551,133
1658853211.5558,172564.5131587,130
1658853211.5558,172564.5131624,144
1658853211.5558,172564.5131726,154
1658853211.5558,172564.5131778,149
1658853211.5558,172564.51318,144
1658853211.5558,172564.5131832,151
1658853211.5558,172564.5131853,154
1658853211.5558,172564.5131875,151
1658853211.5558,172564.5131896,137
1658853211.5558,172564.5131917,102
1658853211.5558,172564.5131937,79
1658853211.5558,172564.5131958,98
1658853211.5558,172564.5131979,121
1658853211.5558,172564.5132,123
1658853211.5558,172564.5132021,133
1658853211.5558,172564.5132041,154
1658853211.5558,172564.5132062,154
1658853211.5558,172564.5132082,137
1658853211.5558,172565.0977902,133
1658853211.5558,172565.0978073,163
1658853211.5558,172565.097816,219
1658853211.5558,172565.0978214,205
1658853211.5558,172565.0978283,21
1658853211.5558,172565.0978334,-235
1658853211.5558,172565.0978388,-228
1658853211.5558,172565.0978469,137
1658853211.5558,172565.097854,343
1658853211.5558,172565.0978647,156
1658853211.5558,172565.0978684,42
1658853211.5558,172565.0978714,121
1658853211.5558,172565.0978744,135
1658853211.5558,172565.0978773,107
1658853211.5558,172565.0978802,128
1658853211.56576,172565.0978831,126
1658853211.56576,172565.097886,84
1658853211.56576,172565.0978889,67
1658853211.56576,172565.0978919,79
1658853211.56576,172565.0978955,81
1658853211.56576,172565.0978986,67
1658853211.56576,172565.0979015,53
1658853211.56576,172565.0979044,37
1658853211.56576,172565.0979072,18
1658853211.56576,172565.0979102,4
1658853211.56576,172565.0979132,-4
1658853211.56576,172565.0979161,-21
1658853211.56576,172565.097919,-46
1658853211.56576,172565.097922,-58
1658853211.56576,172565.0979249,-44
1658853211.56576,172565.0979279,-32
1658853211.56576,172565.0979308,-28
1658853211.56576,172565.0979337,-2
1658853211.56576,172565.0979367,46
1658853211.56576,172565.0979395,84
1658853211.56576,172565.0979425,95
1658853211.56576,172565.0979455,109
1658853211.56576,172565.0979483,128
1658853211.56576,172565.0979513,135
1658853212.08979,172565.0979542,130
1658853212.08979,172565.097957,126
1658853212.08979,172565.0979599,130
1658853212.08979,172565.0979627,123
1658853212.08979,172565.0979656,116
1658853212.08979,172565.0979718,133
1658853212.08979,172565.0979803,144
1658853212.08979,172565.0979881,137
1658853212.08979,172565.0979944,130
1658853212.08979,172565.098004,135
1658853212.08979,172565.0980151,140
1658853212.08979,172565.0980215,140
1658853212.08979,172565.0980338,147
1658853212.08979,172565.0980441,154
1658853212.08979,172565.0980512,140
1658853212.08979,172565.0980643,107
1658853212.08979,172565.0980745,84
1658853212.08979,172565.0980811,84
1658853212.08979,172565.098094,93
1658853212.08979,172565.0981042,102
1658853212.08979,172565.0981096,116
1658853212.08979,172565.0981232,140
1658853212.08979,172565.0981335,147
1658853212.08979,172565.0981437,135
1658853212.08979,172565.098153,126
1658853212.08979,172565.0981621,133
1658853212.08979,172565.0981697,168
1658853212.08979,172565.0981819,210
1658853212.08979,172565.0981914,133
1658853212.08979,172565.0981994,-105
1658853212.08979,172565.0982116,-277
1658853212.08979,172565.0982217,-77
1658853212.08979,172565.0982287,277
1658853212.08979,172565.0982413,266
1658853212.08979,172565.6347805,58
1658853212.08979,172565.6347976,77
1658853212.08979,172565.6348032,151
1658853212.08979,172565.6348103,112
1658853212.08979,172565.6348144,100
1658853212.08979,172565.6348184,128
1658853212.08979,172565.6348243,107
1658853212.08979,172565.634829,72
1658853212.08979,172565.6348347,70
1658853212.08979,172565.6348385,77
1658853212.08979,172565.6348441,63
1658853212.08979,172565.6348484,42
1658853212.08979,172565.6348545,25
1658853212.08979,172565.6348581,2
1658853212.08979,172565.6348639,-28
1658853212.08979,172565.6348677,-46
1658853212.10075,172565.6348724,-58
1658853212.10075,172565.6348754,-72
1658853212.10075,172565.6348785,-74
1658853212.10075,172565.6348816,-74
1658853212.10075,172565.6348847,-81
1658853212.10075,172565.6348877,-81
1658853212.10075,172565.6348907,-53
1658853212.10075,172565.6348937,-9
1658853212.10075,172565.6348966,21
1658853212.10075,172565.6348995,39
1658853212.10075,172565.6349023,63
1658853212.10075,172565.6349051,88
1658853212.10075,172565.6349079,95
1658853212.10075,172565.6349107,95
1658853212.10075,172565.6349134,98
1658853212.10075,172565.6349163,93
1658853212.10075,172565.6349189,88
1658853212.10075,172565.6349216,93
1658853212.10075,172565.6349244,93
1658853212.10075,172565.6349272,88
1658853212.10075,172565.63493,93
1658853212.10075,172565.6349328,98
1658853212.10075,172565.6349356,102
1658853212.10075,172565.6349384,107
1658853212.72531,172565.6349412,109
1658853212.72531,172565.6349443,112
1658853212.72531,172565.6349478,114
1658853212.72531,172565.6349518,107
1658853212.72531,172565.6349556,79
1658853212.72531,172565.6349589,44
1658853212.72531,172565.6349621,42
1658853212.72531,172565.6349654,56
1658853212.72531,172565.6349687,63
1658853212.72531,172565.6349747,77
1658853212.72531,172565.6349783,98
1658853212.72531,172565.634982,100
1658853212.72531,172565.6349874,88
1658853212.72531,172565.6349919,86
1658853212.72531,172565.6349978,91
1658853212.72531,172565.6350021,121
1658853212.72531,172565.6350078,163
1658853212.72531,172565.6350119,98
1658853212.72531,172565.6350177,-128
1658853212.72531,172565.6350219,-312
1658853212.72531,172565.6350277,-147
1658853212.72531,172565.635032,238
1658853212.72531,172565.6350377,298
1658853212.72531,172565.6350418,77
1658853212.72531,172565.6350471,28
1658853212.72531,172565.6350521,105
1658853212.72531,172565.6350571,88
1658853212.72531,172565.6350604,67
1658853212.72531,172565.6350634,95
1658853212.72531,172565.6350662,91
1658853212.72531,172565.6350691,72
1658853212.72531,172565.6350718,84
1658853212.72531,172565.6350748,79
1658853212.72531,172566.2682156,39
1658853212.72531,172566.2682276,28
1658853212.72531,172566.2682309,35
1658853212.72531,172566.2682338,4
1658853212.72531,172566.2682365,-30
1658853212.72531,172566.2682391,-32
1658853212.72531,172566.2682416,-39

1658853212.72531,172566.2682442,-58
1658853212.72531,172566.2682466,-67
1658853212.72531,172566.2682491,-79
1658853212.72531,172566.2682516,-102
1658853212.72531,172566.2682539,-105
1658853212.72531,172566.2682563,-79
1658853212.72531,172566.2682588,-44
1658853212.72531,172566.2682613,-4
1658853212.72531,172566.2682637,23
1658853212.72531,172566.2682662,42
1658853212.73628,172566.2682687,65
1658853212.73628,172566.2682714,84
1658853212.73628,172566.2682739,88
1658853212.73628,172566.2682763,86
1658853212.73628,172566.2682788,77
1658853212.73628,172566.2682812,67
1658853212.73628,172566.2682836,63
1658853212.73628,172566.268286,67
1658853212.73628,172566.2682885,74
1658853212.73628,172566.268291,77
1658853212.73628,172566.2682935,81
1658853212.73628,172566.2682959,98
1658853212.73628,172566.2682983,105
1658853212.73628,172566.2683006,109
1658853212.73628,172566.268303,119
1658853212.73628,172566.2683053,119
1658853212.73628,172566.2683076,105
1658853212.73628,172566.26831,84
1658853212.73628,172566.2683124,65
1658853212.73628,172566.2683147,63
1658853212.73628,172566.2683171,84
1658853212.73628,172566.2683193,109
1658853212.73628,172566.2683217,119
1658853212.73628,172566.2683241,126
1658853213.26494,172566.2683264,135
1658853213.26494,172566.2683287,133
1658853213.26494,172566.2683307,123
1658853213.26494,172566.2683327,140
1658853213.26494,172566.2683347,203
1658853213.26494,172566.2683367,221
1658853213.26494,172566.2683387,65
1658853213.26494,172566.2683408,-205
1658853213.26494,172566.268343,-249
1658853213.26494,172566.2683452,126
1658853213.26494,172566.2683474,434
1658853213.26494,172566.2683497,266
1658853213.26494,172566.2683522,72
1658853213.26494,172566.2683546,137
1658853213.26494,172566.2683569,177
1658853213.26494,172566.2683593,142
1658853213.26494,172566.2683647,158
1658853213.26494,172566.2683764,170
1658853213.26494,172566.2683875,154
1658853213.26494,172566.2683909,147
1658853213.26494,172566.2683938,144
1658853213.26494,172566.2683968,137
1658853213.26494,172566.2683997,130
1658853213.26494,172566.2684026,123
1658853213.26494,172566.2684055,109
1658853213.26494,172566.2684084,91
1658853213.26494,172566.2684113,72
1658853213.26494,172566.2684141,56
1658853213.26494,172566.268417,42
1658853213.26494,172566.2684199,37
1658853213.26494,172566.2684227,37
1658853213.26494,172566.2684256,37
1658853213.26494,172566.8040888,35
1658853213.26494,172566.8041003,44
1658853213.26494,172566.804103,74
1658853213.26494,172566.8041054,112
1658853213.26494,172566.8041075,140
1658853213.26494,172566.8041096,154
1658853213.26494,172566.8041117,170
1658853213.26494,172566.8041206,177
1658853213.26494,172566.8041226,179
1658853213.26494,172566.8041247,189
1658853213.26494,172566.8041267,189
1658853213.26494,172566.8041289,179
1658853213.26494,172566.804131,168
1658853213.26494,172566.804133,154
1658853213.26494,172566.8041363,144
1658853213.26494,172566.804149,151
1658853213.26494,172566.8041567,158
1658853213.26494,172566.8041591,165
1658853213.27724,172566.8041613,172
1658853213.27724,172566.8041635,158
1658853213.27724,172566.8041668,140
1658853213.27724,172566.80418,142
1658853213.27724,172566.8041863,135
1658853213.27724,172566.8041894,107
1658853213.27724,172566.8041916,95
1658853213.27724,172566.8041937,109
1658853213.27724,172566.8041958,116
1658853213.27724,172566.8041979,116
1658853213.27724,172566.8042001,142
1658853213.27724,172566.8042035,175
1658853213.27724,172566.8042163,172
1658853213.27724,172566.8042278,154
1658853213.27724,172566.8042428,156
1658853213.27724,172566.8042498,184
1658853213.27724,172566.8042523,235
1658853213.27724,172566.8042544,207
1658853213.27724,172566.8042566,-2
1658853213.27724,172566.8042593,-240
1658853213.27724,172566.8042691,-147
1658853213.27724,172566.8042773,245
1658853213.27724,172566.8042804,355
1658853213.27724,172566.8042824,128
1658853213.7473,172566.8042857,86
1658853213.7473,172566.8042964,196
1658853213.7473,172566.8043018,175
1658853213.7473,172566.8043074,130
1658853213.7473,172566.8043187,158
1658853213.7473,172566.8043266,163
1658853213.7473,172566.804331,142
1658853213.7473,172566.8043357,137
1658853213.7473,172566.8043398,137
1658853213.7473,172566.8043438,135
1658853213.7473,172566.8043484,126
1658853213.7473,172566.8043531,114
1658853213.7473,172566.804358,100
1658853213.7473,172566.8043632,88
1658853213.7473,172566.8043698,72
1658853213.7473,172566.8043752,53
1658853213.7473,172566.8043786,35
1658853213.7473,172566.8043817,21
1658853213.7473,172566.8043846,21
1658853213.7473,172566.8043875,21
1658853213.7473,172566.8043911,21
1658853213.7473,172566.8043947,42
1658853213.7473,172566.804398,79
1658853213.7473,172566.8044011,112
1658853213.7473,172566.8044043,142
1658853213.7473,172566.804408,170
1658853213.7473,172566.8044111,179
1658853213.7473,172566.8044145,184
1658853213.7473,172566.8044206,182
1658853213.7473,172566.8044266,170
1658853213.7473,172566.8044298,170
1658853213.7473,172567.2921902,172
1658853213.7473,172567.2922065,163
1658853213.7473,172567.2922115,161
1658853213.7473,172567.2922184,165
1658853213.7473,172567.2922237,163
1658853213.7473,172567.2922289,161
1658853213.7473,172567.2922328,168
1658853213.7473,172567.2922385,172
1658853213.7473,172567.2922436,170
1658853213.7473,172567.2922479,161
1658853213.7473,172567.2922516,133
1658853213.7473,172567.2922571,100
1658853213.7473,172567.2922623,88
1658853213.7473,172567.2922659,93
1658853213.7473,172567.2922696,107
1658853213.7473,172567.2922745,121
1658853213.7473,172567.2922791,140
1658853213.7473,172567.2922841,154
1658853213.7473,172567.2922887,156
1658853213.75827,172567.2922924,149
1658853213.75827,172567.2922961,149
1658853213.75827,172567.2922997,163
1658853213.75827,172567.2923034,200
1658853213.75827,172567.2923071,210
1658853213.75827,172567.2923127,77
1658853213.75827,172567.2923164,-179
1658853213.75827,172567.2923215,-256
1658853213.75827,172567.2923251,60
1658853213.75827,172567.2923295,336
1658853213.75827,172567.2923332,189
1658853213.75827,172567.2923369,28
1658853213.75827,172567.2923422,107
1658853213.75827,172567.2923459,147
1658853213.75827,172567.2923509,109
1658853213.75827,172567.2923546,126
1658853213.75827,172567.2923582,140
1658853213.75827,172567.2923632,116
1658853213.75827,172567.2923689,107
1658853213.75827,172567.2923739,109
1658853213.75827,172567.2923783,105
1658853213.75827,172567.2923837,98
1658853213.75827,172567.2923879,93
1658853213.75827,172567.2923929,79
1658853214.33667,172567.2923974,58
1658853214.33667,172567.2924009,44
1658853214.33667,172567.2924046,32
1658853214.33667,172567.2924082,18
1658853214.33667,172567.2924117,0
1658853214.33667,172567.2924153,-14
1658853214.33667,172567.2924188,-23
1658853214.33667,172567.2924225,-16
1658853214.33667,172567.2924261,7
1658853214.33667,172567.2924297,37
1658853214.33667,172567.2924331,63
1658853214.33667,172567.2924367,93
1658853214.33667,172567.2924402,121
1658853214.33667,172567.2924438,140
1658853214.33667,172567.2924483,151
1658853214.33667,172567.2924519,156
1658853214.33667,172567.2924555,154
1658853214.33667,172567.2924592,151
1658853214.33667,172567.2924644,144
1658853214.33667,172567.2924694,130
1658853214.33667,172567.2924731,121
1658853214.33667,172567.2924783,126
1658853214.33667,172567.2924834,135
1658853214.33667,172567.292487,133
1658853214.33667,172567.2924906,126
1658853214.33667,172567.2924958,121
1658853214.33667,172567.2925005,121
1658853214.33667,172567.2925058,126
1658853214.33667,172567.2925108,107
1658853214.33667,172567.2925154,72
1658853214.33667,172567.8766067,58
1658853214.33667,172567.8766202,63
1658853214.33667,172567.8766246,77
1658853214.33667,172567.8766296,93
1658853214.33667,172567.876632,107
1658853214.33667,172567.8766353,133
1658853214.33667,172567.8766376,135
1658853214.33667,172567.8766397,98
1658853214.33667,172567.8766418,79
1658853214.33667,172567.876644,105
1658853214.33667,172567.8766463,142
1658853214.33667,172567.8766483,128
1658853214.33667,172567.8766506,-23
1658853214.33667,172567.876653,-280
1658853214.33667,172567.8766552,-329
1658853214.33667,172567.8766575,9
1658853214.33667,172567.8766597,273
1658853214.33667,172567.8766618,121
1658853214.33667,172567.8766641,-32
1658853214.33667,172567.8766664,35
1658853214.34764,172567.8766687,63
1658853214.34764,172567.8766707,23
1658853214.34764,172567.8766729,39
1658853214.34764,172567.8766749,53
1658853214.34764,172567.876677,35
1658853214.34764,172567.8766825,23
1658853214.34764,172567.8766928,28
1658853214.34764,172567.876699,35
1658853214.34764,172567.876703,25
1658853214.34764,172567.8767086,2
1658853214.34764,172567.8767127,-23
1658853214.34764,172567.876718,-44
1658853214.34764,172567.8767219,-58
1658853214.34764,172567.8767271,-60
1658853214.34764,172567.876731,-65
1658853214.34764,172567.8767364,-77
1658853214.34764,172567.8767401,-93
1658853214.34764,172567.8767451,-100
1658853214.34764,172567.8767487,-95
1658853214.34764,172567.8767534,-79
1658853214.34764,172567.8767571,-53
1658853214.34764,172567.8767674,-23
1658853214.34764,172567.8767746,18
1658853214.34764,172567.8767844,58
1658853214.87142,172567.8767888,72
1658853214.87142,172567.8767929,79
1658853214.87142,172567.876797,88
1658853214.87142,172567.876801,77
1658853214.87142,172567.8768051,63
1658853214.87142,172567.8768089,65
1658853214.87142,172567.8768126,79
1658853214.87142,172567.8768162,93
1658853214.87142,172567.8768198,86
1658853214.87142,172567.8768234,70
1658853214.87142,172567.8768269,70
1658853214.87142,172567.8768302,77
1658853214.87142,172567.8768336,70
1658853214.87142,172567.876837,65
1658853214.87142,172567.8768403,51
1658853214.87142,172567.8768484,25
1658853214.87142,172567.8768585,4
1658853214.87142,172567.8768631,4
1658853214.87142,172567.8768687,28
1658853214.87142,172567.876873,46
1658853214.87142,172567.8768782,39
1658853214.87142,172567.8768821,44
1658853214.87142,172567.8768861,74
1658853214.87142,172567.8768899,81
1658853214.87142,172567.8768952,72
1658853214.87142,172567.8768989,86
1658853214.87142,172567.8769038,119
1658853214.87142,172567.8769074,142
1658853214.87142,172567.8769107,63
1658853214.87142,172568.4133046,-179
1658853214.87142,172568.4133212,-390
1658853214.87142,172568.4133311,-217
1658853214.87142,172568.413337,210
1658853214.87142,172568.4133428,289
1658853214.87142,172568.4133476,49
1658853214.87142,172568.4133537,-2
1658853214.87142,172568.4133577,74
1658853214.87142,172568.4133638,53
1658853214.87142,172568.4133697,28
1658853214.87142,172568.4133755,42
1658853214.87142,172568.41338,28
1658853214.87142,172568.4133863,14
1658853214.87142,172568.4133908,25
1658853214.87142,172568.4133951,21
1658853214.87142,172568.4134009,-4
1658853214.87142,172568.4134053,-25
1658853214.87142,172568.413412,-42
1658853214.87142,172568.4134174,-53
1658853214.87142,172568.4134209,-63
1658853214.87142,172568.4134263,-79
1658853214.88239,172568.4134314,-102
1658853214.88239,172568.413435,-119
1658853214.88239,172568.4134387,-114
1658853214.88239,172568.4134436,-105
1658853214.88239,172568.4134483,-100
1658853214.88239,172568.4134558,-84
1658853214.88239,172568.4134624,-49
1658853214.88239,172568.4134683,-11
1658853214.88239,172568.4134726,23
1658853214.88239,172568.4134759,51
1658853214.88239,172568.4134799,77
1658853214.88239,172568.4134908,100
1658853214.88239,172568.4134959,109
1658853214.88239,172568.4135071,98
1658853214.88239,172568.413514,91
1658853214.88239,172568.413517,100
1658853214.88239,172568.4135192,109
1658853214.88239,172568.4135214,107
1658853214.88239,172568.4135235,112
1658853214.88239,172568.4135257,121
1658853214.88239,172568.4135355,123
1658853214.88239,172568.4135442,121
1658853214.88239,172568.4135469,130
1658853214.88239,172568.4135491,137
1658853215.40369,172568.4135513,123
1658853215.40369,172568.4135544,102
1658853215.40369,172568.413565,84
1658853215.40369,172568.4135704,77
1658853215.40369,172568.4135728,93
1658853215.40369,172568.4135755,116
1658853215.40369,172568.4135838,130
1658853215.40369,172568.4135932,156
1658853215.40369,172568.4136046,175
1658853215.40369,172568.413616,163
1658853215.40369,172568.4136188,161
1658853215.40369,172568.413621,177
1658853215.40369,172568.4136231,207
1658853215.40369,172568.4136253,261
1658853215.40369,172568.4136274,224
1658853215.40369,172568.4136303,7
1658853215.40369,172568.413641,-210
1658853215.40369,172568.4136485,-77
1658853215.40369,172568.413651,326
1658853215.40369,172568.4136532,401
1658853215.40369,172568.4136553,140
1658853215.40369,172568.4136574,81
1658853215.40369,172568.4136602,177
1658853215.40369,172568.4136717,161
1658853215.40369,172568.413679,140
1658853215.40369,172568.4136814,175
1658853215.40369,172568.4136836,172
1658853215.40369,172568.4136857,144
1658853215.40369,172568.9496159,137
1658853215.40369,172568.9496374,130
1658853215.40369,172568.9496448,116
1658853215.40369,172568.9496482,102
1658853215.40369,172568.9496504,88
1658853215.40369,172568.9496528,74
1658853215.40369,172568.9496599,58
1658853215.40369,172568.9496687,35
1658853215.40369,172568.949674,18
1658853215.40369,172568.9496835,9
1658853215.40369,172568.9496908,-2
1658853215.40369,172568.9496953,-4
1658853215.40369,172568.9496974,-7
1658853215.40369,172568.9496994,-23
1658853215.40369,172568.9497074,-7
1658853215.40369,172568.9497186,44
1658853215.40369,172568.9497221,72
1658853215.40369,172568.949725,91
1658853215.40369,172568.949728,121
1658853215.40369,172568.9497309,144
1658853215.40369,172568.9497379,163
1658853215.40369,172568.9497492,172
1658853215.41366,172568.949758,158
1658853215.41366,172568.9497698,144
1658853215.41366,172568.949781,147
1658853215.41366,172568.9497945,140
1658853215.41366,172568.949809,123
1658853215.41366,172568.9498222,133
1658853215.41366,172568.9498283,147
1658853215.41366,172568.9498356,149
1658853215.41366,172568.9498428,151
1658853215.41366,172568.9498496,147
