Time,TimeLsl,Value
1658939628.24279,258981.670333,59
1658939628.24279,258981.6703506,59
1658939628.24279,258981.6703562,67
1658939628.24279,258981.6703609,81
1658939628.24279,258981.6703654,98
1658939628.24279,258981.6703703,100
1658939628.24279,258981.6703753,98
1658939628.24279,258981.6703798,110
1658939628.24279,258981.670385,115
1658939628.24279,258981.6703917,100
1658939628.24279,258981.6703962,107
1658939628.24279,258981.6704004,122
1658939628.24279,258981.6704046,115
1658939628.24279,258981.6704102,107
1658939628.24279,258981.6704187,105
1658939628.24279,258981.6704232,91
1658939628.24279,258981.6704295,76
1658939628.24279,258981.6704339,79
1658939628.24279,258981.6704402,71
1658939628.24279,258981.670445,57
1658939628.24279,258981.6704511,43
1658939628.24279,258981.6704554,23
1658939628.24279,258981.6704599,4
1658939628.24279,258981.6704659,-2
1658939628.24279,258981.6704707,-7
1658939628.24279,258981.6704765,-11
1658939628.24279,258981.6704824,-9
1658939628.24279,258981.6704896,-7
1658939628.24279,258981.6704942,-4
1658939628.24279,258981.6704999,4
1658939628.24279,258981.6705047,11
1658939628.24279,258981.6705091,9
1658939628.24279,258981.6705136,14
1658939628.24279,258981.6705183,28
1658939628.24279,258981.6705241,26
1658939628.24279,258981.670529,16
1658939628.24279,258981.6705352,21
1658939628.24279,258981.6705398,38
1658939628.24279,258981.6705456,43
1658939628.24279,258981.6705515,45
1658939628.24279,258981.6705573,47
1658939628.24279,258981.670586,50
1658939628.24279,258981.6705963,55
1658939628.24279,258981.6706019,52
1658939628.24279,258981.6706069,52
1658939628.24279,258981.6706125,59
1658939628.24279,258981.6706198,64
1658939628.24279,258981.6706256,64
1658939628.24279,258981.670632,67
1658939628.24279,258981.6706369,67
1658939628.37576,258981.6706438,64
1658939628.37576,258981.6706494,74
1658939628.37576,258981.6706558,81
1658939628.37576,258981.6706605,79
1658939628.37576,258981.6706647,76
1658939628.37576,258981.6706703,81
1658939628.37576,258981.6706744,95
1658939628.37576,258981.6706804,107
1658939628.37576,258981.6706858,117
1658939628.37576,258981.6706923,122
1658939628.37576,258981.6706964,117
1658939628.37576,258981.670701,103
1658939628.37576,258981.6707055,93
1658939628.37576,258981.6707102,86
1658939628.37576,258981.6707171,81
1658939628.37576,258981.6707221,81
1658939628.37576,258981.6707287,81
1658939628.37576,258981.670733,83
1658939628.37576,258981.6707372,86
1658939628.37576,258981.6707416,86
1658939628.37576,258981.6707454,86
1658939628.37576,258981.6707494,155
1658939628.37576,258981.6707566,385
1658939628.37576,258982.20741,704
1658939628.37576,258982.207429,884
1658939628.37576,258982.2074373,673
1658939628.37576,258982.2074454,117
1658939628.37576,258982.2074515,-160
1658939628.37576,258982.207457,31
1658939628.37576,258982.207464,127
1658939628.37576,258982.2074743,23
1658939628.37576,258982.2074822,31
1658939628.37576,258982.2074873,74
1658939628.37576,258982.2074935,50
1658939628.37576,258982.2074973,40
1658939628.37576,258982.2075006,52
1658939628.37576,258982.2075037,52
1658939628.37576,258982.2075069,55
1658939628.37576,258982.2075133,67
1658939628.37576,258982.2075188,71
1658939628.37576,258982.207522,64
1658939628.37576,258982.2075355,50
1658939628.37576,258982.2075489,43
1658939628.37576,258982.2075612,62
1658939628.37576,258982.2075713,81
1658939628.37576,258982.2075787,81
1658939628.37576,258982.207585,81
1658939628.37576,258982.2075885,86
1658939628.37576,258982.2076018,95
1658939628.37576,258982.2076133,112
1658939628.4356,258982.2076272,119
1658939628.4356,258982.2076389,117
1658939628.4356,258982.2076468,122
1658939628.4356,258982.2076548,124
1658939628.4356,258982.2076621,115
1658939628.4356,258982.2076713,115
1658939628.4356,258982.207674,117
1658939628.4356,258982.2076804,100
1658939628.4356,258982.2076918,79
1658939628.4356,258982.2077043,64
1658939628.4356,258982.2077175,35
1658939628.4356,258982.2077309,7
1658939628.4356,258982.2077442,-2
1658939628.4356,258982.2077542,-11
1658939628.4356,258982.2077613,-23
1658939628.4356,258982.2077651,-28
1658939628.4356,258982.2077775,-28
1658939628.4356,258982.2077875,-28
1658939628.4356,258982.2078,-21
1658939628.4356,258982.2078089,-14
1658939628.4356,258982.207818,-14
1658939628.4356,258982.2078238,-11
1658939628.4356,258982.2078294,-4
1658939628.4356,258982.2078326,0
1658939628.4356,258982.2078355,7
1658939628.4356,258982.2078385,19
1658939628.4356,258982.2078414,21
1658939628.4356,258982.2078444,23
1658939628.4356,258982.2078472,21
1658939628.4356,258982.2078502,19
1658939628.4356,258982.2078532,23
1658939628.4356,258982.207856,26
1658939628.4356,258982.2078589,26
1658939628.4356,258982.2078618,28
1658939628.4356,258982.2078647,33
1658939628.4356,258982.2078677,38
1658939628.4356,258982.2078706,38
1658939628.4356,258982.2078734,40
1658939628.4356,258982.2078764,45
1658939628.4356,258982.2078792,40
1658939628.4356,258982.2078821,40
1658939628.4356,258982.207885,47
1658939628.4356,258982.2078879,47
1658939628.4356,258982.2079009,55
1658939628.4356,258982.20791,55
1658939628.4356,258982.2079231,50
1658939628.4356,258982.8402512,64
1658939628.4356,258982.8402711,81
1658939628.4356,258982.8402783,83
1658939628.4356,258982.8402818,88
1658939628.45953,258982.840285,91
1658939628.45953,258982.840288,79
1658939628.45953,258982.8402914,64
1658939628.45953,258982.8402952,59
1658939628.45953,258982.8402987,52
1658939628.45953,258982.8403082,40
1658939628.45953,258982.8403158,45
1658939628.45953,258982.8403206,52
1658939628.45953,258982.8403246,50
1658939628.45953,258982.8403289,43
1658939628.45953,258982.8403346,26
1658939628.45953,258982.8403388,57
1658939628.45953,258982.8403508,249
1658939628.45953,258982.8403637,558
1658939628.45953,258982.8403755,793
1658939628.45953,258982.8403904,714
1658939628.45953,258982.8403997,213
1658939628.45953,258982.8404093,-215
1658939628.45953,258982.8404212,-115
1658939628.45953,258982.8404332,55
1658939628.45953,258982.8404452,-28
1658939628.45953,258982.840457,-62
1658939628.45953,258982.8404688,4
1658939628.45953,258982.8404804,-4
1658939628.45953,258982.8404925,-23
1658939628.45953,258982.8405048,4
1658939628.45953,258982.8405168,21
1658939628.45953,258982.8405289,19
1658939628.45953,258982.8405408,33
1658939628.45953,258982.8405466,47
1658939628.45953,258982.8405567,47
1658939628.4715,258982.8405684,52
1658939628.4715,258982.8405719,67
1658939628.4715,258982.8405747,79
1658939628.4715,258982.8405785,86
1658939628.4715,258982.8405915,100
1658939628.4715,258982.840599,112
1658939628.4715,258982.8406076,115
1658939628.4715,258982.8406143,122
1658939628.4715,258982.8406226,136
1658939628.4715,258982.8406315,148
1658939628.4715,258982.8406417,150
1658939628.4715,258982.8406558,148
1658939628.4715,258982.8406688,143
1658939628.4715,258982.8406821,143
1658939628.4715,258982.8406953,148
1658939628.4715,258982.8407086,146
1658939628.4715,258982.8407218,141
1658939628.4715,258982.8407355,131
1658939628.4715,258982.8407501,110
1658939628.4715,258982.8407633,83
1658939628.4715,258982.8407768,69
1658939628.4715,258982.8407912,55
1658939628.4715,258982.8408044,40
1658939628.4715,258982.8408181,26
1658939628.4715,258982.8408322,9
1658939628.4715,258982.8408454,-2
1658939628.4715,258982.8408586,0
1658939628.4715,258982.8408729,7
1658939628.4715,258982.8408859,9
1658939628.4715,258982.8408991,11
1658939628.4715,258982.8409441,16
1658939628.4715,258982.8409632,16
1658939628.4715,258982.8409697,21
1658939628.4715,258982.8409741,31
1658939628.4715,258982.8409791,38
1658939628.4715,258982.8409842,38
1658939628.4715,258982.8409887,40
1658939628.4715,258982.8409931,45
1658939628.4715,258983.3273575,47
1658939628.4715,258983.3273777,52
1658939628.4715,258983.3273874,57
1658939629.04878,258983.3273964,57
1658939629.04878,258983.3274039,57
1658939629.04878,258983.3274103,50
1658939629.04878,258983.3274146,47
1658939629.04878,258983.3274178,52
1658939629.04878,258983.3274211,59
1658939629.04878,258983.3274275,59
1658939629.04878,258983.3274325,57
1658939629.04878,258983.3274368,57
1658939629.04878,258983.3274411,52
1658939629.04878,258983.3274467,45
1658939629.04878,258983.3274518,50
1658939629.04878,258983.327461,55
1658939629.04878,258983.3274684,50
1658939629.04878,258983.3274761,55
1658939629.04878,258983.3274834,59
1658939629.04878,258983.3274939,57
1658939629.04878,258983.3275002,67
1658939629.04878,258983.3275042,67
1658939629.04878,258983.3275094,55
1658939629.04878,258983.3275136,43
1658939629.04878,258983.3275192,28
1658939629.04878,258983.3275241,14
1658939629.04878,258983.3275309,14
1658939629.04878,258983.3275362,23
1658939629.04878,258983.3275432,31
1658939629.04878,258983.3275476,38
1658939629.04878,258983.3275543,35
1658939629.04878,258983.3275598,21
1658939629.04878,258983.3275648,69
1658939629.04878,258983.3275714,270
1658939629.04878,258983.3275765,575
1658939629.04878,258983.3275801,805
1658939629.04878,258983.3275875,723
1658939629.04878,258983.3275955,230
1658939629.04878,258983.3276029,-172
1658939629.04878,258983.3276111,-55
1658939629.04878,258983.3276164,107
1658939629.04878,258983.327622,19
1658939629.04878,258983.3276309,-7
1658939629.04878,258983.3276391,55
1658939629.04878,258983.3276474,43
1658939629.04878,258983.3276541,26
1658939629.04878,258983.3276587,52
1658939629.04878,258983.3276619,64
1658939629.04878,258983.3276663,67
1658939629.04878,258983.3276721,76
1658939629.04878,258983.3276757,86
1658939629.04878,258983.3276935,91
1658939629.04878,258983.3277145,103
1658939629.06263,258983.3277243,110
1658939629.06263,258983.3277301,119
1658939629.06263,258983.3277387,131
1658939629.06263,258983.3277458,141
1658939629.06263,258983.3277539,148
1658939629.06263,258983.3277624,160
1658939629.06263,258983.3277676,172
1658939629.06263,258983.3277756,182
1658939629.06263,258983.3277826,194
1658939629.06263,258983.3277892,206
1658939629.06263,258983.3277959,208
1658939629.06263,258983.327804,201
1658939629.06263,258983.3278222,194
1658939629.06263,258983.3278312,191
1658939629.06263,258983.3278374,191
1658939629.06263,258983.3278449,182
1658939629.06263,258983.3278519,158
1658939629.06263,258983.3278595,136
1658939629.06263,258983.3278646,119
1658939629.06263,258983.3278737,103
1658939629.06263,258983.9131958,83
1658939629.06263,258983.9132733,71
1658939629.06263,258983.913288,62
1658939629.06263,258983.9132948,50
1658939629.58365,258983.9132994,47
1658939629.58365,258983.9133367,43
1658939629.58365,258983.9133487,33
1658939629.58365,258983.9133542,33
1658939629.58365,258983.9133592,19
1658939629.58365,258983.9133641,0
1658939629.58365,258983.9134045,-2
1658939629.58365,258983.9134133,9
1658939629.58365,258983.91342,14
1658939629.58365,258983.9134246,19
1658939629.58365,258983.9134293,14
1658939629.58365,258983.9134333,-2
1658939629.58365,258983.9134385,-2
1658939629.58365,258983.9134435,14
1658939629.58365,258983.9134474,21
1658939629.58365,258983.9134517,21
1658939629.58365,258983.9134556,21
1658939629.58365,258983.9134595,19
1658939629.58365,258983.9134633,21
1658939629.58365,258983.9134669,26
1658939629.58365,258983.9134709,33
1658939629.58365,258983.9134744,40
1658939629.58365,258983.9134781,43
1658939629.58365,258983.9134817,40
1658939629.58365,258983.9134853,38
1658939629.58365,258983.9134889,38
1658939629.58365,258983.9134927,43
1658939629.58365,258983.9134964,50
1658939629.58365,258983.9135025,47
1658939629.58365,258983.9135071,45
1658939629.58365,258983.913511,52
1658939629.58365,258983.9135147,64
1658939629.58365,258983.9135186,79
1658939629.58365,258983.9135224,93
1658939629.58365,258983.9135261,100
1658939629.58365,258983.9135301,86
1658939629.58365,258983.9135338,69
1658939629.58365,258983.9135382,64
1658939629.58365,258983.9135425,69
1658939629.58365,258983.9135461,76
1658939629.58365,258983.9135609,76
1658939629.58365,258983.9135687,76
1658939629.58365,258983.913573,76
1658939629.58365,258983.9135771,81
1658939629.58365,258983.913581,76
1658939629.58365,258983.913585,76
1658939629.58365,258983.9135888,174
1658939629.58365,258983.9135926,438
1658939629.58365,258983.9135965,747
1658939629.58365,258983.9136003,869
1658939629.59661,258983.913604,572
1658939629.59661,258983.9136079,14
1658939629.59661,258983.9136118,-155
1658939629.59661,258983.9136154,81
1658939629.59661,258983.913619,124
1658939629.59661,258983.9136226,14
1658939629.59661,258983.9136327,38
1658939629.59661,258983.9136484,76
1658939629.59661,258983.9136542,52
1658939629.59661,258983.913658,57
1658939629.59661,258983.9136615,79
1658939629.59661,258983.913665,76
1658939629.59661,258983.9136685,76
1658939629.59661,258983.913672,93
1658939629.59661,258983.9136755,103
1658939629.59661,258983.913679,100
1658939629.59661,258983.9136825,100
1658939629.59661,258983.9136927,100
1658939629.59661,258983.9137004,103
1658939629.59661,258984.4486198,115
1658939629.59661,258984.4486432,127
1658939629.59661,258984.4486525,134
1658939629.59661,258984.4486616,148
1658939629.59661,258984.4486697,160
1658939630.17563,258984.4486747,167
1658939630.17563,258984.4486801,179
1658939630.17563,258984.4486863,186
1658939630.17563,258984.4486912,186
1658939630.17563,258984.448697,189
1658939630.17563,258984.4487001,186
1658939630.17563,258984.4487044,172
1658939630.17563,258984.4487117,143
1658939630.17563,258984.4487172,127
1658939630.17563,258984.4487232,119
1658939630.17563,258984.4487294,98
1658939630.17563,258984.4487356,76
1658939630.17563,258984.4487392,55
1658939630.17563,258984.4487458,21
1658939630.17563,258984.4487527,-14
1658939630.17563,258984.4487597,-16
1658939630.17563,258984.448765,-7
1658939630.17563,258984.4487706,-7
1658939630.17563,258984.4487735,-4
1658939630.17563,258984.4487776,2
1658939630.17563,258984.4487828,0
1658939630.17563,258984.4487884,7
1658939630.17563,258984.448796,19
1658939630.17563,258984.4488034,23
1658939630.17563,258984.4488109,26
1658939630.17563,258984.4488175,33
1658939630.17563,258984.4488231,31
1658939630.17563,258984.44883,23
1658939630.17563,258984.448839,38
1658939630.17563,258984.4488469,47
1658939630.17563,258984.4488564,43
1658939630.17563,258984.4488695,43
1658939630.17563,258984.4488806,47
1658939630.17563,258984.4488938,47
1658939630.17563,258984.4489023,45
1658939630.17563,258984.4489099,50
1658939630.17563,258984.4489171,57
1658939630.17563,258984.4489302,59
1658939630.17563,258984.4489404,55
1658939630.17563,258984.4489451,52
1658939630.17563,258984.4489504,55
1658939630.17563,258984.4489627,59
1658939630.17563,258984.4489719,64
1658939630.17563,258984.4489854,74
1658939630.17563,258984.4489973,71
1658939630.17563,258984.4490071,62
1658939630.17563,258984.4490207,57
1658939630.17563,258984.4490335,55
1658939630.17563,258984.4490454,62
1658939630.17563,258984.4490596,81
1658939630.1866,258984.4490723,93
1658939630.1866,258984.4490856,98
1658939630.1866,258984.449098,103
1658939630.1866,258984.4491079,95
1658939630.1866,258984.4491134,83
1658939630.1866,258984.4491213,76
1658939630.1866,258984.4491348,79
1658939630.1866,258984.4491469,74
1658939630.1866,258984.449157,59
1658939630.1866,258984.4491662,59
1658939630.1866,258984.4491735,71
1658939630.1866,258984.4491803,83
1658939630.1866,258984.4491876,88
1658939630.1866,258984.449196,83
1658939630.1866,258984.4492013,148
1658939630.1866,258984.4492063,400
1658939630.1866,258984.4492115,747
1658939630.1866,258984.449217,908
1658939630.1866,258985.0344126,618
1658939630.1866,258985.0344344,52
1658939630.1866,258985.0344399,-148
1658939630.1866,258985.0344442,62
1658939630.1866,258985.0344478,127
1658939630.1866,258985.0344532,26
1658939630.72064,258985.0344573,35
1658939630.72064,258985.0344609,57
1658939630.72064,258985.0344643,21
1658939630.72064,258985.0344679,14
1658939630.72064,258985.0344715,38
1658939630.72064,258985.0344748,40
1658939630.72064,258985.0344782,40
1658939630.72064,258985.0344817,47
1658939630.72064,258985.0344859,47
1658939630.72064,258985.0344905,40
1658939630.72064,258985.034494,43
1658939630.72064,258985.0344983,57
1658939630.72064,258985.0345021,69
1658939630.72064,258985.0345055,79
1658939630.72064,258985.0345089,91
1658939630.72064,258985.0345125,95
1658939630.72064,258985.034516,103
1658939630.72064,258985.0345196,117
1658939630.72064,258985.0345238,134
1658939630.72064,258985.0345274,148
1658939630.72064,258985.0345311,160
1658939630.72064,258985.0345353,162
1658939630.72064,258985.034539,153
1658939630.72064,258985.0345424,153
1658939630.72064,258985.0345461,155
1658939630.72064,258985.0345504,143
1658939630.72064,258985.0345541,131
1658939630.72064,258985.0345579,124
1658939630.72064,258985.0345624,112
1658939630.72064,258985.0345661,91
1658939630.72064,258985.0345699,76
1658939630.72064,258985.0345741,64
1658939630.72064,258985.0345781,52
1658939630.72064,258985.0345817,47
1658939630.72064,258985.0345853,40
1658939630.72064,258985.0345889,35
1658939630.72064,258985.0345929,38
1658939630.72064,258985.0345965,40
1658939630.72064,258985.0345998,43
1658939630.72064,258985.0346033,43
1658939630.72064,258985.0346072,40
1658939630.72064,258985.0346107,52
1658939630.72064,258985.0346152,59
1658939630.72064,258985.0346189,55
1658939630.72064,258985.0346228,55
1658939630.72064,258985.0346267,62
1658939630.72064,258985.034631,62
1658939630.72064,258985.0346346,64
1658939630.72064,258985.0346383,69
1658939630.72064,258985.0346423,64
1658939630.74059,258985.0346467,50
1658939630.74059,258985.0346506,45
1658939630.74059,258985.0346549,47
1658939630.74059,258985.0346587,47
1658939630.74059,258985.0346627,50
1658939630.74059,258985.0346661,47
1658939630.74059,258985.0346706,47
1658939630.74059,258985.0346744,50
1658939630.74059,258985.0346787,57
1658939630.74059,258985.0346824,59
1658939630.74059,258985.0346859,50
1658939630.74059,258985.0346895,45
1658939630.74059,258985.0346932,59
1658939630.74059,258985.0346975,69
1658939630.74059,258985.0347014,69
1658939630.74059,258985.034716,71
1658939630.74059,258985.0347206,74
1658939630.74059,258985.5703289,67
1658939630.74059,258985.5703482,55
1658939630.74059,258985.5703573,62
1658939630.74059,258985.5703641,86
1658939630.74059,258985.5703705,105
1658939630.74059,258985.5703749,110
1658939630.74059,258985.5703808,103
1658939631.24405,258985.5703853,86
1658939631.24405,258985.5703908,79
1658939631.24405,258985.5703952,83
1658939631.24405,258985.5703995,86
1658939631.24405,258985.5704064,74
1658939631.24405,258985.5704109,57
1658939631.24405,258985.5704469,52
1658939631.24405,258985.5704559,59
1658939631.24405,258985.5704607,67
1658939631.24405,258985.5704653,57
1658939631.24405,258985.5704701,64
1658939631.24405,258985.5704749,201
1658939631.24405,258985.5704797,491
1658939631.24405,258985.5704852,778
1658939631.24405,258985.5704901,807
1658939631.24405,258985.5704949,395
1658939631.24405,258985.5704997,-103
1658939631.24405,258985.5705043,-117
1658939631.24405,258985.5705088,86
1658939631.24405,258985.5705135,43
1658939631.24405,258985.5705181,-28
1658939631.24405,258985.570523,35
1658939631.24405,258985.5705276,47
1658939631.24405,258985.5705321,16
1658939631.24405,258985.5705365,40
1658939631.24405,258985.570541,62
1658939631.24405,258985.5705456,50
1658939631.24405,258985.5705503,50
1658939631.24405,258985.5705548,62
1658939631.24405,258985.5705592,59
1658939631.24405,258985.5705637,62
1658939631.24405,258985.5705681,76
1658939631.24405,258985.5705726,86
1658939631.24405,258985.5705771,98
1658939631.24405,258985.5705815,117
1658939631.24405,258985.570586,127
1658939631.24405,258985.570655,139
1658939631.24405,258985.5706655,162
1658939631.24405,258985.5706712,158
1658939631.24405,258985.5706753,143
1658939631.24405,258985.5706793,158
1658939631.24405,258985.5706832,172
1658939631.24405,258985.5706872,158
1658939631.24405,258985.5706909,143
1658939631.24405,258985.5706943,148
1658939631.24405,258985.5706975,148
1658939631.24405,258985.5707014,131
1658939631.24405,258985.5707052,117
1658939631.24405,258985.5707094,119
1658939631.24405,258985.5707133,110
1658939631.25702,258985.5707172,91
1658939631.25702,258985.5707209,79
1658939631.25702,258985.570725,64
1658939631.25702,258985.5707291,50
1658939631.25702,258985.5707329,47
1658939631.25702,258985.5707367,45
1658939631.25702,258985.5707403,43
1658939631.25702,258985.5707442,47
1658939631.25702,258985.5707479,45
1658939631.25702,258985.5707516,28
1658939631.25702,258985.5707553,26
1658939631.25702,258985.5707588,33
1658939631.25702,258985.5707625,35
1658939631.25702,258985.5707664,40
1658939631.25702,258985.5707701,43
1658939631.25702,258985.5707738,50
1658939631.25702,258986.1063302,62
1658939631.25702,258986.1063545,55
1658939631.25702,258986.1063666,40
1658939631.25702,258986.1063765,55
1658939631.25702,258986.1063899,69
1658939631.25702,258986.1063971,59
1658939631.25702,258986.1064038,57
1658939631.25702,258986.1064095,59
1658939631.83369,258986.1064134,40
1658939631.83369,258986.1064197,23
1658939631.83369,258986.1064263,33
1658939631.83369,258986.1064329,38
1658939631.83369,258986.1064394,31
1658939631.83369,258986.1064461,35
1658939631.83369,258986.1064528,31
1658939631.83369,258986.1064571,14
1658939631.83369,258986.1064656,14
1658939631.83369,258986.1064701,21
1658939631.83369,258986.1064743,14
1658939631.83369,258986.1064786,14
1658939631.83369,258986.1064826,26
1658939631.83369,258986.1064864,26
1658939631.83369,258986.1064907,26
1658939631.83369,258986.1064951,38
1658939631.83369,258986.1064997,43
1658939631.83369,258986.1065043,28
1658939631.83369,258986.1065091,16
1658939631.83369,258986.1065141,33
1658939631.83369,258986.1065189,59
1658939631.83369,258986.1065259,67
1658939631.83369,258986.1065305,69
1658939631.83369,258986.1065366,76
1658939631.83369,258986.1065417,69
1658939631.83369,258986.1065552,47
1658939631.83369,258986.1065633,47
1658939631.83369,258986.1065677,64
1658939631.83369,258986.1065771,69
1658939631.83369,258986.106584,59
1658939631.83369,258986.1065935,52
1658939631.83369,258986.1065988,57
1658939631.83369,258986.1066056,64
1658939631.83369,258986.1066094,52
1658939631.83369,258986.1066134,57
1658939631.83369,258986.1066206,203
1658939631.83369,258986.10663,503
1658939631.83369,258986.1066354,776
1658939631.83369,258986.1066395,819
1658939631.83369,258986.1066434,431
1658939631.83369,258986.1066475,-83
1658939631.83369,258986.1066547,-119
1658939631.83369,258986.1066647,105
1658939631.83369,258986.1066709,83
1658939631.83369,258986.1066754,-4
1658939631.83369,258986.1066831,26
1658939631.83369,258986.1067217,45
1658939631.83369,258986.1067292,40
1658939631.83369,258986.1067338,57
1658939631.83369,258986.1067377,55
1658939631.84565,258986.1067417,52
1658939631.84565,258986.1067463,74
1658939631.84565,258986.1067504,83
1658939631.84565,258986.1067554,93
1658939631.84565,258986.1067603,122
1658939631.84565,258986.1067647,124
1658939631.84565,258986.1067689,107
1658939631.84565,258986.1067733,91
1658939631.84565,258986.1068145,93
1658939631.84565,258986.1068302,124
1658939631.84565,258986.1068364,139
1658939631.84565,258986.106842,139
1658939631.84565,258986.1068471,158
1658939631.84565,258986.1070248,170
1658939631.84565,258986.1070388,172
1658939631.84565,258986.6924073,179
1658939631.84565,258986.6924494,174
1658939631.84565,258986.692459,172
1658939631.84565,258986.6924645,179
1658939631.84565,258986.6924677,172
1658939631.84565,258986.6924709,148
1658939631.84565,258986.6924741,127
1658939631.84565,258986.6924772,119
1658939631.84565,258986.6924812,107
1658939632.414,258986.6924845,86
1658939632.414,258986.6924875,59
1658939632.414,258986.6924917,26
1658939632.414,258986.6924996,-9
1658939632.414,258986.6925059,-16
1658939632.414,258986.6925141,-9
1658939632.414,258986.6925232,-19
1658939632.414,258986.6925335,-33
1658939632.414,258986.692541,-26
1658939632.414,258986.6925468,-11
1658939632.414,258986.6925533,-14
1658939632.414,258986.6925598,-19
1658939632.414,258986.692566,-7
1658939632.414,258986.6925719,-2
1658939632.414,258986.6925785,7
1658939632.414,258986.6925852,26
1658939632.414,258986.6925914,28
1658939632.414,258986.6925978,21
1658939632.414,258986.6926402,19
1658939632.414,258986.6926485,21
1658939632.414,258986.6926542,31
1658939632.414,258986.6926576,40
1658939632.414,258986.6926613,40
1658939632.414,258986.6926662,40
1658939632.414,258986.6926699,47
1658939632.414,258986.6926743,38
1658939632.414,258986.6926783,26
1658939632.414,258986.6926835,23
1658939632.414,258986.6926879,19
1658939632.414,258986.6926923,21
1658939632.414,258986.6926964,40
1658939632.414,258986.6927,50
1658939632.414,258986.6927048,33
1658939632.414,258986.6927094,23
1658939632.414,258986.6927139,33
1658939632.414,258986.6927206,38
1658939632.414,258986.6927269,35
1658939632.414,258986.6927331,47
1658939632.414,258986.6927403,57
1658939632.414,258986.6927471,43
1658939632.414,258986.6927733,38
1658939632.414,258986.6927804,52
1658939632.414,258986.6927897,55
1658939632.414,258986.6927949,33
1658939632.414,258986.6928431,38
1658939632.414,258986.6928528,79
1658939632.414,258986.6928595,93
1658939632.414,258986.6928651,81
1658939632.414,258986.6928713,91
1658939632.414,258986.6928767,93
1658939632.43793,258986.6928836,62
1658939632.43793,258986.6928907,62
1658939632.43793,258986.692898,79
1658939632.43793,258986.6929039,67
1658939632.43793,258986.6929107,59
1658939632.43793,258986.6929156,76
1658939632.43793,258986.6929213,79
1658939632.43793,258986.6929283,76
1658939632.43793,258986.6929356,81
1658939632.43793,258986.692942,93
1658939632.43793,258986.6929478,227
1658939632.43793,258986.6929539,539
1658939632.43793,258986.6929603,834
1658939632.43793,258986.6929661,836
1658939632.43793,258987.2783197,378
1658939632.43793,258987.2783401,-139
1658939632.43793,258987.2783565,-112
1658939632.43793,258987.2783702,131
1658939632.43793,258987.27838,74
1658939632.43793,258987.2783888,-11
1658939632.43793,258987.2783974,55
1658939632.43793,258987.2784038,59
1658939632.43793,258987.2784168,11
1658939632.43793,258987.2784271,16
1658939632.99917,258987.2784358,28
1658939632.99917,258987.2784461,23
1658939632.99917,258987.2784538,33
1658939632.99917,258987.2784577,50
1658939632.99917,258987.2784628,43
1658939632.99917,258987.2784687,28
1658939632.99917,258987.2784759,38
1658939632.99917,258987.2784822,52
1658939632.99917,258987.2784928,55
1658939632.99917,258987.2785053,62
1658939632.99917,258987.2785143,79
1658939632.99917,258987.2785219,93
1658939632.99917,258987.2785293,100
1658939632.99917,258987.2785356,103
1658939632.99917,258987.2785444,112
1658939632.99917,258987.2785492,129
1658939632.99917,258987.2785558,127
1658939632.99917,258987.2785593,105
1658939632.99917,258987.2785724,98
1658939632.99917,258987.2785841,103
1658939632.99917,258987.2785975,98
1658939632.99917,258987.2786107,95
1658939632.99917,258987.278623,83
1658939632.99917,258987.2786326,52
1658939632.99917,258987.2786456,38
1658939632.99917,258987.278659,31
1658939632.99917,258987.2786686,14
1658939632.99917,258987.2786775,-2
1658939632.99917,258987.2786897,-23
1658939632.99917,258987.2786997,-45
1658939632.99917,258987.2787065,-45
1658939632.99917,258987.2787212,-40
1658939632.99917,258987.2787295,-33
1658939632.99917,258987.2787403,-26
1658939632.99917,258987.2787505,-19
1658939632.99917,258987.2787622,-16
1658939632.99917,258987.27877,-11
1658939632.99917,258987.2787764,-4
1658939632.99917,258987.2787821,2
1658939632.99917,258987.2787871,14
1658939632.99917,258987.2787936,19
1658939632.99917,258987.2788053,19
1658939632.99917,258987.278813,21
1658939632.99917,258987.2788192,26
1658939632.99917,258987.2788271,33
1658939632.99917,258987.2788321,45
1658939632.99917,258987.2788387,52
1658939632.99917,258987.2788457,55
1658939632.99917,258987.2788533,47
1658939632.99917,258987.2788605,43
1658939633.01165,258987.2788685,43
1658939633.01165,258987.2788755,43
1658939633.01165,258987.2788839,52
1658939633.01165,258987.2788906,55
1658939633.01165,258987.278899,50
1658939633.01165,258987.2789066,57
1658939633.01165,258987.278914,59
1658939633.01165,258987.2789206,52
1658939633.01165,258987.2789262,52
1658939633.01165,258987.2789346,64
1658939633.01165,258987.2789412,67
1658939633.01165,258987.2789446,55
1658939633.01165,258987.2789475,45
1658939633.01165,258987.8624007,47
1658939633.01165,258987.8624207,59
1658939633.01165,258987.8624312,67
1658939633.01165,258987.862436,71
1658939633.01165,258987.8624464,67
1658939633.01165,258987.8624545,67
1658939633.01165,258987.8624602,81
1658939633.01165,258987.8624664,93
1658939633.01165,258987.8624719,98
1658939633.01165,258987.8624818,107
1658939633.01165,258987.8624866,100
1658939633.58604,258987.8624909,67
1658939633.58604,258987.862495,33
1658939633.58604,258987.8625036,38
1658939633.58604,258987.8625105,55
1658939633.58604,258987.8625188,57
1658939633.58604,258987.8625296,55
1658939633.58604,258987.8625389,47
1658939633.58604,258987.8625451,26
1658939633.58604,258987.862551,-2
1658939633.58604,258987.8625564,16
1658939633.58604,258987.8625634,174
1658939633.58604,258987.8625726,476
1658939633.58604,258987.8625854,769
1658939633.58604,258987.8625947,800
1658939633.58604,258987.8626022,352
1658939633.58604,258987.8626055,-172
1658939633.58604,258987.8626114,-158
1658939633.58604,258987.8626147,64
1658939633.58604,258987.8626201,2
1658939633.58604,258987.8626234,-76
1658939633.58604,258987.8626288,-14
1658939633.58604,258987.8626323,-7
1658939633.58604,258987.8626382,-33
1658939633.58604,258987.8626415,-7
1658939633.58604,258987.8626476,4
1658939633.58604,258987.8626508,0
1658939633.58604,258987.8626568,16
1658939633.58604,258987.8626601,35
1658939633.58604,258987.8626647,40
1658939633.58604,258987.8626777,40
1658939633.58604,258987.862691,40
1658939633.58604,258987.8627034,50
1658939633.58604,258987.8627147,59
1658939633.58604,258987.8627204,62
1658939633.58604,258987.8627307,71
1658939633.58604,258987.8627429,86
1658939633.58604,258987.8627555,95
1658939633.58604,258987.8627697,100
1658939633.58604,258987.8627844,105
1658939633.58604,258987.8627973,117
1658939633.58604,258987.8628088,127
1658939633.58604,258987.862822,127
1658939633.58604,258987.862837,129
1658939633.58604,258987.8628489,127
1658939633.58604,258987.8628576,127
1658939633.58604,258987.8628621,119
1658939633.58604,258987.8628683,107
1658939633.58604,258987.8628717,93
1658939633.58604,258987.8628775,74
1658939633.58604,258987.8628808,52
1658939633.601,258987.8628865,38
1658939633.601,258987.8628898,28
1658939633.601,258987.862897,11
1658939633.601,258987.8629001,0
1658939633.601,258987.862903,-4
1658939633.601,258987.8629059,-2
1658939633.601,258987.8629089,7
1658939633.601,258987.8629119,4
1658939633.601,258987.8629148,7
1658939633.601,258987.8629176,19
1658939633.601,258987.8629205,31
1658939633.601,258987.8629234,45
1658939633.601,258988.4462648,52
1658939633.601,258988.4462858,40
1658939633.601,258988.4462904,35
1658939633.601,258988.446294,50
1658939633.601,258988.4462996,52
1658939633.601,258988.4463031,52
1658939633.601,258988.4463085,64
1658939633.601,258988.4463121,71
1658939633.601,258988.4463177,59
1658939633.601,258988.4463213,38
1658939633.601,258988.4463267,33
1658939633.601,258988.4463305,50
1658939634.11636,258988.4463358,47
1658939634.11636,258988.4463395,23
1658939634.11636,258988.4463448,11
1658939634.11636,258988.4463485,11
1658939634.11636,258988.4463521,9
1658939634.11636,258988.4463559,11
1658939634.11636,258988.4463596,23
1658939634.11636,258988.4463631,33
1658939634.11636,258988.4463664,19
1658939634.11636,258988.44637,9
1658939634.11636,258988.4463737,21
1658939634.11636,258988.4463775,31
1658939634.11636,258988.4463811,28
1658939634.11636,258988.4463847,33
1658939634.11636,258988.4463887,43
1658939634.11636,258988.4463924,31
1658939634.11636,258988.446396,28
1658939634.11636,258988.4463997,50
1658939634.11636,258988.4464036,59
1658939634.11636,258988.4464073,62
1658939634.11636,258988.4464113,86
1658939634.11636,258988.4464156,93
1658939634.11636,258988.4464192,74
1658939634.11636,258988.446425,64
1658939634.11636,258988.4464307,52
1658939634.11636,258988.4464347,45
1658939634.11636,258988.4464402,62
1658939634.11636,258988.4464455,67
1658939634.11636,258988.446451,59
1658939634.11636,258988.4464558,67
1658939634.11636,258988.4464615,76
1658939634.11636,258988.4464654,62
1658939634.11636,258988.4464693,76
1658939634.11636,258988.4464732,218
1658939634.11636,258988.4464771,493
1658939634.11636,258988.4464827,771
1658939634.11636,258988.4464893,831
1658939634.11636,258988.4464932,455
1658939634.11636,258988.4464972,-67
1658939634.11636,258988.4465029,-124
1658939634.11636,258988.4465069,88
1658939634.11636,258988.4465108,62
1658939634.11636,258988.4465164,-21
1658939634.11636,258988.4465217,28
1658939634.11636,258988.4465271,52
1658939634.11636,258988.4465311,31
1658939634.11636,258988.446535,45
1658939634.11636,258988.4465406,55
1658939634.11636,258988.4465441,47
1658939634.11636,258988.4465474,57
1658939634.13332,258988.4465507,69
1658939634.13332,258988.4465542,64
1658939634.13332,258988.4465594,64
1658939634.13332,258988.4465647,76
1658939634.13332,258988.4465701,83
1658939634.13332,258988.4465741,83
1658939634.13332,258988.4465794,88
1658939634.13332,258988.446583,88
1658939634.13332,258988.4465878,93
1658939634.13332,258988.4465911,115
1658939634.13332,258988.4465956,122
1658939634.13332,258988.9829261,119
1658939634.13332,258988.9829433,131
1658939634.13332,258988.9829514,150
1658939634.13332,258988.9829564,158
1658939634.13332,258988.9829629,153
1658939634.13332,258988.982968,134
1658939634.13332,258988.9829739,110
1658939634.13332,258988.9829784,115
1658939634.13332,258988.9829844,117
1658939634.13332,258988.9829888,98
1658939634.13332,258988.982995,91
1658939634.13332,258988.9829994,76
1658939634.13332,258988.9830053,38
1658939634.62068,258988.9830097,14
1658939634.62068,258988.9830141,16
1658939634.62068,258988.9830185,19
1658939634.62068,258988.9830227,14
1658939634.62068,258988.983027,4
1658939634.62068,258988.9830317,-9
1658939634.62068,258988.9830361,-19
1658939634.62068,258988.9830405,-11
1658939634.62068,258988.9830451,4
1658939634.62068,258988.9830497,14
1658939634.62068,258988.9830557,14
1658939634.62068,258988.9830601,0
1658939634.62068,258988.9830645,-7
1658939634.62068,258988.9830705,9
1658939634.62068,258988.9830786,16
1658939634.62068,258988.9830841,14
1658939634.62068,258988.9830921,26
1658939634.62068,258988.983097,28
1658939634.62068,258988.9831015,14
1658939634.62068,258988.9831063,23
1658939634.62068,258988.9831111,40
1658939634.62068,258988.9831155,35
1658939634.62068,258988.9831201,38
1658939634.62068,258988.9831246,43
1658939634.62068,258988.983129,35
1658939634.62068,258988.9831339,35
1658939634.62068,258988.9831404,45
1658939634.62068,258988.9831452,55
1658939634.62068,258988.9831501,55
1658939634.62068,258988.9831546,50
1658939634.62068,258988.983159,55
1658939634.62068,258988.9831636,57
1658939634.62068,258988.9831682,45
1658939634.62068,258988.9831729,43
1658939634.62068,258988.9831791,55
1658939634.62068,258988.9831855,57
1658939634.62068,258988.9831921,59
1658939634.62068,258988.9831968,71

1658939634.62068,258988.983203,74
1658939634.62068,258988.9832078,64
1658939634.62068,258988.9832139,57
1658939634.62068,258988.9832192,67
1658939634.62068,258988.9832251,88
1658939634.62068,258988.9832298,103
1658939634.62068,258988.9832359,119
1658939634.62068,258988.9832404,115
1658939634.62068,258988.9832464,91
1658939634.62068,258988.983251,74
1658939634.62068,258988.983259,76
1658939634.62068,258988.983266,79
1658939634.63464,258988.9832732,76
1658939634.63464,258988.9832805,79
1658939634.63464,258988.9832875,83
1658939634.63464,258988.9832947,88
1658939634.63464,258988.9833002,83
1658939634.63464,258988.9833079,74
1658939634.63464,258988.9833145,112
1658939634.63464,258988.983322,301
1658939634.63464,258988.9833282,589
1658939634.63464,258988.9833415,802
1658939634.63464,258989.4705028,702
1658939634.63464,258989.4705212,191
1658939634.63464,258989.4705309,-198
1658939634.63464,258989.4705393,-59
1658939634.63464,258989.4705457,95
1658939634.63464,258989.4705537,-7
1658939634.63464,258989.4705807,-33
1658939634.63464,258989.4705948,23
1658939634.63464,258989.4706031,-4
1658939634.63464,258989.4706122,-38
1658939634.63464,258989.470618,-7
1658939634.63464,258989.4706247,4
1658939634.63464,258989.4706317,-9
1658939634.63464,258989.4706441,-4
1658939635.2022,258989.4706527,0
1658939635.2022,258989.4706602,-9
1658939635.2022,258989.4706676,-9
1658939635.2022,258989.470674,-2
1658939635.2022,258989.4706785,7
1658939635.2022,258989.4706824,23
1658939635.2022,258989.4706864,33
1658939635.2022,258989.4706912,40
1658939635.2022,258989.4706971,47
1658939635.2022,258989.470703,57
1658939635.2022,258989.4707075,79
1658939635.2022,258989.4707139,93
1658939635.2022,258989.4707182,93
1658939635.2022,258989.4707237,93
1658939635.2022,258989.4707295,93
1658939635.2022,258989.470737,95
1658939635.2022,258989.4707455,100
1658939635.2022,258989.4707529,103
1658939635.2022,258989.4707657,98
1658939635.2022,258989.4707739,88
1658939635.2022,258989.4707809,71
1658939635.2022,258989.4707852,45
1658939635.2022,258989.4707887,26
1658939635.2022,258989.4708033,21
1658939635.2022,258989.4708147,14
1658939635.2022,258989.4708239,4
1658939635.2022,258989.470829,2
1658939635.2022,258989.4708396,-2
1658939635.2022,258989.4708503,-9
1658939635.2022,258989.4708637,-2
1658939635.2022,258989.4708718,11
1658939635.2022,258989.4708767,19
1658939635.2022,258989.4708828,26
1658939635.2022,258989.4708868,26
1658939635.2022,258989.470892,23
1658939635.2022,258989.4708958,38
1658939635.2022,258989.4709011,52
1658939635.2022,258989.4709116,52
1658939635.2022,258989.4709207,59
1658939635.2022,258989.4709256,55
1658939635.2022,258989.4709317,50
1658939635.2022,258989.4709369,59
1658939635.2022,258989.4709421,74
1658939635.2022,258989.470947,79
1658939635.2022,258989.4709521,71
1658939635.2022,258989.4709562,62
1658939635.2022,258989.4709692,64
1658939635.2022,258989.470982,71
1658939635.2022,258989.470993,71
1658939635.2022,258989.4710043,69
1658939635.21643,258989.4710151,62
1658939635.21643,258989.4710281,47
1658939635.21643,258989.4710413,45
1658939635.21643,258989.4710547,52
1658939635.21643,258989.4710677,52
1658939635.21643,258989.4710803,50
1658939635.21643,258989.4710897,50
1658939635.21643,258989.4710968,45
1658939635.21643,258989.4711093,45
1658939635.21643,258990.0558299,52
1658939635.21643,258990.0558501,59
1658939635.21643,258990.0558702,69
1658939635.21643,258990.0558865,67
1658939635.21643,258990.0558975,50
1658939635.21643,258990.0559049,43
1658939635.21643,258990.0559096,62
1658939635.21643,258990.0559186,86
1658939635.21643,258990.0559288,88
1658939635.21643,258990.0559367,69
1658939635.21643,258990.0559489,52
1658939635.21643,258990.0559574,40
1658939635.21643,258990.055963,26
1658939635.21643,258990.0559667,33
1658939635.21643,258990.0559721,43
1658939635.87985,258990.0559767,33
1658939635.87985,258990.055981,33
1658939635.87985,258990.0559868,45
1658939635.87985,258990.0559929,38
1658939635.87985,258990.0559989,31
1658939635.87985,258990.0560048,86
1658939635.87985,258990.0560102,280
1658939635.87985,258990.0560159,577
1658939635.87985,258990.056021,800
1658939635.87985,258990.0560271,707
1658939635.87985,258990.0560316,206
1658939635.87985,258990.0560379,-194
1658939635.87985,258990.0560483,-79
1658939635.87985,258990.0560568,74
1658939635.87985,258990.0560613,-16
1658939635.87985,258990.05607,-38
1658939635.87985,258990.0560767,23
1658939635.87985,258990.0560837,14
1658939635.87985,258990.0560922,9
1658939635.87985,258990.0560966,33
1658939635.87985,258990.0561032,33
1658939635.87985,258990.0561105,35
1658939635.87985,258990.056117,43
1658939635.87985,258990.0561218,35
1658939635.87985,258990.0561302,33
1658939635.87985,258990.0561362,47
1658939635.87985,258990.0561489,59
1658939635.87985,258990.0561593,62
1658939635.87985,258990.0561669,71
1658939635.87985,258990.0561712,83
1658939635.87985,258990.0561769,83
1658939635.87985,258990.0561989,91
1658939635.87985,258990.0562324,115
1658939635.87985,258990.0562419,127
1658939635.87985,258990.0562473,129
1658939635.87985,258990.0562719,139
1658939635.87985,258990.0562792,146
1658939635.87985,258990.0562828,143
1658939635.87985,258990.056288,139
1658939635.87985,258990.0562912,136
1658939635.87985,258990.0562943,139
1658939635.87985,258990.0562975,124
1658939635.87985,258990.0563027,93
1658939635.87985,258990.0563078,74
1658939635.87985,258990.0563117,67
1658939635.87985,258990.0563172,47
1658939635.87985,258990.0563208,28
1658939635.87985,258990.0563259,21
1658939635.87985,258990.056347,19
1658939635.87985,258990.0563713,21
1658939635.89481,258990.0563965,23
1658939635.89481,258990.0564233,21
1658939635.89481,258990.0564547,11
1658939635.89481,258990.0564711,11
1658939635.89481,258990.0564843,26
1658939635.89481,258990.0564973,35
1658939635.89481,258990.0565101,33
1658939635.89481,258990.0565209,45
1658939635.89481,258990.7375631,59
1658939635.89481,258990.7375838,64
1658939635.89481,258990.737592,74
1658939635.89481,258990.7376194,79
1658939635.89481,258990.7377447,69
1658939635.89481,258990.7377537,64
1658939635.89481,258990.7377607,67
1658939635.89481,258990.7377638,67
1658939635.89481,258990.7377667,59
1658939635.89481,258990.7377696,55
1658939635.89481,258990.7377725,57
1658939635.89481,258990.7377753,64
1658939635.89481,258990.7377782,64
1658939635.89481,258990.7377811,59
1658939635.89481,258990.7377839,50
1658939635.89481,258990.7377868,33
1658939636.31679,258990.7377898,28
1658939636.31679,258990.737793,33
1658939636.31679,258990.7377994,31
1658939636.31679,258990.7378057,33
1658939636.31679,258990.7378119,38
1658939636.31679,258990.7378184,33
1658939636.31679,258990.7378247,33
1658939636.31679,258990.7378312,45
1658939636.31679,258990.7378813,47
1658939636.31679,258990.7378899,52
1658939636.31679,258990.7378934,57
1658939636.31679,258990.7378985,47
1658939636.31679,258990.7379039,52
1658939636.31679,258990.7379096,74
1658939636.31679,258990.7379138,86
1658939636.31679,258990.7379169,100
1658939636.31679,258990.73792,107
1658939636.31679,258990.737923,83
1658939636.31679,258990.7379268,67
1658939636.31679,258990.7379315,76
1658939636.31679,258990.7379345,81
1658939636.31679,258990.7379375,76
1658939636.31679,258990.7379407,81
1658939636.31679,258990.7379437,88
1658939636.31679,258990.7379472,88
1658939636.31679,258990.7379504,81
1658939636.31679,258990.7379538,71
1658939636.31679,258990.737957,139
1658939636.31679,258990.73796,388
1658939636.31679,258990.737963,730
1658939636.31679,258990.7379671,910
1658939636.31679,258990.7379701,661
1658939636.31679,258990.7379732,59
1658939636.31679,258990.7379765,-230
1658939636.31679,258990.7379797,-2
1658939636.31679,258990.737983,103
1658939636.31679,258990.7379863,-21
1658939636.31679,258990.7379896,-16
1658939636.31679,258990.7379937,47
1658939636.31679,258990.7379976,33
1658939636.31679,258990.7380041,26
1658939636.31679,258990.7380085,33
1658939636.31679,258990.7380134,35
1658939636.31679,258990.7380167,55
1658939636.31679,258990.7380217,69
1658939636.31679,258990.738025,62
1658939636.31679,258990.7380299,62
1658939636.31679,258990.7380331,79
1658939636.31679,258990.7380363,86
1658939636.31679,258990.738039,79
1658939636.34372,258990.7380418,81
1658939636.34372,258990.7380445,88
1658939636.34372,258990.7380472,100
1658939636.34372,258990.73805,112
1658939636.34372,258990.7380528,112
1658939636.34372,258990.7380556,119
1658939636.34372,258990.7380582,134
1658939636.34372,258991.1797126,143
1658939636.34372,258991.1797364,141
1658939636.34372,258991.1797422,131
1658939636.34372,258991.1797474,129
1658939636.34372,258991.1797524,139
1658939636.34372,258991.1797574,136
1658939636.34372,258991.179762,117
1658939636.34372,258991.1797665,91
1658939636.34372,258991.1797735,76
1658939636.34372,258991.1797783,62
1658939636.34372,258991.1797831,38
1658939636.34372,258991.1797876,7
1658939636.34372,258991.1797926,-19
1658939636.34372,258991.1797973,-21
1658939636.34372,258991.1798019,-14
1658939636.34372,258991.1798065,-16
1658939636.34372,258991.1798134,-28
1658939636.9126,258991.1798203,-26
1658939636.9126,258991.1798245,-19
1658939636.9126,258991.1798286,-28
1658939636.9126,258991.1798323,-28
1658939636.9126,258991.1798361,-2
1658939636.9126,258991.17984,14
1658939636.9126,258991.179844,14
1658939636.9126,258991.1798481,26
1658939636.9126,258991.1798527,33
1658939636.9126,258991.1798591,28
1658939636.9126,258991.1798633,35
1658939636.9126,258991.1798678,45
1658939636.9126,258991.1798732,38
1658939636.9126,258991.1798786,26
1658939636.9126,258991.1798835,21
1658939636.9126,258991.1798896,26
1658939636.9126,258991.1798963,28
1658939636.9126,258991.1799024,28
1658939636.9126,258991.1799088,31
1658939636.9126,258991.1799154,31
1658939636.9126,258991.1799216,23
1658939636.9126,258991.1799264,21
1658939636.9126,258991.1799304,33
1658939636.9126,258991.1799346,38
1658939636.9126,258991.1799407,26
1658939636.9126,258991.1799467,16
1658939636.9126,258991.1799523,16
1658939636.9126,258991.1799619,11
1658939636.9126,258991.179969,11
1658939636.9126,258991.179974,23
1658939636.9126,258991.1799805,35
1658939636.9126,258991.179989,33
1658939636.9126,258991.1799941,26
1658939636.9126,258991.1799989,28
1658939636.9126,258991.1800056,38
1658939636.9126,258991.1800094,57
1658939636.9126,258991.1800146,81
1658939636.9126,258991.1800198,86
1658939636.9126,258991.1800257,69
1658939636.9126,258991.1800328,55
1658939636.9126,258991.1800398,50
1658939636.9126,258991.1800451,55
1658939636.9126,258991.1800521,57
1658939636.9126,258991.180057,55
1658939636.9126,258991.1800624,62
1658939636.9126,258991.1800687,71
1658939636.9126,258991.1800759,64
1658939636.9126,258991.1800828,52
1658939636.9126,258991.1800893,81
1658939636.9126,258991.1800958,246
1658939636.93254,258991.1801015,548
1658939636.93254,258991.1801057,831
1658939636.93254,258991.1801103,855
1658939636.93254,258991.1801142,417
1658939636.93254,258991.1801181,-112
1658939636.93254,258991.180122,-124
1658939636.93254,258991.7638084,91
1658939636.93254,258991.7638405,40
1658939636.93254,258991.7638543,-31
1658939636.93254,258991.7638603,28
1658939636.93254,258991.7638653,21
1658939636.93254,258991.7638704,-14
1658939636.93254,258991.7638754,23
1658939636.93254,258991.7638805,43
1658939636.93254,258991.763886,16
1658939636.93254,258991.7638941,31
1658939636.93254,258991.7639017,57
1658939636.93254,258991.7639087,52
1658939636.93254,258991.7639145,62
1658939636.93254,258991.7639432,76
1658939636.93254,258991.763976,55
1658939636.93254,258991.7639956,33
1658939636.93254,258991.7640053,57
1658939636.93254,258991.7640091,76
1658939637.53756,258991.764013,71
1658939637.53756,258991.7640563,76
1658939637.53756,258991.7640896,83
1658939637.53756,258991.7641127,71
1658939637.53756,258991.7641429,79
1658939637.53756,258991.7641703,98
1658939637.53756,258991.7641834,93
1658939637.53756,258991.7641941,91
1658939637.53756,258991.7642045,100
1658939637.53756,258991.7642142,93
1658939637.53756,258991.7642236,81
1658939637.53756,258991.7642334,81
1658939637.53756,258991.7642434,69
1658939637.53756,258991.7642527,45
1658939637.53756,258991.7642598,23
1658939637.53756,258991.7642669,-2
1658939637.53756,258991.764273,-16
1658939637.53756,258991.7642825,-19
1658939637.53756,258991.7642914,-35
1658939637.53756,258991.7642994,-47
1658939637.53756,258991.7643082,-31
1658939637.53756,258991.7643171,-14
1658939637.53756,258991.7643255,-28
1658939637.53756,258991.7643321,-31
1658939637.53756,258991.7643393,-9
1658939637.53756,258991.7643461,-4
1658939637.53756,258991.7643535,-4
1658939637.53756,258991.7643616,19
1658939637.53756,258991.7643686,35
1658939637.53756,258991.7643762,31
1658939637.53756,258991.7643832,28
1658939637.53756,258991.7643925,33
1658939637.53756,258991.7644013,31
1658939637.53756,258991.7644104,40
1658939637.53756,258991.7644194,50
1658939637.53756,258991.7644298,55
1658939637.53756,258991.7644388,55
1658939637.53756,258991.7644473,55
1658939637.53756,258991.7644559,59
1658939637.53756,258991.7644644,67
1658939637.53756,258991.7644733,57
1658939637.53756,258991.7644822,47
1658939637.53756,258991.764491,59
1658939637.53756,258991.7645002,74
1658939637.53756,258991.7645089,71
1658939637.53756,258991.764518,57
1658939637.53756,258991.7645269,55
1658939637.53756,258991.7645355,62
1658939637.53756,258991.7645445,69
1658939637.53756,258991.7645531,62
1658939637.55458,258991.764562,52
1658939637.55458,258991.7645707,59
1658939637.55458,258991.7645794,79
1658939637.55458,258991.7645887,76
1658939637.55458,258991.7645977,62
1658939637.55458,258992.3976542,71
1658939637.55458,258992.3976764,95
1658939637.55458,258992.397686,110
1658939637.55458,258992.3976947,124
1658939637.55458,258992.3977028,119
1658939637.55458,258992.3977104,91
1658939637.55458,258992.3977176,79
1658939637.55458,258992.3977252,88
1658939637.55458,258992.3977302,83
1658939637.55458,258992.3977402,81
1658939637.55458,258992.3977484,91
1658939637.55458,258992.397757,76
1658939637.55458,258992.3977643,55
1658939637.55458,258992.3977701,59
1658939637.55458,258992.3977734,59
1658939637.55458,258992.3977786,117
1658939637.55458,258992.3977845,359
1658939637.55458,258992.397791,680
1658939637.55458,258992.3977942,850
1658939638.02185,258992.3977994,651
1658939638.02185,258992.3978035,110
1658939638.02185,258992.3978071,-191
1658939638.02185,258992.3978139,-16
1658939638.02185,258992.3978206,83
1658939638.02185,258992.3978274,-35
1658939638.02185,258992.3978504,-43
1658939638.02185,258992.3978569,14
1658939638.02185,258992.3978616,-2
1658939638.02185,258992.3978673,-23
1658939638.02185,258992.3978773,-16
1658939638.02185,258992.3978858,-9
1658939638.02185,258992.3978923,-2
1658939638.02185,258992.3978988,23
1658939638.02185,258992.3979072,35
1658939638.02185,258992.3979276,35
1658939638.02185,258992.3979384,50
1658939638.02185,258992.397957,57
1658939638.02185,258992.3979677,50
1658939638.02185,258992.397975,57
1658939638.02185,258992.3979829,74
1658939638.02185,258992.3980424,81
1658939638.02185,258992.3980574,88
1658939638.02185,258992.3980663,95
1658939638.02185,258992.3980736,100
1658939638.02185,258992.3980807,100
1658939638.02185,258992.3980876,107
1658939638.02185,258992.3980946,122
1658939638.02185,258992.3981017,131
1658939638.02185,258992.398107,127
1658939638.02185,258992.3981149,115
1658939638.02185,258992.3981202,110
1658939638.02185,258992.3981273,107
1658939638.02185,258992.3981341,95
1658939638.02185,258992.3981409,81
1658939638.02185,258992.3981477,62
1658939638.02185,258992.398155,35
1658939638.02185,258992.3981617,16
1658939638.02185,258992.3981686,11
1658939638.02185,258992.3981753,2
1658939638.02185,258992.3981824,-9
1658939638.02185,258992.3981897,0
1658939638.02185,258992.3981949,14
1658939638.02185,258992.3982019,9
1658939638.02185,258992.3982087,0
1658939638.02185,258992.3982154,19
1658939638.02185,258992.3982223,38
1658939638.02185,258992.3982292,31
1658939638.02185,258992.3982362,23
1658939638.02185,258992.3982415,40
1658939638.0398,258992.3982465,52
1658939638.0398,258992.3982516,57
1658939638.0398,258992.3982565,64
1658939638.0398,258992.3982615,62
1658939638.0398,258992.8844166,67
1658939638.0398,258992.8844357,69
1658939638.0398,258992.8844422,62
1658939638.0398,258992.8844483,67
1658939638.0398,258992.8844565,76
1658939638.0398,258992.8844635,71
1658939638.0398,258992.8844707,71
1658939638.0398,258992.8844775,71
1658939638.0398,258992.884485,52
1658939638.0398,258992.884493,43
1658939638.0398,258992.8845,52
1658939638.0398,258992.8845088,47
1658939638.0398,258992.8845179,45
1658939638.0398,258992.8845264,57
1658939638.0398,258992.8845354,47
1658939638.0398,258992.8845441,43
1658939638.0398,258992.8845523,52
1658939638.0398,258992.884561,62
1658939638.0398,258992.8845954,59
1658939638.0398,258992.8846137,59
1658939638.56737,258992.8846194,64
1658939638.56737,258992.8846234,62
1658939638.56737,258992.8846266,43
1658939638.56737,258992.88463,43
1658939638.56737,258992.8846334,64
1658939638.56737,258992.8846367,86
1658939638.56737,258992.88464,93
1658939638.56737,258992.8846436,81
1658939638.56737,258992.8846471,52
1658939638.56737,258992.8846506,40
1658939638.56737,258992.8846542,45
1658939638.56737,258992.8846577,47
1658939638.56737,258992.8846613,40
1658939638.56737,258992.8846655,45
1658939638.56737,258992.8846691,52
1658939638.56737,258992.8846722,45
1658939638.56737,258992.8846753,38
1658939638.56737,258992.8846785,43
1658939638.56737,258992.8846816,64
1658939638.56737,258992.8846848,189
1658939638.56737,258992.8846885,472
1658939638.56737,258992.8846928,769
1658939638.56737,258992.8846962,834
1658939638.56737,258992.8846993,457
1658939638.56737,258992.8847026,-64
1658939638.56737,258992.8847058,-134
1658939638.56737,258992.8847088,76
1658939638.56737,258992.884712,47
1658939638.56737,258992.8847152,-45
1658939638.56737,258992.8847199,16
1658939638.56737,258992.8847243,47
1658939638.56737,258992.8847274,14
1658939638.56737,258992.8847307,16
1658939638.56737,258992.8847339,35
1658939638.56737,258992.8847371,43
1658939638.56737,258992.8847404,47
1658939638.56737,258992.884744,47
1658939638.56737,258992.8847473,50
1658939638.56737,258992.8847505,69
1658939638.56737,258992.8847537,81
1658939638.56737,258992.8847568,88
1658939638.56737,258992.88476,95
1658939638.56737,258992.8847632,100
1658939638.56737,258992.8847666,107
1658939638.56737,258992.88477,119
1658939638.56737,258992.8847732,119
1658939638.56737,258992.8847763,110
1658939638.56737,258992.8847798,112
1658939638.56737,258992.884783,134
1658939638.56737,258992.8847863,146
1658939638.58233,258992.8847896,143
1658939638.58233,258992.884793,136
1658939638.58233,258992.8847962,131
1658939638.58233,258993.4196416,129
1658939638.58233,258993.4196633,117
1658939638.58233,258993.4196722,105
1658939638.58233,258993.4196811,100
1658939638.58233,258993.4196909,86
1658939638.58233,258993.4196995,62
1658939638.58233,258993.4197065,47
1658939638.58233,258993.4197097,35
1658939638.58233,258993.4197129,23
1658939638.58233,258993.419717,11
1658939638.58233,258993.4197243,9
1658939638.58233,258993.4197311,2
1658939638.58233,258993.4197388,-19
1658939638.58233,258993.4197434,-19
1658939638.58233,258993.4197516,-9
1658939638.58233,258993.4197604,-14
1658939638.58233,258993.4197688,-11
1658939638.58233,258993.4197763,-7
1658939638.58233,258993.4197814,-21
1658939638.58233,258993.4197902,-23
1658939638.58233,258993.4197981,-4
1658939639.14581,258993.419806,0
1658939639.14581,258993.4198116,-9
1658939639.14581,258993.4198187,-11
1658939639.14581,258993.4198233,-4
1658939639.14581,258993.4198297,21
1658939639.14581,258993.419833,43
1658939639.14581,258993.4198385,38
1658939639.14581,258993.419844,43
1658939639.14581,258993.4198511,57
1658939639.14581,258993.4198572,50
1658939639.14581,258993.4198622,40
1658939639.14581,258993.419866,52
1658939639.14581,258993.4198718,57
1658939639.14581,258993.4198774,40
1658939639.14581,258993.4198849,38
1658939639.14581,258993.4198932,52
1658939639.14581,258993.4198996,50
1658939639.14581,258993.4199046,50
1658939639.14581,258993.4199135,55
1658939639.14581,258993.4199217,52
1658939639.14581,258993.4199297,57
1658939639.14581,258993.4199358,67
1658939639.14581,258993.4199442,62
1658939639.14581,258993.4199515,59
1658939639.14581,258993.4199581,69
1658939639.14581,258993.4199655,71
1658939639.14581,258993.4199753,67
1658939639.14581,258993.4199833,76
1658939639.14581,258993.4199914,95
1658939639.14581,258993.4200002,103
1658939639.14581,258993.4200068,107
1658939639.14581,258993.4200154,112
1658939639.14581,258993.4200211,110
1658939639.14581,258993.4200299,86
1658939639.14581,258993.420037,76
1658939639.14581,258993.4200451,83
1658939639.14581,258993.4200534,83
1658939639.14581,258993.4200608,76
1658939639.14581,258993.4200694,88
1658939639.14581,258993.4200764,98
1658939639.14581,258993.4200815,91
1658939639.14581,258993.4200889,76
1658939639.14581,258993.4200966,98
1658939639.14581,258993.4201061,263
1658939639.14581,258993.4201481,572
1658939639.14581,258993.4201586,841
1658939639.14581,258993.4201644,834
1658939639.14581,258993.4201678,388
1658939639.14581,258993.420171,-100
1658939639.14581,258993.4201744,-81
1658939639.17273,258993.4201777,115
1658939639.17273,258993.4201807,59
1658939639.17273,258994.0055004,0
1658939639.17273,258994.0055167,59
1658939639.17273,258994.0055206,55
1658939639.17273,258994.0055236,16
1658939639.17273,258994.0055269,38
1658939639.17273,258994.0055299,62
1658939639.17273,258994.0055687,50
1658939639.17273,258994.005589,35
1658939639.17273,258994.0056005,28
1658939639.17273,258994.005608,28
1658939639.17273,258994.0056141,45
1658939639.17273,258994.0056197,67
1658939639.17273,258994.0056237,64
1658939639.17273,258994.0056275,57
1658939639.17273,258994.0056314,52
1658939639.17273,258994.0056354,43
1658939639.17273,258994.0056397,50
1658939639.17273,258994.005644,71
1658939639.17273,258994.0056481,86
1658939639.17273,258994.0056523,91
1658939639.17273,258994.0056567,100
1658939639.17273,258994.0056629,105
1658939639.68691,258994.0056736,100
1658939639.68691,258994.005679,100
1658939639.68691,258994.0056852,107
1658939639.68691,258994.005692,110
1658939639.68691,258994.0056988,100
1658939639.68691,258994.0057032,86
1658939639.68691,258994.0057093,62
1658939639.68691,258994.0057162,33
1658939639.68691,258994.0057233,19
1658939639.68691,258994.0057309,28
1658939639.68691,258994.0057375,28
1658939639.68691,258994.0057431,0
1658939639.68691,258994.0057472,-2
1658939639.68691,258994.0057515,16
1658939639.68691,258994.0057573,2
1658939639.68691,258994.0057655,-16
1658939639.68691,258994.0057718,11
1658939639.68691,258994.0057762,43
1658939639.68691,258994.0057806,26
1658939639.68691,258994.0057857,14
1658939639.68691,258994.0057902,43
1658939639.68691,258994.0057957,64
1658939639.68691,258994.0058004,55
1658939639.68691,258994.0058051,50
1658939639.68691,258994.0058101,55
1658939639.68691,258994.0058151,62
1658939639.68691,258994.0058209,74
1658939639.68691,258994.0058255,83
1658939639.68691,258994.0058299,91
1658939639.68691,258994.0058342,91
1658939639.68691,258994.0058384,74
1658939639.68691,258994.0058428,69
1658939639.68691,258994.0058475,83
1658939639.68691,258994.0058521,88
1658939639.68691,258994.0058568,83
1658939639.68691,258994.0058613,81
1658939639.68691,258994.0058658,81
1658939639.68691,258994.0058702,88
1658939639.68691,258994.005875,91
1658939639.68691,258994.0058821,74
1658939639.68691,258994.0058885,71
1658939639.68691,258994.0058938,81
1658939639.68691,258994.005899,83
1658939639.68691,258994.0059058,76
1658939639.68691,258994.0059106,76
1658939639.68691,258994.0059151,83
1658939639.68691,258994.00592,91
1658939639.68691,258994.0059248,93
1658939639.68691,258994.0059294,100
1658939639.68691,258994.0059347,86
1658939639.70283,258994.0059403,62
1658939639.70283,258994.5403502,71
1658939639.70283,258994.5403686,95
1658939639.70283,258994.5403785,105
1658939639.70283,258994.5403839,119
1658939639.70283,258994.5403947,110
1658939639.70283,258994.540401,83
1658939639.70283,258994.5404089,76
1658939639.70283,258994.540415,86
1658939639.70283,258994.5404484,91
1658939639.70283,258994.5404591,91
1658939639.70283,258994.5404673,86
1658939639.70283,258994.5404728,62
1658939639.70283,258994.5404802,45
1658939639.70283,258994.5404851,59
1658939639.70283,258994.5404901,69
1658939639.70283,258994.5404949,122
1658939639.70283,258994.5405017,359
1658939639.70283,258994.5405108,707
1658939639.70283,258994.5405243,903
1658939639.70283,258994.5405382,673
1658939639.70283,258994.5405459,62
1658939639.70283,258994.5405588,-266
1658939639.70283,258994.5405678,-40
1658939640.31062,258994.5405737,91
1658939640.31062,258994.5405793,-40
1658939640.31062,258994.5405861,-52
1658939640.31062,258994.5406408,14
1658939640.31062,258994.5406493,2
1658939640.31062,258994.5406553,0
1658939640.31062,258994.540664,26
1658939640.31062,258994.5407005,23
1658939640.31062,258994.5407367,19
1658939640.31062,258994.5407425,33
1658939640.31062,258994.5407458,43
1658939640.31062,258994.5407493,52
1658939640.31062,258994.5407528,76
1658939640.31062,258994.5407563,81
1658939640.31062,258994.5407597,69
1658939640.31062,258994.5407634,76
1658939640.31062,258994.5407671,95
1658939640.31062,258994.5407706,95
1658939640.31062,258994.540774,100
1658939640.31062,258994.5407774,119
1658939640.31062,258994.5407808,122
1658939640.31062,258994.5407842,119
1658939640.31062,258994.5407877,134
1658939640.31062,258994.5407913,141
1658939640.31062,258994.5407946,141
1658939640.31062,258994.540798,146
1658939640.31062,258994.5408015,131
1658939640.31062,258994.5408051,117
1658939640.31062,258994.5408087,119
1658939640.31062,258994.5408123,115
1658939640.31062,258994.5408159,86
1658939640.31062,258994.5408196,59
1658939640.31062,258994.5408231,38
1658939640.31062,258994.5408266,19
1658939640.31062,258994.5408298,11
1658939640.31062,258994.5408338,11
1658939640.31062,258994.5408378,7
1658939640.31062,258994.5408415,2
1658939640.31062,258994.5408451,7
1658939640.31062,258994.5408502,7
1658939640.31062,258994.5408567,7
1658939640.31062,258994.5408603,14
1658939640.31062,258994.5408654,14
1658939640.31062,258994.5408692,2
1658939640.31062,258994.5408744,9
1658939640.31062,258994.5408781,23
1658939640.31062,258994.5408833,19
1658939640.31062,258994.540887,23
1658939640.31062,258994.5408923,43
1658939640.31062,258994.5408957,47
1658939640.32657,258995.1747095,40
1658939640.32657,258995.1747265,45
1658939640.32657,258995.1747321,59
1658939640.32657,258995.1747369,59
1658939640.32657,258995.1747414,47
1658939640.32657,258995.1747458,50
1658939640.32657,258995.1747518,67
1658939640.32657,258995.174757,55
1658939640.32657,258995.1747639,19
1658939640.32657,258995.1747683,14
1658939640.32657,258995.1747727,35
1658939640.32657,258995.1747773,35
1658939640.32657,258995.1747846,26
1658939640.32657,258995.1747914,19
1658939640.32657,258995.1747985,4
1658939640.32657,258995.174803,0
1658939640.32657,258995.1748089,14
1658939640.32657,258995.1748134,14
1658939640.32657,258995.1748197,2
1658939640.32657,258995.1748254,14
1658939640.32657,258995.1748314,35
1658939640.32657,258995.1748366,35
1658939640.32657,258995.1748428,19
1658939640.32657,258995.1748478,26
1658939640.80976,258995.1748555,43
1658939640.80976,258995.1748601,52
1658939640.80976,258995.1748646,69
1658939640.80976,258995.1748691,71
1658939640.80976,258995.1748734,59
1658939640.80976,258995.1748777,59
1658939640.80976,258995.1748826,52
1658939640.80976,258995.1748871,45
1658939640.80976,258995.1748915,57
1658939640.80976,258995.1748958,57
1658939640.80976,258995.1749005,45
1658939640.80976,258995.1749069,57
1658939640.80976,258995.1749113,69
1658939640.80976,258995.1749159,59
1658939640.80976,258995.1749203,100
1658939640.80976,258995.1749248,297
1658939640.80976,258995.1749293,623
1658939640.80976,258995.1749336,893
1658939640.80976,258995.1749381,810
1658939640.80976,258995.1749425,234
1658939640.80976,258995.1749471,-230
1658939640.80976,258995.1749516,-83
1658939640.80976,258995.1749561,110
1658939640.80976,258995.1749605,-4
1658939640.80976,258995.1749649,-43
1658939640.80976,258995.1749692,31
1658939640.80976,258995.1749736,19
1658939640.80976,258995.1749782,7
1658939640.80976,258995.1749828,40
1658939640.80976,258995.1749872,35
1658939640.80976,258995.1749915,21
1658939640.80976,258995.1749961,43
1658939640.80976,258995.1750006,71
1658939640.80976,258995.1750052,74
1658939640.80976,258995.1750098,57
1658939640.80976,258995.1750146,40
1658939640.80976,258995.1750194,50
1658939640.80976,258995.1750241,71
1658939640.80976,258995.1750289,69
1658939640.80976,258995.1750336,67
1658939640.80976,258995.1750403,86
1658939640.80976,258995.175048,98
1658939640.80976,258995.1750529,105
1658939640.80976,258995.1750601,115
1658939640.80976,258995.1750664,119
1658939640.80976,258995.1750734,134
1658939640.80976,258995.1750801,150
1658939640.80976,258995.1750871,146
1658939640.80976,258995.1750924,122
1658939640.80976,258995.6632483,117
1658939640.82472,258995.663266,124
1658939640.82472,258995.6632707,95
1658939640.82472,258995.6632766,57
1658939640.82472,258995.6632805,50
1658939640.82472,258995.6632867,40
1658939640.82472,258995.6632907,31
1658939640.82472,258995.6632945,11
1658939640.82472,258995.6632984,-19
1658939640.82472,258995.6633063,-14
1658939640.82472,258995.6633139,2
1658939640.82472,258995.6633178,-16
1658939640.82472,258995.6633215,-14
1658939640.82472,258995.6633269,14
1658939640.82472,258995.6633307,19
1658939640.82472,258995.6633343,19
1658939640.82472,258995.6633378,28
1658939640.82472,258995.6633416,14
1658939640.82472,258995.6633458,-2
1658939640.82472,258995.6633495,16
1658939640.82472,258995.663353,35
1658939640.82472,258995.6633564,31
1658939640.82472,258995.66336,33
1658939640.82472,258995.6633636,40
1658939640.82472,258995.6633673,26
1658939641.34843,258995.6633709,21
1658939641.34843,258995.6633754,26
1658939641.34843,258995.6633786,26
1658939641.34843,258995.6633838,33
1658939641.34843,258995.6633871,52
1658939641.34843,258995.6633925,47
1658939641.34843,258995.6633992,23
1658939641.34843,258995.6634056,38
1658939641.34843,258995.6634133,57
1658939641.34843,258995.6634192,28
1658939641.34843,258995.6634235,16
1658939641.34843,258995.6634274,45
1658939641.34843,258995.6634311,47
1658939641.34843,258995.6634347,19
1658939641.34843,258995.6634383,23
1658939641.34843,258995.6634437,52
1658939641.34843,258995.6634486,62
1658939641.34843,258995.6634529,57
1658939641.34843,258995.6634566,67
1658939641.34843,258995.6634612,71
1658939641.34843,258995.6634662,45
1658939641.34843,258995.6634697,35
1658939641.34843,258995.6634743,79
1658939641.34843,258995.6634775,103
1658939641.34843,258995.6634804,86
1658939641.34843,258995.6634832,86
1658939641.34843,258995.6634862,83
1658939641.34843,258995.6634891,59
1658939641.34843,258995.6634919,50
1658939641.34843,258995.6634948,55
1658939641.34843,258995.6634976,52
1658939641.34843,258995.6635005,50
1658939641.34843,258995.6635034,57
1658939641.34843,258995.6635063,64
1658939641.34843,258995.6635097,79
1658939641.34843,258995.6635149,81
1658939641.34843,258995.6635191,45
1658939641.34843,258995.6635259,86
1658939641.34843,258995.6635299,316
1658939641.34843,258995.6635344,644
1658939641.34843,258995.6635382,886
1658939641.34843,258995.6635466,781
1658939641.34843,258995.6635529,227
1658939641.34843,258995.6635575,-196
1658939641.34843,258995.6635635,-62
1658939641.34843,258995.6635679,95
1658939641.34843,258995.6635774,0
1658939641.34843,258995.6635842,-21
1658939641.34843,258996.2001446,31
1658939641.34843,258996.200165,9
1658939641.3673,258996.2001708,2
1658939641.3673,258996.2001764,40
1658939641.3673,258996.2001798,43
1658939641.3673,258996.2001891,33
1658939641.3673,258996.2002372,55
1658939641.3673,258996.2002513,62
1658939641.3673,258996.2002589,31
1658939641.3673,258996.2002636,23
1658939641.3673,258996.2002697,40
1658939641.3673,258996.2002737,33
1658939641.3673,258996.2002797,40
1658939641.3673,258996.200284,69
1658939641.3673,258996.2002917,57
1658939641.3673,258996.2002986,26
1658939641.3673,258996.200305,55
1658939641.3673,258996.2003114,93
1658939641.3673,258996.2003173,83
1658939641.3673,258996.2003217,81
1658939641.3673,258996.2004059,98
1658939641.3673,258996.2004339,105
1658939641.3673,258996.2004417,103
1658939641.3673,258996.2004476,95
1658939641.3673,258996.2004508,91
1658939641.3673,258996.2004537,74
1658939641.9242,258996.2004566,62
1658939641.9242,258996.2004723,59
1658939641.9242,258996.2004817,43
1658939641.9242,258996.200488,14
1658939641.9242,258996.2005769,-9
1658939641.9242,258996.2005841,-19
1658939641.9242,258996.2005879,-16
1658939641.9242,258996.2005913,-16
1658939641.9242,258996.2006282,-14
1658939641.9242,258996.2006381,-2
1658939641.9242,258996.2006688,-9
1658939641.9242,258996.2006918,-16
1658939641.9242,258996.2007152,0
1658939641.9242,258996.2007324,4
1658939641.9242,258996.2007395,4
1658939641.9242,258996.2008683,21
1658939641.9242,258996.2008766,19
1658939641.9242,258996.2008815,2
1658939641.9242,258996.2008861,16
1658939641.9242,258996.2008918,43
1658939641.9242,258996.2008974,43
1658939641.9242,258996.2009042,31
1658939641.9242,258996.2009647,31
1658939641.9242,258996.200975,38
1658939641.9242,258996.2009806,43
1658939641.9242,258996.2009879,55
1658939641.9242,258996.2009933,67
1658939641.9242,258996.2009999,57
1658939641.9242,258996.2010068,45
1658939641.9242,258996.2010136,50
1658939641.9242,258996.2010185,52
1658939641.9242,258996.2010251,45
1658939641.9242,258996.20103,55
1658939641.9242,258996.2010361,69
1658939641.9242,258996.2010408,52
1658939641.9242,258996.2010471,33
1658939641.9242,258996.2010519,62
1658939641.9242,258996.2010579,83
1658939641.9242,258996.2010626,64
1658939641.9242,258996.2010692,59
1658939641.9242,258996.2010739,69
1658939641.9242,258996.2010812,67
1658939641.9242,258996.2010861,76
1658939641.9242,258996.2010921,81
1658939641.9242,258996.2010967,62
1658939641.9242,258996.201103,67
1658939641.9242,258996.2011076,100
1658939641.9242,258996.7848509,115
1658939641.9242,258996.7848713,115
1658939641.9242,258996.7848773,117
1658939641.94215,258996.7848823,107
1658939641.94215,258996.7848872,88
1658939641.94215,258996.7848931,67
1658939641.94215,258996.7848976,55
1658939641.94215,258996.7849024,57
1658939641.94215,258996.7849072,57
1658939641.94215,258996.7849119,64
1658939641.94215,258996.7849168,64
1658939641.94215,258996.7849216,59
1658939641.94215,258996.7849288,55
1658939641.94215,258996.7849697,57
1658939641.94215,258996.7849817,172
1658939641.94215,258996.7849889,460
1658939641.94215,258996.7849954,764
1658939641.94215,258996.7850003,817
1658939641.94215,258996.7850067,421
1658939641.94215,258996.7850134,-110
1658939641.94215,258996.78502,-172
1658939641.94215,258996.7850329,62
1658939641.94215,258996.7850532,52
1658939641.94215,258996.7850626,-62
1658939641.94215,258996.7850694,-33
1658939641.94215,258996.7850755,9
1658939641.94215,258996.78508,0
1658939642.50196,258996.7850858,4
1658939642.50196,258996.7850896,26

1658939642.50196,258996.7850931,35
1658939642.50196,258996.7850966,35
1658939642.50196,258996.7851002,35
1658939642.50196,258996.7851036,43
1658939642.50196,258996.7851071,52
1658939642.50196,258996.7851104,50
1658939642.50196,258996.7851136,40
1658939642.50196,258996.7851169,38
1658939642.50196,258996.7851215,50
1658939642.50196,258996.7851254,64
1658939642.50196,258996.7851291,71
1658939642.50196,258996.7851327,81
1658939642.50196,258996.7851364,91
1658939642.50196,258996.7851402,105
1658939642.50196,258996.7851441,115
1658939642.50196,258996.7851476,112
1658939642.50196,258996.785151,124
1658939642.50196,258996.7851543,129
1658939642.50196,258996.7851575,107
1658939642.50196,258996.7851609,95
1658939642.50196,258996.7851654,98
1658939642.50196,258996.7851695,95
1658939642.50196,258996.7851757,91
1658939642.50196,258996.7851798,76
1658939642.50196,258996.7851854,50
1658939642.50196,258996.7851892,33
1658939642.50196,258996.7851945,21
1658939642.50196,258996.7851982,11
1658939642.50196,258996.7852031,19
1658939642.50196,258996.7852067,16
1658939642.50196,258996.7852106,7
1658939642.50196,258996.7852147,14
1658939642.50196,258996.7852202,23
1658939642.50196,258996.7852242,26
1658939642.50196,258996.7852297,28
1658939642.50196,258996.7852333,33
1658939642.50196,258996.7852386,47
1658939642.50196,258996.785242,57
1658939642.50196,258996.7852465,59
1658939642.50196,258996.78525,67
1658939642.50196,258996.7852538,79
1658939642.50196,258996.7852575,69
1658939642.50196,258996.7852612,62
1658939642.50196,258996.785265,79
1658939642.50196,258997.3686243,83
1658939642.50196,258997.3686505,86
1658939642.50196,258997.3686572,93
1658939642.50196,258997.3686632,83
1658939642.52888,258997.3687069,83
1658939642.52888,258997.3687181,98
1658939642.52888,258997.3687257,98
1658939642.52888,258997.3687452,79
1658939642.52888,258997.3687764,45
1658939642.52888,258997.3687917,28
1658939642.52888,258997.3688008,45
1658939642.52888,258997.3688062,64
1658939642.52888,258997.3688135,57
1658939642.52888,258997.3688175,50
1658939642.52888,258997.368824,47
1658939642.52888,258997.3688273,38
1658939642.52888,258997.3688326,33
1658939642.52888,258997.3688454,43
1658939642.52888,258997.3688524,47
1658939642.52888,258997.3688602,50
1658939642.52888,258997.368869,55
1658939642.52888,258997.3688761,50
1658939642.52888,258997.3688834,50
1658939642.52888,258997.3688869,76
1658939642.52888,258997.3689,91
1658939642.52888,258997.3689142,83
1658939642.52888,258997.3689312,91
1658939642.52888,258997.3689403,100
1658939643.18749,258997.3689474,86
1658939643.18749,258997.3689542,59
1658939643.18749,258997.3689589,47
1658939643.18749,258997.3689628,52
1658939643.18749,258997.3689666,62
1658939643.18749,258997.3689695,64
1658939643.18749,258997.3689731,57
1658939643.18749,258997.3689778,64
1658939643.18749,258997.3689809,74
1658939643.18749,258997.3689861,67
1658939643.18749,258997.3689905,71
1658939643.18749,258997.3689967,158
1658939643.18749,258997.3690108,397
1658939643.18749,258997.369021,699
1658939643.18749,258997.3690301,829
1658939643.18749,258997.3690396,582
1658939643.18749,258997.3690481,50
1658939643.18749,258997.3690557,-179
1658939643.18749,258997.369059,21
1658939643.18749,258997.3690676,103
1658939643.18749,258997.3690765,-2
1658939643.18749,258997.3690834,2
1658939643.18749,258997.3690916,45
1658939643.18749,258997.3691,35
1658939643.18749,258997.3691085,45
1658939643.18749,258997.3691145,55
1658939643.18749,258997.3691196,45
1658939643.18749,258997.3691281,57
1658939643.18749,258997.3691367,76
1658939643.18749,258997.3691436,71
1658939643.18749,258997.3691497,64
1658939643.18749,258997.3691557,67
1658939643.18749,258997.3691635,74
1658939643.18749,258997.3691697,93
1658939643.18749,258997.3691773,100
1658939643.18749,258997.3691832,93
1658939643.18749,258997.3691906,100
1658939643.18749,258997.3691966,110
1658939643.18749,258997.3692041,112
1658939643.18749,258997.3692103,124
1658939643.18749,258997.3692177,150
1658939643.18749,258997.3692237,167
1658939643.18749,258997.3692312,165
1658939643.18749,258997.3692381,150
1658939643.18749,258997.3692437,141
1658939643.18749,258998.0520727,134
1658939643.18749,258998.0520922,127
1658939643.18749,258998.0521018,127
1658939643.18749,258998.0521075,124
1658939643.18749,258998.0521161,105
1658939643.20496,258998.052123,76
1658939643.20496,258998.0521283,62
1658939643.20496,258998.0521354,55
1658939643.20496,258998.0521428,45
1658939643.20496,258998.0521479,43
1658939643.20496,258998.0521553,38
1658939643.20496,258998.0521605,11
1658939643.20496,258998.0521677,-9
1658939643.20496,258998.0521726,11
1658939643.20496,258998.0521792,28
1658939643.20496,258998.0521843,16
1658939643.20496,258998.0521915,21
1658939643.20496,258998.0521983,31
1658939643.20496,258998.0522037,16
1658939643.20496,258998.0522121,2
1658939643.20496,258998.0522179,14
1658939643.20496,258998.0522229,21
1658939643.20496,258998.0522278,4
1658939643.20496,258998.052246,9
1658939643.20496,258998.0522583,38
1658939643.20496,258998.0522634,38
1658939643.20496,258998.0522681,19
1658939643.20496,258998.0522723,19
1658939643.20496,258998.052277,28
1658939643.68093,258998.0522832,33
1658939643.68093,258998.052288,35
1658939643.68093,258998.0522924,33
1658939643.68093,258998.0522967,28
1658939643.68093,258998.0523011,35
1658939643.68093,258998.0523055,43
1658939643.68093,258998.05231,40
1658939643.68093,258998.0523145,38
1658939643.68093,258998.0523187,40
1658939643.68093,258998.0523244,47
1658939643.68093,258998.0523305,47
1658939643.68093,258998.0523349,47
1658939643.68093,258998.0523393,62
1658939643.68093,258998.0523442,62
1658939643.68093,258998.0523488,50
1658939643.68093,258998.0523547,62
1658939643.68093,258998.0523591,67
1658939643.68093,258998.0523658,55
1658939643.68093,258998.0523706,52
1658939643.68093,258998.0523767,69
1658939643.68093,258998.052381,83
1658939643.68093,258998.0523866,98
1658939643.68093,258998.0523906,119
1658939643.68093,258998.0523948,117
1658939643.68093,258998.0524008,100
1658939643.68093,258998.0524048,93
1658939643.68093,258998.0524105,83
1658939643.68093,258998.0524151,81
1658939643.68093,258998.0524211,86
1658939643.68093,258998.0524273,81
1658939643.68093,258998.0524337,83
1658939643.68093,258998.0524383,93
1658939643.68093,258998.052443,88
1658939643.68093,258998.0524491,83
1658939643.68093,258998.0524537,76
1658939643.68093,258998.0524591,153
1658939643.68093,258998.0524671,412
1658939643.68093,258998.0524726,733
1658939643.68093,258998.0524787,867
1658939643.68093,258998.0524849,596
1658939643.68093,258998.0524917,35
1658939643.68093,258998.0524965,-186
1658939643.68093,258998.0525022,31
1658939643.68093,258998.0525065,105
1658939643.68093,258998.5380604,-11
1658939643.68093,258998.5380774,-2
1658939643.68093,258998.5380814,57
1658939643.68093,258998.5380847,52
1658939643.68093,258998.5380878,26
1658939643.68093,258998.5380909,23
1658939643.70088,258998.5382325,62
1658939643.70088,258998.5382573,79
1658939643.70088,258998.5382658,40
1658939643.70088,258998.5382709,23
1658939643.70088,258998.5382756,40
1658939643.70088,258998.5382801,52
1658939643.70088,258998.5382843,57
1658939643.70088,258998.5382881,59
1658939643.70088,258998.5382929,57
1658939643.70088,258998.5382963,64
1658939643.70088,258998.5382994,79
1658939643.70088,258998.5383036,74
1658939643.70088,258998.5383074,74
1658939643.70088,258998.5383106,100
1658939643.70088,258998.5383183,115
1658939643.70088,258998.5383248,110
1658939643.70088,258998.5383313,107
1658939643.70088,258998.5383379,107
1658939643.70088,258998.5383447,110
1658939643.70088,258998.5383497,110
1658939643.70088,258998.5383542,105
1658939643.70088,258998.5383591,91
1658939643.70088,258998.5383649,79
1658939643.70088,258998.5383685,86
1658939644.16169,258998.5383716,69
1658939644.16169,258998.5383746,38
1658939644.16169,258998.5383808,23
1658939644.16169,258998.5383855,0
1658939644.16169,258998.5383912,-35
1658939644.16169,258998.5383979,-35
1658939644.16169,258998.5384044,-16
1658939644.16169,258998.5384113,-14
1658939644.16169,258998.5384154,-21
1658939644.16169,258998.5384193,-31
1658939644.16169,258998.5384226,-28
1658939644.16169,258998.5384261,-14
1658939644.16169,258998.5384303,-21
1658939644.16169,258998.5384355,-14
1658939644.16169,258998.5384395,23
1658939644.16169,258998.5384462,38
1658939644.16169,258998.5384494,23
1658939644.16169,258998.5384553,16
1658939644.16169,258998.5384601,26
1658939644.16169,258998.5384636,35
1658939644.16169,258998.5384673,40
1658939644.16169,258998.538471,50
1658939644.16169,258998.5384747,45
1658939644.16169,258998.5384784,33
1658939644.16169,258998.538482,45
1658939644.16169,258998.5384856,55
1658939644.16169,258998.5384892,43
1658939644.16169,258998.5384926,38
1658939644.16169,258998.5384961,57
1658939644.16169,258998.5384996,64
1658939644.16169,258998.5385033,43
1658939644.16169,258998.5385067,47
1658939644.16169,258998.53851,64
1658939644.16169,258998.5385136,57
1658939644.16169,258998.5395831,52
1658939644.16169,258998.5396041,62
1658939644.16169,258998.5396093,62
1658939644.16169,258998.5396139,47
1658939644.16169,258998.5396177,57
1658939644.16169,258998.5396221,81
1658939644.16169,258998.5396259,76
1658939644.16169,258998.5396295,57
1658939644.16169,258998.5396396,76
1658939644.16169,258999.0277303,105
1658939644.16169,258999.0277505,103
1658939644.16169,258999.0277603,100
1658939644.16169,258999.0277674,110
1658939644.16169,258999.0277733,98
1658939644.16169,258999.0277813,86
1658939644.16169,258999.0277899,105
1658939644.17865,258999.0278096,103
1658939644.17865,258999.0278234,55
1658939644.17865,258999.027831,35
1658939644.17865,258999.027839,55
1658939644.17865,258999.0278461,52
1658939644.17865,258999.027853,38
1658939644.17865,258999.0278612,43
1658939644.17865,258999.0278678,50
1658939644.17865,258999.0278746,162
1658939644.17865,258999.0278809,474
1658939644.17865,258999.0278891,788
1658939644.17865,258999.0278962,802
1658939644.17865,258999.0279028,357
1658939644.17865,258999.0279078,-194
1658939644.17865,258999.0279143,-227
1658939644.17865,258999.027919,28
1658939644.17865,258999.0279252,21
1658939644.17865,258999.0279311,-69
1658939644.17865,258999.0279364,-16
1658939644.17865,258999.0279409,28
1658939644.17865,258999.027947,0
1658939644.17865,258999.0279515,-26
1658939644.17865,258999.0279573,-14
1658939644.17865,258999.0279617,16
1658939644.70138,258999.0279674,35
1658939644.70138,258999.0279722,33
1658939644.70138,258999.027976,28
1658939644.70138,258999.0279799,33
1658939644.70138,258999.0279846,35
1658939644.70138,258999.0279893,40
1658939644.70138,258999.0279958,52
1658939644.70138,258999.0280002,69
1658939644.70138,258999.028006,98
1658939644.70138,258999.0280108,110
1658939644.70138,258999.028017,83
1658939644.70138,258999.0280234,86
1658939644.70138,258999.0280317,124
1658939644.70138,258999.0280368,134
1658939644.70138,258999.0280431,131
1658939644.70138,258999.0280494,136
1658939644.70138,258999.0280541,122
1658939644.70138,258999.0280601,98
1658939644.70138,258999.0280647,91
1658939644.70138,258999.0280707,98
1658939644.70138,258999.0280752,124
1658939644.70138,258999.0280797,129
1658939644.70138,258999.0280844,74
1658939644.70138,258999.0280895,23
1658939644.70138,258999.0280941,28
1658939644.70138,258999.0280987,35
1658939644.70138,258999.0281032,4
1658939644.70138,258999.0281078,-14
1658939644.70138,258999.0281124,11
1658939644.70138,258999.028117,23
1658939644.70138,258999.0281213,-2
1658939644.70138,258999.028126,-4
1658939644.70138,258999.0281319,28
1658939644.70138,258999.0281364,35
1658939644.70138,258999.0281424,28
1658939644.70138,258999.0281479,28
1658939644.70138,258999.0281539,33
1658939644.70138,258999.0281593,45
1658939644.70138,258999.0281654,55
1658939644.70138,258999.0281709,59
1658939644.70138,258999.0281773,59
1658939644.70138,258999.0281817,47
1658939644.70138,258999.5643593,50
1658939644.70138,258999.5643862,62
1658939644.70138,258999.564401,55
1658939644.70138,258999.5644108,47
1658939644.70138,258999.5644182,47
1658939644.70138,258999.5644263,45
1658939644.70138,258999.5644321,45
1658939644.70138,258999.5644377,40
1658939644.71634,258999.5644441,16
1658939644.71634,258999.5644473,16
1658939644.71634,258999.564459,40
1658939644.71634,258999.5644667,33
1658939644.71634,258999.5644703,14
1658939644.71634,258999.564481,16
1658939644.71634,258999.5644935,26
1658939644.71634,258999.5645046,40
1658939644.71634,258999.5645164,43
1658939644.71634,258999.5645304,23
1658939644.71634,258999.5645613,16
1658939644.71634,258999.5645732,28
1658939644.71634,258999.5645821,31
1658939644.71634,258999.5646309,28
1658939644.71634,258999.5646459,31
1658939644.71634,258999.564658,55
1658939644.71634,258999.5646653,71
1658939644.71634,258999.5646709,57
1658939644.71634,258999.5646767,57
1658939644.71634,258999.5646811,76
1658939644.71634,258999.5646875,69
1658939644.71634,258999.5646914,43
1658939644.71634,258999.5646976,40
1658939644.71634,258999.5647017,47
1658939645.2967,258999.5647086,69
1658939645.2967,258999.5647132,83
1658939645.2967,258999.5647178,57
1658939645.2967,258999.5647236,33
1658939645.2967,258999.5647394,40
1658939645.2967,258999.5647482,40
1658939645.2967,258999.5647519,93
1658939645.2967,258999.5647737,299
1658939645.2967,258999.5647872,620
1658939645.2967,258999.5647993,867
1658939645.2967,258999.564809,754
1658939645.2967,258999.5648162,222
1658939645.2967,258999.5648254,-179
1658939645.2967,258999.564838,-57
1658939645.2967,258999.5648483,107
1658939645.2967,258999.5648568,14
1658939645.2967,258999.564864,-33
1658939645.2967,258999.5648717,40
1658939645.2967,258999.5648787,45
1658939645.2967,258999.5648835,0
1658939645.2967,258999.5648915,11
1658939645.2967,258999.5648971,43
1658939645.2967,258999.564904,57
1658939645.2967,258999.5649113,47
1658939645.2967,258999.5649186,28
1658939645.2967,258999.5649269,47
1658939645.2967,258999.5649337,74
1658939645.2967,258999.5649398,79
1658939645.2967,258999.5649442,83
1658939645.2967,258999.5649508,83
1658939645.2967,258999.5649554,67
1658939645.2967,258999.564963,81
1658939645.2967,258999.5649691,107
1658939645.2967,258999.5649772,110
1658939645.2967,258999.5649834,119
1658939645.2967,258999.5649913,124
1658939645.2967,258999.5649986,98
1658939645.2967,258999.5650037,93
1658939645.2967,258999.5650097,124
1658939645.2967,258999.5650164,122
1658939645.2967,258999.565024,115
1658939645.2967,259000.1493694,139
1658939645.2967,259000.1493884,119
1658939645.2967,259000.1493942,74
1658939645.2967,259000.1493987,74
1658939645.2967,259000.1494037,67
1658939645.2967,259000.1494079,21
1658939645.2967,259000.1494113,2
1658939645.2967,259000.1494146,2
1658939645.2967,259000.1494179,-31
1658939645.31217,259000.1494211,-50
1658939645.31217,259000.1494245,-31
1658939645.31217,259000.149428,-38
1658939645.31217,259000.1494322,-47
1658939645.31217,259000.1494363,-9
1658939645.31217,259000.1494412,21
1658939645.31217,259000.1494482,28
1658939645.31217,259000.1494577,26
1658939645.31217,259000.1494939,-16
1658939645.31217,259000.1495011,-50
1658939645.31217,259000.1495072,-11
1658939645.31217,259000.1495117,16
1658939645.31217,259000.149516,14
1658939645.31217,259000.1495209,31
1658939645.31217,259000.1495268,35
1658939645.31217,259000.1495316,33
1658939645.31217,259000.1495379,38
1658939645.31217,259000.1495422,16
1658939645.31217,259000.1495485,11
1658939645.31217,259000.1495543,38
1658939645.31217,259000.1495583,45
1658939645.31217,259000.1495629,40
1658939645.31217,259000.1495691,38
1658939645.31217,259000.1495757,35
1658939645.89059,259000.1495804,31
1658939645.89059,259000.1495846,35
1658939645.89059,259000.1495895,57
1658939645.89059,259000.1495952,69
1658939645.89059,259000.1496002,50
1658939645.89059,259000.1496034,35
1658939645.89059,259000.1496084,55
1658939645.89059,259000.1496126,64
1658939645.89059,259000.1496162,55
1658939645.89059,259000.1496211,62
1658939645.89059,259000.1496247,74
1658939645.89059,259000.1496284,71
1658939645.89059,259000.1496318,71
1658939645.89059,259000.1496352,71
1658939645.89059,259000.1496388,59
1658939645.89059,259000.1496448,83
1658939645.89059,259000.1496479,122
1658939645.89059,259000.1496517,119
1658939645.89059,259000.1496547,110
1658939645.89059,259000.1496578,107
1658939645.89059,259000.1496611,93
1658939645.89059,259000.149664,81
1658939645.89059,259000.1496672,83
1658939645.89059,259000.1496719,76
1658939645.89059,259000.149675,71
1658939645.89059,259000.1496788,81
1658939645.89059,259000.1496818,86
1658939645.89059,259000.1496864,79
1658939645.89059,259000.1496923,59
1658939645.89059,259000.149699,52
1658939645.89059,259000.149704,100
1658939645.89059,259000.1497101,268
1658939645.89059,259000.1497135,575
1658939645.89059,259000.1497188,857
1658939645.89059,259000.1497227,807
1658939645.89059,259000.1497309,299
1658939645.89059,259000.1497376,-160
1658939645.89059,259000.149743,-83
1658939645.89059,259000.1497561,105
1658939645.89059,259000.1497632,31
1658939645.89059,259000.7325212,-14
1658939645.89059,259000.7325416,45
1658939645.89059,259000.7325468,38
1658939645.89059,259000.7325519,14
1658939645.89059,259000.7325597,35
1658939645.89059,259000.7325653,45
1658939645.89059,259000.7325713,52
1658939645.89059,259000.732576,62
1658939645.89059,259000.7325806,31
1658939645.89059,259000.7325872,7
1658939645.90954,259000.7325922,21
1658939645.90954,259000.7325967,45
1658939645.90954,259000.7326013,57
1658939645.90954,259000.7326137,67
1658939645.90954,259000.7326191,64
1658939645.90954,259000.7326234,67
1658939645.90954,259000.7326279,79
1658939645.90954,259000.7326342,71
1658939645.90954,259000.7326394,71
1658939645.90954,259000.7326452,98
1658939645.90954,259000.7326497,103
1658939645.90954,259000.7326556,83
1658939645.90954,259000.7326597,88
1658939645.90954,259000.7326653,105
1658939645.90954,259000.7326694,112
1658939645.90954,259000.7326754,110
1658939645.90954,259000.7326809,88
1658939645.90954,259000.7326868,62
1658939645.90954,259000.732691,74
1658939645.90954,259000.7326957,74
1658939645.90954,259000.7327,21
1658939645.90954,259000.7327043,2
1658939645.90954,259000.7327096,21
1658939645.90954,259000.7327144,9
1658939646.41432,259000.7327211,-7
1658939646.41432,259000.7327261,-2
1658939646.41432,259000.7327308,4
1658939646.41432,259000.7327352,16
1658939646.41432,259000.7327398,16
1658939646.41432,259000.7327446,7
1658939646.41432,259000.7327489,7
1658939646.41432,259000.7327534,21
1658939646.41432,259000.732758,43
1658939646.41432,259000.7327628,45
1658939646.41432,259000.7327794,45
1658939646.41432,259000.7327937,55
1658939646.41432,259000.7328017,55
1658939646.41432,259000.7328069,57
1658939646.41432,259000.7328111,64
1658939646.41432,259000.7328179,74
1658939646.41432,259000.7328223,69
1658939646.41432,259000.732827,43
1658939646.41432,259000.7328315,40
1658939646.41432,259000.7328359,62
1658939646.41432,259000.7328405,74
1658939646.41432,259000.7328449,59
1658939646.41432,259000.7328488,38
1658939646.41432,259000.7328524,45
1658939646.41432,259000.7328559,57
1658939646.41432,259000.7328595,52
1658939646.41432,259000.7328636,57
1658939646.41432,259000.7328674,69
1658939646.41432,259000.7328711,71
1658939646.41432,259000.7328748,69
1658939646.41432,259000.7328789,76
1658939646.41432,259000.7328834,67
1658939646.41432,259000.7328891,50
1658939646.41432,259000.7328954,71
1658939646.41432,259000.7329018,98
1658939646.41432,259000.7329061,81
1658939646.41432,259000.7329092,69
1658939646.41432,259000.7329123,76
1658939646.41432,259000.7329158,79
1658939646.41432,259001.2697079,83
1658939646.41432,259001.2697294,100
1658939646.41432,259001.269741,117
1658939646.41432,259001.2697473,134
1658939646.41432,259001.2697509,134
1658939646.41432,259001.269755,107
1658939646.41432,259001.2697606,81
1658939646.41432,259001.269764,81
1658939646.41432,259001.2697689,100
1658939646.41432,259001.2697724,98
1658939646.41432,259001.2697782,67
1658939646.43267,259001.269782,43
1658939646.43267,259001.2697869,62
1658939646.43267,259001.2697915,69
1658939646.43267,259001.2697948,38
1658939646.43267,259001.2697977,38
1658939646.43267,259001.2698005,117
1658939646.43267,259001.2698037,301
1658939646.43267,259001.2698069,579
1658939646.43267,259001.26981,800
1658939646.43267,259001.2698131,690
1658939646.43267,259001.2698162,182
1658939646.43267,259001.2698196,-172
1658939646.43267,259001.2698257,-43
1658939646.43267,259001.2698294,71
1658939646.43267,259001.2698354,-26
1658939646.43267,259001.2698392,-38
1658939646.43267,259001.2698449,14
1658939646.43267,259001.2698485,21
1658939646.43267,259001.2698535,26
1658939646.43267,259001.2698589,33
1658939646.43267,259001.2698635,26
1658939646.43267,259001.2698663,21
1658939646.43267,259001.2698691,21
1658939646.43267,259001.2698719,33
1658939647.14468,259001.2698749,57
1658939647.14468,259001.2698776,62
1658939647.14468,259001.2698802,55
1658939647.14468,259001.2698829,59
1658939647.14468,259001.2698855,76
1658939647.14468,259001.2698882,81
1658939647.14468,259001.2698908,88
1658939647.14468,259001.2698935,91
1658939647.14468,259001.2698962,76
1658939647.14468,259001.2698987,79
1658939647.14468,259001.2699013,103
1658939647.14468,259001.269904,115
1658939647.14468,259001.2699067,119
1658939647.14468,259001.2699092,122
1658939647.14468,259001.2699118,117
1658939647.14468,259001.2699145,103
1658939647.14468,259001.2699172,98
1658939647.14468,259001.2699585,107
1658939647.14468,259001.2699647,98
1658939647.14468,259001.2699696,88
1658939647.14468,259001.2699768,71
1658939647.14468,259001.2699828,33
1658939647.14468,259001.2699864,23
1658939647.14468,259001.2699894,40
1658939647.14468,259001.2699923,35
1658939647.14468,259001.2699951,26
1658939647.14468,259001.2699979,21
1658939647.14468,259001.2700008,14
1658939647.14468,259001.2700035,7
1658939647.14468,259001.2700064,0
1658939647.14468,259001.2700091,26
1658939647.14468,259001.2700119,71
1658939647.14468,259001.2700148,71
1658939647.14468,259001.2700181,47
1658939647.14468,259001.2700209,47
1658939647.14468,259001.2700238,47
1658939647.14468,259001.2700265,50
1658939647.14468,259001.2700293,64
1658939647.14468,259001.9998316,62
1658939647.14468,259001.9998749,76
1658939647.14468,259001.9999297,103
1658939647.14468,259001.9999723,67
1658939647.14468,259001.9999906,38
1658939647.14468,259002,83
1658939647.14468,259002.0000055,105
1658939647.14468,259002.0000137,83
1658939647.14468,259002.0000186,76
1658939647.14468,259002.0000246,69
1658939647.14468,259002.0000377,47
1658939647.14468,259002.0000477,47
1658939647.15864,259002.0000781,59
1658939647.15864,259002.0000992,43
1658939647.15864,259002.0001135,33
1658939647.15864,259002.0001254,38
1658939647.15864,259002.0001336,33
1658939647.15864,259002.000143,40
1658939647.15864,259002.0001506,55
1658939647.15864,259002.0001595,35
1658939647.15864,259002.0001676,16
1658939647.15864,259002.0001741,33
1658939647.15864,259002.0001786,55
1658939647.15864,259002.0001833,52
1658939647.15864,259002.0001881,55
1658939647.15864,259002.0001929,67
1658939647.15864,259002.0001977,57
1658939647.15864,259002.0002026,47
1658939647.15864,259002.0002077,71
1658939647.15864,259002.0002144,100
1658939647.15864,259002.0002193,105
1658939647.15864,259002.0002266,105
1658939647.15864,259002.0002318,91
1658939647.15864,259002.0002387,62
1658939647.15864,259002.0002502,50
1658939647.15864,259002.0002615,69
1658939647.58359,259002.0002675,79
1658939647.58359,259002.000274,62
1658939647.58359,259002.0002786,45
1658939647.58359,259002.0002841,45
1658939647.58359,259002.0002904,59
1658939647.58359,259002.000295,62
1658939647.58359,259002.0002997,38
1658939647.58359,259002.0003055,93
1658939647.58359,259002.0003116,345
1658939647.58359,259002.0003186,666
1658939647.58359,259002.0003255,800
1658939647.58359,259002.0003322,560
1658939647.58359,259002.0003389,45
1658939647.58359,259002.0003446,-189
1658939647.58359,259002.000352,14
1658939647.58359,259002.0003607,107
1658939647.58359,259002.0003731,-7
1658939647.58359,259002.0003853,2
1658939647.58359,259002.0003966,71
1658939647.58359,259002.0004055,62
1658939647.58359,259002.0004149,50
1658939647.58359,259002.000424,59
1658939647.58359,259002.0004726,52
1658939647.58359,259002.0004805,50
1658939647.58359,259002.0004875,57
1658939647.58359,259002.0004964,57
1658939647.58359,259002.0005085,69
1658939647.58359,259002.0005173,86
1658939647.58359,259002.000524,86
1658939647.58359,259002.0005325,76
1658939647.58359,259002.0005414,83
1658939647.58359,259002.000545,91
1658939647.58359,259002.0005501,95
1658939647.58359,259002.0005532,117
1658939647.58359,259002.0005565,141
1658939647.58359,259002.00056,141
1658939647.58359,259002.0005651,139
1658939647.58359,259002.4387664,153
1658939647.58359,259002.4387913,162
1658939647.58359,259002.4387949,158
1658939647.58359,259002.4387979,153
1658939647.58359,259002.4388008,146
1658939647.58359,259002.4388034,134
1658939647.58359,259002.438806,127
1658939647.58359,259002.438809,124
1658939647.58359,259002.4388118,115
1658939647.58359,259002.4388146,95
1658939647.58359,259002.4388171,67
1658939647.58359,259002.4388197,35
1658939647.58359,259002.4388223,11
1658939647.60553,259002.438825,4
1658939647.60553,259002.4388276,-2
1658939647.60553,259002.4388303,2
1658939647.60553,259002.4388328,14
1658939647.60553,259002.4388354,-11
1658939647.60553,259002.4388381,-35
1658939647.60553,259002.4388407,2
1658939647.60553,259002.4388433,35
1658939647.60553,259002.4388459,11
1658939647.60553,259002.4388484,-7
1658939647.60553,259002.4388515,26
1658939647.60553,259002.4388556,52
1658939647.60553,259002.4388589,35
1658939647.60553,259002.4388617,31
1658939647.60553,259002.4388648,62
1658939647.60553,259002.4388678,79
1658939647.60553,259002.4388706,62
1658939647.60553,259002.4388735,43
1658939647.60553,259002.4388764,47
1658939647.60553,259002.4388793,52
1658939647.60553,259002.4388822,55
1658939647.60553,259002.4388851,71
1658939647.60553,259002.4388879,71
1658939647.60553,259002.4388908,57
1658939648.1149,259002.4388937,67
1658939648.1149,259002.4388969,79
1658939648.1149,259002.4389034,74
1658939648.1149,259002.4389093,81
1658939648.1149,259002.4389163,91
1658939648.1149,259002.4389225,86
1658939648.1149,259002.4389286,76
1658939648.1149,259002.4389347,86
1658939648.1149,259002.4389411,88
1658939648.1149,259002.4389477,86
1658939648.1149,259002.4389538,105
1658939648.1149,259002.438957,115
1658939648.1149,259002.4389607,100
1658939648.1149,259002.4389636,100
1658939648.1149,259002.4389668,103
1658939648.1149,259002.4389703,110
1658939648.1149,259002.4389737,131
1658939648.1149,259002.4389772,150
1658939648.1149,259002.4389819,153
1658939648.1149,259002.4389865,143
1658939648.1149,259002.4389908,127
1658939648.1149,259002.4389975,112
1658939648.1149,259002.4390014,110
1658939648.1149,259002.4390084,110
1658939648.1149,259002.4390139,100
1658939648.1149,259002.4390213,95
1658939648.1149,259002.439029,98
1658939648.1149,259002.4390383,105
1658939648.1149,259002.4390442,112
1658939648.1149,259002.4390487,110
1658939648.1149,259002.4390536,98
1658939648.1149,259002.4390577,124
1658939648.1149,259002.4390618,301
1658939648.1149,259002.4390684,623
1658939648.1149,259002.4390728,853
1658939648.1149,259002.4390774,716
1658939648.1149,259002.9745935,194
1658939648.1149,259002.974615,-196
1658939648.1149,259002.9746597,-67
1658939648.1149,259002.9746696,136
1658939648.1149,259002.9746737,86
1658939648.1149,259002.9747039,45
1658939648.1149,259002.9747141,71
1658939648.1149,259002.9747206,45
1658939648.1149,259002.9747341,19
1658939648.1149,259002.9747396,33
1658939648.1149,259002.9747437,47
1658939648.1149,259002.9747473,33
1658939648.1149,259002.9747508,26
1658939648.1149,259002.9747543,69
1658939648.13073,259002.9747634,115
1658939648.13073,259002.9747692,71
1658939648.13073,259002.974774,19
1658939648.13073,259002.9747776,64
1658939648.13073,259002.9747834,124
1658939648.13073,259002.9747871,117
1658939648.13073,259002.9747909,91
1658939648.13073,259002.9747964,81
1658939648.13073,259002.9748001,95
1658939648.13073,259002.9748034,115
1658939648.13073,259002.9748072,95
1658939648.13073,259002.9748109,93
1658939648.13073,259002.9748148,143
1658939648.13073,259002.9748186,158
1658939648.13073,259002.9748224,127
1658939648.13073,259002.9748263,105
1658939648.13073,259002.9748301,88
1658939648.13073,259002.9748341,76
1658939648.13073,259002.9748397,98
1658939648.13073,259002.9748432,122
1658939648.13073,259002.9748533,74
1658939648.13073,259002.9748576,2
1658939648.13073,259002.9748661,2
1658939648.13073,259002.9748715,59
1658939648.70417,259002.9748753,81
1658939648.70417,259002.9748791,33
1658939648.70417,259002.9748839,16
1658939648.70417,259002.974888,38
1658939648.70417,259002.974892,26
1658939648.70417,259002.9748957,0
1658939648.70417,259002.9748992,-9
1658939648.70417,259002.9749031,31
1658939648.70417,259002.9749068,76
1658939648.70417,259002.9749106,69
1658939648.70417,259002.9749145,62
1658939648.70417,259002.9749181,71
1658939648.70417,259002.974922,59
1658939648.70417,259002.9749256,55
1658939648.70417,259002.9749296,62
1658939648.70417,259002.9749332,62
1658939648.70417,259002.9749367,69
1658939648.70417,259002.9749403,83
1658939648.70417,259002.9749439,100
1658939648.70417,259002.9749476,98
1658939648.70417,259002.9749512,83
1658939648.70417,259002.9749551,100
1658939648.70417,259002.9749591,100
1658939648.70417,259002.974963,76
1658939648.70417,259002.9749671,81
1658939648.70417,259002.9749709,107
1658939648.70417,259002.9749749,127
1658939648.70417,259002.9749786,124
1658939648.70417,259002.9749824,98
1658939648.70417,259002.9749865,93
1658939648.70417,259002.9749904,107
1658939648.70417,259002.9749937,107
1658939648.70417,259002.9749972,98
1658939648.70417,259002.9750006,103
1658939648.70417,259002.9750041,112
1658939648.70417,259003.5597608,105
1658939648.70417,259003.5597736,98
1658939648.70417,259003.5597766,124
1658939648.70417,259003.5597796,143
1658939648.70417,259003.5597824,134
1658939648.70417,259003.5597853,141
1658939648.70417,259003.559788,146
1658939648.70417,259003.5597908,119
1658939648.70417,259003.5597935,93
1658939648.70417,259003.559797,95
1658939648.70417,259003.5598032,110
1658939648.70417,259003.5598117,88
1658939648.70417,259003.5598179,55
1658939648.70417,259003.5598269,67
1658939648.70417,259003.5598331,95
1658939648.72012,259003.5598416,79
1658939648.72012,259003.5598484,38
1658939648.72012,259003.5598762,98
1658939648.72012,259003.5598881,342
1658939648.72012,259003.5598969,666
1658939648.72012,259003.5599051,812
1658939648.72012,259003.5599374,536
1658939648.72012,259003.5599507,-50
1658939648.72012,259003.5599606,-287
1658939648.72012,259003.5599703,-52
1658939648.72012,259003.5599801,33
1658939648.72012,259003.5599871,-69
1658939648.72012,259003.559995,-40
1658939648.72012,259003.5599999,-4
1658939648.72012,259003.5600047,-38
1658939648.72012,259003.5600091,-23
1658939648.72012,259003.5600139,11
1658939648.72012,259003.5600187,7
1658939648.72012,259003.5600256,-4
1658939648.72012,259003.5600306,11
1658939648.72012,259003.5600376,23
1658939648.72012,259003.5600419,16
1658939648.72012,259003.5600482,16
1658939648.72012,259003.560053,26
1658939649.24232,259003.5600594,43
1658939649.24232,259003.5601096,55
1658939649.24232,259003.5601169,57
1658939649.24232,259003.5601215,67
1658939649.24232,259003.5601255,81
1658939649.24232,259003.5601293,98
1658939649.24232,259003.5601334,117
1658939649.24232,259003.5601373,136
1658939649.24232,259003.5601412,146
1658939649.24232,259003.560145,153
1658939649.24232,259003.5601488,153
1658939649.24232,259003.5601528,141
1658939649.24232,259003.5601567,131
1658939649.24232,259003.5601605,131
1658939649.24232,259003.5601641,129
1658939649.24232,259003.560168,119
1658939649.24232,259003.5601718,95
1658939649.24232,259003.5601757,62
1658939649.24232,259003.5601795,47
1658939649.24232,259003.5601834,33
1658939649.24232,259003.5601871,21
1658939649.24232,259003.5601909,19
1658939649.24232,259003.5601949,4
1658939649.24232,259003.5601989,-2
1658939649.24232,259003.5602026,14
1658939649.24232,259003.5602065,14
1658939649.24232,259003.5602104,2
1658939649.24232,259003.5602145,16
1658939649.24232,259003.5602213,28
1658939649.24232,259003.5602252,16
1658939649.24232,259003.5602291,11
1658939649.24232,259003.5602329,26
1658939649.24232,259003.5602367,38
1658939649.24232,259003.5602405,33
1658939649.24232,259004.0982249,35
1658939649.24232,259004.0982439,50
1658939649.24232,259004.098334,57
1658939649.24232,259004.0983478,52
1658939649.24232,259004.0983561,52
1658939649.24232,259004.0983614,57
1658939649.24232,259004.0983683,64
1658939649.24232,259004.0983738,76
1658939649.24232,259004.0983805,59
1658939649.24232,259004.0983857,40
1658939649.24232,259004.0983926,62
1658939649.24232,259004.0983975,83
1658939649.24232,259004.0984025,79
1658939649.24232,259004.0984075,74
1658939649.24232,259004.098414,57
1658939649.24232,259004.098419,31
1658939649.25529,259004.0984256,33
1658939649.25529,259004.0984305,59
1658939649.25529,259004.098437,79
1658939649.25529,259004.0984418,64
1658939649.25529,259004.0984482,38
1658939649.25529,259004.098453,38
1658939649.25529,259004.0984595,59
1658939649.25529,259004.0984649,67
1658939649.25529,259004.0984699,69
1658939649.25529,259004.0984747,88
1658939649.25529,259004.0984794,98
1658939649.25529,259004.0984857,74
1658939649.25529,259004.0984923,52
1658939649.25529,259004.0984971,45
1658939649.25529,259004.0985038,50
1658939649.25529,259004.0985088,47
1658939649.25529,259004.0985185,31
1658939649.25529,259004.0985292,28
1658939649.25529,259004.0985365,47
1658939649.25529,259004.0985408,67
1658939649.25529,259004.0985447,64
1658939649.25529,259004.0985489,43
1658939649.25529,259004.0985549,35
1658939649.25529,259004.0985592,131
1658939649.77721,259004.0985658,385
1658939649.77721,259004.0985701,673
1658939649.77721,259004.0985745,783
1658939649.77721,259004.0985789,515
1658939649.77721,259004.0985834,-2
1658939649.77721,259004.0985879,-198
1658939649.77721,259004.0986179,9
1658939649.77721,259004.0986221,81
1658939649.77721,259004.098641,-14
1658939649.77721,259004.098651,2
1658939649.77721,259004.0986562,45
1658939649.77721,259004.0986596,9
1658939649.77721,259004.0986627,4
1658939649.77721,259004.0986659,35
1658939649.77721,259004.0986692,40
1658939649.77721,259004.0986724,35
1658939649.77721,259004.0986756,40
1658939649.77721,259004.0986788,38
1658939649.77721,259004.0986826,33
1658939649.77721,259004.0986861,26
1658939649.77721,259004.0986897,16
1658939649.77721,259004.0986929,16
1658939649.77721,259004.0986961,35
1658939649.77721,259004.0986992,40
1658939649.77721,259004.098703,43
1658939649.77721,259004.0987068,59
1658939649.77721,259004.0987101,83
1658939649.77721,259004.0987135,91
1658939649.77721,259004.098717,93
1658939649.77721,259004.0987202,105
1658939649.77721,259004.0987235,117
1658939649.77721,259004.0987271,119
1658939649.77721,259004.0987308,119
1658939649.77721,259004.632583,124
1658939649.77721,259004.6326017,119
1658939649.77721,259004.6326082,103
1658939649.77721,259004.6326175,88
1658939649.77721,259004.6326251,76
1658939649.77721,259004.6326332,50
1658939649.77721,259004.63264,23

1658939649.77721,259004.6326713,19
1658939649.77721,259004.6327003,23
1658939649.77721,259004.632711,11
1658939649.77721,259004.6327178,2
1658939649.77721,259004.6327218,4
1658939649.77721,259004.6327373,0
1658939649.77721,259004.6327443,0
1658939649.77721,259004.6327487,4
1658939649.77721,259004.6327543,11
1658939649.77721,259004.6327595,9
1658939649.78907,259004.6327721,2
1658939649.78907,259004.6327803,4
1658939649.78907,259004.6327846,16
1658939649.78907,259004.6327903,26
1658939649.78907,259004.6327942,16
1658939649.78907,259004.6327996,7
1658939649.78907,259004.6328039,11
1658939649.78907,259004.632808,19
1658939649.78907,259004.6328136,4
1658939649.78907,259004.6328177,-7
1658939649.78907,259004.6328229,11
1658939649.78907,259004.6328286,55
1658939649.78907,259004.6328326,76
1658939649.78907,259004.6328383,55
1658939649.78907,259004.6328429,40
1658939649.78907,259004.6328469,45
1658939649.78907,259004.6328511,50
1658939649.78907,259004.6328568,59
1658939649.78907,259004.6328617,74
1658939649.78907,259004.6328655,69
1658939649.78907,259004.6328708,57
1658939649.78907,259004.6328737,62
1658939649.78907,259004.6328768,76
1658939649.78907,259004.6328804,83
1658939650.35738,259004.6328853,76
1658939650.35738,259004.6328886,83
1658939650.35738,259004.6328917,98
1658939650.35738,259004.6328948,112
1658939650.35738,259004.6328979,124
1658939650.35738,259004.6329013,122
1658939650.35738,259004.6329048,100
1658939650.35738,259004.6329083,74
1658939650.35738,259004.6329115,57
1658939650.35738,259004.6329145,64
1658939650.35738,259004.6329178,81
1658939650.35738,259004.632921,74
1658939650.35738,259004.6329244,74
1658939650.35738,259004.6329275,93
1658939650.35738,259004.6329422,88
1658939650.35738,259004.6329519,79
1658939650.35738,259004.6329574,62
1658939650.35738,259004.6329633,79
1658939650.35738,259004.6329727,278
1658939650.35738,259004.632981,625
1658939650.35738,259004.6329931,862
1658939650.35738,259004.6329985,745
1658939650.35738,259004.6330402,249
1658939650.35738,259004.633047,-136
1658939650.35738,259004.6330517,-50
1658939650.35738,259004.6330562,83
1658939650.35738,259004.6330622,4
1658939650.35738,259004.6330677,-11
1658939650.35738,259004.6330729,52
1658939650.35738,259004.6330773,28
1658939650.35738,259004.6330806,0
1658939650.35738,259004.6330836,28
1658939650.35738,259005.2187115,38
1658939650.35738,259005.2187419,38
1658939650.35738,259005.2187529,62
1658939650.35738,259005.2187693,69
1658939650.35738,259005.2187758,69
1658939650.35738,259005.2187788,93
1658939650.35738,259005.2187818,105
1658939650.35738,259005.2187847,79
1658939650.35738,259005.2187875,55
1658939650.35738,259005.2187903,74
1658939650.35738,259005.2187933,117
1658939650.35738,259005.2187961,124
1658939650.35738,259005.2187989,93
1658939650.35738,259005.2188018,74
1658939650.35738,259005.2188048,93
1658939650.35738,259005.2188076,127
1658939650.35738,259005.2188104,127
1658939650.35738,259005.2188132,107
1658939650.37434,259005.2188161,119
1658939650.37434,259005.2188189,131
1658939650.37434,259005.2188219,103
1658939650.37434,259005.2188247,86
1658939650.37434,259005.2188275,83
1658939650.37434,259005.2188303,64
1658939650.37434,259005.2188332,40
1658939650.37434,259005.2188361,45
1658939650.37434,259005.2188389,52
1658939650.37434,259005.2188418,11
1658939650.37434,259005.2188448,-31
1658939650.37434,259005.2188478,-19
1658939650.37434,259005.2188507,-11
1658939650.37434,259005.2188535,-11
1658939650.37434,259005.2188564,9
1658939650.37434,259005.2188592,-14
1658939650.37434,259005.2188619,-47
1658939650.37434,259005.2188648,0
1658939650.37434,259005.2188706,45
1658939650.37434,259005.2188735,28
1658939650.37434,259005.2188764,11
1658939650.37434,259005.2188794,16
1658939650.37434,259005.2188823,31
1658939650.37434,259005.2188851,45
1658939650.89858,259005.2188888,45
1658939650.89858,259005.2188954,33
1658939650.89858,259005.2188986,26
1658939650.89858,259005.2189052,26
1658939650.89858,259005.2189165,47
1658939650.89858,259005.2189253,74
1658939650.89858,259005.2189298,74
1658939650.89858,259005.218937,59
1658939650.89858,259005.2189497,55
1658939650.89858,259005.2189576,52
1658939650.89858,259005.2189705,43
1658939650.89858,259005.2189822,47
1658939650.89858,259005.2189873,69
1658939650.89858,259005.2189917,67
1658939650.89858,259005.2189979,50
1658939650.89858,259005.2190021,71
1658939650.89858,259005.2190077,103
1658939650.89858,259005.2190115,67
1658939650.89858,259005.219017,26
1658939650.89858,259005.2190225,55
1658939650.89858,259005.2190279,86
1658939650.89858,259005.2190315,86
1658939650.89858,259005.2190354,88
1658939650.89858,259005.2190408,76
1658939650.89858,259005.2190447,59
1658939650.89858,259005.2190502,71
1658939650.89858,259005.2190555,83
1658939650.89858,259005.2190593,69
1658939650.89858,259005.2190648,57
1658939650.89858,259005.2190702,55
1658939650.89858,259005.2190759,64
1658939650.89858,259005.7535125,79
1658939650.89858,259005.7535342,81
1658939650.89858,259005.7535466,67
1658939650.89858,259005.7535587,55
1658939650.89858,259005.7535709,131
1658939650.89858,259005.7535778,373
1658939650.89858,259005.7535827,661
1658939650.89858,259005.7535893,793
1658939650.89858,259005.7535969,551
1658939650.89858,259005.7536031,19
1658939650.89858,259005.7536079,-201
1658939650.89858,259005.7536677,-11
1658939650.89858,259005.7536795,33
1658939650.89858,259005.7536864,-69
1658939650.89858,259005.7536909,-21
1658939650.89858,259005.7536993,33
1658939650.89858,259005.753708,-2
1658939650.89858,259005.7537125,-9
1658939650.89858,259005.7537211,19
1658939650.9079,259005.7537275,19
1658939650.9079,259005.7537349,19
1658939650.9079,259005.7537413,28
1658939650.9079,259005.7537462,33
1658939650.9079,259005.7537546,28
1658939650.9079,259005.7537629,14
1658939650.9079,259005.7537692,16
1658939650.9079,259005.753776,45
1658939650.9079,259005.7537804,74
1658939650.9079,259005.7537852,79
1658939650.9079,259005.7537885,79
1658939650.9079,259005.7537917,95
1658939650.9079,259005.7537965,115
1658939650.9079,259005.7538014,127
1658939650.9079,259005.7538062,136
1658939650.9079,259005.7538101,146
1658939650.9079,259005.7538157,146
1658939650.9079,259005.7538199,127
1658939650.9079,259005.753824,117
1658939650.9079,259005.7538284,129
1658939650.9079,259005.7538317,153
1658939650.9079,259005.7538384,143
1658939650.9079,259005.753845,103
1658939650.9079,259005.7538493,79
1658939651.43369,259005.7538541,62
1658939651.43369,259005.7538575,38
1658939651.43369,259005.7538619,28
1658939651.43369,259005.7538666,14
1658939651.43369,259005.7538777,-4
1658939651.43369,259005.7538853,2
1658939651.43369,259005.7538896,7
1658939651.43369,259005.7538943,-7
1658939651.43369,259005.7538994,-11
1658939651.43369,259005.7539068,2
1658939651.43369,259005.7539156,21
1658939651.43369,259005.7539273,26
1658939651.43369,259005.7539955,7
1658939651.43369,259005.7540054,0
1658939651.43369,259005.7540114,7
1658939651.43369,259005.7540203,14
1658939651.43369,259005.7540266,40
1658939651.43369,259005.7540348,57
1658939651.43369,259005.7540411,55
1658939651.43369,259005.7540493,59
1658939651.43369,259005.7540554,69
1658939651.43369,259005.7540636,67
1658939651.43369,259005.7540695,62
1658939651.43369,259005.7540775,52
1658939651.43369,259005.7540849,52
1658939651.43369,259005.7540931,83
1658939651.43369,259005.7540992,107
1658939651.43369,259005.7541075,81
1658939651.43369,259005.7541133,59
1658939651.43369,259005.7541214,69
1658939651.43369,259006.2898572,71
1658939651.43369,259006.2898746,91
1658939651.43369,259006.289882,107
1658939651.43369,259006.2898861,91
1658939651.43369,259006.2898915,83
1658939651.43369,259006.2898951,76
1658939651.43369,259006.2899002,86
1658939651.43369,259006.289904,167
1658939651.43369,259006.2899095,165
1658939651.43369,259006.2899133,35
1658939651.43369,259006.2899188,7
1658939651.43369,259006.2899229,93
1658939651.43369,259006.2899291,115
1658939651.43369,259006.2899329,62
1658939651.43369,259006.2899423,43
1658939651.43369,259006.2899478,59
1658939651.43369,259006.2899517,57
1658939651.43369,259006.2899571,107
1658939651.43369,259006.2899611,119
1658939651.43369,259006.2899666,-11
1658939651.44466,259006.2899703,-26
1658939651.44466,259006.289974,98
1658939651.44466,259006.2899794,141
1658939651.44466,259006.289983,201
1658939651.44466,259006.2899887,440
1658939651.44466,259006.2899925,759
1658939651.44466,259006.2899979,893
1658939651.44466,259006.2900019,556
1658939651.44466,259006.2900076,-71
1658939651.44466,259006.2900115,-227
1658939651.44466,259006.2900171,69
1658939651.44466,259006.2900223,98
1658939651.44466,259006.2900259,-62
1658939651.44466,259006.2900311,9
1658939651.44466,259006.290035,119
1658939651.44466,259006.2900402,50
1658939651.44466,259006.2900437,-28
1658939651.44466,259006.2900727,19
1658939651.44466,259006.290081,83
1658939651.44466,259006.2900852,79
1658939651.44466,259006.2900908,67
1658939651.44466,259006.2900944,79
1658939651.44466,259006.2900996,105
1658939651.44466,259006.2901033,139
1658939652.11194,259006.2901087,153
1658939652.11194,259006.2901123,150
1658939652.11194,259006.2901158,115
1658939652.11194,259006.2901195,115
1658939652.11194,259006.290123,170
1658939652.11194,259006.2901266,174
1658939652.11194,259006.2901311,165
1658939652.11194,259006.2901346,201
1658939652.11194,259006.2901383,210
1658939652.11194,259006.2901418,189
1658939652.11194,259006.2901454,222
1658939652.11194,259006.29015,299
1658939652.11194,259006.2901536,297
1658939652.11194,259006.2901579,232
1658939652.11194,259006.2901616,213
1658939652.11194,259006.290165,225
1658939652.11194,259006.2901686,215
1658939652.11194,259006.2901722,179
1658939652.11194,259006.2901759,153
1658939652.11194,259006.2901795,136
1658939652.11194,259006.2901829,105
1658939652.11194,259006.2901864,71
1658939652.11194,259006.2901899,52
1658939652.11194,259006.2901935,52
1658939652.11194,259006.2901969,57
1658939652.11194,259006.2902005,69
1658939652.11194,259006.2902039,62
1658939652.11194,259006.2902074,52
1658939652.11194,259006.2902109,69
1658939652.11194,259006.974119,52
1658939652.11194,259006.9741408,31
1658939652.11194,259006.9741468,86
1658939652.11194,259006.9741516,115
1658939652.11194,259006.9741561,55
1658939652.11194,259006.9741604,19
1658939652.11194,259006.9741646,38
1658939652.11194,259006.9741689,59
1658939652.11194,259006.974174,91
1658939652.11194,259006.9741783,107
1658939652.11194,259006.9741827,79
1658939652.11194,259006.974187,35
1658939652.11194,259006.9741914,14
1658939652.11194,259006.9741958,23
1658939652.11194,259006.9742003,43
1658939652.11194,259006.9742046,50
1658939652.11194,259006.974209,38
1658939652.11194,259006.9742132,2
1658939652.11194,259006.9742174,-9
1658939652.11194,259006.9742218,38
1658939652.11194,259006.9742261,62
1658939652.12192,259006.9742302,23
1658939652.12192,259006.9742345,19
1658939652.12192,259006.9742386,38
1658939652.12192,259006.9742429,21
1658939652.12192,259006.9742471,31
1658939652.12192,259006.9742513,71
1658939652.12192,259006.9742554,52
1658939652.12192,259006.9742594,14
1658939652.12192,259006.9742636,47
1658939652.12192,259006.9742679,86
1658939652.12192,259006.9742721,67
1658939652.12192,259006.9742763,47
1658939652.12192,259006.9742804,40
1658939652.12192,259006.9742846,38
1658939652.12192,259006.9742888,50
1658939652.12192,259006.9742926,52
1658939652.12192,259006.9742962,35
1658939652.12192,259006.9743002,31
1658939652.12192,259006.974304,43
1658939652.12192,259006.9743088,86
1658939652.12192,259006.9743129,258
1658939652.12192,259006.9743174,560
1658939652.12192,259006.9743215,783
1658939652.12192,259006.9743256,690
1658939652.70758,259006.9743297,237
1658939652.70758,259006.9743338,-158
1658939652.70758,259006.9743378,-88
1658939652.70758,259006.9744442,76
1658939652.70758,259006.9744562,14
1658939652.70758,259006.9744634,-19
1658939652.70758,259006.9744685,26
1658939652.70758,259006.9744744,11
1658939652.70758,259006.9744796,9
1658939652.70758,259006.9744854,47
1658939652.70758,259006.9744895,59
1658939652.70758,259006.9744958,45
1658939652.70758,259006.9745001,35
1658939652.70758,259006.9745059,47
1658939652.70758,259006.9745108,67
1658939652.70758,259006.9745167,83
1658939652.70758,259006.974522,98
1658939652.70758,259006.9745278,91
1658939652.70758,259006.9745323,93
1658939652.70758,259006.974545,110
1658939652.70758,259006.9745507,112
1658939652.70758,259006.9745558,105
1658939652.70758,259006.9745614,117
1658939652.70758,259006.9745667,141
1658939652.70758,259006.9745727,153
1658939652.70758,259006.9745768,162
1658939652.70758,259006.9745842,170
1658939652.70758,259006.9745915,158
1658939652.70758,259007.5569015,134
1658939652.70758,259007.5569229,134
1658939652.70758,259007.5569396,158
1658939652.70758,259007.5569544,155
1658939652.70758,259007.5569636,124
1658939652.70758,259007.5569662,95
1658939652.70758,259007.5569684,107
1658939652.70758,259007.5569708,129
1658939652.70758,259007.5569773,91
1658939652.70758,259007.5569865,33
1658939652.70758,259007.5569917,28
1658939652.70758,259007.5570007,28
1658939652.70758,259007.5570085,0
1658939652.70758,259007.557017,-16
1658939652.70758,259007.5570258,-19
1658939652.70758,259007.5570301,-23
1658939652.70758,259007.5570365,4
1658939652.70758,259007.5570418,33
1658939652.70758,259007.5570448,33
1658939652.70758,259007.5570478,31
1658939652.70758,259007.5570506,14
1658939652.70758,259007.5570536,-16
1658939652.72254,259007.5570565,-7
1658939652.72254,259007.5570595,43
1658939652.72254,259007.5570624,40
1658939652.72254,259007.5570651,-16
1658939652.72254,259007.557068,-14
1658939652.72254,259007.5570708,45
1658939652.72254,259007.5570736,33
1658939652.72254,259007.5570764,-16
1658939652.72254,259007.5570793,14
1658939652.72254,259007.5570822,45
1658939652.72254,259007.5570852,9
1658939652.72254,259007.557088,-7
1658939652.72254,259007.5570908,-9
1658939652.72254,259007.5570938,-23
1658939652.72254,259007.5570966,-14
1658939652.72254,259007.5570994,-21
1658939652.72254,259007.5571022,-35
1658939652.72254,259007.557105,4
1658939652.72254,259007.5571079,26
1658939652.72254,259007.5571108,-7
1658939652.72254,259007.5571137,21
1658939652.72254,259007.5571166,83
1658939652.72254,259007.5571195,52
1658939652.72254,259007.5571223,-19
1658939653.18559,259007.5571261,0
1658939653.18559,259007.5571331,64
1658939653.18559,259007.5571399,52
1658939653.18559,259007.5571467,50
1658939653.18559,259007.5571514,93
1658939653.18559,259007.55716,62
1658939653.18559,259007.5571654,16
1658939653.18559,259007.5571695,35
1658939653.18559,259007.5571737,31
1658939653.18559,259007.5571792,2
1658939653.18559,259007.5571884,50
1658939653.18559,259007.5571949,177
1658939653.18559,259007.5572017,397
1658939653.18559,259007.5572099,699
1658939653.18559,259007.5572141,834
1658939653.18559,259007.557218,534
1658939653.18559,259007.557223,11
1658939653.18559,259007.5572271,-155
1658939653.18559,259007.5572313,31
1658939653.18559,259007.5572356,83
1658939653.18559,259007.5572416,2
1658939653.18559,259007.5572458,16
1658939653.18559,259007.5572519,45
1658939653.18559,259007.5572563,35
1658939653.18559,259007.5572611,40
1658939653.18559,259007.5572672,43
1658939653.18559,259007.5572717,38
1658939653.18559,259008.0457015,55
