Time,TimeLsl,Value
1658941513.25319,260866.2497904,115
1658941513.25319,260866.2498144,131
1658941513.25319,260866.2498241,148
1658941513.25319,260866.2498314,155
1658941513.25319,260866.2498384,150
1658941513.25319,260866.2498459,139
1658941513.25319,260866.2498533,141
1658941513.25319,260866.2498601,160
1658941513.25319,260866.2498704,177
1658941513.25319,260866.2498792,179
1658941513.25319,260866.2498868,182
1658941513.25319,260866.2498942,177
1658941513.25319,260866.2498997,172
1658941513.25319,260866.2499038,177
1658941513.25319,260866.2499072,170
1658941513.25319,260866.2499105,143
1658941513.25319,260866.2499181,129
1658941513.25319,260866.2499228,112
1658941513.25319,260866.2499289,81
1658941513.25319,260866.2499338,71
1658941513.25319,260866.2499397,71
1658941513.25319,260866.249944,52
1658941513.25319,260866.2499521,40
1658941513.25319,260866.2499596,47
1658941513.25319,260866.2499674,47
1658941513.25319,260866.2499778,50
1658941513.25319,260866.2499897,57
1658941513.25319,260866.2499966,52
1658941513.25319,260866.2500026,52
1658941513.25319,260866.2500128,55
1658941513.25319,260866.250018,52
1658941513.25319,260866.2500246,55
1658941513.25319,260866.2500886,62
1658941513.25319,260866.2501033,67
1658941513.25319,260866.2501122,71
1658941513.25319,260866.250119,74
1658941513.25319,260866.2501253,69
1658941513.25319,260866.2501299,69
1658941513.25319,260866.2501348,74
1658941513.25319,260866.2501382,76
1658941513.25319,260866.2501432,76
1658941513.25319,260866.2501465,74
1658941513.25319,260866.2501515,71
1658941513.25319,260866.250155,76
1658941513.25319,260866.2501602,83
1658941513.25319,260866.250164,67
1658941513.25319,260866.2501695,55
1658941513.25319,260866.2501735,67
1658941513.25319,260866.2501789,76
1658941513.25319,260866.2501829,71
1658941513.37589,260866.2501883,59
1658941513.37589,260866.250192,57
1658941513.37589,260866.2501972,74
1658941513.37589,260866.2502009,93
1658941513.37589,260866.2502079,115
1658941513.37589,260866.2502132,129
1658941513.37589,260866.2502166,115
1658941513.37589,260866.2502221,88
1658941513.37589,260866.2502257,79
1658941513.37589,260866.2502307,79
1658941513.37589,260866.2502344,71
1658941513.37589,260866.2502381,52
1658941513.37589,260866.2502432,55
1658941513.37589,260866.2502467,81
1658941513.37589,260866.2502516,86
1658941513.37589,260866.2502551,74
1658941513.37589,260866.2502589,69
1658941513.37589,260866.2502657,64
1658941513.37589,260866.2502689,139
1658941513.37589,260866.2502734,388
1658941513.37589,260866.2502765,711
1658941513.37589,260866.2502795,872
1658941513.37589,260866.2502824,594
1658941513.37589,260866.7852268,21
1658941513.37589,260866.7852472,-162
1658941513.37589,260866.7852537,83
1658941513.37589,260866.7852613,134
1658941513.37589,260866.7852685,21
1658941513.37589,260866.7852746,57
1658941513.37589,260866.7852787,103
1658941513.37589,260866.785282,74
1658941513.37589,260866.7852858,76
1658941513.37589,260866.7852892,98
1658941513.37589,260866.7852941,95
1658941513.37589,260866.7852992,100
1658941513.37589,260866.7853035,119
1658941513.37589,260866.7853102,117
1658941513.37589,260866.7853172,103
1658941513.37589,260866.7853235,105
1658941513.37589,260866.7853272,124
1658941513.37589,260866.7853306,131
1658941513.37589,260866.7853372,134
1658941513.37589,260866.7853405,131
1658941513.37589,260866.7853462,119
1658941513.37589,260866.7853494,107
1658941513.37589,260866.7853572,122
1658941513.37589,260866.7853615,150
1658941513.37589,260866.7853684,167
1658941513.37589,260866.7853751,167
1658941513.37589,260866.7853821,160
1658941513.42327,260866.7853903,150
1658941513.42327,260866.7853968,143
1658941513.42327,260866.7854044,139
1658941513.42327,260866.7854341,134
1658941513.42327,260866.7854437,131
1658941513.42327,260866.7854488,124
1658941513.42327,260866.785455,110
1658941513.42327,260866.7854595,93
1658941513.42327,260866.7854658,79
1658941513.42327,260866.7854713,69
1658941513.42327,260866.7854767,59
1658941513.42327,260866.7854819,55
1658941513.42327,260866.7854872,52
1658941513.42327,260866.7854906,52
1658941513.42327,260866.7854942,59
1658941513.42327,260866.7855,71
1658941513.42327,260866.7855053,69
1658941513.42327,260866.7855088,59
1658941513.42327,260866.7855123,62
1658941513.42327,260866.7855177,74
1658941513.42327,260866.7855223,81
1658941513.42327,260866.7855279,79
1658941513.42327,260866.7855316,83
1658941513.42327,260866.785537,93
1658941513.42327,260866.7855409,93
1658941513.42327,260866.7855454,88
1658941513.42327,260866.7855521,93
1658941513.42327,260866.7855562,95
1658941513.42327,260866.7855622,91
1658941513.42327,260866.7855656,88
1658941513.42327,260866.7855691,93
1658941513.42327,260866.7855726,95
1658941513.42327,260866.785576,91
1658941513.42327,260866.7855816,74
1658941513.42327,260866.7855854,67
1658941513.42327,260866.7855891,74
1658941513.42327,260866.7855944,83
1658941513.42327,260866.7855995,79
1658941513.42327,260866.7856053,71
1658941513.42327,260866.7856092,81
1658941513.42327,260866.785616,86
1658941513.42327,260866.7856196,74
1658941513.42327,260866.7856249,71
1658941513.42327,260866.7856284,86
1658941513.42327,260866.7856323,103
1658941513.42327,260866.7856382,117
1658941513.42327,260867.2723818,129
1658941513.42327,260867.2724139,124
1658941513.42327,260867.2724332,107
1658941513.42327,260867.2724781,95
1658941513.44222,260867.2724958,88
1658941513.44222,260867.2725015,88
1658941513.44222,260867.2725103,88
1658941513.44222,260867.2725142,86
1658941513.44222,260867.272536,91
1658941513.44222,260867.2725499,100
1658941513.44222,260867.272557,95
1658941513.44222,260867.2725619,81
1658941513.44222,260867.2725678,79
1658941513.44222,260867.2725726,179
1658941513.44222,260867.2725803,448
1658941513.44222,260867.2725863,769
1658941513.44222,260867.2726129,872
1658941513.44222,260867.2726243,503
1658941513.44222,260867.2726322,-71
1658941513.44222,260867.272661,-167
1658941513.44222,260867.2726705,91
1658941513.44222,260867.2726774,88
1658941513.44222,260867.2726824,-23
1658941513.44222,260867.2726902,16
1658941513.44222,260867.2726951,35
1658941513.44222,260867.2727016,0
1658941513.44222,260867.2727064,19
1658941513.44222,260867.2727127,45
1658941513.44222,260867.2727176,47
1658941513.44222,260867.2727243,55
1658941513.44222,260867.2727292,67
1658941513.44222,260867.2727534,74
1658941513.44222,260867.2727726,83
1658941513.44222,260867.272785,100
1658941513.44222,260867.2727914,112
1658941513.44222,260867.2727975,119
1658941513.44222,260867.2728035,127
1658941513.44222,260867.2728087,134
1658941513.44222,260867.2728162,148
1658941513.44222,260867.272823,165
1658941513.44222,260867.2728298,174
1658941513.44222,260867.2728407,184
1658941513.44222,260867.2730524,184
1658941513.44222,260867.2730592,179
1658941513.44222,260867.2730637,182
1658941513.44222,260867.2730922,186
1658941513.44222,260867.2731018,184
1658941513.44222,260867.2731094,182
1658941513.44222,260867.2731151,174
1658941513.44222,260867.2731197,165
1658941513.44222,260867.2731276,153
1658941513.44222,260867.273135,143
1658941513.44222,260867.2731398,134
1658941513.44222,260867.2731495,122
1658941513.45519,260867.2731569,112
1658941513.45519,260867.273164,98
1658941513.45519,260867.2731724,88
1658941513.45519,260867.2731792,86
1658941513.45519,260867.2731842,83
1658941513.45519,260867.2731887,81
1658941513.45519,260867.2731947,86
1658941513.45519,260867.2731997,86
1658941513.45519,260867.2732075,86
1658941513.45519,260867.273215,95
1658941513.45519,260867.2732236,105
1658941513.45519,260867.2732284,110
1658941513.45519,260867.2732412,112
1658941513.45519,260867.2732509,115
1658941513.45519,260867.2732643,115
1658941513.45519,260867.2732756,117
1658941513.45519,260867.2732905,124
1658941513.45519,260867.2732983,127
1658941513.45519,260867.2733033,122
1658941513.45519,260867.9057259,117
1658941513.45519,260867.9057463,110
1658941513.45519,260867.9057571,100
1658941513.73536,260867.9057664,93
1658941513.73536,260867.9057736,88
1658941513.73536,260867.9057803,91
1658941513.73536,260867.9057849,83
1658941513.73536,260867.90579,69
1658941513.73536,260867.9057959,55
1658941513.73536,260867.9058031,55
1658941513.73536,260867.9058085,55
1658941513.73536,260867.9058128,47
1658941513.73536,260867.9058168,40
1658941513.73536,260867.9058217,33
1658941513.73536,260867.9058298,14
1658941513.73536,260867.905837,7
1658941513.73536,260867.9058422,21
1658941513.73536,260867.9058479,43
1658941513.73536,260867.9058538,57
1658941513.73536,260867.9058644,71
1658941513.73536,260867.9058718,76
1658941513.73536,260867.9058789,64
1658941513.73536,260867.9058858,52
1658941513.73536,260867.9058929,47
1658941513.73536,260867.9058999,45
1658941513.73536,260867.9059067,47
1658941513.73536,260867.9059141,50
1658941513.73536,260867.9059207,52
1658941513.73536,260867.9059278,55
1658941513.73536,260867.9059366,59
1658941513.73536,260867.9059462,64
1658941513.73536,260867.9059568,62
1658941513.73536,260867.9059634,100
1658941513.73536,260867.9059678,280
1658941513.73536,260867.9059738,579
1658941513.73536,260867.9059779,831
1658941513.73536,260867.9059838,766
1658941513.73536,260867.9059897,256
1658941513.73536,260867.9059976,-177
1658941513.73536,260867.9060057,-50
1658941513.73536,260867.9060109,143
1658941513.73536,260867.9060146,50
1658941513.73536,260867.9060198,9
1658941513.73536,260867.9060258,81
1658941513.73536,260867.9060296,79
1658941513.73536,260867.9060395,57
1658941513.73536,260867.9060523,81
1658941513.73536,260867.9060604,91
1658941513.73536,260867.9060694,88
1658941513.73536,260867.9060779,105
1658941513.73536,260867.9060852,122
1658941513.73536,260867.9060927,119
1658941513.73536,260867.9060989,124
1658941513.79021,260867.9061058,139
1658941513.79021,260867.9061165,150
1658941513.79021,260867.9061272,155
1658941513.79021,260867.9061342,170
1658941513.79021,260867.906141,182
1658941513.79021,260867.906148,189
1658941513.79021,260867.9061547,196
1658941513.79021,260867.9061614,206
1658941513.79021,260867.9061677,215
1658941513.79021,260867.9061744,220
1658941513.79021,260867.9061818,227
1658941513.79021,260867.9061886,230
1658941513.79021,260867.9061953,218
1658941513.79021,260867.9062023,203
1658941513.79021,260867.9062088,198
1658941513.79021,260867.9062154,196
1658941513.79021,260867.9062219,186
1658941513.79021,260867.9062285,172
1658941513.79021,260867.9062358,150
1658941513.79021,260867.9062428,122
1658941513.79021,260868.3944286,98
1658941513.79021,260868.3944535,91
1658941513.79021,260868.3944663,83
1658941513.79021,260868.3944783,74
1658941514.07644,260868.39449,69
1658941514.07644,260868.3944987,71
1658941514.07644,260868.3945057,67
1658941514.07644,260868.3945127,57
1658941514.07644,260868.3945221,62
1658941514.07644,260868.394534,74
1658941514.07644,260868.3945429,71
1658941514.07644,260868.3945512,64
1658941514.07644,260868.3945606,74
1658941514.07644,260868.3945691,88
1658941514.07644,260868.3945776,98
1658941514.07644,260868.3945893,95
1658941514.07644,260868.3945999,83
1658941514.07644,260868.3946115,67
1658941514.07644,260868.3946224,55
1658941514.07644,260868.3946345,59
1658941514.07644,260868.394646,67
1658941514.07644,260868.3946563,69
1658941514.07644,260868.3946661,64
1658941514.07644,260868.3946792,47
1658941514.07644,260868.3947017,23
1658941514.07644,260868.3947209,21
1658941514.07644,260868.3947326,31
1658941514.07644,260868.394743,35
1658941514.07644,260868.394751,35
1658941514.07644,260868.39476,35
1658941514.07644,260868.3947678,40
1658941514.07644,260868.3947792,47
1658941514.07644,260868.3947904,59
1658941514.07644,260868.3948007,62
1658941514.07644,260868.3948093,57
1658941514.07644,260868.3948326,67
1658941514.07644,260868.3948482,83
1658941514.07644,260868.3948651,103
1658941514.07644,260868.3948811,119
1658941514.07644,260868.3948956,107
1658941514.07644,260868.3949076,74
1658941514.07644,260868.3949262,59
1658941514.07644,260868.3949416,71
1658941514.07644,260868.394957,91
1658941514.07644,260868.3949727,100
1658941514.07644,260868.3949911,95
1658941514.07644,260868.3950075,86
1658941514.07644,260868.395026,95
1658941514.07644,260868.3950422,112
1658941514.07644,260868.3950579,105
1658941514.07644,260868.395075,146
1658941514.07644,260868.3951068,373
1658941514.07644,260868.3951223,714
1658941514.07644,260868.395138,934
1658941514.09039,260868.3951552,740
1658941514.09039,260868.395171,124
1658941514.09039,260868.3951871,-198
1658941514.09039,260868.3952022,47
1658941514.09039,260868.395219,170
1658941514.09039,260868.3952369,26
1658941514.09039,260868.3952537,38
1658941514.09039,260868.3952725,110
1658941514.09039,260868.3952867,74
1658941514.09039,260868.3953036,64
1658941514.09039,260868.3953227,98
1658941514.09039,260868.3953374,103
1658941514.09039,260868.3953546,103
1658941514.09039,260868.3953701,124
1658941514.09039,260868.3953819,136
1658941514.09039,260868.3954002,139
1658941514.09039,260868.3954162,155
1658941514.09039,260868.3954312,162
1658941514.09039,260868.3954434,148
1658941514.09039,260868.930601,148
1658941514.09039,260868.9306197,165
1658941514.09039,260868.9306292,172
1658941514.09039,260868.930637,179
1658941514.09039,260868.9306446,198
1658941514.70814,260868.9306505,208
1658941514.70814,260868.9306556,218
1658941514.70814,260868.9306608,218
1658941514.70814,260868.930666,198
1658941514.70814,260868.930671,186
1658941514.70814,260868.930676,196
1658941514.70814,260868.9306811,198
1658941514.70814,260868.9306862,196
1658941514.70814,260868.930691,179
1658941514.70814,260868.9306958,136
1658941514.70814,260868.9307008,98
1658941514.70814,260868.9307081,71
1658941514.70814,260868.9307151,38
1658941514.70814,260868.9307202,28
1658941514.70814,260868.9307272,33
1658941514.70814,260868.9307331,11
1658941514.70814,260868.9307399,-4
1658941514.70814,260868.9307451,11
1658941514.70814,260868.9307519,28
1658941514.70814,260868.9307573,23
1658941514.70814,260868.9307642,21
1658941514.70814,260868.9307695,35
1658941514.70814,260868.9307778,50
1658941514.70814,260868.930783,55
1658941514.70814,260868.93079,59
1658941514.70814,260868.9307953,64
1658941514.70814,260868.9308023,71
1658941514.70814,260868.9308073,71
1658941514.70814,260868.9308125,59
1658941514.70814,260868.9308191,57
1658941514.70814,260868.9308253,64
1658941514.70814,260868.9308359,76
1658941514.70814,260868.9308453,88
1658941514.70814,260868.9308497,79
1658941514.70814,260868.930858,67
1658941514.70814,260868.9308632,81
1658941514.70814,260868.9308715,98
1658941514.70814,260868.930881,98
1658941514.70814,260868.9308874,88
1658941514.70814,260868.9308948,86
1658941514.70814,260868.9309023,95
1658941514.70814,260868.9309091,95
1658941514.70814,260868.9309153,83
1658941514.70814,260868.9309239,79
1658941514.70814,260868.9309343,83
1658941514.70814,260868.9309465,88
1658941514.70814,260868.9309544,91
1658941514.70814,260868.9309604,88
1658941514.70814,260868.9309642,95
1658941514.70814,260868.93097,117
1658941514.72111,260868.9309736,143
1658941514.72111,260868.93098,150
1658941514.72111,260868.9309855,136
1658941514.72111,260868.930991,115
1658941514.72111,260868.9309945,105
1658941514.72111,260868.9309982,112
1658941514.72111,260868.9310036,115
1658941514.72111,260868.9310089,107
1658941514.72111,260868.9310155,105
1658941514.72111,260868.931019,110
1658941514.72111,260868.9310264,117
1658941514.72111,260868.9310341,105
1658941514.72111,260868.9310401,93
1658941514.72111,260868.9310484,206
1658941514.72111,260868.9310532,488
1658941514.72111,260868.9310633,805
1658941514.72111,260868.9310745,920
1658941514.72111,260868.931079,575
1658941514.72111,260869.5635821,9
1658941514.72111,260869.5636043,-105
1658941514.72111,260869.5636157,115
1658941514.72111,260869.5636245,117
1658941514.72111,260869.563631,16
1658941514.72111,260869.5636342,50
1658941515.28714,260869.5636405,71
1658941515.28714,260869.5636441,47
1658941515.28714,260869.5636475,64
1658941515.28714,260869.5636509,81
1658941515.28714,260869.5636542,57
1658941515.28714,260869.5636581,43
1658941515.28714,260869.5636629,62
1658941515.28714,260869.5636667,81
1658941515.28714,260869.5636702,79
1658941515.28714,260869.5636735,86
1658941515.28714,260869.5636766,105
1658941515.28714,260869.5636822,100
1658941515.28714,260869.5636889,86
1658941515.28714,260869.5636956,103
1658941515.28714,260869.5637024,122
1658941515.28714,260869.5637109,124
1658941515.28714,260869.5637172,143
1658941515.28714,260869.5637256,179
1658941515.28714,260869.5637319,189
1658941515.28714,260869.5637402,177
1658941515.28714,260869.5637464,174
1658941515.28714,260869.5637547,172
1658941515.28714,260869.5637609,155
1658941515.28714,260869.5637685,150
1658941515.28714,260869.5637726,160
1658941515.28714,260869.5637793,134
1658941515.28714,260869.5637837,95
1658941515.28714,260869.5637869,95
1658941515.28714,260869.5637995,95
1658941515.28714,260869.5638093,71
1658941515.28714,260869.5638147,52
1658941515.28714,260869.5638207,59
1658941515.28714,260869.5638265,57
1658941515.28714,260869.5638332,9
1658941515.28714,260869.563837,-7
1658941515.28714,260869.5638405,31
1658941515.28714,260869.5638439,55
1658941515.28714,260869.5638525,47
1658941515.28714,260869.5638577,33
1658941515.28714,260869.5638631,31
1658941515.28714,260869.5638691,52
1658941515.28714,260869.5638796,64
1658941515.28714,260869.5638854,40
1658941515.28714,260869.5638895,40
1658941515.28714,260869.5638937,76
1658941515.28714,260869.5638981,67
1658941515.28714,260869.5639025,35
1658941515.28714,260869.5639434,55
1658941515.28714,260869.5639491,71
1658941515.28714,260869.5639538,52
1658941515.3021,260869.5639584,47
1658941515.3021,260869.5639628,62
1658941515.3021,260869.5639676,57
1658941515.3021,260869.5639722,45
1658941515.3021,260869.5639769,40
1658941515.3021,260869.5639814,43
1658941515.3021,260869.5639859,55
1658941515.3021,260869.5639906,67
1658941515.3021,260869.563995,64
1658941515.3021,260869.5639996,62
1658941515.3021,260869.5640042,67
1658941515.3021,260869.5640092,71
1658941515.3021,260869.5640141,64
1658941515.3021,260869.5640187,62
1658941515.3021,260869.5640235,83
1658941515.3021,260869.5640278,88
1658941515.3021,260869.5640321,81
1658941515.3021,260870.1507084,103
1658941515.3021,260870.1507294,98
1658941515.3021,260870.1507353,62
1658941515.3021,260870.1507392,59
1658941515.3021,260870.1507435,67
1658941515.3021,260870.1507475,45
1658941515.3021,260870.1507509,28
1658941515.77844,260870.1507541,50
1658941515.77844,260870.1507577,67
1658941515.77844,260870.1507613,67
1658941515.77844,260870.1507648,59
1658941515.77844,260870.150768,35
1658941515.77844,260870.1507714,74
1658941515.77844,260870.1507748,292
1658941515.77844,260870.1507781,613
1658941515.77844,260870.1507815,807
1658941515.77844,260870.1507849,630
1658941515.77844,260870.1507884,103
1658941515.77844,260870.1507919,-186
1658941515.77844,260870.1507952,-21
1658941515.77844,260870.1507985,59
1658941515.77844,260870.1508018,-40
1658941515.77844,260870.1508052,-16
1658941515.77844,260870.1508085,47
1658941515.77844,260870.1508118,28
1658941515.77844,260870.1508157,11
1658941515.77844,260870.150819,19
1658941515.77844,260870.150825,31
1658941515.77844,260870.1508287,50
1658941515.77844,260870.1508518,45
1658941515.77844,260870.1508622,35
1658941515.77844,260870.1508666,45
1658941515.77844,260870.1508702,69
1658941515.77844,260870.1508739,81
1658941515.77844,260870.1508773,91
1658941515.77844,260870.1508805,105
1658941515.77844,260870.1508839,117
1658941515.77844,260870.1508871,127
1658941515.77844,260870.150891,117
1658941515.77844,260870.1508948,112
1658941515.77844,260870.1508983,143
1658941515.77844,260870.1509017,165
1658941515.77844,260870.1509059,165
1658941515.77844,260870.1509113,177
1658941515.77844,260870.1509149,177
1658941515.77844,260870.1509191,148
1658941515.77844,260870.1509228,131
1658941515.77844,260870.150929,131
1658941515.77844,260870.1509362,141
1658941515.77844,260870.1509434,143
1658941515.77844,260870.1509494,112
1658941515.77844,260870.150954,93
1658941515.77844,260870.1509576,88
1658941515.77844,260870.1509634,62
1658941515.77844,260870.1509678,57
1658941515.77844,260870.150972,81
1658941515.77844,260870.1509757,67
1658941515.7924,260870.1509791,35
1658941515.7924,260870.1509831,50
1658941515.7924,260870.150987,74
1658941515.7924,260870.1509905,64
1658941515.7924,260870.1509938,47
1658941515.7924,260870.1509973,45
1658941515.7924,260870.1510007,45
1658941515.7924,260870.1510042,43
1658941515.7924,260870.1510081,40
1658941515.7924,260870.1510137,50
1658941515.7924,260870.1510221,59
1658941515.7924,260870.1510274,50
1658941515.7924,260870.1510323,50
1658941515.7924,260870.1510419,67
1658941515.7924,260870.1510489,71
1658941515.7924,260870.1510531,57
1658941515.7924,260870.6373743,64
1658941515.7924,260870.6373917,81
1658941515.7924,260870.6373965,79
1658941515.7924,260870.6374024,64
1658941515.7924,260870.6374065,59
1658941515.7924,260870.637412,74
1658941515.7924,260870.6374159,76
1658941515.7924,260870.6374211,57
1658941516.35968,260870.6374249,47
1658941516.35968,260870.6374286,62
1658941516.35968,260870.6374323,81
1658941516.35968,260870.637436,74
1658941516.35968,260870.6374397,64
1658941516.35968,260870.6374436,86
1658941516.35968,260870.6374474,119
1658941516.35968,260870.6374511,112
1658941516.35968,260870.6374549,91
1658941516.35968,260870.6374585,103
1658941516.35968,260870.6374623,95
1658941516.35968,260870.6374664,47
1658941516.35968,260870.6374733,35
1658941516.35968,260870.6375538,55
1658941516.35968,260870.6375603,74
1658941516.35968,260870.6375643,91
1658941516.35968,260870.6375682,79
1658941516.35968,260870.637572,45
1658941516.35968,260870.6375757,50
1658941516.35968,260870.6375795,86
1658941516.35968,260870.6375833,95
1658941516.35968,260870.637587,127
1658941516.35968,260870.6375908,316
1658941516.35968,260870.6375944,632
1658941516.35968,260870.6376603,812
1658941516.35968,260870.6376691,601
1658941516.35968,260870.637676,88
1658941516.35968,260870.6376826,-170
1658941516.35968,260870.6376882,11
1658941516.35968,260870.637693,143
1658941516.35968,260870.6376966,62
1658941516.35968,260870.6377004,38
1658941516.35968,260870.637705,95
1658941516.35968,260870.637708,91
1658941516.35968,260870.6377109,47
1658941516.35968,260870.6377147,50
1658941516.35968,260870.6377175,76
1658941516.35968,260870.6377202,95
1658941516.35968,260870.6377232,107
1658941516.35968,260870.6377281,112
1658941516.35968,260870.6377343,119
1658941516.35968,260870.6377407,122
1658941516.35968,260870.6377467,131
1658941516.35968,260870.637753,158
1658941516.35968,260870.6377591,162
1658941516.35968,260870.6377656,155
1658941516.35968,260870.6377722,177
1658941516.35968,260870.6377787,189
1658941516.35968,260870.6377832,174
1658941516.35968,260870.6377879,184
1658941516.37164,260870.6377918,218
1658941516.37164,260870.637795,227
1658941516.37164,260870.6377991,222
1658941516.37164,260870.6378032,196
1658941516.37164,260870.6378064,160
1658941516.37164,260870.6378104,167
1658941516.37164,260870.6378136,191
1658941516.37164,260870.6378179,172
1658941516.37164,260870.6378222,143
1658941516.37164,260870.6378269,139
1658941516.37164,260870.6378549,115
1658941516.37164,260870.6378685,79
1658941516.37164,260870.6378739,71
1658941516.37164,260870.6378783,76
1658941516.37164,260870.6378825,74
1658941516.37164,260871.2216809,64
1658941516.37164,260871.2217006,47
1658941516.37164,260871.2217059,55
1658941516.37164,260871.2217138,74
1658941516.37164,260871.2217183,71
1658941516.37164,260871.2217255,62
1658941516.37164,260871.22173,69
1658941516.37164,260871.221736,62
1658941516.37164,260871.2217404,40
1658941516.89634,260871.2217464,43
1658941516.89634,260871.2217509,57
1658941516.89634,260871.2217554,67
1658941516.89634,260871.2217607,67
1658941516.89634,260871.2217645,55
1658941516.89634,260871.221768,31
1658941516.89634,260871.2217712,31
1658941516.89634,260871.2217754,62
1658941516.89634,260871.2217809,74
1658941516.89634,260871.2217868,50
1658941516.89634,260871.2217923,40
1658941516.89634,260871.2217979,55
1658941516.89634,260871.2218108,67
1658941516.89634,260871.2218215,64
1658941516.89634,260871.2218304,57
1658941516.89634,260871.2218345,62
1658941516.89634,260871.2218433,79
1658941516.89634,260871.2218494,71
1658941516.89634,260871.2218577,64
1658941516.89634,260871.2218652,86
1658941516.89634,260871.2218761,105
1658941516.89634,260871.2218869,107
1658941516.89634,260871.2218946,112
1658941516.89634,260871.2219003,122
1658941516.89634,260871.221911,129
1658941516.89634,260871.2219137,117
1658941516.89634,260871.2219166,93
1658941516.89634,260871.2219252,64
1658941516.89634,260871.2219397,69
1658941516.89634,260871.2219506,86
1658941516.89634,260871.2219585,71
1658941516.89634,260871.2219646,59
1658941516.89634,260871.2219737,71
1658941516.89634,260871.2219804,74
1658941516.89634,260871.2219902,67
1658941516.89634,260871.2220021,67
1658941516.89634,260871.2220148,119
1658941516.89634,260871.2220229,333
1658941516.89634,260871.2220332,656
1658941516.89634,260871.2220442,831
1658941516.89634,260871.2220485,594
1658941516.89634,260871.2220608,26
1658941516.89634,260871.2220742,-242
1658941516.89634,260871.2220871,-2
1658941516.89634,260871.222099,141
1658941516.89634,260871.2221118,50
1658941516.89634,260871.2221258,64
1658941516.89634,260871.2221388,107
1658941516.89634,260871.2221523,62
1658941516.89634,260871.2221653,64
1658941516.90831,260871.2221783,98
1658941516.90831,260871.2221906,76
1658941516.90831,260871.2222036,71
1658941516.90831,260871.2222113,112
1658941516.90831,260871.2222167,117
1658941516.90831,260871.2222223,107
1658941516.90831,260871.2222274,122
1658941516.90831,260871.222232,150
1658941516.90831,260871.222236,184
1658941516.90831,260871.2222421,208
1658941516.90831,260871.2222459,218
1658941516.90831,260871.2222514,210
1658941516.90831,260871.2222555,194
1658941516.90831,260871.222261,191
1658941516.90831,260871.7567801,210
1658941516.90831,260871.7567975,225
1658941516.90831,260871.7568043,237
1658941516.90831,260871.7568121,251
1658941516.90831,260871.7568177,239
1658941516.90831,260871.7568231,198
1658941516.90831,260871.7568286,184
1658941516.90831,260871.7568351,189
1658941516.90831,260871.7568449,167
1658941516.90831,260871.7568589,136
1658941517.48167,260871.7568676,124
1658941517.48167,260871.7568737,107
1658941517.48167,260871.7568809,91
1658941517.48167,260871.7568879,95
1658941517.48167,260871.7568953,71
1658941517.48167,260871.7569006,35
1658941517.48167,260871.756905,67
1658941517.48167,260871.7569139,67
1658941517.48167,260871.7569232,-2
1658941517.48167,260871.7569324,-2
1658941517.48167,260871.7569385,59
1658941517.48167,260871.7569426,71
1658941517.48167,260871.7569486,26
1658941517.48167,260871.7569561,26
1658941517.48167,260871.7569632,69
1658941517.48167,260871.7569665,62
1658941517.48167,260871.7569784,43
1658941517.48167,260871.7569903,45
1658941517.48167,260871.7570033,40
1658941517.48167,260871.7570171,67
1658941517.48167,260871.7570266,81
1658941517.48167,260871.7570388,33
1658941517.48167,260871.7570436,23
1658941517.48167,260871.75705,59
1658941517.48167,260871.7570531,57
1658941517.48167,260871.7570561,50
1658941517.48167,260871.7570593,64
1658941517.48167,260871.7570644,35
1658941517.48167,260871.7570679,14
1658941517.48167,260871.7570729,76
1658941517.48167,260871.7570764,127
1658941517.48167,260871.7570798,98
1658941517.48167,260871.7570848,67
1658941517.48167,260871.757088,50
1658941517.48167,260871.757093,40
1658941517.48167,260871.7570965,112
1658941517.48167,260871.7570998,177
1658941517.48167,260871.7571064,98
1658941517.48167,260871.7571101,62
1658941517.48167,260871.757113,150
1658941517.48167,260871.7571161,174
1658941517.48167,260871.7571192,98
1658941517.48167,260871.7571222,57
1658941517.48167,260871.757127,93
1658941517.48167,260871.7571299,122
1658941517.48167,260871.7571329,98
1658941517.48167,260871.7571362,88
1658941517.48167,260871.7571395,110
1658941517.48167,260871.7571428,98
1658941517.48167,260871.7571459,88
1658941517.49264,260871.7571491,141
1658941517.49264,260871.7571543,170
1658941517.49264,260871.7571612,273
1658941517.49264,260871.7571654,632
1658941517.49264,260871.7571684,927
1658941517.49264,260871.7571714,735
1658941517.49264,260871.7571744,198
1658941517.49264,260871.7571774,-177
1658941517.49264,260871.7571804,-64
1658941517.49264,260871.7571834,172
1658941517.49264,260871.7571863,136
1658941517.49264,260871.7571893,67
1658941517.49264,260871.7571922,124
1658941517.49264,260872.342822,124
1658941517.49264,260872.3428421,69
1658941517.49264,260872.3428526,86
1658941517.49264,260872.3429056,131
1658941517.49264,260872.3429157,143
1658941517.49264,260872.3429246,134
1658941517.49264,260872.3429334,129
1658941517.49264,260872.3429419,146
1658941517.49264,260872.3429506,129
1658941517.49264,260872.3429588,95
1658941517.49264,260872.342968,153
1658941518.0745,260872.3429752,220
1658941518.0745,260872.342981,174
1658941518.0745,260872.3429852,136
1658941518.0745,260872.3429902,155
1658941518.0745,260872.342995,172
1658941518.0745,260872.3430012,225
1658941518.0745,260872.3430068,258
1658941518.0745,260872.3430128,206
1658941518.0745,260872.3430185,186
1658941518.0745,260872.3430244,237
1658941518.0745,260872.3430336,232
1658941518.0745,260872.3430428,182
1658941518.0745,260872.3430491,170
1658941518.0745,260872.3430557,174
1658941518.0745,260872.3430644,150
1658941518.0745,260872.3430717,127
1658941518.0745,260872.3430789,146
1658941518.0745,260872.3430878,139
1658941518.0745,260872.3430955,74
1658941518.0745,260872.3431033,55
1658941518.0745,260872.3431121,74
1658941518.0745,260872.3431199,57
1658941518.0745,260872.3431274,57
1658941518.0745,260872.3431363,103
1658941518.0745,260872.3431435,110
1658941518.0745,260872.3431546,74
1658941518.0745,260872.3431626,59
1658941518.0745,260872.3431708,57
1658941518.0745,260872.3431782,74
1658941518.0745,260872.3431873,110
1658941518.0745,260872.343194,124
1658941518.0745,260872.3432018,122
1658941518.0745,260872.3432095,122
1658941518.0745,260872.3432175,103
1658941518.0745,260872.3432248,69
1658941518.0745,260872.3432333,88
1658941518.0745,260872.3432402,115
1658941518.0745,260872.3432482,81
1658941518.0745,260872.3432557,88
1658941518.0745,260872.3432633,131
1658941518.0745,260872.3432726,107
1658941518.0745,260872.3432799,91
1658941518.0745,260872.3432874,107
1658941518.0745,260872.3432952,91
1658941518.0745,260872.3433018,95
1658941518.0745,260872.3433096,124
1658941518.0745,260872.3433162,112
1658941518.0745,260872.3433247,83
1658941518.0745,260872.3433322,86
1658941518.0745,260872.3433387,122
1658941518.08847,260872.3433424,115
1658941518.08847,260872.3433549,115
1658941518.08847,260872.3433651,172
1658941518.08847,260872.3433886,139
1658941518.08847,260872.3434076,59
1658941518.08847,260872.3434168,122
1658941518.08847,260872.3434263,172
1658941518.08847,260872.3434351,79
1658941518.08847,260872.3434438,88
1658941518.08847,260872.34345,186
1658941518.08847,260872.3434574,122
1658941518.08847,260872.3434649,55
1658941518.08847,260872.9270996,122
1658941518.08847,260872.9271206,150
1658941518.08847,260872.9271343,122
1658941518.08847,260872.9271442,103
1658941518.08847,260872.9271541,79
1658941518.08847,260872.9271626,150
1658941518.08847,260872.9271709,407
1658941518.08847,260872.9271826,704
1658941518.08847,260872.9271972,826
1658941518.08847,260872.9272105,568
1658941518.08847,260872.9272258,7
1658941518.08847,260872.9272556,-239
1658941518.65801,260872.9272643,-4
1658941518.65801,260872.9272708,115
1658941518.65801,260872.9272769,26
1658941518.65801,260872.9272811,26
1658941518.65801,260872.9272872,67
1658941518.65801,260872.9272911,45
1658941518.65801,260872.9272973,35
1658941518.65801,260872.927306,67
1658941518.65801,260872.9273096,69
1658941518.65801,260872.9273132,43
1658941518.65801,260872.9273169,38
1658941518.65801,260872.9273205,76
1658941518.65801,260872.927324,117
1658941518.65801,260872.9273277,124
1658941518.65801,260872.9273335,112
1658941518.65801,260872.9273381,107
1658941518.65801,260872.9273477,124
1658941518.65801,260872.9273568,146
1658941518.65801,260872.9273675,148
1658941518.65801,260872.927376,141
1658941518.65801,260872.9273843,139
1658941518.65801,260872.927396,162
1658941518.65801,260872.9274046,208
1658941518.65801,260872.9274104,227
1658941518.65801,260872.9274203,215
1658941518.65801,260872.9274285,208
1658941518.65801,260872.9274357,184
1658941518.65801,260872.9274382,174
1658941518.65801,260872.9274413,213
1658941518.65801,260872.9274531,215
1658941518.65801,260872.9274681,162
1658941518.65801,260872.927481,124
1658941518.65801,260872.9274941,117
1658941518.65801,260872.9275063,112
1658941518.65801,260872.9275176,88
1658941518.65801,260872.9275287,76
1658941518.65801,260872.9275436,86
1658941518.65801,260872.927585,64
1658941518.65801,260872.9275949,45
1658941518.65801,260872.9276398,55
1658941518.65801,260872.9276482,45
1658941518.65801,260872.9276535,28
1658941518.65801,260872.92766,69
1658941518.65801,260872.9276644,103
1658941518.65801,260872.9276698,79
1658941518.65801,260872.9276749,69
1658941518.65801,260872.9276805,98
1658941518.65801,260872.9276851,93
1658941518.65801,260872.927691,71
1658941518.65801,260872.9276963,69
1658941518.66699,260872.9277018,59
1658941518.66699,260872.9277071,55
1658941518.66699,260872.9277109,76
1658941518.66699,260872.9277162,81
1658941518.66699,260872.9277208,64
1658941518.66699,260872.9277247,79
1658941518.66699,260872.92773,100
1658941518.66699,260872.9277344,81
1658941518.66699,260872.9277397,57
1658941518.66699,260872.927745,55
1658941518.66699,260872.9277504,71
1658941518.66699,260873.5119364,95
1658941518.66699,260873.5119562,81
1658941518.66699,260873.5119703,47
1658941518.66699,260873.5119786,71
1658941518.66699,260873.5119829,105
1658941518.66699,260873.5119866,86
1658941518.66699,260873.5119915,67
1658941518.66699,260873.5119969,71
1658941518.66699,260873.5120044,74
1658941518.66699,260873.5120119,74
1658941518.66699,260873.5120191,76
1658941518.66699,260873.5120267,91
1658941518.66699,260873.5120343,105
1658941519.13872,260873.5120411,71
1658941519.13872,260873.5120464,21
1658941519.13872,260873.5120535,21
1658941519.13872,260873.5120603,43
1658941519.13872,260873.5120655,31
1658941519.13872,260873.5120706,26
1658941519.13872,260873.5120746,38
1658941519.13872,260873.5120793,16
1658941519.13872,260873.5120865,0
1658941519.13872,260873.5120934,28
1658941519.13872,260873.5120985,16
1658941519.13872,260873.5121035,38
1658941519.13872,260873.512111,258
1658941519.13872,260873.5121201,575
1658941519.13872,260873.5121333,788
1658941519.13872,260873.5121466,651
1658941519.13872,260873.5121551,100
1658941519.13872,260873.5121578,-254
1658941519.13872,260873.51216,-52
1658941519.13872,260873.5121631,103
1658941519.13872,260873.5121724,-23
1658941519.13872,260873.5121868,-35
1658941519.13872,260873.5121994,50
1658941519.13872,260873.51221,23
1658941519.13872,260873.5122231,11
1658941519.13872,260873.5122302,64
1658941519.13872,260873.5122333,67
1658941519.13872,260873.5122355,40
1658941519.13872,260873.512243,45
1658941519.13872,260873.5122567,71
1658941519.13872,260873.5122632,100
1658941519.13872,260873.5122655,105
1658941519.13872,260873.5122682,81
1658941519.13872,260873.5122763,86
1658941519.13872,260873.5122905,150
1658941519.13872,260873.5123022,177
1658941519.13872,260873.5123168,122
1658941519.13872,260873.5123294,129

1658941519.13872,260873.5123446,191
1658941519.13872,260873.5123573,182
1658941519.13872,260873.5123694,174
1658941519.13872,260873.5123818,206
1658941519.13872,260873.5123887,194
1658941519.13872,260873.512399,189
1658941519.13872,260873.5124087,210
1658941519.13872,260873.5124149,191
1658941519.13872,260873.5124185,170
1658941519.13872,260873.5124239,184
1658941519.13872,260873.5124324,182
1658941519.13872,260873.5124438,155
1658941519.14869,260873.512457,124
1658941519.14869,260873.5124654,81
1658941519.14869,260873.5124711,52
1658941519.14869,260873.5124772,74
1658941519.14869,260873.5124852,95
1658941519.14869,260873.5124925,67
1658941519.14869,260873.5125011,52
1658941519.14869,260873.5125087,79
1658941519.14869,260873.512516,86
1658941519.14869,260873.5125241,59
1658941519.14869,260873.9992482,47
1658941519.14869,260873.9992689,59
1658941519.14869,260873.9992837,76
1658941519.14869,260873.9992985,74
1658941519.14869,260873.9993116,45
1658941519.14869,260873.9993249,33
1658941519.14869,260873.9993381,55
1658941519.14869,260873.9993517,74
1658941519.14869,260873.9993649,76
1658941519.14869,260873.999379,74
1658941519.14869,260873.9993921,52
1658941519.14869,260873.9994054,21
1658941519.14869,260873.9994209,31
1658941519.14869,260873.9994288,76
1658941519.72825,260873.9994343,71
1658941519.72825,260873.99944,31
1658941519.72825,260873.9994435,2
1658941519.72825,260873.9994494,26
1658941519.72825,260873.9994542,64
1658941519.72825,260873.9994584,43
1658941519.72825,260873.9994621,31
1658941519.72825,260873.999466,57
1658941519.72825,260873.9994707,64
1658941519.72825,260873.9994757,40
1658941519.72825,260873.9994798,11
1658941519.72825,260873.9994885,35
1658941519.72825,260873.9994984,79
1658941519.72825,260873.9995047,64
1658941519.72825,260873.9995087,62
1658941519.72825,260873.999512,76
1658941519.72825,260873.9995159,52
1658941519.72825,260873.999527,62
1658941519.72825,260873.9995305,107
1658941519.72825,260873.9995353,105
1658941519.72825,260873.9995416,91
1658941519.72825,260873.9995476,93
1658941519.72825,260873.9995513,71
1658941519.72825,260873.9995568,62
1658941519.72825,260873.9995684,71
1658941519.72825,260873.9995747,79
1658941519.72825,260873.999581,71
1658941519.72825,260873.9995881,38
1658941519.72825,260873.9995952,43
1658941519.72825,260873.9996013,95
1658941519.72825,260873.9996281,91
1658941519.72825,260873.9996368,47
1658941519.72825,260873.9996416,112
1658941519.72825,260873.9996472,352
1658941519.72825,260873.9996506,671
1658941519.72825,260873.9996558,836
1658941519.72825,260873.9996609,611
1658941519.72825,260873.9996651,79
1658941519.72825,260873.999669,-177
1658941519.72825,260873.9996728,21
1658941519.72825,260873.9996796,127
1658941519.72825,260873.999686,31
1658941519.72825,260873.9996895,55
1658941519.72825,260873.9996933,112
1658941519.72825,260873.999697,76
1658941519.72825,260873.9997024,59
1658941519.72825,260873.9997078,74
1658941519.72825,260873.9997139,79
1658941519.72825,260873.9997178,100
1658941519.72825,260873.9997238,107
1658941519.74021,260873.9997305,88
1658941519.74021,260873.9997367,100
1658941519.74021,260873.9997414,110
1658941519.74021,260873.9997477,83
1658941519.74021,260873.9997516,95
1658941519.74021,260873.9997563,129
1658941519.74021,260873.9997624,124
1658941519.74021,260873.9997683,131
1658941519.74021,260873.9997746,158
1658941519.74021,260874.5868108,162
1658941519.74021,260874.5868234,155
1658941519.74021,260874.5868282,170
1658941519.74021,260874.5868306,189
1658941519.74021,260874.5868328,184
1658941519.74021,260874.586835,177
1658941519.74021,260874.5868371,172
1658941519.74021,260874.5868393,150
1658941519.74021,260874.5868414,115
1658941519.74021,260874.5868435,105
1658941519.74021,260874.5868457,117
1658941519.74021,260874.5868483,107
1658941519.74021,260874.5868517,81
1658941519.74021,260874.5868612,40
1658941519.74021,260874.5868683,0
1658941520.25691,260874.5868745,2
1658941520.25691,260874.5868816,11
1658941520.25691,260874.5868921,-23
1658941520.25691,260874.5869029,-23
1658941520.25691,260874.5869132,9
1658941520.25691,260874.586924,0
1658941520.25691,260874.5869282,-19
1658941520.25691,260874.5869322,-9
1658941520.25691,260874.5869343,-2
1658941520.25691,260874.5869379,-11
1658941520.25691,260874.5869783,-19
1658941520.25691,260874.5869953,9
1658941520.25691,260874.5870019,16
1658941520.25691,260874.5870068,-9
1658941520.25691,260874.5870113,9
1658941520.25691,260874.5870156,35
1658941520.25691,260874.5870197,16
1658941520.25691,260874.5870239,23
1658941520.25691,260874.5870284,43
1658941520.25691,260874.5870324,28
1658941520.25691,260874.5870369,28
1658941520.25691,260874.5870416,52
1658941520.25691,260874.5870463,47
1658941520.25691,260874.5870509,33
1658941520.25691,260874.5870558,28
1658941520.25691,260874.5870612,31
1658941520.25691,260874.5870657,43
1658941520.25691,260874.5870701,57
1658941520.25691,260874.5870748,69
1658941520.25691,260874.5870794,71
1658941520.25691,260874.5870838,57
1658941520.25691,260874.5870902,50
1658941520.25691,260874.587097,64
1658941520.25691,260874.5871019,71
1658941520.25691,260874.5871068,76
1658941520.25691,260874.5871115,86
1658941520.25691,260874.5871162,79
1658941520.25691,260874.5871209,86
1658941520.25691,260874.5871268,105
1658941520.25691,260874.5871336,103
1658941520.25691,260874.5871403,110
1658941520.25691,260874.5871469,117
1658941520.25691,260874.5871536,91
1658941520.25691,260874.58716,64
1658941520.25691,260874.5871646,57
1658941520.25691,260874.5871691,59
1658941520.25691,260874.5871739,64
1658941520.25691,260874.5871793,69
1658941520.25691,260874.5871842,71
1658941520.25691,260874.5871913,71
1658941520.26788,260874.5871982,69
1658941520.26788,260874.5872048,64
1658941520.26788,260874.5872095,86
1658941520.26788,260874.5872155,242
1658941520.26788,260874.5872197,548
1658941520.26788,260874.5872242,846
1658941520.26788,260874.5872289,853
1658941520.26788,260874.5872338,388
1658941520.26788,260875.1215026,-139
1658941520.26788,260875.1215237,-127
1658941520.26788,260875.1215303,131
1658941520.26788,260875.121537,107
1658941520.26788,260875.1215438,14
1658941520.26788,260875.1215521,69
1658941520.26788,260875.1215597,93
1658941520.26788,260875.1215651,57
1658941520.26788,260875.121569,83
1658941520.26788,260875.1215733,139
1658941520.26788,260875.121579,127
1658941520.26788,260875.121586,98
1658941520.26788,260875.1216847,110
1658941520.26788,260875.1217049,129
1658941520.26788,260875.1217133,134
1658941520.26788,260875.1217182,134
1658941520.79532,260875.1217236,129
1658941520.79532,260875.121729,117
1658941520.79532,260875.1217341,127
1658941520.79532,260875.1217399,153
1658941520.79532,260875.1217437,167
1658941520.79532,260875.1217472,165
1658941520.79532,260875.1217507,162
1658941520.79532,260875.1217545,165
1658941520.79532,260875.1217604,167
1658941520.79532,260875.1217642,172
1658941520.79532,260875.12177,174
1658941520.79532,260875.1217751,177
1658941520.79532,260875.1217804,184
1658941520.79532,260875.1217857,172
1658941520.79532,260875.1217909,155
1658941520.79532,260875.1217942,155
1658941520.79532,260875.1217999,146
1658941520.79532,260875.1218046,131
1658941520.79532,260875.1218104,105
1658941520.79532,260875.1218146,71
1658941520.79532,260875.1218198,52
1658941520.79532,260875.1218238,40
1658941520.79532,260875.1218283,40
1658941520.79532,260875.1218345,33
1658941520.79532,260875.1218379,16
1658941520.79532,260875.1218414,23
1658941520.79532,260875.1218467,40
1658941520.79532,260875.1218504,28
1658941520.79532,260875.1218554,23
1658941520.79532,260875.1218595,50
1658941520.79532,260875.1218637,40
1658941520.79532,260875.1218703,16
1658941520.79532,260875.1218754,38
1658941520.79532,260875.1218826,62
1658941520.79532,260875.1218878,50
1658941520.79532,260875.1218938,43
1658941520.79532,260875.1218995,47
1658941520.79532,260875.1219073,55
1658941520.79532,260875.1219145,57
1658941520.79532,260875.1219236,55
1658941520.79532,260875.1219286,62
1658941520.79532,260875.1219349,64
1658941520.79532,260875.1219395,64
1658941520.79532,260875.1219477,71
1658941520.79532,260875.1219572,69
1658941520.79532,260875.1219644,64
1658941520.79532,260875.1219701,62
1658941520.79532,260875.1219757,67
1658941520.79532,260875.1219816,67
1658941520.79532,260875.1219904,74
1658941520.80529,260875.1219963,88
1658941520.80529,260875.1220016,86
1658941520.80529,260875.1220088,74
1658941520.80529,260875.1220178,81
1658941520.80529,260875.1220248,91
1658941520.80529,260875.1220327,79
1658941520.80529,260875.1220409,74
1658941520.80529,260875.6578806,100
1658941520.80529,260875.6579063,131
1658941520.80529,260875.6579185,136
1658941520.80529,260875.6579294,129
1658941520.80529,260875.6579393,124
1658941520.80529,260875.6579465,100
1658941520.80529,260875.6579559,69
1658941520.80529,260875.6579611,62
1658941520.80529,260875.6579729,57
1658941520.80529,260875.6579844,59
1658941520.80529,260875.657995,62
1658941520.80529,260875.6580071,57
1658941520.80529,260875.658034,83
1658941520.80529,260875.6580417,98
1658941520.80529,260875.6580466,47
1658941520.80529,260875.658051,35
1658941520.80529,260875.6580553,179
1658941521.47991,260875.6580597,464
1658941521.47991,260875.6580639,757
1658941521.47991,260875.6580674,822
1658941521.47991,260875.6580712,417
1658941521.47991,260875.658075,-143
1658941521.47991,260875.658079,-189
1658941521.47991,260875.6580827,83
1658941521.47991,260875.6580867,88
1658941521.47991,260875.6580909,-9
1658941521.47991,260875.6580951,33
1658941521.47991,260875.6580994,64
1658941521.47991,260875.6581036,38
1658941521.47991,260875.6581078,47
1658941521.47991,260875.658112,76
1658941521.47991,260875.6581162,83
1658941521.47991,260875.6581204,93
1658941521.47991,260875.6581254,98
1658941521.47991,260875.6581291,100
1658941521.47991,260875.6581328,119
1658941521.47991,260875.6581366,141
1658941521.47991,260875.6581401,127
1658941521.47991,260875.6581438,117
1658941521.47991,260875.6581473,134
1658941521.47991,260875.6581512,141
1658941521.47991,260875.6581546,143
1658941521.47991,260875.6581587,170
1658941521.47991,260875.6581627,184
1658941521.47991,260875.6581666,167
1658941521.47991,260875.6581703,167
1658941521.47991,260875.6581744,189
1658941521.47991,260875.6581785,196
1658941521.47991,260875.6581825,194
1658941521.47991,260875.6581866,194
1658941521.47991,260875.6581902,182
1658941521.47991,260875.6581936,172
1658941521.47991,260875.6581971,177
1658941521.47991,260875.6582008,160
1658941521.47991,260875.6582045,117
1658941521.47991,260875.6582082,86
1658941521.47991,260875.6582122,71
1658941521.47991,260875.6582158,50
1658941521.47991,260875.6582197,35
1658941521.47991,260875.6582235,43
1658941521.47991,260875.6582275,43
1658941521.47991,260875.6582311,33
1658941521.47991,260875.6582346,43
1658941521.47991,260875.658238,55
1658941521.47991,260875.6582417,47
1658941521.47991,260875.6582458,40
1658941521.47991,260875.6582495,55
1658941521.49088,260875.6582533,71
1658941521.49088,260875.65826,76
1658941521.49088,260875.6582638,74
1658941521.49088,260875.6582676,67
1658941521.49088,260875.6582714,67
1658941521.49088,260875.6582753,67
1658941521.49088,260876.340158,71
1658941521.49088,260876.3401697,86
1658941521.49088,260876.3401724,103
1658941521.49088,260876.3401747,91
1658941521.49088,260876.3401768,69
1658941521.49088,260876.3401789,71
1658941521.49088,260876.340181,79
1658941521.49088,260876.3401832,76
1658941521.49088,260876.3401853,76
1658941521.49088,260876.3401873,76
1658941521.49088,260876.3401895,57
1658941521.49088,260876.3401916,43
1658941521.49088,260876.3401937,52
1658941521.49088,260876.3401958,57
1658941521.49088,260876.3401979,52
1658941521.49088,260876.3402,59
1658941521.49088,260876.3402021,62
1658941521.49088,260876.3402043,59
1658941522.01257,260876.3402064,59
1658941522.01257,260876.3402096,57
1658941522.01257,260876.3402135,62
1658941522.01257,260876.3402157,79
1658941522.01257,260876.3402183,103
1658941522.01257,260876.3402283,119
1658941522.01257,260876.3402394,119
1658941522.01257,260876.3402478,115
1658941522.01257,260876.3402543,107
1658941522.01257,260876.3402604,93
1658941522.01257,260876.3402703,69
1658941522.01257,260876.3402765,62
1658941522.01257,260876.3402848,88
1658941522.01257,260876.3402909,98
1658941522.01257,260876.3403007,88
1658941522.01257,260876.3403073,83
1658941522.01257,260876.3403158,86
1658941522.01257,260876.3403238,88
1658941522.01257,260876.3403324,76
1658941522.01257,260876.3403495,74
1658941522.01257,260876.3403558,210
1658941522.01257,260876.340364,512
1658941522.01257,260876.3403716,790
1658941522.01257,260876.34038,814
1658941522.01257,260876.3403861,412
1658941522.01257,260876.3403947,-83
1658941522.01257,260876.3404007,-100
1658941522.01257,260876.3404089,117
1658941522.01257,260876.3404172,95
1658941522.01257,260876.3404234,26
1658941522.01257,260876.3404317,71
1658941522.01257,260876.3404399,86
1658941522.01257,260876.3404458,67
1658941522.01257,260876.3404561,86
1658941522.01257,260876.3404672,103
1658941522.01257,260876.3404798,98
1658941522.01257,260876.3404843,105
1658941522.01257,260876.3404884,117
1658941522.01257,260876.3404905,115
1658941522.01257,260876.3404927,117
1658941522.01257,260876.3404958,131
1658941522.01257,260876.3405037,134
1658941522.01257,260876.3405144,134
1658941522.01257,260876.3405206,139
1658941522.01257,260876.3405256,146
1658941522.01257,260876.340531,148
1658941522.01257,260876.3405374,155
1658941522.01257,260876.3405425,182
1658941522.01257,260876.3405473,213
1658941522.01257,260876.3405519,218
1658941522.02354,260876.3405568,206
1658941522.02354,260876.3405615,201
1658941522.02354,260876.3405646,206
1658941522.02354,260876.3405676,201
1658941522.02354,260876.3405705,194
1658941522.02354,260876.8764142,189
1658941522.02354,260876.8764326,174
1658941522.02354,260876.8764401,143
1658941522.02354,260876.8764483,122
1658941522.02354,260876.8764545,107
1658941522.02354,260876.8764631,88
1658941522.02354,260876.8764707,69
1658941522.02354,260876.8764772,55
1658941522.02354,260876.8764845,45
1658941522.02354,260876.8764942,43
1658941522.02354,260876.8765045,45
1658941522.02354,260876.8765117,50
1658941522.02354,260876.8765173,47
1658941522.02354,260876.8765248,40
1658941522.02354,260876.8765308,35
1658941522.02354,260876.8765384,38
1658941522.02354,260876.8765464,45
1658941522.02354,260876.8765561,52
1658941522.02354,260876.8765652,57
1658941522.5555,260876.8765718,57
1658941522.5555,260876.8765798,57
1658941522.5555,260876.8765872,64
1658941522.5555,260876.8765938,71
1658941522.5555,260876.8766339,76
1658941522.5555,260876.8766463,86
1658941522.5555,260876.8766562,83
1658941522.5555,260876.8766651,62
1658941522.5555,260876.8766712,50
1658941522.5555,260876.8766853,57
1658941522.5555,260876.8766982,57
1658941522.5555,260876.8767091,50
1658941522.5555,260876.8767172,50
1658941522.5555,260876.8767276,45
1658941522.5555,260876.8767337,35
1658941522.5555,260876.8767401,40
1658941522.5555,260876.8767518,52
1658941522.5555,260876.8767606,59
1658941522.5555,260876.8767706,59
1658941522.5555,260876.876781,57
1658941522.5555,260876.8767945,62
1658941522.5555,260876.8768075,69
1658941522.5555,260876.8768181,79
1658941522.5555,260876.8768263,76
1658941522.5555,260876.8768402,71
1658941522.5555,260876.8768537,76
1658941522.5555,260876.8768613,88
1658941522.5555,260876.876872,103
1658941522.5555,260876.8768832,115
1658941522.5555,260876.8768932,117
1658941522.5555,260876.876903,117
1658941522.5555,260876.8769096,107
1658941522.5555,260876.8769175,91
1658941522.5555,260876.876922,88
1658941522.5555,260876.8769294,98
1658941522.5555,260876.8769354,100
1658941522.5555,260876.8769405,100
1658941522.5555,260876.8769454,105
1658941522.5555,260876.8769518,105
1658941522.5555,260876.8769585,91
1658941522.5555,260876.8769638,91
1658941522.5555,260876.8769715,198
1658941522.5555,260876.8769801,452
1658941522.5555,260876.8769886,740
1658941522.5555,260876.8769971,855
1658941522.5555,260876.8770052,560
1658941522.5555,260876.8770129,33
1658941522.5555,260876.8770207,-112
1658941522.5555,260876.877029,100
1658941522.5555,260876.8770382,129
1658941522.56447,260876.8770472,38
1658941522.56447,260876.8770541,69
1658941522.56447,260876.8770613,103
1658941522.56447,260876.8770701,76
1658941522.56447,260877.4123334,81
1658941522.56447,260877.4123552,100
1658941522.56447,260877.412367,98
1658941522.56447,260877.4123736,98
1658941522.56447,260877.4123803,105
1658941522.56447,260877.4123849,110
1658941522.56447,260877.4123908,117
1658941522.56447,260877.4123955,124
1658941522.56447,260877.4124015,131
1658941522.56447,260877.4124057,139
1658941522.56447,260877.4124106,143
1658941522.56447,260877.4124167,148
1658941522.56447,260877.4124212,158
1658941522.56447,260877.412427,167
1658941522.56447,260877.4124315,179
1658941522.56447,260877.4124374,191
1658941522.56447,260877.4124418,189
1658941522.56447,260877.4124461,172
1658941522.56447,260877.4124508,170
1658941522.56447,260877.4124564,167
1658941523.09302,260877.4124609,160
1658941523.09302,260877.4124652,148
1658941523.09302,260877.4124695,129
1658941523.09302,260877.4124738,98
1658941523.09302,260877.4124782,71
1658941523.09302,260877.4124825,52
1658941523.09302,260877.4124868,35
1658941523.09302,260877.4124911,19
1658941523.09302,260877.4124955,4
1658941523.09302,260877.4125014,-9
1658941523.09302,260877.4125058,-21
1658941523.09302,260877.41251,-19
1658941523.09302,260877.412516,-14
1658941523.09302,260877.4125224,-9
1658941523.09302,260877.4125273,-2
1658941523.09302,260877.4125319,4
1658941523.09302,260877.4125379,9
1658941523.09302,260877.4125425,11
1658941523.09302,260877.4125471,16
1658941523.09302,260877.4125533,26
1658941523.09302,260877.4125581,33
1658941523.09302,260877.4125623,40
1658941523.09302,260877.4125674,45
1658941523.09302,260877.4125732,40
1658941523.09302,260877.4125778,43
1658941523.09302,260877.4125829,55
1658941523.09302,260877.4125879,64
1658941523.09302,260877.412594,64
1658941523.09302,260877.4125992,67
1658941523.09302,260877.4126057,67
1658941523.09302,260877.4126142,69
1658941523.09302,260877.4126204,76
1658941523.09302,260877.4126263,81
1658941523.09302,260877.4126357,81
1658941523.09302,260877.4126406,81
1658941523.09302,260877.4126464,79
1658941523.09302,260877.4126541,86
1658941523.09302,260877.4126589,95
1658941523.09302,260877.4126645,103
1658941523.09302,260877.4126701,107
1658941523.09302,260877.412677,105
1658941523.09302,260877.4126857,103
1658941523.09302,260877.4126916,103
1658941523.09302,260877.4126981,110
1658941523.09302,260877.4127033,119
1658941523.09302,260877.4127113,117
1658941523.09302,260877.4127194,107
1658941523.09302,260877.4127247,115
1658941523.09302,260877.4127304,134
1658941523.09302,260877.4127378,150
1658941523.10499,260877.4127434,160
1658941523.10499,260877.4127506,158
1658941523.10499,260877.4127573,139
1658941523.10499,260877.9490043,122
1658941523.10499,260877.9490214,119
1658941523.10499,260877.94903,117
1658941523.10499,260877.9490366,115
1658941523.10499,260877.9490419,124
1658941523.10499,260877.9490493,127
1658941523.10499,260877.9490539,115
1658941523.10499,260877.9490584,105
1658941523.10499,260877.9490627,93
1658941523.10499,260877.9490667,86
1658941523.10499,260877.9490711,174
1658941523.10499,260877.9490751,438
1658941523.10499,260877.9490788,764
1658941523.10499,260877.9490824,917
1658941523.10499,260877.949088,613
1658941523.10499,260877.9490937,23
1658941523.10499,260877.9490976,-155
1658941523.10499,260877.9491031,88
1658941523.10499,260877.9491074,127
1658941523.10499,260877.949113,2
1658941523.10499,260877.9491168,19
1658941523.62479,260877.949123,57
1658941523.62479,260877.9491275,31
1658941523.62479,260877.9491315,31
1658941523.62479,260877.9491356,52
1658941523.62479,260877.9491399,57
1658941523.62479,260877.9491445,57
1658941523.62479,260877.9491487,64
1658941523.62479,260877.9491525,79
1658941523.62479,260877.9491562,88
1658941523.62479,260877.9491601,98
1658941523.62479,260877.9491639,107
1658941523.62479,260877.9491748,115
1658941523.62479,260877.9491787,119
1658941523.62479,260877.9491847,122
1658941523.62479,260877.9491886,134
1658941523.62479,260877.9491939,150
1658941523.62479,260877.9491978,158
1658941523.62479,260877.9493237,160
1658941523.62479,260877.9493316,172
1658941523.62479,260877.9493373,179
1658941523.62479,260877.9493411,177
1658941523.62479,260877.9493467,177
1658941523.62479,260877.9493505,182
1658941523.62479,260877.9493561,174
1658941523.62479,260877.9493617,162
1658941523.62479,260877.9493655,153
1658941523.62479,260877.949371,141
1658941523.62479,260877.9493748,112
1658941523.62479,260877.9493785,79
1658941523.62479,260877.9493823,59
1658941523.62479,260877.949386,43
1658941523.62479,260877.9493898,23
1658941523.62479,260877.9493935,14
1658941523.62479,260877.9493973,11
1658941523.62479,260877.9494011,4
1658941523.62479,260877.9494048,4
1658941523.62479,260877.9494086,16
1658941523.62479,260877.9494124,21
1658941523.62479,260877.9494161,16
1658941523.62479,260877.9494199,16
1658941523.62479,260877.9494236,26
1658941523.62479,260877.9494273,38
1658941523.62479,260877.9494312,45
1658941523.62479,260877.9494351,40
1658941523.62479,260877.9494389,28
1658941523.62479,260877.9494427,23
1658941523.62479,260877.9494465,35
1658941523.62479,260877.9494502,47
1658941523.62479,260877.9495433,47
1658941523.62479,260877.94955,55
1658941523.63676,260877.9495551,62
1658941523.63676,260877.9495609,59
1658941523.63676,260878.4848322,47
1658941523.63676,260878.4848525,26
1658941523.63676,260878.4848659,31
1658941523.63676,260878.4848744,81
1658941523.63676,260878.484877,93
1658941523.63676,260878.4848792,57
1658941523.63676,260878.4848813,52
1658941523.63676,260878.4848835,67
1658941523.63676,260878.4848856,52
1658941523.63676,260878.4848877,33
1658941523.63676,260878.4848899,23
1658941523.63676,260878.484892,35
1658941523.63676,260878.4848941,52
1658941523.63676,260878.4848962,45
1658941523.63676,260878.4848983,26
1658941523.63676,260878.4849005,38
1658941523.63676,260878.4849026,55
1658941523.63676,260878.4849047,40
1658941523.63676,260878.4849069,43
1658941523.63676,260878.4849092,69
1658941523.63676,260878.4849113,55
1658941523.63676,260878.4849135,33
1658941524.16141,260878.4849156,50
1658941524.16141,260878.4849177,50
1658941524.16141,260878.4849197,21
1658941524.16141,260878.4849217,23
1658941524.16141,260878.4849236,38
1658941524.16141,260878.4849257,38
1658941524.16141,260878.4849277,40
1658941524.16141,260878.4849297,35
1658941524.16141,260878.4849316,16
1658941524.16141,260878.4849336,45
1658941524.16141,260878.4849356,222
1658941524.16141,260878.4849377,532
1658941524.16141,260878.4849397,805
1658941524.16141,260878.4849419,774
1658941524.16141,260878.484944,278
1658941524.16141,260878.4849462,-186
1658941524.16141,260878.4849481,-88
1658941524.16141,260878.4849503,127
1658941524.16141,260878.4849575,55
1658941524.16141,260878.4849663,0
1658941524.16141,260878.4849789,67
1658941524.16141,260878.4849919,67
1658941524.16141,260878.4850002,33
1658941524.16141,260878.4850028,62
1658941524.16141,260878.4850051,95
1658941524.16141,260878.4850073,91
1658941524.16141,260878.4850095,81
1658941524.16141,260878.4850116,91
1658941524.16141,260878.4850137,98
1658941524.16141,260878.4850159,103
1658941524.16141,260878.485018,107
1658941524.16141,260878.4850203,112
1658941524.16141,260878.4850225,124
1658941524.16141,260878.4850248,141
1658941524.16141,260878.485027,153
1658941524.16141,260878.4850292,160
1658941524.16141,260878.4850314,160
1658941524.16141,260878.4850335,155
1658941524.16141,260878.4850357,158
1658941524.16141,260878.4850379,170
1658941524.16141,260878.4850401,184
1658941524.16141,260878.4850422,184
1658941524.16141,260878.4850444,172
1658941524.16141,260878.4850467,170
1658941524.16141,260878.4850489,170
1658941524.16141,260878.485051,167
1658941524.16141,260878.4850532,162
1658941524.16141,260878.4850555,134
1658941524.16141,260878.4850576,95
1658941524.16141,260878.4850598,74
1658941524.17039,260878.485062,50
1658941524.17039,260879.0207938,16
1658941524.17039,260879.020812,0
1658941524.17039,260879.0208191,14
1658941524.17039,260879.0208253,21
1658941524.17039,260879.0208326,14
1658941524.17039,260879.020839,16
1658941524.17039,260879.0208455,16
1658941524.17039,260879.0208537,2
1658941524.17039,260879.0208606,0
1658941524.17039,260879.020865,7
1658941524.17039,260879.0208709,14
1658941524.17039,260879.0208816,26
1658941524.17039,260879.0208936,33
1658941524.17039,260879.0209057,23
1658941524.17039,260879.0209157,23
1658941524.17039,260879.020926,31
1658941524.17039,260879.0209343,9
1658941524.17039,260879.0209404,-11
1658941524.17039,260879.0209519,7
1658941524.17039,260879.0209656,43
1658941524.17039,260879.0209758,45
1658941524.17039,260879.0209851,21
1658941524.17039,260879.0209926,19
1658941524.78992,260879.0210007,50
1658941524.78992,260879.0210065,74
1658941524.78992,260879.0210118,59
1658941524.78992,260879.0210166,43
1658941524.78992,260879.0210223,47
1658941524.78992,260879.0210298,55
1658941524.78992,260879.0210365,52
1658941524.78992,260879.0210428,55
1658941524.78992,260879.0210484,79
1658941524.78992,260879.0210535,86
1658941524.78992,260879.0210577,67
1658941524.78992,260879.021064,74
1658941524.78992,260879.0210725,93
1658941524.78992,260879.0210801,76
1658941524.78992,260879.0210874,64
1658941524.78992,260879.0210905,91
1658941524.78992,260879.0210949,117
1658941524.78992,260879.0210999,112
1658941524.78992,260879.0211056,107
1658941524.78992,260879.0211094,124
1658941524.78992,260879.0211125,115
1658941524.78992,260879.0211156,83
1658941524.78992,260879.0211186,88
1658941524.78992,260879.0211234,98
1658941524.78992,260879.0211293,79
1658941524.78992,260879.0211342,71
1658941524.78992,260879.0211472,81
1658941524.78992,260879.0211554,115
1658941524.78992,260879.0211691,143
1658941524.78992,260879.0211811,105
1658941524.78992,260879.0211917,71
1658941524.78992,260879.0212036,162
1658941524.78992,260879.0212122,400
1658941524.78992,260879.0212183,699
1658941524.78992,260879.021231,853
1658941524.78992,260879.0212446,603
1658941524.78992,260879.0212592,64
1658941524.78992,260879.0212713,-131
1658941524.78992,260879.0212799,93
1658941524.78992,260879.0212874,165
1658941524.78992,260879.021295,76
1658941524.78992,260879.0213025,110
1658941524.78992,260879.0213155,134
1658941524.78992,260879.0213283,74
1658941524.78992,260879.021343,71
1658941524.78992,260879.0213523,107
1658941524.78992,260879.0213563,98
1658941524.78992,260879.0213694,88
1658941524.78992,260879.0213772,112
1658941524.78992,260879.0213804,127
1658941524.80089,260879.6549436,143
1658941524.80089,260879.6549605,172
1658941524.80089,260879.6549688,165
1658941524.80089,260879.6549743,139
1658941524.80089,260879.6549808,134
1658941524.80089,260879.6549851,143
1658941524.80089,260879.6549912,162
1658941524.80089,260879.6549958,167
1658941524.80089,260879.6550028,148
1658941524.80089,260879.6550073,139
1658941524.80089,260879.655013,148
1658941524.80089,260879.6550176,148
1658941524.80089,260879.6550234,143
1658941524.80089,260879.6550279,148
1658941524.80089,260879.655034,155
1658941524.80089,260879.6550394,150
1658941524.80089,260879.655045,134
1658941524.80089,260879.6550498,112
1658941524.80089,260879.6550559,98
1658941524.80089,260879.6550614,83
1658941524.80089,260879.6550657,57
1658941524.80089,260879.6550717,33
1658941524.80089,260879.6550763,21
1658941524.80089,260879.6550808,19
1658941525.33689,260879.655085,11
1658941525.33689,260879.6550891,4
1658941525.33689,260879.6550933,14
1658941525.33689,260879.6550974,23
1658941525.33689,260879.6551017,23
1658941525.33689,260879.6551059,28
1658941525.33689,260879.6551102,33
1658941525.33689,260879.6551145,31
1658941525.33689,260879.6551187,33
1658941525.33689,260879.6551245,50
1658941525.33689,260879.6551284,67
1658941525.33689,260879.6551322,64
1658941525.33689,260879.6551363,62
1658941525.33689,260879.6551408,76
1658941525.33689,260879.6551455,83
1658941525.33689,260879.65515,69
1658941525.33689,260879.6551542,64
1658941525.33689,260879.6551586,74
1658941525.33689,260879.655163,76
1658941525.33689,260879.6551673,79
1658941525.33689,260879.6551719,91
1658941525.33689,260879.6551778,88
1658941525.33689,260879.6551847,79
1658941525.33689,260879.6551906,86
1658941525.33689,260879.6551951,95
1658941525.33689,260879.6551997,95
1658941525.33689,260879.6552054,93
1658941525.33689,260879.6552096,91
1658941525.33689,260879.6552142,93
1658941525.33689,260879.6552201,105
1658941525.33689,260879.6552243,110
1658941525.33689,260879.6552287,105
1658941525.33689,260879.6552348,105
1658941525.33689,260879.6552405,110
1658941525.33689,260879.6552469,105
1658941525.33689,260879.6552512,93
1658941525.33689,260879.6552586,95
1658941525.33689,260879.6552631,115
1658941525.33689,260879.6552693,124
1658941525.33689,260879.6552736,129
1658941525.33689,260879.655278,134
1658941525.33689,260879.6552822,131
1658941525.33689,260879.6552882,122
1658941525.33689,260879.6552923,107
1658941525.33689,260879.6552978,98
1658941525.33689,260879.6553023,100
1658941525.33689,260879.6553067,103
1658941525.33689,260879.6553112,95
1658941525.33689,260879.6553173,86
1658941525.33689,260880.1931139,86
1658941525.34786,260880.1931379,86
1658941525.34786,260880.1931526,79
1658941525.34786,260880.1931669,119
1658941525.34786,260880.1931812,301
1658941525.34786,260880.1931896,591
1658941525.34786,260880.1931925,819
1658941525.34786,260880.1931947,752
1658941525.34786,260880.193197,275
1658941525.34786,260880.1931993,-127
1658941525.34786,260880.1932014,-23
1658941525.34786,260880.1932037,153
1658941525.34786,260880.1932068,69
1658941525.34786,260880.1932199,7
1658941525.34786,260880.1932282,38
1658941525.34786,260880.1932309,40
1658941525.34786,260880.1932332,40
1658941525.34786,260880.1932354,57
1658941525.34786,260880.1932376,57
1658941525.34786,260880.1932405,40
1658941525.34786,260880.1932514,26
1658941525.34786,260880.1932584,38
1658941525.34786,260880.1932608,64
1658941525.34786,260880.1932629,74
1658941525.34786,260880.1932651,71
1658941525.8649,260880.1932673,79
1658941525.8649,260880.1932694,91
1658941525.8649,260880.1932714,88
1658941525.8649,260880.1932735,88
1658941525.8649,260880.1932755,124
1658941525.8649,260880.1932775,150
1658941525.8649,260880.1932795,122
1658941525.8649,260880.1932816,100
1658941525.8649,260880.1932837,122
1658941525.8649,260880.1932857,146
1658941525.8649,260880.1932877,148
1658941525.8649,260880.1932897,153
1658941525.8649,260880.1932918,162
1658941525.8649,260880.1932991,158
1658941525.8649,260880.1933011,131
1658941525.8649,260880.1933032,105
1658941525.8649,260880.1933071,100
1658941525.8649,260880.1933093,93
1658941525.8649,260880.1933114,64
1658941525.8649,260880.1933136,38
1658941525.8649,260880.1933156,31
1658941525.8649,260880.1933177,33
1658941525.8649,260880.1933199,35
1658941525.8649,260880.193322,35
1658941525.8649,260880.1933241,38
1658941525.8649,260880.1933262,35
1658941525.8649,260880.1933284,28
1658941525.8649,260880.1933305,21
1658941525.8649,260880.1933326,26
1658941525.8649,260880.1933348,40
1658941525.8649,260880.1933369,59
1658941525.8649,260880.193339,69
1658941525.8649,260880.1933411,62
1658941525.8649,260880.1933433,55
1658941525.8649,260880.1933454,67
1658941525.8649,260880.1933478,91
1658941525.8649,260880.1933502,98
1658941525.8649,260880.1933523,93
1658941525.8649,260880.1933544,91
1658941525.8649,260880.1933566,74
1658941525.8649,260880.1933588,62
1658941525.8649,260880.193361,95
1658941525.8649,260880.1933631,122
1658941525.8649,260880.1933653,100
1658941525.8649,260880.1933674,88
1658941525.8649,260880.1933695,105
1658941525.8649,260880.1933717,112
1658941525.8649,260880.1933739,105
1658941525.8649,260880.727754,112
1658941525.8649,260880.7277734,115
1658941525.87588,260880.7277852,105
1658941525.87588,260880.727795,112
1658941525.87588,260880.7278064,112
1658941525.87588,260880.7278721,105
1658941525.87588,260880.7278861,112
1658941525.87588,260880.7278963,117
1658941525.87588,260880.7279042,122
1658941525.87588,260880.7279097,131
1658941525.87588,260880.7279186,124
1658941525.87588,260880.7279271,122
1658941525.87588,260880.7279328,127
1658941525.87588,260880.7279452,143
1658941525.87588,260880.727957,160
1658941525.87588,260880.7279649,141
1658941525.87588,260880.7279726,100
1658941525.87588,260880.7279833,79
1658941525.87588,260880.7279944,86
1658941525.87588,260880.7280004,95
1658941525.87588,260880.7280079,93
1658941525.87588,260880.7280153,93
1658941525.87588,260880.7280224,93
1658941525.87588,260880.7280311,76
1658941525.87588,260880.7280408,55
1658941525.87588,260880.7280469,52
1658941526.45226,260880.7280492,112
1658941526.45226,260880.7280516,313
1658941526.45226,260880.728059,625
1658941526.45226,260880.7280687,850
1658941526.45226,260880.7280791,723
1658941526.45226,260880.7280849,198
1658941526.45226,260880.7280907,-155
1658941526.45226,260880.7280968,-9
1658941526.45226,260880.7281076,136
1658941526.45226,260880.7281201,50
1658941526.45226,260880.7281333,28
1658941526.45226,260880.7281468,74
1658941526.45226,260880.72816,59
1658941526.45226,260880.7281734,52
1658941526.45226,260880.7281863,79
1658941526.45226,260880.7281996,83
1658941526.45226,260880.7282127,81
1658941526.45226,260880.7282259,100
1658941526.45226,260880.7282344,110
1658941526.45226,260880.728238,95
1658941526.45226,260880.7282403,98
1658941526.45226,260880.7282425,115
1658941526.45226,260880.7282447,119
1658941526.45226,260880.7282469,124
1658941526.45226,260880.728249,141
1658941526.45226,260880.7282511,141
1658941526.45226,260880.7282533,150
1658941526.45226,260880.7282554,174
1658941526.45226,260880.7282576,162
1658941526.45226,260880.7282613,143
1658941526.45226,260880.7282742,165
1658941526.45226,260880.7282869,194
1658941526.45226,260880.7283002,198
1658941526.45226,260880.7283133,194
1658941526.45226,260880.7283266,186
1658941526.45226,260880.7283394,179
1658941526.45226,260880.7283521,174
1658941526.45226,260880.7283649,165
1658941526.45226,260880.7283782,139
1658941526.45226,260880.7283917,112
1658941526.45226,260880.7284046,95
1658941526.45226,260880.7284178,67
1658941526.45226,260880.7284295,47
1658941526.45226,260880.728438,50
1658941526.45226,260880.7284448,55
1658941526.45226,260880.7284532,52
1658941526.45226,260880.7284611,45
1658941526.45226,260881.315162,43
1658941526.45226,260881.3152,50
1658941526.45226,260881.315212,50
1658941526.46423,260881.315217,52
1658941526.46423,260881.3152232,69
1658941526.46423,260881.3152294,79
1658941526.46423,260881.3152356,67
1658941526.46423,260881.3152417,43
1658941526.46423,260881.3152481,33
1658941526.46423,260881.3152554,62
1658941526.46423,260881.3152633,86
1658941526.46423,260881.315267,81
1658941526.46423,260881.3152711,69
1658941526.46423,260881.3152745,55
1658941526.46423,260881.3152776,47
1658941526.46423,260881.3152831,55
1658941526.46423,260881.3152879,62
1658941526.46423,260881.3152911,50
1658941526.46423,260881.3152947,43
1658941526.46423,260881.3152979,59
1658941526.46423,260881.3153017,71
1658941526.46423,260881.3153057,67
1658941526.46423,260881.3153087,74
1658941526.46423,260881.315312,74
1658941526.46423,260881.3153153,50
1658941526.46423,260881.3153185,59
1658941526.46423,260881.3153221,95
1658941526.98632,260881.3153325,81
1658941526.98632,260881.3153387,71

1658941526.98632,260881.3153445,98
1658941526.98632,260881.3153502,103
1658941526.98632,260881.3153573,91
1658941526.98632,260881.3153667,93
1658941526.98632,260881.3153733,93
1658941526.98632,260881.3153796,98
1658941526.98632,260881.3153882,122
1658941526.98632,260881.3153948,124
1658941526.98632,260881.3154008,95
1658941526.98632,260881.3154044,81
1658941526.98632,260881.3154079,83
1658941526.98632,260881.3154114,93
1658941526.98632,260881.3154146,88
1658941526.98632,260881.3154181,76
1658941526.98632,260881.3154212,71
1658941526.98632,260881.3154244,79
1658941526.98632,260881.3154297,83
1658941526.98632,260881.3154333,91
1658941526.98632,260881.3154367,86
1658941526.98632,260881.3154402,119
1658941526.98632,260881.3154435,321
1658941526.98632,260881.3154468,651
1658941526.98632,260881.31545,881
1658941526.98632,260881.315453,754
1658941526.98632,260881.3154561,222
1658941526.98632,260881.3154598,-148
1658941526.98632,260881.3154648,11
1658941526.98632,260881.3154682,160
1658941526.98632,260881.3154716,45
1658941526.98632,260881.3154751,19
1658941526.98632,260881.3154788,83
1658941526.98632,260881.3154822,64
1658941526.98632,260881.3154853,45
1658941526.98632,260881.3154887,83
1658941526.98632,260881.315492,98
1658941526.98632,260881.3154974,81
1658941526.98632,260881.3155011,79
1658941526.98632,260881.3155048,103
1658941526.98632,260881.3155094,117
1658941526.98632,260881.3155126,115
1658941526.98632,260881.315516,119
1658941526.98632,260881.3155199,131
1658941526.98632,260881.3155289,129
1658941526.98632,260881.3155374,136
1658941526.98632,260881.8507369,160
1658941526.98632,260881.8507503,177
1658941526.98632,260881.8507545,179
1658941526.98632,260881.8507568,172
1658941526.99829,260881.8507591,167
1658941526.99829,260881.8507613,177
1658941526.99829,260881.8507634,184
1658941526.99829,260881.8507656,186
1658941526.99829,260881.8507677,186
1658941526.99829,260881.8507698,177
1658941526.99829,260881.850772,155
1658941526.99829,260881.8507741,129
1658941526.99829,260881.8507763,117
1658941526.99829,260881.8507784,103
1658941526.99829,260881.8507817,76
1658941526.99829,260881.8507947,52
1658941526.99829,260881.850803,14
1658941526.99829,260881.8508055,-28
1658941526.99829,260881.8508078,-31
1658941526.99829,260881.8508099,-9
1658941526.99829,260881.850812,-21
1658941526.99829,260881.8508142,-31
1658941526.99829,260881.8508163,-11
1658941526.99829,260881.8508184,-2
1658941526.99829,260881.8508212,-7
1658941526.99829,260881.8508324,4
1658941526.99829,260881.8508397,21
1658941526.99829,260881.8508422,19
1658941527.52403,260881.8508445,9
1658941527.52403,260881.8508466,4
1658941527.52403,260881.8508486,9
1658941527.52403,260881.8508508,26
1658941527.52403,260881.8508588,33
1658941527.52403,260881.8508757,38
1658941527.52403,260881.8508798,47
1658941527.52403,260881.8508852,52
1658941527.52403,260881.8508917,50
1658941527.52403,260881.8508998,55
1658941527.52403,260881.8509086,57
1658941527.52403,260881.8509111,52
1658941527.52403,260881.8509133,59
1658941527.52403,260881.8509154,57
1658941527.52403,260881.8509207,52
1658941527.52403,260881.850932,67
1658941527.52403,260881.8509375,81
1658941527.52403,260881.8509422,74
1658941527.52403,260881.8509495,64
1658941527.52403,260881.8509602,74
1658941527.52403,260881.8509648,88
1658941527.52403,260881.850967,83
1658941527.52403,260881.8509692,83
1658941527.52403,260881.850977,86
1658941527.52403,260881.8509927,88
1658941527.52403,260881.8510075,93
1658941527.52403,260881.8510158,93
1658941527.52403,260881.8510192,95
1658941527.52403,260881.851025,115
1658941527.52403,260881.8510282,141
1658941527.52403,260881.8510337,136
1658941527.52403,260881.8510367,119
1658941527.52403,260881.8510398,105
1658941527.52403,260881.8510428,93
1658941527.52403,260881.8510457,95
1658941527.52403,260881.8510488,103
1658941527.52403,260881.8510517,103
1658941527.52403,260881.8510548,103
1658941527.52403,260881.8510577,105
1658941527.52403,260881.8510607,110
1658941527.52403,260881.8510635,107
1658941527.52403,260881.8510664,95
1658941527.52403,260881.8510695,136
1658941527.52403,260881.8510725,311
1658941527.52403,260881.8510755,589
1658941527.52403,260882.3891008,826
1658941527.52403,260882.389121,769
1658941527.52403,260882.3891289,289
1658941527.52403,260882.3891393,-103
1658941527.52403,260882.389167,-2
1658941527.53599,260882.389174,143
1658941527.53599,260882.3891771,59
1658941527.53599,260882.3891801,19
1658941527.53599,260882.3891862,62
1658941527.53599,260882.3891904,45
1658941527.53599,260882.3891945,21
1658941527.53599,260882.3891977,43
1658941527.53599,260882.3892007,64
1658941527.53599,260882.3892037,59
1658941527.53599,260882.3892069,57
1658941527.53599,260882.3892138,67
1658941527.53599,260882.3892207,76
1658941527.53599,260882.3892269,86
1658941527.53599,260882.3892336,100
1658941527.53599,260882.3892397,98
1658941527.53599,260882.3892458,91
1658941527.53599,260882.3892492,100
1658941527.53599,260882.3892522,95
1658941527.53599,260882.3892552,79
1658941527.53599,260882.3892583,93
1658941527.53599,260882.3892612,119
1658941527.53599,260882.3892642,115
1658941527.53599,260882.3892672,107
1658941527.53599,260882.3892703,119
1658941528.15447,260882.3892744,129
1658941528.15447,260882.3892812,131
1658941528.15447,260882.3892849,134
1658941528.15447,260882.3892907,124
1658941528.15447,260882.3892952,105
1658941528.15447,260882.3892988,93
1658941528.15447,260882.3893023,83
1658941528.15447,260882.3893059,64
1658941528.15447,260882.3893095,43
1658941528.15447,260882.3893136,16
1658941528.15447,260882.389318,4
1658941528.15447,260882.3893215,-2
1658941528.15447,260882.389325,-14
1658941528.15447,260882.3893296,-9
1658941528.15447,260882.3893333,-2
1658941528.15447,260882.3893369,-4
1658941528.15447,260882.3893424,0
1658941528.15447,260882.3893466,4
1658941528.15447,260882.3893502,11
1658941528.15447,260882.3893539,38
1658941528.15447,260882.3893594,55
1658941528.15447,260882.389364,40
1658941528.15447,260882.3893678,31
1658941528.15447,260882.3893716,47
1658941528.15447,260882.3893765,59
1658941528.15447,260882.3893802,62
1658941528.15447,260882.3893837,67
1658941528.15447,260882.3893871,71
1658941528.15447,260882.3893908,71
1658941528.15447,260882.3893943,69
1658941528.15447,260882.3893978,67
1658941528.15447,260882.3894028,62
1658941528.15447,260882.3894063,67
1658941528.15447,260882.3894099,79
1658941528.15447,260882.3894134,74
1658941528.15447,260882.389417,59
1658941528.15447,260882.3894206,67
1658941528.15447,260882.3894262,83
1658941528.15447,260882.3894296,91
1658941528.15447,260882.3894331,83
1658941528.15447,260882.3894365,79
1658941528.15447,260882.38944,81
1658941528.15447,260882.3894435,88
1658941528.15447,260882.3894491,93
1658941528.15447,260883.0186951,95
1658941528.15447,260883.0187158,100
1658941528.15447,260883.0187228,107
1658941528.15447,260883.0187264,86
1658941528.15447,260883.0187298,57
1658941528.15447,260883.0187328,79
1658941528.16741,260883.0187361,112
1658941528.16741,260883.0187393,119
1658941528.16741,260883.0187426,115
1658941528.16741,260883.0187458,100
1658941528.16741,260883.0187504,62
1658941528.16741,260883.0187534,38
1658941528.16741,260883.0187564,55
1658941528.16741,260883.0187596,69
1658941528.16741,260883.0187645,50
1658941528.16741,260883.0187675,35
1658941528.16741,260883.0187704,40
1658941528.16741,260883.0187733,40
1658941528.16741,260883.0187761,33
1658941528.16741,260883.0187788,38
1658941528.16741,260883.0187818,91
1658941528.16741,260883.0187846,261
1658941528.16741,260883.0187881,534
1658941528.16741,260883.0187909,774
1658941528.16741,260883.0187938,723
1658941528.16741,260883.0187967,242
1658941528.16741,260883.0187997,-165
1658941528.16741,260883.0188026,-50
1658941528.16741,260883.0188055,117
1658941528.16741,260883.0188084,26
1658941528.69027,260883.0188116,-2
1658941528.69027,260883.0188145,55
1658941528.69027,260883.0188173,31
1658941528.69027,260883.0188203,16
1658941528.69027,260883.018823,57
1658941528.69027,260883.0188257,64
1658941528.69027,260883.0188286,52
1658941528.69027,260883.0188315,79
1658941528.69027,260883.0188341,93
1658941528.69027,260883.0188369,74
1658941528.69027,260883.01884,71
1658941528.69027,260883.0188501,100
1658941528.69027,260883.0188572,115
1658941528.69027,260883.018864,115
1658941528.69027,260883.0188723,127
1658941528.69027,260883.0188808,141
1658941528.69027,260883.0188871,158
1658941528.69027,260883.0188921,165
1658941528.69027,260883.0188954,150
1658941528.69027,260883.0188986,146
1658941528.69027,260883.0189014,158
1658941528.69027,260883.0189044,167
1658941528.69027,260883.0189073,170
1658941528.69027,260883.0189102,167
1658941528.69027,260883.018913,153
1658941528.69027,260883.0189159,141
1658941528.69027,260883.0189187,143
1658941528.69027,260883.0189215,131
1658941528.69027,260883.0189249,107
1658941528.69027,260883.0189278,83
1658941528.69027,260883.0189317,71
1658941528.69027,260883.0189347,62
1658941528.69027,260883.0189377,47
1658941528.69027,260883.0189408,33
1658941528.69027,260883.0189438,28
1658941528.69027,260883.0189468,21
1658941528.69027,260883.0189498,26
1658941528.69027,260883.0189529,38
1658941528.69027,260883.018956,35
1658941528.69027,260883.018959,45
1658941528.69027,260883.018962,59
1658941528.69027,260883.018965,55
1658941528.69027,260883.0189679,57
1658941528.69027,260883.5548823,74
1658941528.69027,260883.5548969,71
1658941528.69027,260883.5549008,62
1658941528.69027,260883.554904,81
1658941528.69027,260883.5549071,98
1658941528.69027,260883.5549103,86
1658941528.69027,260883.5549135,81
1658941528.70224,260883.5549168,93
1658941528.70224,260883.5549214,93
1658941528.70224,260883.5549244,79
1658941528.70224,260883.5549273,74
1658941528.70224,260883.5549302,81
1658941528.70224,260883.5549332,83
1658941528.70224,260883.5549361,67
1658941528.70224,260883.5549403,52
1658941528.70224,260883.5549433,57
1658941528.70224,260883.5549504,64
1658941528.70224,260883.555004,69
1658941528.70224,260883.5550156,71
1658941528.70224,260883.5550201,64
1658941528.70224,260883.5550239,45
1658941528.70224,260883.5550291,43
1658941528.70224,260883.5550329,57
1658941528.70224,260883.5550364,69
1658941528.70224,260883.5550401,79
1658941528.70224,260883.5550441,79
1658941528.70224,260883.5550476,69
1658941528.70224,260883.5550512,71
1658941528.70224,260883.555055,91
1658941528.70224,260883.5550587,110
1658941528.70224,260883.5550622,127
1658941529.23092,260883.5550658,141
1658941529.23092,260883.5550694,131
1658941529.23092,260883.5550736,112
1658941529.23092,260883.5550772,107
1658941529.23092,260883.5550807,103
1658941529.23092,260883.555084,98
1658941529.23092,260883.5550876,105
1658941529.23092,260883.5550912,107
1658941529.23092,260883.555095,105
1658941529.23092,260883.5550988,110
1658941529.23092,260883.5551025,110
1658941529.23092,260883.5551064,93
1658941529.23092,260883.5551099,100
1658941529.23092,260883.5551134,215
1658941529.23092,260883.5551171,469
1658941529.23092,260883.5551209,771
1658941529.23092,260883.5551246,901
1658941529.23092,260883.5551282,575
1658941529.23092,260883.5551324,16
1658941529.23092,260883.5551365,-103
1658941529.23092,260883.5551402,117
1658941529.23092,260883.5551439,112
1658941529.23092,260883.5551476,7
1658941529.23092,260883.5551516,50
1658941529.23092,260883.5551552,86
1658941529.23092,260883.5551588,52
1658941529.23092,260883.5551625,55
1658941529.23092,260883.5551662,74
1658941529.23092,260883.5551699,76
1658941529.23092,260883.5551738,91
1658941529.23092,260883.5551772,103
1658941529.23092,260883.5551816,103
1658941529.23092,260883.5551848,112
1658941529.23092,260883.5551887,119
1658941529.23092,260883.5551926,115
1658941529.23092,260883.5551961,124
1658941529.23092,260883.5552,148
1658941529.23092,260883.5552038,148
1658941529.23092,260883.5552078,143
1658941529.23092,260883.5552113,158
1658941529.23092,260883.5552154,165
1658941529.23092,260883.5552193,162
1658941529.23092,260884.0912666,167
1658941529.23092,260884.0912789,150
1658941529.23092,260884.0912833,131
1658941529.23092,260884.0912889,141
1658941529.23092,260884.0912915,146
1658941529.23092,260884.091295,136
1658941529.23092,260884.0912974,139
1658941529.23092,260884.0912999,131
1658941529.24089,260884.0913024,112
1658941529.24089,260884.0913047,95
1658941529.24089,260884.0913071,59
1658941529.24089,260884.0913095,28
1658941529.24089,260884.091312,21
1658941529.24089,260884.0913143,4
1658941529.24089,260884.0913168,-7
1658941529.24089,260884.0913192,4
1658941529.24089,260884.0913216,-2
1658941529.24089,260884.091324,-21
1658941529.24089,260884.0913264,-11
1658941529.24089,260884.0913288,7
1658941529.24089,260884.0913313,11
1658941529.24089,260884.0913337,19
1658941529.24089,260884.0913361,23
1658941529.24089,260884.0913385,23
1658941529.24089,260884.0913409,33
1658941529.24089,260884.0913432,45
1658941529.24089,260884.0913456,52
1658941529.24089,260884.0913481,55
1658941529.24089,260884.0913504,57
1658941529.24089,260884.0913527,69
1658941529.24089,260884.091355,81
1658941529.24089,260884.0913572,81
1658941529.81845,260884.0913595,67
1658941529.81845,260884.091362,62
1658941529.81845,260884.0913642,74
1658941529.81845,260884.0913663,81
1658941529.81845,260884.0913686,81
1658941529.81845,260884.0913707,98
1658941529.81845,260884.0913729,105
1658941529.81845,260884.0913806,86
1658941529.81845,260884.0913827,79
1658941529.81845,260884.0913846,91
1658941529.81845,260884.0913868,93
1658941529.81845,260884.0913889,103
1658941529.81845,260884.091391,134
1658941529.81845,260884.0913932,148
1658941529.81845,260884.0913953,105
1658941529.81845,260884.0913974,76
1658941529.81845,260884.0913996,112
1658941529.81845,260884.0914017,124
1658941529.81845,260884.0914038,103
1658941529.81845,260884.0914058,107
1658941529.81845,260884.091408,122
1658941529.81845,260884.09141,131
1658941529.81845,260884.0914121,160
1658941529.81845,260884.0914142,182
1658941529.81845,260884.0914163,160
1658941529.81845,260884.0914184,124
1658941529.81845,260884.0914205,119
1658941529.81845,260884.0914226,129
1658941529.81845,260884.0914247,146
1658941529.81845,260884.0914268,158
1658941529.81845,260884.091429,139
1658941529.81845,260884.0914312,110
1658941529.81845,260884.0914334,110
1658941529.81845,260884.0914356,110
1658941529.81845,260884.0914378,103
1658941529.81845,260884.0914399,146
1658941529.81845,260884.0914421,340
1658941529.81845,260884.0914443,680
1658941529.81845,260884.0914465,949
1658941529.81845,260884.0914486,802
1658941529.81845,260884.0914507,206
1658941529.81845,260884.6786809,-201
1658941529.81845,260884.6787018,-33
1658941529.81845,260884.6787109,150
1658941529.81845,260884.6787162,50
1658941529.81845,260884.6787224,7
1658941529.81845,260884.6787255,64
1658941529.81845,260884.6787295,59
1658941529.81845,260884.6787325,23
1658941529.81845,260884.6787355,33
1658941529.83042,260884.6787385,64
1658941529.83042,260884.6787416,69
1658941529.83042,260884.6787448,69
1658941529.83042,260884.6787523,76
1658941529.83042,260884.6787638,55
1658941529.83042,260884.6787674,35
1658941529.83042,260884.6787718,59
1658941529.83042,260884.678774,76
1658941529.83042,260884.678777,83
1658941529.83042,260884.6787794,100
1658941529.83042,260884.6787815,95
1658941529.83042,260884.6787837,95
1658941529.83042,260884.6787859,127
1658941529.83042,260884.6787881,153
1658941529.83042,260884.6787903,136
1658941529.83042,260884.6787925,105
1658941529.83042,260884.6787947,112
1658941529.83042,260884.6787969,122
1658941529.83042,260884.6787991,98
1658941529.83042,260884.6788013,95
1658941529.83042,260884.6788035,112
1658941529.83042,260884.6788057,103
1658941529.83042,260884.6788079,91
1658941529.83042,260884.67881,79
1658941530.35467,260884.6788123,19
1658941530.35467,260884.6788145,-26
1658941530.35467,260884.6788166,-16
1658941530.35467,260884.6788187,-21
1658941530.35467,260884.6788208,-31
1658941530.35467,260884.678823,-19
1658941530.35467,260884.6788251,-23
1658941530.35467,260884.6788271,-31
1658941530.35467,260884.6788292,-33
1658941530.35467,260884.6788312,-28
1658941530.35467,260884.6788333,-9
1658941530.35467,260884.6788353,-9
1658941530.35467,260884.6788374,-35
1658941530.35467,260884.6788394,-23
1658941530.35467,260884.6788415,21
1658941530.35467,260884.6788435,23
1658941530.35467,260884.6788456,-9
1658941530.35467,260884.6788476,7
1658941530.35467,260884.6788496,47
1658941530.35467,260884.6788519,45
1658941530.35467,260884.6788551,38
1658941530.35467,260884.6788573,33
1658941530.35467,260884.6788594,9
1658941530.35467,260884.6788616,21
1658941530.35467,260884.6788638,45
1658941530.35467,260884.6788659,33
1658941530.35467,260884.6788681,31
1658941530.35467,260884.6788703,11
1658941530.35467,260884.6788725,-31
1658941530.35467,260884.6788747,-2
1658941530.35467,260884.6788769,50
1658941530.35467,260884.6788791,45
1658941530.35467,260884.6788813,47
1658941530.35467,260884.6788835,67
1658941530.35467,260884.6788858,33
1658941530.35467,260884.6788879,2
1658941530.35467,260884.6788901,50
1658941530.35467,260884.6788923,79
1658941530.35467,260884.6788945,40
1658941530.35467,260884.6788967,28
1658941530.35467,260885.2141624,55
1658941530.35467,260885.2141757,79
1658941530.35467,260885.214179,105
1658941530.35467,260885.2141818,110
1658941530.35467,260885.2141844,98
1658941530.35467,260885.2141869,105
1658941530.35467,260885.2141895,105
1658941530.35467,260885.2141921,88
1658941530.35467,260885.2141946,88
1658941530.35467,260885.2141971,110
1658941530.36763,260885.2142007,117
1658941530.36763,260885.2142052,91
1658941530.36763,260885.2142116,67
1658941530.36763,260885.2142161,88
1658941530.36763,260885.2142208,112
1658941530.36763,260885.2142276,81
1658941530.36763,260885.2142321,40
1658941530.36763,260885.2142357,95
1658941530.36763,260885.2142378,301
1658941530.36763,260885.2142401,601
1658941530.36763,260885.2142456,836
1658941530.36763,260885.2142571,716
1658941530.36763,260885.2142629,170
1658941530.36763,260885.2142658,-196
1658941530.36763,260885.214268,-28
1658941530.36763,260885.2142702,95
1658941530.36763,260885.2142737,-21
1658941530.36763,260885.2142836,-19
1658941530.36763,260885.2142893,50
1658941530.36763,260885.2142932,28
1658941530.36763,260885.2142981,11
1658941530.36763,260885.2143016,43
1658941530.36763,260885.2143066,55
1658941530.36763,260885.2143108,62
1658941530.88838,260885.214316,91
1658941530.88838,260885.2143193,107
1658941530.88838,260885.2143227,86
1658941530.88838,260885.214326,83
1658941530.88838,260885.2143292,119
1658941530.88838,260885.2143324,139
1658941530.88838,260885.2143355,131
1658941530.88838,260885.2143388,122
1658941530.88838,260885.2143421,103
1658941530.88838,260885.2143454,107
1658941530.88838,260885.2143489,162
1658941530.88838,260885.2143523,191
1658941530.88838,260885.2143593,174
1658941530.88838,260885.2143631,160
1658941530.88838,260885.2143671,167
1658941530.88838,260885.2143707,182
1658941530.88838,260885.2143745,182
1658941530.88838,260885.2143822,160
1658941530.88838,260885.2143883,129
1658941530.88838,260885.2143915,115
1658941530.88838,260885.2143946,122
1658941530.88838,260885.2143977,115
1658941530.88838,260885.2144006,74
1658941530.88838,260885.2144037,57
1658941530.88838,260885.2144067,43
1658941530.88838,260885.2144098,11
1658941530.88838,260885.2144144,11
1658941530.88838,260885.2144198,28
1658941530.88838,260885.2144232,33
1658941530.88838,260885.2144264,33
1658941530.88838,260885.2144296,26
1658941530.88838,260885.2144333,28
1658941530.88838,260885.2144365,43
1658941530.88838,260885.2144415,62
1658941530.88838,260885.2144466,86
1658941530.88838,260885.2144499,81
1658941530.88838,260885.2144533,52
1658941530.88838,260885.2144567,74
1658941530.88838,260885.21446,117
1658941530.88838,260885.7488025,122
1658941530.88838,260885.7488151,93
1658941530.88838,260885.7488187,88
1658941530.88838,260885.7488238,115
1658941530.88838,260885.7488265,122
1658941530.88838,260885.7488291,100
1658941530.88838,260885.7488317,79
1658941530.88838,260885.7488342,74
1658941530.88838,260885.7488366,79
1658941530.88838,260885.7488391,69
1658941530.88838,260885.7488415,71
1658941530.90135,260885.7488439,79
1658941530.90135,260885.7488463,45
1658941530.90135,260885.7488488,21
1658941530.90135,260885.7488512,52
1658941530.90135,260885.7488536,71
1658941530.90135,260885.748856,62
1658941530.90135,260885.7488584,55
1658941530.90135,260885.7488609,62
1658941530.90135,260885.7488634,55
1658941530.90135,260885.7488658,45
1658941530.90135,260885.7488683,52
1658941530.90135,260885.7488707,64
1658941530.90135,260885.7488732,64
1658941530.90135,260885.7488756,67
1658941530.90135,260885.748878,79
1658941530.90135,260885.7488804,86
1658941530.90135,260885.7488829,95
1658941530.90135,260885.7488853,115
1658941530.90135,260885.7488876,112
1658941530.90135,260885.74889,91
1658941530.90135,260885.7488923,81
1658941530.90135,260885.7488946,83
1658941530.90135,260885.7488969,93
1658941530.90135,260885.7489058,103
1658941531.56596,260885.7489079,103
1658941531.56596,260885.7489099,110
1658941531.56596,260885.7489121,117
1658941531.56596,260885.7489141,100
1658941531.56596,260885.7489161,86
1658941531.56596,260885.7489181,174
1658941531.56596,260885.7489201,407
1658941531.56596,260885.7489221,707
1658941531.56596,260885.7489241,850
1658941531.56596,260885.7489262,560
1658941531.56596,260885.7489282,-16
1658941531.56596,260885.7489302,-179
1658941531.56596,260885.7489323,88
1658941531.56596,260885.7489342,131
1658941531.56596,260885.7489363,14
1658941531.56596,260885.7489383,47
1658941531.56596,260885.7489403,83
1658941531.56596,260885.7489423,52
1658941531.56596,260885.7489442,69
1658941531.56596,260885.7489462,107
1658941531.56596,260885.7489484,105
1658941531.56596,260885.7489505,71
1658941531.56596,260885.7489525,74
1658941531.56596,260885.7489545,115
1658941531.56596,260885.7489565,122
1658941531.56596,260885.7489588,127
1658941531.56596,260885.7489619,155
1658941531.56596,260885.7489641,141
1658941531.56596,260885.7489663,107
1658941531.56596,260885.7489684,127
1658941531.56596,260885.7489706,153
1658941531.56596,260885.7489728,162
1658941531.56596,260885.7489749,194
1658941531.56596,260885.748977,222
1658941531.56596,260885.7489792,215
1658941531.56596,260885.7489813,196
1658941531.56596,260885.7489834,201
1658941531.56596,260885.7489856,220
1658941531.56596,260886.4316198,215
1658941531.56596,260886.4316417,215
1658941531.56596,260886.4316516,230
1658941531.56596,260886.4316554,206
1658941531.56596,260886.4316589,146
1658941531.56596,260886.4316622,95
1658941531.56596,260886.4316657,79
1658941531.56596,260886.4316701,88
1658941531.56596,260886.4316748,86
1658941531.56596,260886.4316792,43
1658941531.56596,260886.4316845,4
1658941531.56596,260886.431688,4
1658941531.57793,260886.4316914,2
1658941531.57793,260886.431695,-11
1658941531.57793,260886.4316986,2
1658941531.57793,260886.4317024,59
1658941531.57793,260886.431706,93
1658941531.57793,260886.4317093,52
1658941531.57793,260886.4317129,33
1658941531.57793,260886.4317165,81
1658941531.57793,260886.431721,103
1658941531.57793,260886.4317266,79
1658941531.57793,260886.4317335,74
1658941531.57793,260886.4317372,71
1658941531.57793,260886.4317421,79
1658941531.57793,260886.4317453,105
1658941531.57793,260886.4317485,107
1658941531.57793,260886.4317517,112
1658941531.57793,260886.4317549,129
1658941531.57793,260886.431758,100
1658941531.57793,260886.4317635,69
1658941531.57793,260886.431772,95
1658941531.57793,260886.4317763,107
1658941531.57793,260886.4317798,91
1658941531.57793,260886.4317832,100
1658941531.57793,260886.4317864,110
1658941532.15474,260886.43179,93
1658941532.15474,260886.4317935,88
1658941532.15474,260886.4317965,93
1658941532.15474,260886.4317997,95
1658941532.15474,260886.4318029,110
1658941532.15474,260886.4318063,122
1658941532.15474,260886.4318096,105
1658941532.15474,260886.4318137,88
1658941532.15474,260886.4318178,105
1658941532.15474,260886.431822,119
1658941532.15474,260886.4318285,117
1658941532.15474,260886.4318351,119
1658941532.15474,260886.4318415,146
1658941532.15474,260886.4318484,177
1658941532.15474,260886.4318553,167
1658941532.15474,260886.431866,141
1658941532.15474,260886.4318727,148
1658941532.15474,260886.4318778,153
1658941532.15474,260886.4318815,143
1658941532.15474,260886.4318855,148
1658941532.15474,260886.4318911,158
1658941532.15474,260886.4318951,158
1658941532.15474,260886.431906,146
1658941532.15474,260886.4319121,155
1658941532.15474,260886.4319172,182
1658941532.15474,260886.431922,160
1658941532.15474,260886.4319304,131
1658941532.15474,260886.431937,289
1658941532.15474,260886.4319415,642
1658941532.15474,260886.4319486,922
1658941532.15474,260886.4319545,879
1658941532.15474,260886.4319604,431
1658941532.15474,260886.4319668,-16
1658941532.15474,260886.4319727,4
1658941532.15474,260886.4319793,170
1658941532.15474,260886.4319854,105
1658941532.15474,260886.4319913,71
1658941532.15474,260887.0171378,131
1658941532.15474,260887.0171573,98
1658941532.15474,260887.0171682,55
1658941532.15474,260887.0171779,91
1658941532.15474,260887.0171851,115
1658941532.15474,260887.0171905,115
1658941532.15474,260887.0171968,141
1658941532.15474,260887.0172036,146
1658941532.15474,260887.017216,110
1658941532.15474,260887.0172271,117
1658941532.15474,260887.0172375,141
1658941532.15474,260887.0172485,141
1658941532.15474,260887.0172521,146
1658941532.16571,260887.0172552,153
1658941532.16571,260887.0172611,150
1658941532.16571,260887.0172721,141
1658941532.16571,260887.0172817,131
1658941532.16571,260887.0172905,148
1658941532.16571,260887.0172999,174
1658941532.16571,260887.0173107,177
1658941532.16571,260887.0173135,165
1658941532.16571,260887.0173173,170
1658941532.16571,260887.0173315,177
1658941532.16571,260887.0173409,174
1658941532.16571,260887.0173524,167
1658941532.16571,260887.0173637,143
1658941532.16571,260887.0173708,115
1658941532.16571,260887.0173733,93
1658941532.16571,260887.0173755,55
1658941532.16571,260887.0173777,16
1658941532.16571,260887.0173799,-7
1658941532.16571,260887.017385,-26
1658941532.16571,260887.0173963,-33
1658941532.16571,260887.01741,-31
1658941532.16571,260887.0174274,-33
1658941532.16571,260887.0174393,-43
1658941532.16571,260887.0174464,-43
1658941532.60047,260887.0174528,-35
1658941532.60047,260887.0174589,-33
1658941532.60047,260887.0174654,-26
1658941532.60047,260887.0174691,-7
1658941532.60047,260887.0174729,-2
1658941532.60047,260887.0174763,-9
1658941532.60047,260887.0174801,9
1658941532.60047,260887.0174839,21
1658941532.60047,260887.0174877,0
1658941532.60047,260887.0174919,0
1658941532.60047,260887.0174987,31
1658941532.60047,260887.0175072,47
1658941532.60047,260887.0175162,52
1658941532.60047,260887.0175241,52
1658941532.60047,260887.0175294,47
1658941532.60047,260887.0175402,47
1658941532.60047,260887.0175526,50
1658941532.60047,260887.0175578,59
1658941532.60047,260887.0175714,71
1658941532.60047,260887.0175816,69
1658941532.60047,260887.0175906,59
1658941532.60047,260887.017603,59
1658941532.60047,260887.0176134,69
1658941532.60047,260887.0176203,74
1658941532.60047,260887.0176251,74
1658941532.60047,260887.017638,74
1658941532.60047,260887.0176455,74
1658941532.60047,260887.017652,79
1658941532.60047,260887.0176552,81
1658941532.60047,260887.0176603,79
1658941532.60047,260887.0176724,86
1658941532.60047,260887.0176797,98
1658941532.60047,260887.0176859,83
1658941532.60047,260887.0176914,81
1658941532.60047,260887.0176985,119
1658941532.60047,260887.0177077,139
1658941532.60047,260887.4547652,119
1658941532.60047,260887.4547871,91
1658941532.60047,260887.4548023,83
1658941532.60047,260887.4548175,95
1658941532.60047,260887.454832,98
1658941532.60047,260887.4548462,100
1658941532.60047,260887.4548606,98
1658941532.60047,260887.4548749,79
1658941532.60047,260887.4548888,86
1658941532.60047,260887.4549036,110
1658941532.60047,260887.4549176,107
1658941532.60047,260887.4549324,110
1658941532.60047,260887.4549473,261
1658941532.60047,260887.4549617,589
1658941532.61044,260887.4549757,846
1658941532.61044,260887.4549908,745
1658941532.61044,260887.455005,263
1658941532.61044,260887.4550191,-139
1658941532.61044,260887.4550331,-59
1658941532.61044,260887.4550445,110
1658941532.61044,260887.4550552,64
1658941532.61044,260887.4550693,21
1658941532.61044,260887.455083,40
1658941532.61044,260887.455097,40
1658941532.61044,260887.455112,38
1658941532.61044,260887.455126,47
1658941532.61044,260887.4551394,50
1658941532.61044,260887.4551545,52
1658941532.61044,260887.4551686,71
1658941532.61044,260887.4551841,86
1658941532.61044,260887.4552035,71
1658941532.61044,260887.4552175,69
1658941532.61044,260887.4552303,88
1658941532.61044,260887.4552396,105
1658941532.61044,260887.4552475,115
1658941532.61044,260887.4552567,117
1658941532.61044,260887.4552647,124
1658941532.61044,260887.4552775,117
1658941533.18276,260887.4552871,119
1658941533.18276,260887.4552937,160
1658941533.18276,260887.4553044,189
1658941533.18276,260887.4553113,160
1658941533.18276,260887.4553184,146
1658941533.18276,260887.455325,165
1658941533.18276,260887.4553331,167
1658941533.18276,260887.4553418,182
1658941533.18276,260887.4553533,194
1658941533.18276,260887.4553628,146
1658941533.18276,260887.4553723,105
1658941533.18276,260887.4553857,122
1658941533.18276,260887.4553978,115
1658941533.18276,260887.4554138,62
1658941533.18276,260887.4554256,47
1658941533.18276,260887.4554308,67
1658941533.18276,260887.4554375,43
1658941533.18276,260887.4554507,11
1658941533.18276,260887.455461,33
1658941533.18276,260887.4554708,55
1658941533.18276,260887.4554748,33
1658941533.18276,260887.4554797,26
1658941533.18276,260887.4554842,74
1658941533.18276,260887.4554892,95
1658941533.18276,260887.455494,40
1658941533.18276,260887.4554975,21
1658941533.18276,260887.4555011,79
1658941533.18276,260887.4555094,93
1658941533.18276,260887.4555184,62
1658941533.18276,260887.4555274,103
1658941533.18276,260887.4555378,139
1658941533.18276,260887.4555492,83
1658941533.18276,260887.4555579,81
1658941533.18276,260887.4555728,143
1658941533.18276,260887.4555834,143
1658941533.18276,260888.0411627,107
1658941533.18276,260888.0411781,81
1658941533.18276,260888.0411812,91
1658941533.18276,260888.0411836,131
1658941533.18276,260888.0411859,127
1658941533.18276,260888.0411881,81
1658941533.18276,260888.0411905,88
1658941533.18276,260888.0411944,139
1658941533.18276,260888.0412026,131
1658941533.18276,260888.0412072,103
1658941533.18276,260888.0412138,119
1658941533.18276,260888.0412189,129
1658941533.18276,260888.0412257,105
1658941533.18276,260888.0412315,100
1658941533.18276,260888.0412387,95
1658941533.19373,260888.0412425,76
1658941533.19373,260888.0412456,81
1658941533.19373,260888.0412486,88
1658941533.19373,260888.0412517,83
1658941533.19373,260888.0412554,105
1658941533.19373,260888.0412575,122
1658941533.19373,260888.0412595,124
1658941533.19373,260888.0412626,112
1658941533.19373,260888.0412648,83
1658941533.19373,260888.0412669,103
1658941533.19373,260888.041269,139
1658941533.19373,260888.0412711,122
1658941533.19373,260888.0412733,88
1658941533.19373,260888.0412754,74
1658941533.19373,260888.0412775,64
1658941533.19373,260888.0412797,112
1658941533.19373,260888.0412819,299
1658941533.19373,260888.041284,606
1658941533.19373,260888.0412862,920
1658941533.19373,260888.0412886,927
1658941533.19373,260888.0412907,405
1658941533.19373,260888.0412929,-124
1658941533.19373,260888.0412951,-71
1658941533.19373,260888.0412972,131
1658941533.72343,260888.0412993,76
1658941533.72343,260888.0413069,43
1658941533.72343,260888.0413089,76
1658941533.72343,260888.041311,52
1658941533.72343,260888.041313,47
1658941533.72343,260888.0413151,69
1658941533.72343,260888.0413171,71
1658941533.72343,260888.0413191,79
1658941533.72343,260888.0413219,95
1658941533.72343,260888.041332,107
1658941533.72343,260888.0413435,119
1658941533.72343,260888.0413484,119
1658941533.72343,260888.0413579,100
1658941533.72343,260888.0413684,81
1658941533.72343,260888.041372,117
1658941533.72343,260888.041375,170
1658941533.72343,260888.0413782,167
1658941533.72343,260888.0413852,177
1658941533.72343,260888.0413968,213
1658941533.72343,260888.0414019,196
1658941533.72343,260888.0414057,184
1658941533.72343,260888.041408,232
1658941533.72343,260888.0414101,251
1658941533.72343,260888.0414123,201
1658941533.72343,260888.0414144,179
1658941533.72343,260888.0414164,230
1658941533.72343,260888.0414188,242
1658941533.72343,260888.0414233,184
1658941533.72343,260888.04143,146
1658941533.72343,260888.0414344,143
1658941533.72343,260888.0414408,100
1658941533.72343,260888.0414454,26
1658941533.72343,260888.0414491,9
1658941533.72343,260888.0414542,11
1658941533.72343,260888.5768552,-11
1658941533.72343,260888.5768737,-11
1658941533.72343,260888.5768871,7
1658941533.72343,260888.5769022,-11
1658941533.72343,260888.5769148,-31
1658941533.72343,260888.5769214,-14
1658941533.72343,260888.5769248,-19
1658941533.72343,260888.576927,-43
1658941533.72343,260888.5769292,-19
1658941533.72343,260888.576934,9
1658941533.72343,260888.5769456,-26
1658941533.72343,260888.5769497,-33
1658941533.72343,260888.5769536,-11
1658941533.72343,260888.5769558,-35
1658941533.72343,260888.5769579,-9
1658941533.72343,260888.5769616,47
1658941533.7334,260888.5769741,2
1658941533.7334,260888.5769798,-47
1658941533.7334,260888.5769822,-19
1658941533.7334,260888.5769843,-9
1658941533.7334,260888.5769865,0
1658941533.7334,260888.57699,31
1658941533.7334,260888.5770008,31
1658941533.7334,260888.5770078,2
1658941533.7334,260888.5770102,-11
1658941533.7334,260888.5770124,-7
1658941533.7334,260888.5770145,19
1658941533.7334,260888.5770194,28
1658941533.7334,260888.5770312,-2
1658941533.7334,260888.5770351,-11
1658941533.7334,260888.5770389,16
1658941533.7334,260888.5770409,23
1658941533.7334,260888.577043,23
1658941533.7334,260888.5770483,50
1658941533.7334,260888.5770599,45
1658941533.7334,260888.5770636,0
1658941533.7334,260888.5770675,9
1658941533.7334,260888.5770695,86
1658941533.7334,260888.5770721,95
1658941533.7334,260888.5770815,64
1658941534.25893,260888.5770908,83
1658941534.25893,260888.5770933,71
1658941534.25893,260888.5770953,47
1658941534.25893,260888.5770973,98
1658941534.25893,260888.5770993,105
1658941534.25893,260888.5771048,31
1658941534.25893,260888.5771145,35
1658941534.25893,260888.5771189,107
1658941534.25893,260888.5771211,105
1658941534.25893,260888.5771241,71
1658941534.25893,260888.5771349,76
1658941534.25893,260888.5771443,55
1658941534.25893,260888.5771514,52
1658941534.25893,260888.5771557,242
1658941534.25893,260888.5771602,630
1658941534.25893,260888.5771643,982
1658941534.25893,260888.5771683,920
1658941534.25893,260888.5771723,340
1658941534.25893,260888.5771768,-139
1658941534.25893,260888.5771814,-52
1658941534.25893,260888.5771859,127
1658941534.25893,260888.5771904,50
1658941534.25893,260888.5771952,-9
1658941534.25893,260888.5771998,45
1658941534.25893,260888.5772044,76
1658941534.25893,260888.5772148,64
1658941534.25893,260888.5772228,47
1658941534.25893,260888.5772289,47
1658941534.25893,260888.5772323,55
1658941534.25893,260888.5772382,71
1658941534.25893,260888.5772415,103
1658941534.25893,260888.5772476,81
1658941534.25893,260888.5772506,57
1658941534.25893,260889.1152397,93
1658941534.25893,260889.1152592,100
1658941534.25893,260889.115274,71
1658941534.25893,260889.1152875,98
1658941534.25893,260889.1152955,153
1658941534.25893,260889.1153013,146
1658941534.25893,260889.1153092,98

1658941534.25893,260889.1153191,112
1658941534.25893,260889.1153268,170
1658941534.25893,260889.1153353,170
1658941534.25893,260889.115343,160
1658941534.25893,260889.1153521,184
1658941534.25893,260889.115361,155
1658941534.25893,260889.1153682,117
1658941534.25893,260889.1153784,134
1658941534.25893,260889.1153861,139
1658941534.25893,260889.1154004,93
1658941534.26989,260889.1154137,52
1658941534.26989,260889.1154279,35
1658941534.26989,260889.1154357,11
1658941534.26989,260889.1154385,-11
1658941534.26989,260889.1154406,-35
1658941534.26989,260889.1154432,-57
1658941534.26989,260889.1154502,-62
1658941534.26989,260889.1154629,-64
1658941534.26989,260889.1154758,-74
1658941534.26989,260889.1154911,-57
1658941534.26989,260889.1155059,-38
1658941534.26989,260889.1155188,-43
1658941534.26989,260889.1155307,-14
1658941534.26989,260889.1155425,16
1658941534.26989,260889.1155464,-7
1658941534.26989,260889.1155487,-4
1658941534.26989,260889.1155564,23
1658941534.26989,260889.1155696,-2
1658941534.26989,260889.1155821,-9
1658941534.26989,260889.115594,50
1658941534.26989,260889.1156676,76
1658941534.26989,260889.1156827,67
1658941534.26989,260889.1156972,64
1658941534.26989,260889.1157082,47
1658941534.88591,260889.1157148,45
1658941534.88591,260889.1157217,62
1658941534.88591,260889.1157292,67
1658941534.88591,260889.115736,67
1658941534.88591,260889.115742,76
1658941534.88591,260889.1157491,98
1658941534.88591,260889.1157598,103
1658941534.88591,260889.1157684,93
1658941534.88591,260889.1157751,88
1658941534.88591,260889.1157832,86
1658941534.88591,260889.1157909,79
1658941534.88591,260889.1157989,86
1658941534.88591,260889.115807,119
1658941534.88591,260889.1158207,127
1658941534.88591,260889.1158281,103
1658941534.88591,260889.1158339,100
1658941534.88591,260889.1158431,100
1658941534.88591,260889.1158503,91
1658941534.88591,260889.115857,95
1658941534.88591,260889.1158635,119
1658941534.88591,260889.115868,160
1658941534.88591,260889.1158744,177
1658941534.88591,260889.1158789,146
1658941534.88591,260889.1158855,129
1658941534.88591,260889.1158919,129
1658941534.88591,260889.1158963,107
1658941534.88591,260889.1159021,88
1658941534.88591,260889.1159077,98
1658941534.88591,260889.1159157,105
1658941534.88591,260889.1160194,91
1658941534.88591,260889.1162527,83
1658941534.88591,260889.1162706,107
1658941534.88591,260889.746453,122
1658941534.88591,260889.7464664,112
1658941534.88591,260889.7464704,208
1658941534.88591,260889.7464749,496
1658941534.88591,260889.7464779,841
1658941534.88591,260889.746481,963
1658941534.88591,260889.7464838,570
1658941534.88591,260889.7464868,-26
1658941534.88591,260889.7464896,-131
1658941534.88591,260889.7464934,93
1658941534.88591,260889.7465072,71
1658941534.88591,260889.7465121,-52
1658941534.88591,260889.7465165,-7
1658941534.88591,260889.7465187,43
1658941534.88591,260889.7465217,23
1658941534.88591,260889.7465239,23
1658941534.88591,260889.7465311,4
1658941534.88591,260889.7465421,-26
1658941534.89688,260889.7465467,-11
1658941534.89688,260889.746549,0
1658941534.89688,260889.7465521,-11
1658941534.89688,260889.7465543,9
1658941534.89688,260889.7465564,26
1658941534.89688,260889.7465585,11
1658941534.89688,260889.7465606,40
1658941534.89688,260889.7465627,95
1658941534.89688,260889.7465649,86
1658941534.89688,260889.746567,45
1658941534.89688,260889.7465691,57
1658941534.89688,260889.7465713,91
1658941534.89688,260889.7465734,112
1658941534.89688,260889.7465755,141
1658941534.89688,260889.7465776,162
1658941534.89688,260889.7465797,141
1658941534.89688,260889.7465819,129
1658941534.89688,260889.7465924,136
1658941534.89688,260889.7465945,98
1658941534.89688,260889.7465966,62
1658941534.89688,260889.7465988,117
1658941534.89688,260889.746601,150
1658941534.89688,260889.7466031,67
1658941534.89688,260889.7466053,-11
1658941535.42132,260889.7466074,-11
1658941535.42132,260889.7466095,11
1658941535.42132,260889.7466116,-2
1658941535.42132,260889.7466136,-52
1658941535.42132,260889.7466156,-47
1658941535.42132,260889.7466176,-11
1658941535.42132,260889.7466196,-26
1658941535.42132,260889.7466216,-11
1658941535.42132,260889.7466237,21
1658941535.42132,260889.7466263,-14
1658941535.42132,260889.7466366,-35
1658941535.42132,260889.7466437,7
1658941535.42132,260889.7466482,26
1658941535.42132,260889.7466517,16
1658941535.42132,260889.7466569,16
1658941535.42132,260889.746662,21
1658941535.42132,260889.7466667,16
1658941535.42132,260889.7466767,23
1658941535.42132,260889.7466837,52
1658941535.42132,260889.7466888,45
1658941535.42132,260889.7466942,31
1658941535.42132,260889.7467016,40
1658941535.42132,260889.7467052,40
1658941535.42132,260889.7467092,35
1658941535.42132,260889.7467165,43
1658941535.42132,260889.7467236,45
1658941535.42132,260889.7467317,45
1658941535.42132,260889.7467386,52
1658941535.42132,260889.7467421,62
1658941535.42132,260889.7467454,59
1658941535.42132,260889.7467487,64
1658941535.42132,260890.2842449,64
1658941535.42132,260890.28426,52
1658941535.42132,260890.2842639,57
1658941535.42132,260890.2842676,62
1658941535.42132,260890.2842711,79
1658941535.42132,260890.2842747,98
1658941535.42132,260890.2842782,86
1658941535.42132,260890.2842817,91
1658941535.42132,260890.2842852,107
1658941535.42132,260890.2842888,115
1658941535.42132,260890.2842923,146
1658941535.42132,260890.2842959,162
1658941535.42132,260890.2842996,115
1658941535.42132,260890.2843031,55
1658941535.42132,260890.2843066,57
1658941535.42132,260890.2843101,107
1658941535.42132,260890.2843136,103
1658941535.42132,260890.2843173,69
1658941535.42132,260890.2843209,91
1658941535.43129,260890.2843245,98
1658941535.43129,260890.2843281,35
1658941535.43129,260890.2843316,43
1658941535.43129,260890.2843351,100
1658941535.43129,260890.2843386,81
1658941535.43129,260890.2843422,153
1658941535.43129,260890.284346,433
1658941535.43129,260890.2843494,723
1658941535.43129,260890.2843529,810
1658941535.43129,260890.2843565,512
1658941535.43129,260890.2843602,-16
1658941535.43129,260890.2843638,-141
1658941535.43129,260890.2843679,88
1658941535.43129,260890.2843717,83
1658941535.43129,260890.2843759,-9
1658941535.43129,260890.28438,76
1658941535.43129,260890.2843835,115
1658941535.43129,260890.2843874,55
1658941535.43129,260890.284391,55
1658941535.43129,260890.2843948,100
1658941535.43129,260890.2843998,122
1658941535.43129,260890.2844055,117
1658941535.43129,260890.2844091,86
1658941535.43129,260890.2844127,62
1658941536.10509,260890.2844164,115
1658941536.10509,260890.284421,182
1658941536.10509,260890.2844247,158
1658941536.10509,260890.284429,103
1658941536.10509,260890.2844328,127
1658941536.10509,260890.2844365,198
1658941536.10509,260890.2844401,218
1658941536.10509,260890.284444,194
1658941536.10509,260890.2844476,158
1658941536.10509,260890.2844512,158
1658941536.10509,260890.2844547,218
1658941536.10509,260890.2844587,232
1658941536.10509,260890.2844623,206
1658941536.10509,260890.284466,208
1658941536.10509,260890.2844696,218
1658941536.10509,260890.2844734,220
1658941536.10509,260890.2844775,215
1658941536.10509,260890.2844815,189
1658941536.10509,260890.2844856,141
1658941536.10509,260890.2844894,105
1658941536.10509,260890.2844936,86
1658941536.10509,260890.2845009,52
1658941536.10509,260890.2845067,7
1658941536.10509,260890.2845119,23
1658941536.10509,260890.2845176,50
1658941536.10509,260890.2845215,28
1658941536.10509,260890.284526,40
1658941536.10509,260890.2845291,57
1658941536.10509,260890.2845321,21
1658941536.10509,260890.2845372,26
1658941536.10509,260890.9647386,76
1658941536.10509,260890.9647508,59
1658941536.10509,260890.9647542,16
1658941536.10509,260890.9647594,4
1658941536.10509,260890.964762,33
1658941536.10509,260890.9647644,103
1658941536.10509,260890.9647668,122
1658941536.10509,260890.9647692,71
1658941536.10509,260890.9647733,45
1658941536.10509,260890.9647763,57
1658941536.10509,260890.9647844,67
1658941536.10509,260890.9647899,59
1658941536.10509,260890.9647934,38
1658941536.10509,260890.9647972,23
1658941536.10509,260890.9648013,67
1658941536.10509,260890.9648076,115
1658941536.10509,260890.9648144,71
1658941536.10509,260890.9648206,38
1658941536.10509,260890.9648273,76
1658941536.10509,260890.964838,88
1658941536.11606,260890.9648486,55
1658941536.11606,260890.9648583,14
1658941536.11606,260890.964863,14
1658941536.11606,260890.9648666,55
1658941536.11606,260890.9648741,57
1658941536.11606,260890.9648853,59
1658941536.11606,260890.9648939,88
1658941536.11606,260890.9649032,79
1658941536.11606,260890.9649101,69
1658941536.11606,260890.9649124,98
1658941536.11606,260890.964919,107
1658941536.11606,260890.9649314,79
1658941536.11606,260890.9649414,64
1658941536.11606,260890.9649475,93
1658941536.11606,260890.9649507,148
1658941536.11606,260890.9649529,153
1658941536.11606,260890.9649551,95
1658941536.11606,260890.9649572,52
1658941536.11606,260890.9649641,74
1658941536.11606,260890.9649733,124
1658941536.11606,260890.9649785,131
1658941536.11606,260890.9649842,95
1658941536.11606,260890.9649912,64
1658941536.11606,260890.964997,88
1658941536.54254,260890.965001,124
1658941536.54254,260890.9650049,95
1658941536.54254,260890.965009,146
1658941536.54254,260890.9650129,424
1658941536.54254,260890.9650167,786
1658941536.54254,260890.9650206,927
1658941536.54254,260890.9650243,589
1658941536.54254,260890.9650282,2
1658941536.54254,260890.9650344,-170
1658941536.54254,260890.9650383,79
1658941536.54254,260890.9650422,136
1658941536.54254,260890.965046,19
1658941536.54254,260890.9650517,28
1658941536.54254,260890.9650559,67
1658941536.54254,260890.9650613,57
1658941536.54254,260890.9650651,76
1658941536.54254,260890.9650703,88
1658941536.54254,260890.9650741,57
1658941536.54254,260890.9650792,57
1658941536.54254,260890.965083,100
1658941536.54254,260890.965088,107
1658941536.54254,260890.9650918,103
1658941536.54254,260890.9650973,134
1658941536.54254,260890.965101,134
1658941536.54254,260890.9651061,88
1658941536.54254,260890.9651098,95
1658941536.54254,260890.965115,160
1658941536.54254,260890.9651188,191
1658941536.54254,260890.9651239,194
1658941536.54254,260891.4064237,186
1658941536.54254,260891.4064445,160
1658941536.54254,260891.406452,179
1658941536.54254,260891.4064585,232
1658941536.54254,260891.4064663,225
1658941536.54254,260891.406475,186
1658941536.54254,260891.4064826,203
1658941536.54254,260891.406488,239
1658941536.54254,260891.4064933,203
1658941536.54254,260891.4064978,119
1658941536.54254,260891.4065041,86
1658941536.54254,260891.4065085,127
1658941536.54254,260891.4065116,122
1658941536.54254,260891.4065147,23
1658941536.54254,260891.4065191,-21
1658941536.54254,260891.4065244,4
1658941536.54254,260891.4065276,33
1658941536.54254,260891.4065307,52
1658941536.54254,260891.4065351,26
1658941536.54254,260891.4065399,-19
1658941536.54254,260891.4065466,-31
1658941536.55351,260891.4065534,-19
1658941536.55351,260891.4065586,-11
1658941536.55351,260891.4065626,-9
1658941536.55351,260891.4065696,7
1658941536.55351,260891.406576,38
1658941536.55351,260891.4065821,38
1658941536.55351,260891.4065889,9
1658941536.55351,260891.4065952,28
1658941536.55351,260891.4066448,64
1658941536.55351,260891.406652,55
1658941536.55351,260891.4066587,50
1658941536.55351,260891.4066649,52
1658941536.55351,260891.4066942,31
1658941536.55351,260891.4067009,50
1658941536.55351,260891.4067043,103
1658941536.55351,260891.4067075,86
1658941536.55351,260891.4067105,40
1658941536.55351,260891.4067137,43
1658941536.55351,260891.406717,83
1658941536.55351,260891.4067203,81
1658941536.55351,260891.4067246,35
1658941536.55351,260891.4067309,45
1658941536.55351,260891.4067346,86
1658941536.55351,260891.4067418,67
1658941537.08267,260891.4067506,50
1658941537.08267,260891.4067577,83
1658941537.08267,260891.4067641,91
1658941537.08267,260891.4067686,74
1658941537.08267,260891.4067747,86
1658941537.08267,260891.4067793,93
1658941537.08267,260891.4067855,86
1658941537.08267,260891.4067931,81
1658941537.08267,260891.4067988,81
1658941537.08267,260891.4068044,91
1658941537.08267,260891.4068087,119
1658941537.08267,260891.4068137,141
1658941537.08267,260891.4068195,139
1658941537.08267,260891.4068257,129
1658941537.08267,260891.4068311,122
1658941537.08267,260891.406836,103
1658941537.08267,260891.4068411,79
1658941537.08267,260891.4068483,83
1658941537.08267,260891.4068547,110
1658941537.08267,260891.4068604,112
1658941537.08267,260891.4068703,98
1658941537.08267,260891.4068786,95
1658941537.08267,260891.4068811,103
1658941537.08267,260891.4068834,98
1658941537.08267,260891.4068856,91
1658941537.08267,260891.4068883,150
1658941537.08267,260891.4068962,357
1658941537.08267,260891.4069119,666
1658941537.08267,260891.9408928,896
1658941537.08267,260891.9409062,776
1658941537.08267,260891.9409095,256
1658941537.08267,260891.9409136,-110
1658941537.08267,260891.9409162,7
1658941537.08267,260891.9409186,127
1658941537.08267,260891.940921,33
1658941537.08267,260891.9409234,21
1658941537.08267,260891.9409258,81
1658941537.08267,260891.9409282,55
1658941537.08267,260891.9409306,26
1658941537.08267,260891.9409329,59
1658941537.08267,260891.9409353,71
1658941537.08267,260891.9409376,52
1658941537.08267,260891.94094,47
1658941537.08267,260891.9409425,52
1658941537.08267,260891.9409449,59
1658941537.08267,260891.9409472,57
1658941537.08267,260891.9409497,52
1658941537.08267,260891.9409538,64
1658941537.08267,260891.9409561,86
1658941537.08267,260891.9409584,95
1658941537.09264,260891.9409608,91
1658941537.09264,260891.9409631,83
1658941537.09264,260891.9409654,86
1658941537.09264,260891.9409678,91
1658941537.09264,260891.9409702,88
1658941537.09264,260891.9409725,103
1658941537.09264,260891.9409749,136
1658941537.09264,260891.9409772,139
1658941537.09264,260891.9409795,127
1658941537.09264,260891.9409817,134
1658941537.09264,260891.940984,124
1658941537.09264,260891.9409863,112
1658941537.09264,260891.9409886,117
1658941537.09264,260891.9409909,91
1658941537.09264,260891.940993,43
1658941537.09264,260891.9409953,28
1658941537.09264,260891.9409976,9
1658941537.09264,260891.9409998,-28
1658941537.09264,260891.9410021,-45
1658941537.09264,260891.9410107,-31
1658941537.09264,260891.9410131,-9
1658941537.09264,260891.9410153,2
1658941537.09264,260891.9410175,2
1658941537.09264,260891.9410196,0
