Time,TimeLsl,Value
1658996392.9824,315748.3028753,90
1658996392.9824,315748.3028999,97
1658996392.9824,315748.3029109,107
1658996392.9824,315748.3029206,97
1658996392.9824,315748.3029291,102
1658996392.9824,315748.302937,121
1658996392.9824,315748.302945,169
1658996392.9824,315748.302953,181
1658996392.9824,315748.3029613,-40
1658996392.9824,315748.3029701,-476
1658996392.9824,315748.3029781,-848
1658996392.9824,315748.3029857,-746
1658996392.9824,315748.3029913,-109
1658996392.9824,315748.302995,326
1658996392.9824,315748.3030002,185
1658996392.9824,315748.3030039,38
1658996392.9824,315748.3030106,143
1658996392.9824,315748.3030145,178
1658996392.9824,315748.3030204,109
1658996392.9824,315748.3030291,119
1658996392.9824,315748.3030379,152
1658996392.9824,315748.3030472,121
1658996392.9824,315748.303056,104
1658996392.9824,315748.3030652,119
1658996392.9824,315748.3030721,131
1658996392.9824,315748.303079,147
1658996392.9824,315748.3030857,126
1658996392.9824,315748.3030925,83
1658996392.9824,315748.3030989,88
1658996392.9824,315748.3031054,100
1658996392.9824,315748.303112,83
1658996392.9824,315748.3031183,78
1658996392.9824,315748.3031246,88
1658996392.9824,315748.3031314,64
1658996392.9824,315748.3031378,42
1658996392.9824,315748.3031443,76
1658996392.9824,315748.3031507,88
1658996392.9824,315748.3031585,64
1658996392.9824,315748.3031667,69
1658996392.9824,315748.3031705,78
1658996392.9824,315748.3031741,88
1658996392.9824,315748.3031777,100
1658996392.9824,315748.3031815,116
1658996392.9824,315748.3031855,145
1658996392.9824,315748.3031898,171
1658996392.9824,315748.3031935,183
1658996392.9824,315748.3032006,195
1658996392.9824,315748.3032076,202
1658996392.9824,315748.3032148,205
1658996392.9824,315748.3032216,197
1658996393.09325,315748.3032305,188
1658996393.09325,315748.3032397,181
1658996393.09325,315748.3032488,185
1658996393.09325,315748.3032575,193
1658996393.09325,315748.3032641,176
1658996393.09325,315748.303273,152
1658996393.09325,315748.3032815,154
1658996393.09325,315748.3032898,154
1658996393.09325,315748.3032979,140
1658996393.09325,315748.3033046,143
1658996393.09325,315748.3033132,145
1658996393.09325,315748.3033199,140
1658996393.09325,315748.3033284,157
1658996393.09325,315748.3033379,162
1658996393.09325,315748.3033457,133
1658996393.09325,315748.3033495,116
1658996393.09325,315748.3033532,140
1658996393.09325,315748.3033585,152
1658996393.09325,315748.3033645,135
1658996393.09325,315748.3033699,135
1658996393.09325,315748.3033781,157
1658996393.09325,315748.3033845,185
1658996393.09325,315748.3033884,214
1658996393.09325,315748.8387502,162
1658996393.45789,315748.838773,102
1658996393.45789,315748.8387817,104
1658996393.45789,315748.8387878,97
1658996393.45789,315748.8387948,95
1658996393.45789,315748.8388012,92
1658996393.45789,315748.8388063,90
1658996393.45789,315748.8388104,116
1658996393.45789,315748.8388142,100
1658996393.45789,315748.838818,119
1658996393.45789,315748.838821,166
1658996393.45789,315748.8388253,126
1658996393.45789,315748.8388287,85
1658996393.45789,315748.838832,97
1658996393.45789,315748.8388378,119
1658996393.45789,315748.8388419,119
1658996393.45789,315748.838847,126
1658996393.45789,315748.8388528,145
1658996393.45789,315748.8388587,73
1658996393.45789,315748.8388632,-171
1658996393.45789,315748.8388677,-553
1658996393.45789,315748.8388755,-789
1658996393.45789,315748.8388809,-503
1658996393.45789,315748.8388845,69
1658996393.45789,315748.8388884,269
1658996393.45789,315748.8388955,123
1658996393.45789,315748.8388997,59
1658996393.45789,315748.838905,90
1658996393.45789,315748.8389098,104
1658996393.45789,315748.8389203,128
1658996393.45789,315748.8389329,138
1658996393.45789,315748.8389461,90
1658996393.45789,315748.8389607,76
1658996393.45789,315748.8389704,102
1658996393.45789,315748.8389843,81
1658996393.45789,315748.8389962,54
1658996393.45789,315748.8390091,71
1658996393.45789,315748.8390215,90
1658996393.45789,315748.8390361,76
1658996393.45789,315748.839051,61
1658996393.45789,315748.8390617,38
1658996393.45789,315748.8390683,7
1658996393.45789,315748.8390754,19
1658996393.45789,315748.8390826,30
1658996393.45789,315748.8390864,-7
1658996393.45789,315748.8390918,-26
1658996393.45789,315748.8390957,-11
1658996393.45789,315748.8390997,-30
1658996393.45789,315748.8391066,-40
1658996393.45789,315748.8391144,-7
1658996393.45789,315748.8391275,2
1658996393.50975,315748.8391392,-4
1658996393.50975,315748.8391525,0
1658996393.50975,315748.8391656,30
1658996393.50975,315748.8391734,66
1658996393.50975,315748.8391902,85
1658996393.50975,315748.8392007,104
1658996393.50975,315748.8392086,133
1658996393.50975,315748.839221,143
1658996393.50975,315748.8392288,140
1658996393.50975,315748.839235,150
1658996393.50975,315748.8392393,154
1658996393.50975,315748.8392429,140
1658996393.50975,315748.8392463,128
1658996393.50975,315748.8392575,145
1658996393.50975,315748.839264,150
1658996393.50975,315748.8392742,131
1658996393.50975,315748.8392853,135
1658996393.50975,315748.8392951,145
1658996393.50975,315748.8393025,140
1658996393.50975,315748.8393095,140
1658996393.50975,315748.8393172,138
1658996393.50975,315748.8393223,140
1658996393.50975,315749.4239124,154
1658996393.50975,315749.4239308,152
1658996393.50975,315749.4239422,140
1658996393.50975,315749.4239474,152
1658996393.50975,315749.4239563,164
1658996393.50975,315749.4239627,152
1658996393.50975,315749.4239707,154
1658996393.50975,315749.4239774,166
1658996393.50975,315749.4239853,147
1658996393.50975,315749.4239949,126
1658996393.50975,315749.4240027,138
1658996393.50975,315749.4240081,143
1658996393.50975,315749.4240136,128
1658996393.50975,315749.4240244,114
1658996393.50975,315749.4240291,88
1658996393.50975,315749.4240424,57
1658996393.50975,315749.4240533,50
1658996393.50975,315749.4240588,73
1658996393.50975,315749.4240685,92
1658996393.50975,315749.424081,78
1658996393.50975,315749.4240945,61
1658996393.50975,315749.4241083,64
1658996393.50975,315749.4241225,64
1658996393.50975,315749.4241309,61
1658996393.50975,315749.424135,71
1658996393.50975,315749.4241408,71
1658996393.50975,315749.4241492,59
1658996393.50975,315749.42416,73
1658996393.5277,315749.4241726,102
1658996393.5277,315749.4241801,16
1658996393.5277,315749.4241858,-278
1658996393.5277,315749.4241975,-648
1658996393.5277,315749.4242051,-736
1658996393.5277,315749.4242117,-298
1658996393.5277,315749.4242157,207
1658996393.5277,315749.4242193,214
1658996393.5277,315749.4242227,23
1658996393.5277,315749.4242271,33
1658996393.5277,315749.4242325,61
1658996393.5277,315749.4242403,14
1658996393.5277,315749.4242495,19
1658996393.5277,315749.4242586,45
1658996393.5277,315749.424268,30
1658996393.5277,315749.4242743,19
1658996393.5277,315749.4242782,26
1658996393.5277,315749.424284,26
1658996393.5277,315749.4242878,19
1658996393.5277,315749.4242937,9
1658996393.5277,315749.4242979,7
1658996393.5277,315749.4243062,2
1658996393.5277,315749.4243137,-4
1658996393.5277,315749.4243193,-2
1658996393.5277,315749.4243249,-7
1658996393.5277,315749.4243287,-11
1658996393.5277,315749.4243325,-7
1658996393.5277,315749.4243393,-19
1658996393.5277,315749.4243441,-16
1658996393.5277,315749.4243532,2
1658996393.5277,315749.4243622,4
1658996393.5277,315749.4243693,0
1658996393.5277,315749.424378,11
1658996393.5277,315749.4243861,21
1658996393.5277,315749.4243939,33
1658996393.5277,315749.4244017,64
1658996393.5277,315749.4244057,109
1658996393.5277,315749.4244116,135
1658996393.5277,315749.424416,143
1658996393.5277,315749.4244216,162
1658996393.5277,315749.4244275,183
1658996393.5277,315749.4244315,190
1658996393.5277,315749.4244367,197
1658996393.5277,315749.4244405,190
1658996393.5277,315749.4244458,176
1658996393.5277,315750.1068991,178
1658996393.5277,315750.1069174,169
1658996393.5277,315750.1069273,157
1658996393.75958,315750.1069334,164
1658996393.75958,315750.1069384,157
1658996393.75958,315750.106945,140
1658996393.75958,315750.1069524,150
1658996393.75958,315750.1069589,154
1658996393.75958,315750.1069653,150
1658996393.75958,315750.1069747,147
1658996393.75958,315750.1069811,133
1658996393.75958,315750.1069883,128
1658996393.75958,315750.1069971,133
1658996393.75958,315750.1070093,126
1658996393.75958,315750.1070186,126
1658996393.75958,315750.1070272,147
1658996393.75958,315750.1070297,147
1658996393.75958,315750.1070319,123
1658996393.75958,315750.1070371,114
1658996393.75958,315750.1070405,121
1658996393.75958,315750.1070463,131
1658996393.75958,315750.1070536,133
1658996393.75958,315750.1070623,128
1658996393.75958,315750.1070691,116
1658996393.75958,315750.1070747,88
1658996393.75958,315750.1070786,64
1658996393.75958,315750.1070837,83
1658996393.75958,315750.1070886,109
1658996393.75958,315750.1070923,102
1658996393.75958,315750.107096,92
1658996393.75958,315750.1071013,107
1658996393.75958,315750.1071058,100
1658996393.75958,315750.1071113,71
1658996393.75958,315750.1071184,71
1658996393.75958,315750.1071261,78
1658996393.75958,315750.10713,78
1658996393.75958,315750.1071351,78
1658996393.75958,315750.1071387,107
1658996393.75958,315750.1071424,143
1658996393.75958,315750.1071478,42
1658996393.75958,315750.1071528,-286
1658996393.75958,315750.1071579,-717
1658996393.75958,315750.1071614,-872
1658996393.75958,315750.107166,-395
1658996393.75958,315750.1071713,245
1658996393.75958,315750.1071751,300
1658996393.75958,315750.1071804,85
1658996393.75958,315750.1071841,123
1658996393.75958,315750.1071879,185
1658996393.75958,315750.1071928,131
1658996393.75958,315750.1071963,121
1658996393.75958,315750.1071999,150
1658996393.75958,315750.1072052,131
1658996393.77255,315750.10721,112
1658996393.77255,315750.1072143,119
1658996393.77255,315750.107218,119
1658996393.77255,315750.1072227,92
1658996393.77255,315750.1072278,78
1658996393.77255,315750.1072329,88
1658996393.77255,315750.1072366,88
1658996393.77255,315750.107242,64
1658996393.77255,315750.1072455,52
1658996393.77255,315750.1072493,61
1658996393.77255,315750.1072543,66
1658996393.77255,315750.1072591,59
1658996393.77255,315750.1072628,50
1658996393.77255,315750.1072681,45
1658996393.77255,315750.1072717,50
1658996393.77255,315750.1072754,52
1658996393.77255,315750.1072804,38
1658996393.77255,315750.1072843,50
1658996393.77255,315750.1072893,76
1658996393.77255,315750.1072929,81
1658996393.77255,315750.5454828,90
1658996393.77255,315750.5455072,123
1658996393.77255,315750.5455162,147
1658996393.77255,315750.5455199,162
1658996394.29085,315750.5455254,183
1658996394.29085,315750.545529,188
1658996394.29085,315750.5455324,188
1658996394.29085,315750.5455358,200
1658996394.29085,315750.5455407,195
1658996394.29085,315750.5455447,176
1658996394.29085,315750.5455478,174
1658996394.29085,315750.5455508,174
1658996394.29085,315750.5455543,174
1658996394.29085,315750.5455601,178
1658996394.29085,315750.5455674,164
1658996394.29085,315750.5455725,157
1658996394.29085,315750.5455781,162
1658996394.29085,315750.5455817,150
1658996394.29085,315750.5455885,140
1658996394.29085,315750.545596,138
1658996394.29085,315750.5456011,121
1658996394.29085,315750.5456045,116
1658996394.29085,315750.5456096,126
1658996394.29085,315750.5456131,123
1658996394.29085,315750.5456165,114
1658996394.29085,315750.5456205,116
1658996394.29085,315750.5456275,121
1658996394.29085,315750.5456322,104
1658996394.29085,315750.5456367,90
1658996394.29085,315750.5456402,100
1658996394.29085,315750.5456451,109
1658996394.29085,315750.5456516,104
1658996394.29085,315750.5457305,95
1658996394.29085,315750.5457428,81
1658996394.29085,315750.5457508,61
1658996394.29085,315750.5457551,59
1658996394.29085,315750.5457609,71
1658996394.29085,315750.5457658,85
1658996394.29085,315750.5457713,97
1658996394.29085,315750.5457751,104
1658996394.29085,315750.5457811,97
1658996394.29085,315750.5457862,88
1658996394.29085,315750.5457915,90
1658996394.29085,315750.5457952,92
1658996394.29085,315750.5458013,88
1658996394.29085,315750.5458061,85
1658996394.29085,315750.5458112,100
1658996394.29085,315750.5458146,119
1658996394.29085,315750.5458199,119
1658996394.29085,315750.5458248,-16
1658996394.29085,315750.54583,-371
1658996394.29085,315750.5458336,-779
1658996394.29085,315750.5458389,-805
1658996394.29085,315750.5458439,-228
1658996394.30082,315750.5458491,300
1658996394.30082,315750.5458526,240
1658996394.30082,315750.545858,71
1658996394.30082,315750.5458669,131
1658996394.30082,315750.5458758,150
1658996394.30082,315750.5458836,104
1658996394.30082,315750.5458976,123
1658996394.30082,315750.5459114,138
1658996394.30082,315750.5459228,116
1658996394.30082,315750.5459327,104
1658996394.30082,315750.5459415,97
1658996394.30082,315750.54595,88
1658996394.30082,315750.545956,83
1658996394.30082,315750.5459596,73
1658996394.30082,315750.5459641,69
1658996394.30082,315750.5459765,73
1658996394.30082,315750.5459848,66
1658996394.30082,315750.5459901,40
1658996394.30082,315750.545996,38
1658996394.30082,315751.0818318,54
1658996394.30082,315751.0818491,45
1658996394.30082,315751.0818543,35
1658996394.30082,315751.0818595,50
1658996394.30082,315751.0818644,47
1658996394.86993,315751.081869,14
1658996394.86993,315751.0818732,2
1658996394.86993,315751.0818789,28
1658996394.86993,315751.0818854,47
1658996394.86993,315751.0818918,52
1658996394.86993,315751.0818964,66
1658996394.86993,315751.0819004,85
1658996394.86993,315751.0819039,97
1658996394.86993,315751.0819075,116
1658996394.86993,315751.0819111,140
1658996394.86993,315751.0819147,152
1658996394.86993,315751.0819181,152
1658996394.86993,315751.0819217,143
1658996394.86993,315751.0819254,126
1658996394.86993,315751.0819289,119
1658996394.86993,315751.0819324,131
1658996394.86993,315751.081936,135
1658996394.86993,315751.0819394,123
1658996394.86993,315751.0819429,116
1658996394.86993,315751.0819463,109
1658996394.86993,315751.0819499,107
1658996394.86993,315751.0819534,112
1658996394.86993,315751.0819568,121
1658996394.86993,315751.0819603,121
1658996394.86993,315751.0819639,121
1658996394.86993,315751.0819674,128
1658996394.86993,315751.0819711,133
1658996394.86993,315751.0819745,133
1658996394.86993,315751.0819781,138
1658996394.86993,315751.0819817,140
1658996394.86993,315751.0819853,147
1658996394.86993,315751.0819892,150
1658996394.86993,315751.0819929,147
1658996394.86993,315751.0819982,147
1658996394.86993,315751.0820019,152
1658996394.86993,315751.0820071,154
1658996394.86993,315751.0820108,162
1658996394.86993,315751.0820161,159
1658996394.86993,315751.0820204,140
1658996394.86993,315751.0820257,126
1658996394.86993,315751.0820293,114
1658996394.86993,315751.0820344,102
1658996394.86993,315751.0820381,112
1658996394.86993,315751.0820432,135
1658996394.86993,315751.0820468,138
1658996394.86993,315751.0820519,123
1658996394.86993,315751.0820556,121
1658996394.86993,315751.0820607,133
1658996394.86993,315751.0820643,140
1658996394.86993,315751.0820679,135
1658996394.8819,315751.0820731,133
1658996394.8819,315751.0820767,135
1658996394.8819,315751.0820877,143
1658996394.8819,315751.0820956,166
1658996394.8819,315751.0820999,183
1658996394.8819,315751.0821083,59
1658996394.8819,315751.082117,-286
1658996394.8819,315751.0821256,-715
1658996394.8819,315751.0821317,-813
1658996394.8819,315751.0821428,-274
1658996394.8819,315751.0821498,324
1658996394.8819,315751.082155,317
1658996394.8819,315751.0821617,119
1658996394.8819,315751.0821658,174
1658996394.8819,315751.0821715,221
1658996394.8819,315751.0821763,164
1658996394.8819,315751.0821818,169
1658996394.8819,315751.0821858,190
1658996394.8819,315751.6665492,169
1658996394.8819,315751.6665656,157
1658996394.8819,315751.6665705,162
1658996394.8819,315751.6665774,143
1658996394.8819,315751.6665813,119
1658996394.8819,315751.6665852,109
1658996395.46238,315751.6665907,102
1658996395.46238,315751.6665955,92
1658996395.46238,315751.6665992,69
1658996395.46238,315751.6666029,50
1658996395.46238,315751.6666067,47
1658996395.46238,315751.6666103,50
1658996395.46238,315751.6666138,52
1658996395.46238,315751.6666174,57
1658996395.46238,315751.6666209,50
1658996395.46238,315751.6666245,30
1658996395.46238,315751.6666302,21
1658996395.46238,315751.6666341,38
1658996395.46238,315751.6666752,57
1658996395.46238,315751.6666873,66
1658996395.46238,315751.6666924,78
1658996395.46238,315751.6666961,95
1658996395.46238,315751.6666998,119
1658996395.46238,315751.6667033,145
1658996395.46238,315751.6667069,171
1658996395.46238,315751.6667105,193
1658996395.46238,315751.6667156,207
1658996395.46238,315751.6667205,212
1658996395.46238,315751.6667234,214
1658996395.46238,315751.666728,219
1658996395.46238,315751.6667338,216
1658996395.46238,315751.6667369,219
1658996395.46238,315751.6667398,221
1658996395.46238,315751.6667436,216
1658996395.46238,315751.6667472,205
1658996395.46238,315751.6667505,200
1658996395.46238,315751.666754,209
1658996395.46238,315751.6667574,214
1658996395.46238,315751.666761,202
1658996395.46238,315751.6667682,193
1658996395.46238,315751.6667742,195
1658996395.46238,315751.6667797,197
1658996395.46238,315751.6667833,202
1658996395.46238,315751.6667892,209
1658996395.46238,315751.6667954,209
1658996395.46238,315751.666799,207
1658996395.46238,315751.6668054,209
1658996395.46238,315751.6668103,214
1658996395.46238,315751.6668137,219
1658996395.46238,315751.6668174,224
1658996395.46238,315751.6668231,221
1658996395.46238,315751.6668276,216
1658996395.46238,315751.6668331,219
1658996395.46238,315751.6668376,224
1658996395.46238,315751.6668439,231
1658996395.46238,315751.6668494,214
1658996395.47435,315751.6668541,178
1658996395.47435,315751.6668603,159
1658996395.47435,315751.6668649,164
1658996395.47435,315751.6668706,181
1658996395.47435,315751.6668752,197
1658996395.47435,315751.6668814,195
1658996395.47435,315751.6668879,188
1658996395.47435,315751.6668943,193
1658996395.47435,315751.6668979,195
1658996395.47435,315751.6669024,188
1658996395.47435,315751.6669085,185
1658996395.47435,315751.6669206,185
1658996395.47435,315751.6669254,183
1658996395.47435,315751.6669316,200
1658996395.47435,315751.6669355,226
1658996395.47435,315751.6669414,150
1658996395.47435,315751.666946,-133
1658996395.47435,315752.2516775,-579
1658996395.47435,315752.2516971,-934
1658996395.47435,315752.2517053,-674
1658996395.47435,315752.251712,92
1658996395.47435,315752.2517166,405
1658996395.47435,315752.2517215,169
1658996395.47435,315752.2517258,112
1658996396.04817,315752.2517302,209
1658996396.04817,315752.2517346,171
1658996396.04817,315752.2517394,138
1658996396.04817,315752.2517438,169
1658996396.04817,315752.2517485,147
1658996396.04817,315752.2517527,102
1658996396.04817,315752.2517573,97
1658996396.04817,315752.2517618,95
1658996396.04817,315752.2517663,81
1658996396.04817,315752.2517705,73
1658996396.04817,315752.2517747,69
1658996396.04817,315752.2517796,42
1658996396.04817,315752.2517844,23
1658996396.04817,315752.251789,26
1658996396.04817,315752.2517937,30
1658996396.04817,315752.2517986,23
1658996396.04817,315752.2518032,9
1658996396.04817,315752.2518079,9
1658996396.04817,315752.2518126,14
1658996396.04817,315752.2518174,9
1658996396.04817,315752.2518217,16
1658996396.04817,315752.2518263,28
1658996396.04817,315752.2518309,23
1658996396.04817,315752.2518355,14
1658996396.04817,315752.2518402,26
1658996396.04817,315752.2518451,54
1658996396.04817,315752.2518498,76
1658996396.04817,315752.2518544,107
1658996396.04817,315752.2518586,140
1658996396.04817,315752.2518629,145
1658996396.04817,315752.2518692,140
1658996396.04817,315752.2518735,157
1658996396.04817,315752.2518798,174
1658996396.04817,315752.2518843,166
1658996396.04817,315752.251891,162
1658996396.04817,315752.2518956,176
1658996396.04817,315752.2519018,171
1658996396.04817,315752.2519066,145
1658996396.04817,315752.2519128,147
1658996396.04817,315752.2519189,162
1658996396.04817,315752.2519229,154
1658996396.04817,315752.2519285,154
1658996396.04817,315752.251935,152
1658996396.04817,315752.2519392,147
1658996396.04817,315752.2519451,154
1658996396.04817,315752.2519493,154
1658996396.04817,315752.2519553,145
1658996396.04817,315752.2519601,150
1658996396.04817,315752.2519666,152
1658996396.04817,315752.2519716,152
1658996396.06014,315752.251978,150
1658996396.06014,315752.2519837,140
1658996396.06014,315752.2519879,140
1658996396.06014,315752.2519952,166
1658996396.06014,315752.2520023,169
1658996396.06014,315752.2520091,143
1658996396.06014,315752.2520169,135
1658996396.06014,315752.2520231,131
1658996396.06014,315752.2520294,107
1658996396.06014,315752.2520375,97
1658996396.06014,315752.2520457,95
1658996396.06014,315752.2520533,69
1658996396.06014,315752.2520621,71
1658996396.06014,315752.252074,119
1658996396.06014,315752.2520816,133
1658996396.06014,315752.2520926,102
1658996396.06014,315752.8373204,92
1658996396.06014,315752.837342,112
1658996396.06014,315752.8373527,116
1658996396.06014,315752.8373614,102
1658996396.06014,315752.8373698,102
1658996396.06014,315752.8373764,116
1658996396.06014,315752.8373845,128
1658996396.06014,315752.8373924,145
1658996396.53413,315752.8374001,143
1658996396.53413,315752.8374068,-11
1658996396.53413,315752.8374135,-369
1658996396.53413,315752.8374203,-801
1658996396.53413,315752.8374303,-903
1658996396.53413,315752.8374367,-343
1658996396.53413,315752.8374419,252
1658996396.53413,315752.8374463,200
1658996396.53413,315752.8374512,-4
1658996396.53413,315752.8374557,76
1658996396.53413,315752.8374606,133
1658996396.53413,315752.8374654,69
1658996396.53413,315752.8374737,57
1658996396.53413,315752.8374807,73
1658996396.53413,315752.8374875,61
1658996396.53413,315752.8374942,50
1658996396.53413,315752.837499,50
1658996396.53413,315752.8375055,42
1658996396.53413,315752.8375101,33
1658996396.53413,315752.8375159,26
1658996396.53413,315752.8375197,14
1658996396.53413,315752.8375244,7
1658996396.53413,315752.8375295,7
1658996396.53413,315752.8375357,2
1658996396.53413,315752.8375474,-2
1658996396.53413,315752.8375578,4
1658996396.53413,315752.8375672,4
1658996396.53413,315752.8375759,-14
1658996396.53413,315752.8375843,-14
1658996396.53413,315752.8375961,7
1658996396.53413,315752.8376035,14
1658996396.53413,315752.8376104,4
1658996396.53413,315752.8376152,0
1658996396.53413,315752.8376233,11
1658996396.53413,315752.8376301,35
1658996396.53413,315752.8376351,54
1658996396.53413,315752.8376502,73
1658996396.53413,315752.8377318,107
1658996396.53413,315752.837742,128
1658996396.53413,315752.8377463,133
1658996396.53413,315752.8377544,140
1658996396.53413,315752.8377617,150
1658996396.53413,315752.8377709,157
1658996396.53413,315752.8377775,164
1658996396.53413,315752.8377862,169
1658996396.53413,315752.8377926,166
1658996396.53413,315752.8378002,154
1658996396.53413,315752.8378066,138
1658996396.53413,315752.8378154,131
1658996396.53413,315752.8378238,128
1658996396.5451,315752.8378323,121
1658996396.5451,315752.8378391,119
1658996396.5451,315752.8378493,114
1658996396.5451,315752.8378564,109
1658996396.5451,315752.8378646,114
1658996396.5451,315752.8378714,116
1658996396.5451,315752.8378802,126
1658996396.5451,315752.8379355,131
1658996396.5451,315752.8379475,116
1658996396.5451,315752.8379538,121
1658996396.5451,315752.8379579,140
1658996396.5451,315752.8379638,143
1658996396.5451,315752.8379698,135
1658996396.5451,315752.8379766,140
1658996396.5451,315752.8379851,138
1658996396.5451,315753.3246891,131
1658996396.5451,315753.3247072,145
1658996396.5451,315753.3247127,147
1658996396.5451,315753.3247226,135
1658996396.5451,315753.3247289,123
1658996396.5451,315753.3247368,109
1658996396.5451,315753.3247421,100
1658996396.5451,315753.3247486,97
1658996396.5451,315753.3247542,102
1658996397.06821,315753.3247612,121
1658996397.06821,315753.3247657,133
1658996397.06821,315753.3247712,123
1658996397.06821,315753.324776,119
1658996397.06821,315753.3247806,128
1658996397.06821,315753.3247857,126
1658996397.06821,315753.3247907,126
1658996397.06821,315753.3247953,128
1658996397.06821,315753.3247998,121
1658996397.06821,315753.3248055,116
1658996397.06821,315753.3248136,138
1658996397.06821,315753.3248191,131
1658996397.06821,315753.3248265,-11
1658996397.06821,315753.324831,-333
1658996397.06821,315753.3248374,-717
1658996397.06821,315753.324844,-758
1658996397.06821,315753.3248512,-216
1658996397.06821,315753.3248569,293
1658996397.06821,315753.3248632,219
1658996397.06821,315753.3248698,40
1658996397.06821,315753.3248775,109
1658996397.06821,315753.3248862,135
1658996397.06821,315753.3248916,81
1658996397.06821,315753.324898,90
1658996397.06821,315753.3249025,100
1658996397.06821,315753.3249092,90
1658996397.06821,315753.3249148,90
1658996397.06821,315753.324922,76
1658996397.06821,315753.3249274,61
1658996397.06821,315753.3249351,69
1658996397.06821,315753.32494,64
1658996397.06821,315753.3249483,50
1658996397.06821,315753.3249546,47
1658996397.06821,315753.3249627,50
1658996397.06821,315753.324968,47
1658996397.06821,315753.3249762,35
1658996397.06821,315753.3249819,23
1658996397.06821,315753.3249871,23
1658996397.06821,315753.3249942,14
1658996397.06821,315753.3249989,11
1658996397.06821,315753.3250035,19
1658996397.06821,315753.3250108,9
1658996397.06821,315753.3250164,2
1658996397.06821,315753.3250235,26
1658996397.06821,315753.3250282,45
1658996397.06821,315753.3250354,52
1658996397.06821,315753.3250413,64
1658996397.06821,315753.325051,90
1658996397.06821,315753.3250584,121
1658996397.06821,315753.3250651,143
1658996397.08018,315753.3250734,159
1658996397.08018,315753.3250787,181
1658996397.08018,315753.3250851,190
1658996397.08018,315753.32509,193
1658996397.08018,315753.3250948,193
1658996397.08018,315753.3251024,195
1658996397.08018,315753.325108,197
1658996397.08018,315753.3251151,195
1658996397.08018,315753.3251217,193
1658996397.08018,315753.3251292,190
1658996397.08018,315753.3251344,188
1658996397.08018,315753.3251426,190
1658996397.08018,315753.3251483,195
1658996397.08018,315753.3251554,197
1658996397.08018,315753.8598806,195
1658996397.08018,315753.859893,195
1658996397.08018,315753.8598963,197
1658996397.08018,315753.8598988,193
1658996397.08018,315753.8599011,188
1658996397.08018,315753.8599033,193
1658996397.08018,315753.8599054,197
1658996397.08018,315753.8599077,190
1658996397.08018,315753.8599099,181
1658996397.08018,315753.8599119,171
1658996397.65788,315753.8599148,176
1658996397.65788,315753.8599212,183
1658996397.65788,315753.8599258,176
1658996397.65788,315753.85995,174
1658996397.65788,315753.8599694,169
1658996397.65788,315753.8599767,150
1658996397.65788,315753.8599842,138
1658996397.65788,315753.8599886,133
1658996397.65788,315753.8599939,119
1658996397.65788,315753.8599988,109
1658996397.65788,315753.8600046,131
1658996397.65788,315753.8600114,143
1658996397.65788,315753.8600155,133
1658996397.65788,315753.8600198,143
1658996397.65788,315753.8600247,162
1658996397.65788,315753.860031,154
1658996397.65788,315753.8600346,147
1658996397.65788,315753.8600382,152
1658996397.65788,315753.8600419,145
1658996397.65788,315753.8600455,145
1658996397.65788,315753.860051,162
1658996397.65788,315753.8600557,183
1658996397.65788,315753.860062,176
1658996397.65788,315753.8600661,19
1658996397.65788,315753.8600737,-360
1658996397.65788,315753.8600789,-784
1658996397.65788,315753.8600854,-753
1658996397.65788,315753.8600892,-92
1658996397.65788,315753.8601023,400
1658996397.65788,315753.8601109,269
1658996397.65788,315753.8601192,109
1658996397.65788,315753.8601285,176
1658996397.65788,315753.8601354,176
1658996397.65788,315753.8601449,133
1658996397.65788,315753.8601547,154
1658996397.65788,315753.860165,157
1658996397.65788,315753.8601742,133
1658996397.65788,315753.8601846,135
1658996397.65788,315753.8601949,131
1658996397.65788,315753.8602034,116
1658996397.65788,315753.8602131,107
1658996397.65788,315753.8602242,97
1658996397.65788,315753.8602315,100
1658996397.65788,315753.8602422,92
1658996397.65788,315753.8602529,73
1658996397.65788,315753.8602602,73
1658996397.65788,315753.8602703,85
1658996397.65788,315753.8602815,81
1658996397.65788,315753.86029,71
1658996397.65788,315753.8602997,69
1658996397.66885,315753.8603128,59
1658996397.66885,315753.8603267,54
1658996397.66885,315753.8603418,73
1658996397.66885,315753.8603556,81
1658996397.66885,315753.8603653,69
1658996397.66885,315753.8603734,95
1658996397.66885,315753.860384,131
1658996397.66885,315753.8603875,123
1658996397.66885,315753.860396,119
1658996397.66885,315753.8604049,150
1658996397.66885,315753.8604119,176
1658996397.66885,315753.8604143,181
1658996397.66885,315753.8604169,183
1658996397.66885,315754.445178,188
1658996397.66885,315754.4452017,200
1658996397.66885,315754.4452105,212
1658996397.66885,315754.4452177,195
1658996397.66885,315754.445227,169
1658996397.66885,315754.4452418,171
1658996397.66885,315754.4452512,169
1658996397.66885,315754.4452539,154
1658996397.66885,315754.445256,152
1658996397.66885,315754.4452581,147
1658996397.66885,315754.4452605,135
1658996398.23656,315754.4452704,126
1658996398.23656,315754.445278,121
1658996398.23656,315754.4452806,116
1658996398.23656,315754.4452846,109
1658996398.23656,315754.445294,119
1658996398.23656,315754.4452991,126
1658996398.23656,315754.4453032,116
1658996398.23656,315754.4453096,109
1658996398.23656,315754.4453146,121
1658996398.23656,315754.4453236,135
1658996398.23656,315754.4453322,131
1658996398.23656,315754.4453346,119
1658996398.23656,315754.4453367,121
1658996398.23656,315754.4453387,121
1658996398.23656,315754.4453407,123
1658996398.23656,315754.4453428,131
1658996398.23656,315754.4453448,121
1658996398.23656,315754.4453468,97
1658996398.23656,315754.4453489,85
1658996398.23656,315754.4453509,76
1658996398.23656,315754.4453529,78
1658996398.23656,315754.445355,114
1658996398.23656,315754.445357,135
1658996398.23656,315754.445359,114
1658996398.23656,315754.445361,97
1658996398.23656,315754.445363,104
1658996398.23656,315754.44537,104
1658996398.23656,315754.445381,97
1658996398.23656,315754.4453858,100
1658996398.23656,315754.4453884,97
1658996398.23656,315754.4453913,100
1658996398.23656,315754.4454021,128
1658996398.23656,315754.4454095,162
1658996398.23656,315754.445412,61
1658996398.23656,315754.4454142,-262
1658996398.23656,315754.4454163,-722
1658996398.23656,315754.4454229,-937
1658996398.23656,315754.4454341,-457
1658996398.23656,315754.4454388,269
1658996398.23656,315754.4454467,360
1658996398.23656,315754.4454552,104
1658996398.23656,315754.4454595,138
1658996398.23656,315754.4454651,226
1658996398.23656,315754.4454701,154
1658996398.23656,315754.4454753,133
1658996398.23656,315754.4454791,176
1658996398.23656,315754.4454828,166
1658996398.23656,315754.4454883,138
1658996398.23656,315754.445492,126
1658996398.23656,315754.4454958,119
1658996398.24753,315754.4455012,112
1658996398.24753,315754.4455065,107
1658996398.24753,315754.4455102,104
1658996398.24753,315754.4455138,104
1658996398.24753,315754.445519,92
1658996398.24753,315754.4455226,81
1658996398.24753,315754.4455266,78
1658996398.24753,315754.4455319,73
1658996398.24753,315754.4455363,66
1658996398.24753,315754.4455417,71
1658996398.24753,315754.4455466,73
1658996398.24753,315754.4455521,76
1658996398.24753,315755.0302693,78
1658996398.24753,315755.0302885,85
1658996398.24753,315755.0302929,92
1658996398.24753,315755.0302965,100
1658996398.24753,315755.0302997,112
1658996398.24753,315755.0303028,126
1658996398.24753,315755.0303058,150
1658996398.24753,315755.0303088,169
1658996398.24753,315755.030312,164
1658996398.24753,315755.0303153,162
1658996398.24753,315755.0303198,183
1658996398.24753,315755.0303246,197
1658996398.77018,315755.0303283,200
1658996398.77018,315755.0303348,205
1658996398.77018,315755.0303415,193
1658996398.77018,315755.0303481,162
1658996398.77018,315755.030355,157
1658996398.77018,315755.0303593,164
1658996398.77018,315755.030365,157
1658996398.77018,315755.0303686,140
1658996398.77018,315755.0303722,135
1658996398.77018,315755.0303759,143
1658996398.77018,315755.0303793,145
1658996398.77018,315755.0303828,140
1658996398.77018,315755.0303884,143
1658996398.77018,315755.0303928,150
1658996398.77018,315755.0303991,143
1658996398.77018,315755.0304032,128
1658996398.77018,315755.0304077,133
1658996398.77018,315755.0304114,143
1658996398.77018,315755.0304174,145
1658996398.77018,315755.0304231,150
1658996398.77018,315755.0304297,145
1658996398.77018,315755.0304346,135
1658996398.77018,315755.0304382,140
1658996398.77018,315755.0304417,150
1658996398.77018,315755.0304451,154
1658996398.77018,315755.0304487,159
1658996398.77018,315755.0304524,154
1658996398.77018,315755.0304559,128
1658996398.77018,315755.0304594,109
1658996398.77018,315755.0304626,119
1658996398.77018,315755.0304661,140
1658996398.77018,315755.0304697,147
1658996398.77018,315755.0304734,150
1658996398.77018,315755.0304772,152
1658996398.77018,315755.0304808,147
1658996398.77018,315755.0304845,145
1658996398.77018,315755.0304881,143
1658996398.77018,315755.0304917,140
1658996398.77018,315755.0304954,131
1658996398.77018,315755.030499,123
1658996398.77018,315755.0305026,140
1658996398.77018,315755.0305063,183
1658996398.77018,315755.0305096,123
1658996398.77018,315755.0305132,-164
1658996398.77018,315755.0305172,-631
1658996398.77018,315755.0305207,-953
1658996398.77018,315755.0305242,-619
1658996398.77018,315755.0305276,135
1658996398.77018,315755.0305312,376
1658996398.77018,315755.0305348,147
1658996398.78115,315755.0305384,116
1658996398.78115,315755.0305421,214
1658996398.78115,315755.0305458,185
1658996398.78115,315755.0305495,154
1658996398.78115,315755.0305533,174
1658996398.78115,315755.030557,171
1658996398.78115,315755.0305608,154
1658996398.78115,315755.0305646,150
1658996398.78115,315755.0305685,140
1658996398.78115,315755.0305722,126
1658996398.78115,315755.030576,119
1658996398.78115,315755.5667021,114
1658996398.78115,315755.5667203,109
1658996398.78115,315755.5667315,100
1658996398.78115,315755.5667403,90
1658996398.78115,315755.5667448,90
1658996398.78115,315755.5667518,83
1658996398.78115,315755.5667563,71
1658996398.78115,315755.5667617,69
1658996398.78115,315755.5667673,71
1658996398.78115,315755.5667747,71
1658996398.78115,315755.5667815,73
1658996398.78115,315755.5667943,66
1658996398.78115,315755.566806,50
1658996399.41149,315755.5668111,54
1658996399.41149,315755.5668141,66
1658996399.41149,315755.5668176,78
1658996399.41149,315755.5668268,107
1658996399.41149,315755.566834,128
1658996399.41149,315755.5668388,128
1658996399.41149,315755.5668427,131
1658996399.41149,315755.5668464,140
1658996399.41149,315755.5668502,140
1658996399.41149,315755.566854,147
1658996399.41149,315755.5668617,157
1658996399.41149,315755.5668669,152
1658996399.41149,315755.566877,152
1658996399.41149,315755.5669221,157
1658996399.41149,315755.5669334,152
1658996399.41149,315755.5669419,138
1658996399.41149,315755.5669478,135
1658996399.41149,315755.5669549,135
1658996399.41149,315755.5669589,133
1658996399.41149,315755.5669641,138
1658996399.41149,315755.5669722,140
1658996399.41149,315755.5669784,140
1658996399.41149,315755.5669828,147
1658996399.41149,315755.5669899,154
1658996399.41149,315755.5669933,147
1658996399.41149,315755.5669966,145
1658996399.41149,315755.5670018,157
1658996399.41149,315755.5670051,169
1658996399.41149,315755.5670088,159
1658996399.41149,315755.5670142,145
1658996399.41149,315755.5670225,145
1658996399.41149,315755.5670308,143
1658996399.41149,315755.5670374,147
1658996399.41149,315755.5670468,157
1658996399.41149,315755.5670558,157
1658996399.41149,315755.5670641,159
1658996399.41149,315755.5670711,152
1658996399.41149,315755.5670779,128

1658996399.41149,315755.5670821,109
1658996399.41149,315755.5670882,114
1658996399.41149,315755.5670915,135
1658996399.41149,315755.5670944,154
1658996399.41149,315755.5670983,154
1658996399.41149,315755.5671033,145
1658996399.41149,315755.5671088,138
1658996399.41149,315755.567112,140
1658996399.41149,315755.5671186,138
1658996399.41149,315755.5671257,133
1658996399.41149,315755.5671347,133
1658996399.41149,315755.5671424,135
1658996399.42246,315755.5671483,147
1658996399.42246,315755.5671543,183
1658996399.42246,315755.5671629,166
1658996399.42246,315755.5671714,-57
1658996399.42246,315755.5671791,-503
1658996399.42246,315755.5671924,-908
1658996399.42246,315755.5671969,-765
1658996399.42246,315755.5672017,-38
1658996399.42246,315755.567207,383
1658996399.42246,315755.5672104,195
1658996399.42246,315756.2000929,76
1658996399.42246,315756.2001078,171
1658996399.42246,315756.2001116,174
1658996399.42246,315756.2001144,133
1658996399.42246,315756.2001165,154
1658996399.42246,315756.2001185,157
1658996399.42246,315756.2001207,131
1658996399.42246,315756.2001227,121
1658996399.42246,315756.2001248,100
1658996399.42246,315756.2001268,69
1658996399.42246,315756.2001288,73
1658996399.42246,315756.2001309,73
1658996399.42246,315756.2001335,47
1658996399.42246,315756.2001368,19
1658996399.94721,315756.200145,2
1658996399.94721,315756.2001498,-9
1658996399.94721,315756.2001532,-9
1658996399.94721,315756.2001578,-4
1658996399.94721,315756.2001639,-4
1658996399.94721,315756.2001734,-4
1658996399.94721,315756.2001794,-2
1658996399.94721,315756.2001868,2
1658996399.94721,315756.200192,7
1658996399.94721,315756.2001991,7
1658996399.94721,315756.2002067,11
1658996399.94721,315756.2002141,26
1658996399.94721,315756.2002245,50
1658996399.94721,315756.20024,66
1658996399.94721,315756.2002491,83
1658996399.94721,315756.2002524,107
1658996399.94721,315756.2002606,128
1658996399.94721,315756.2002691,150
1658996399.94721,315756.2002733,154
1658996399.94721,315756.2002773,147
1658996399.94721,315756.2002863,150
1658996399.94721,315756.2002954,157
1658996399.94721,315756.2002989,154
1658996399.94721,315756.2003103,145
1658996399.94721,315756.2003223,143
1658996399.94721,315756.2003326,140
1658996399.94721,315756.2003456,131
1658996399.94721,315756.2003536,138
1658996399.94721,315756.2003618,145
1658996399.94721,315756.2003702,135
1658996399.94721,315756.2003748,128
1658996399.94721,315756.2003808,135
1658996399.94721,315756.2003845,145
1658996399.94721,315756.2003895,143
1658996399.94721,315756.2003932,143
1658996399.94721,315756.2003968,145
1658996399.94721,315756.200407,143
1658996399.94721,315756.2004183,152
1658996399.94721,315756.2004268,157
1658996399.94721,315756.2004311,145
1658996399.94721,315756.2004362,140
1658996399.94721,315756.2004397,150
1658996399.94721,315756.2004434,147
1658996399.94721,315756.2004506,145
1658996399.94721,315756.2004574,150
1658996399.94721,315756.2004618,150
1658996399.94721,315756.2004639,147
1658996399.94721,315756.2005345,143
1658996399.94721,315756.2005461,133
1658996399.94721,315756.2005579,119
1658996399.95818,315756.2005721,102
1658996399.95818,315756.200585,100
1658996399.95818,315756.2005978,116
1658996399.95818,315756.2006129,128
1658996399.95818,315756.2006271,123
1658996399.95818,315756.2006366,123
1658996399.95818,315756.2006405,131
1658996399.95818,315756.2006425,116
1658996399.95818,315756.2006446,95
1658996399.95818,315756.7367618,100
1658996399.95818,315756.7367745,112
1658996399.95818,315756.7367785,109
1658996399.95818,315756.7367837,128
1658996399.95818,315756.7367862,166
1658996399.95818,315756.7367887,92
1658996399.95818,315756.7367912,-202
1658996399.95818,315756.7367936,-646
1658996399.95818,315756.736796,-927
1658996399.95818,315756.7367982,-569
1658996399.95818,315756.7368005,152
1658996399.95818,315756.7368029,345
1658996399.95818,315756.7368052,104
1658996399.95818,315756.736808,88
1658996399.95818,315756.7368138,185
1658996400.47698,315756.7368251,152
1658996400.47698,315756.7368289,126
1658996400.47698,315756.736831,138
1658996400.47698,315756.736833,107
1658996400.47698,315756.7368349,88
1658996400.47698,315756.7368368,95
1658996400.47698,315756.7368387,78
1658996400.47698,315756.7368406,73
1658996400.47698,315756.7368425,69
1658996400.47698,315756.7368444,28
1658996400.47698,315756.7368465,7
1658996400.47698,315756.7368485,23
1658996400.47698,315756.7368504,23
1658996400.47698,315756.7368525,7
1658996400.47698,315756.7368545,2
1658996400.47698,315756.7368565,9
1658996400.47698,315756.7368587,14
1658996400.47698,315756.7368655,16
1658996400.47698,315756.7368767,21
1658996400.47698,315756.7368814,16
1658996400.47698,315756.7368855,19
1658996400.47698,315756.7368876,33
1658996400.47698,315756.7368896,38
1658996400.47698,315756.7368916,45
1658996400.47698,315756.7368936,66
1658996400.47698,315756.7368956,90
1658996400.47698,315756.7368976,114
1658996400.47698,315756.7368997,135
1658996400.47698,315756.7369017,145
1658996400.47698,315756.7369037,150
1658996400.47698,315756.7369058,164
1658996400.47698,315756.7369078,174
1658996400.47698,315756.7369098,171
1658996400.47698,315756.7369117,176
1658996400.47698,315756.7369137,171
1658996400.47698,315756.7369156,159
1658996400.47698,315756.7369176,162
1658996400.47698,315756.7369204,162
1658996400.47698,315756.7369269,159
1658996400.47698,315756.736952,157
1658996400.47698,315756.7369608,143
1658996400.47698,315756.7369673,131
1658996400.47698,315756.7369731,135
1658996400.47698,315756.7369779,143
1658996400.47698,315756.7369823,157
1658996400.47698,315756.7369863,154
1658996400.47698,315756.7369932,135
1658996400.47698,315756.7369981,150
1658996400.47698,315756.7370016,166
1658996400.47698,315756.7370072,157
1658996400.48696,315756.7370104,154
1658996400.48696,315756.7370138,152
1658996400.48696,315756.7370235,145
1658996400.48696,315756.7370296,145
1658996400.48696,315756.7370379,145
1658996400.48696,315756.7370444,135
1658996400.48696,315756.7370514,126
1658996400.48696,315756.7370572,128
1658996400.48696,315757.2734928,128
1658996400.48696,315757.2735149,133
1658996400.48696,315757.2735302,138
1658996400.48696,315757.2735399,138
1658996400.48696,315757.2735466,131
1658996400.48696,315757.2735549,116
1658996400.48696,315757.273561,104
1658996400.48696,315757.2735679,90
1658996400.48696,315757.2735729,76
1658996400.48696,315757.2735816,81
1658996400.48696,315757.2735895,95
1658996400.48696,315757.2735957,97
1658996400.48696,315757.2736042,92
1658996400.48696,315757.2736104,85
1658996400.48696,315757.2736186,85
1658996400.48696,315757.2736248,85
1658996401.01386,315757.2736331,83
1658996401.01386,315757.2736394,76
1658996401.01386,315757.2736452,78
1658996401.01386,315757.2736501,114
1658996401.01386,315757.2737294,112
1658996401.01386,315757.2737425,-66
1658996401.01386,315757.2737489,-441
1658996401.01386,315757.2737548,-832
1658996401.01386,315757.2737585,-801
1658996401.01386,315757.2737621,-176
1658996401.01386,315757.2737666,317
1658996401.01386,315757.2737912,202
1658996401.01386,315757.2738043,47
1658996401.01386,315757.2738128,128
1658996401.01386,315757.2738203,154
1658996401.01386,315757.2738271,109
1658996401.01386,315757.2738334,112
1658996401.01386,315757.273841,123
1658996401.01386,315757.2738478,114
1658996401.01386,315757.273852,107
1658996401.01386,315757.2738551,102
1658996401.01386,315757.2738582,92
1658996401.01386,315757.2738612,88
1658996401.01386,315757.2738641,92
1658996401.01386,315757.2738683,73
1658996401.01386,315757.2738717,57
1658996401.01386,315757.2738751,64
1658996401.01386,315757.2738798,69
1658996401.01386,315757.2738832,66
1658996401.01386,315757.273887,61
1658996401.01386,315757.2738907,52
1658996401.01386,315757.2738944,50
1658996401.01386,315757.273898,50
1658996401.01386,315757.2739036,54
1658996401.01386,315757.2739085,61
1658996401.01386,315757.2739142,64
1658996401.01386,315757.2739177,59
1658996401.01386,315757.2739212,64
1658996401.01386,315757.2739248,83
1658996401.01386,315757.2739303,102
1658996401.01386,315757.273934,126
1658996401.01386,315757.2739392,154
1658996401.01386,315757.2739429,169
1658996401.01386,315757.2739467,171
1658996401.01386,315757.2739504,183
1658996401.01386,315757.273954,188
1658996401.01386,315757.2739576,190
1658996401.01386,315757.2739647,197
1658996401.01386,315757.2739701,181
1658996401.01386,315757.2739744,159
1658996401.02384,315757.2739783,162
1658996401.02384,315757.2739836,162
1658996401.02384,315757.2739875,150
1658996401.02384,315757.2739911,154
1658996401.02384,315757.2739965,162
1658996401.02384,315757.2740001,154
1658996401.02384,315757.2740038,152
1658996401.02384,315757.8097758,157
1658996401.02384,315757.8097977,154
1658996401.02384,315757.8098045,152
1658996401.02384,315757.8098109,162
1658996401.02384,315757.8098154,166
1658996401.02384,315757.8098192,154
1658996401.02384,315757.8098254,140
1658996401.02384,315757.8098342,143
1658996401.02384,315757.8098404,157
1658996401.02384,315757.8098509,157
1658996401.02384,315757.8098536,143
1658996401.02384,315757.8098557,126
1658996401.02384,315757.8098578,109
1658996401.02384,315757.8098599,116
1658996401.02384,315757.809862,135
1658996401.02384,315757.809864,140
1658996401.02384,315757.8098662,135
1658996401.59996,315757.8098682,121
1658996401.59996,315757.8098711,104
1658996401.59996,315757.8098815,88
1658996401.59996,315757.8098879,78
1658996401.59996,315757.8098903,76
1658996401.59996,315757.8098949,71
1658996401.59996,315757.8099053,83
1658996401.59996,315757.8099129,97
1658996401.59996,315757.8099234,92
1658996401.59996,315757.8099296,90
1658996401.59996,315757.8099343,95
1658996401.59996,315757.8099406,85
1658996401.59996,315757.8099447,85
1658996401.59996,315757.8099486,97
1658996401.59996,315757.8099527,104
1658996401.59996,315757.8099569,104
1658996401.59996,315757.8099627,128
1658996401.59996,315757.8099666,159
1658996401.59996,315757.8099706,57
1658996401.59996,315757.8099745,-267
1658996401.59996,315757.8099784,-698
1658996401.59996,315757.8099823,-839
1658996401.59996,315757.8099865,-333
1658996401.59996,315757.8099906,293
1658996401.59996,315757.8099945,312
1658996401.59996,315757.8099984,95
1658996401.59996,315757.8100022,135
1658996401.59996,315757.8100061,200
1658996401.59996,315757.81001,147
1658996401.59996,315757.8100137,143
1658996401.59996,315757.8100174,169
1658996401.59996,315757.8100211,150
1658996401.59996,315757.8100248,131
1658996401.59996,315757.8100285,133
1658996401.59996,315757.8100321,121
1658996401.59996,315757.8100357,104
1658996401.59996,315757.8100391,116
1658996401.59996,315757.8100427,121
1658996401.59996,315757.8100464,95
1658996401.59996,315757.8100502,73
1658996401.59996,315757.8100539,69
1658996401.59996,315757.8100576,64
1658996401.59996,315757.8100613,59
1658996401.59996,315757.8100651,61
1658996401.59996,315757.8100688,64
1658996401.59996,315757.8100725,59
1658996401.59996,315757.8100763,59
1658996401.59996,315757.8100802,66
1658996401.59996,315757.8100838,73
1658996401.59996,315757.8100873,73
1658996401.60794,315757.8100907,81
1658996401.60794,315757.8100942,97
1658996401.60794,315757.8100977,112
1658996401.60794,315757.8101011,121
1658996401.60794,315757.8101045,140
1658996401.60794,315757.810108,159
1658996401.60794,315758.3945914,178
1658996401.60794,315758.3946166,197
1658996401.60794,315758.3946285,195
1658996401.60794,315758.3946395,188
1658996401.60794,315758.3946461,193
1658996401.60794,315758.3946562,195
1658996401.60794,315758.3946625,190
1658996401.60794,315758.3946683,183
1658996401.60794,315758.3946738,169
1658996401.60794,315758.3946782,147
1658996401.60794,315758.3946825,143
1658996401.60794,315758.3946917,152
1658996401.60794,315758.3946977,157
1658996401.60794,315758.3947021,152
1658996401.60794,315758.3947072,131
1658996401.60794,315758.3947126,104
1658996401.60794,315758.3947184,112
1658996401.60794,315758.3947223,128
1658996402.18935,315758.3947258,123
1658996402.18935,315758.394729,119
1658996402.18935,315758.3947321,119
1658996402.18935,315758.3947353,114
1658996402.18935,315758.3947384,119
1658996402.18935,315758.3947416,128
1658996402.18935,315758.3947447,133
1658996402.18935,315758.394748,133
1658996402.18935,315758.3947511,128
1658996402.18935,315758.3947543,128
1658996402.18935,315758.3947574,138
1658996402.18935,315758.3947606,143
1658996402.18935,315758.3947638,135
1658996402.18935,315758.394767,131
1658996402.18935,315758.3947699,126
1658996402.18935,315758.3947731,97
1658996402.18935,315758.3947765,69
1658996402.18935,315758.3947811,88
1658996402.18935,315758.3947857,121
1658996402.18935,315758.3947926,126
1658996402.18935,315758.3947965,121
1658996402.18935,315758.3948017,126
1658996402.18935,315758.3948074,119
1658996402.18935,315758.3948107,109
1658996402.18935,315758.3948161,107
1658996402.18935,315758.3948224,128
1658996402.18935,315758.3948288,147
1658996402.18935,315758.3948352,123
1658996402.18935,315758.3948408,131
1658996402.18935,315758.3948465,171
1658996402.18935,315758.3948521,28
1658996402.18935,315758.3948604,-386
1658996402.18935,315758.3948688,-853
1658996402.18935,315758.394876,-898
1658996402.18935,315758.3948804,-247
1658996402.18935,315758.3948894,379
1658996402.18935,315758.3948932,307
1658996402.18935,315758.3949004,92
1658996402.18935,315758.3949092,171
1658996402.18935,315758.3949201,205
1658996402.18935,315758.3949311,133
1658996402.18935,315758.3949401,154
1658996402.18935,315758.3949508,185
1658996402.18935,315758.3949612,145
1658996402.18935,315758.3949659,119
1658996402.18935,315758.3949789,123
1658996402.18935,315758.3949884,121
1658996402.18935,315758.3949973,119
1658996402.18935,315758.3950108,119
1658996402.18935,315758.3950237,102
1658996402.20032,315758.3950363,81
1658996402.20032,315758.3950506,81
1658996402.20032,315758.3950635,83
1658996402.20032,315758.3950718,76
1658996402.20032,315758.3950781,71
1658996402.20032,315758.9800815,76
1658996402.20032,315758.9800998,78
1658996402.20032,315758.9801047,66
1658996402.20032,315758.9801103,59
1658996402.20032,315758.9801161,73
1658996402.20032,315758.9801225,90
1658996402.20032,315758.9801273,92
1658996402.20032,315758.9801328,95
1658996402.20032,315758.9801364,107
1658996402.20032,315758.9801399,126
1658996402.20032,315758.9801434,143
1658996402.20032,315758.9801469,157
1658996402.20032,315758.9801501,174
1658996402.20032,315758.9801539,178
1658996402.20032,315758.9801572,181
1658996402.20032,315758.9801605,193
1658996402.20032,315758.980164,207
1658996402.20032,315758.9801675,200
1658996402.20032,315758.9801727,171
1658996402.72498,315758.9801769,162
1658996402.72498,315758.9801805,157
1658996402.72498,315758.9801848,145
1658996402.72498,315758.9801886,145
1658996402.72498,315758.9801929,140
1658996402.72498,315758.980197,123
1658996402.72498,315758.980201,123
1658996402.72498,315758.9802087,133
1658996402.72498,315758.9802159,121
1658996402.72498,315758.9802211,109
1658996402.72498,315758.9802264,123
1658996402.72498,315758.9802361,133
1658996402.72498,315758.9802474,123
1658996402.72498,315758.9802529,121
1658996402.72498,315758.9802555,135
1658996402.72498,315758.9802576,138
1658996402.72498,315758.9802605,133
1658996402.72498,315758.9802711,138
1658996402.72498,315758.9802785,145
1658996402.72498,315758.980281,143
1658996402.72498,315758.9802831,147
1658996402.72498,315758.9802853,150
1658996402.72498,315758.9802883,147
1658996402.72498,315758.9802988,133
1658996402.72498,315758.9803061,107
1658996402.72498,315758.9803084,83
1658996402.72498,315758.9803105,81
1658996402.72498,315758.9803125,90
1658996402.72498,315758.9803184,104
1658996402.72498,315758.9803294,112
1658996402.72498,315758.9803344,107
1658996402.72498,315758.9803365,107
1658996402.72498,315758.9803386,104
1658996402.72498,315758.9803406,95
1658996402.72498,315758.9803427,95
1658996402.72498,315758.9803447,104
1658996402.72498,315758.9803515,104
1658996402.72498,315758.9803668,107
1658996402.72498,315758.9803752,150
1658996402.72498,315758.9803859,185
1658996402.72498,315758.9803992,61
1658996402.72498,315758.9804114,-305
1658996402.72498,315758.9804229,-791
1658996402.72498,315758.9804284,-970
1658996402.72498,315758.9804305,-402
1658996402.72498,315758.9804325,329
1658996402.72498,315758.9804346,348
1658996402.72498,315758.9804366,92
1658996402.72498,315758.9804439,159
1658996402.72498,315758.9804581,243
1658996402.73595,315758.980471,174
1658996402.73595,315758.9804847,169
1658996402.73595,315758.9804976,197
1658996402.73595,315758.9805106,166
1658996402.73595,315759.5156368,150
1658996402.73595,315759.5156492,157
1658996402.73595,315759.5156526,143
1658996402.73595,315759.5156554,131
1658996402.73595,315759.5156578,133
1658996402.73595,315759.5156601,128
1658996402.73595,315759.5156625,121
1658996402.73595,315759.515665,107
1658996402.73595,315759.5156685,85
1658996402.73595,315759.5156757,71
1658996402.73595,315759.5156793,66
1658996402.73595,315759.5156866,57
1658996402.73595,315759.5156961,57
1658996402.73595,315759.5157084,61
1658996402.73595,315759.5157152,42
1658996402.73595,315759.5157237,30
1658996402.73595,315759.5157304,52
1658996402.73595,315759.5157359,71
1658996402.73595,315759.5157405,69
1658996402.73595,315759.5157463,78
1658996403.31435,315759.5157502,102
1658996403.31435,315759.515756,114
1658996403.31435,315759.5157652,128
1658996403.31435,315759.5157687,154
1658996403.31435,315759.5157707,176
1658996403.31435,315759.5157727,183
1658996403.31435,315759.5157785,185
1658996403.31435,315759.5157902,181
1658996403.31435,315759.5157958,174
1658996403.31435,315759.5157979,169
1658996403.31435,315759.5158,164
1658996403.31435,315759.515802,169
1658996403.31435,315759.5158041,176
1658996403.31435,315759.5158068,164
1658996403.31435,315759.5158169,140
1658996403.31435,315759.5158259,140
1658996403.31435,315759.5158283,154
1658996403.31435,315759.5158304,145
1658996403.31435,315759.5158325,126
1658996403.31435,315759.5158345,126
1658996403.31435,315759.5158398,140
1658996403.31435,315759.5158517,140
1658996403.31435,315759.5158573,128
1658996403.31435,315759.5158601,123
1658996403.31435,315759.5158623,131
1658996403.31435,315759.5158644,133
1658996403.31435,315759.5158664,126
1658996403.31435,315759.5158717,128
1658996403.31435,315759.5158831,133
1658996403.31435,315759.5158885,133
1658996403.31435,315759.5158914,140
1658996403.31435,315759.5158935,157
1658996403.31435,315759.5158955,154
1658996403.31435,315759.5158977,140
1658996403.31435,315759.515905,128
1658996403.31435,315759.5159158,109
1658996403.31435,315759.5159193,88
1658996403.31435,315759.5159223,90
1658996403.31435,315759.5159252,107
1658996403.31435,315759.5159281,114
1658996403.31435,315759.5159346,109
1658996403.31435,315759.5159459,104
1658996403.31435,315759.5159513,107
1658996403.31435,315759.5159584,116
1658996403.31435,315759.5159705,121
1658996403.31435,315759.5159832,116
1658996403.31435,315759.5159965,107
1658996403.31435,315759.5160072,107
1658996403.31435,315759.5160145,143
1658996403.31435,315759.5160313,190
1658996403.32394,315759.516034,100
1658996403.32394,315759.5160361,-245
1658996403.32394,315759.5160382,-729
1658996403.32394,315760.1015246,-953
1658996403.32394,315760.1015479,-472
1658996403.32394,315760.1015629,255
1658996403.32394,315760.1015776,348
1658996403.32394,315760.1015865,104
1658996403.32394,315760.1015891,135
1658996403.32394,315760.1015912,216
1658996403.32394,315760.1015933,164
1658996403.32394,315760.1015953,150
1658996403.32394,315760.1015973,174
1658996403.32394,315760.1015992,159
1658996403.32394,315760.1016012,126
1658996403.32394,315760.1016033,116
1658996403.32394,315760.1016053,112
1658996403.32394,315760.1016073,100
1658996403.32394,315760.1016093,97
1658996403.32394,315760.1016113,102
1658996403.32394,315760.1016135,78
1658996403.32394,315760.1016217,38
1658996403.32394,315760.1016314,33
1658996403.32394,315760.1016379,45
1658996403.84315,315760.1016434,40
1658996403.84315,315760.1016478,45
1658996403.84315,315760.1016521,47
1658996403.84315,315760.1016564,30
1658996403.84315,315760.1016606,30
1658996403.84315,315760.1016649,42
1658996403.84315,315760.1016692,45
1658996403.84315,315760.1016738,45
1658996403.84315,315760.1016796,50
1658996403.84315,315760.1016837,52
1658996403.84315,315760.1016888,69
1658996403.84315,315760.1016924,100
1658996403.84315,315760.101697,123
1658996403.84315,315760.1017075,131
1658996403.84315,315760.1017228,140
1658996403.84315,315760.1017316,159
1658996403.84315,315760.1017378,169
1658996403.84315,315760.1017462,171
1658996403.84315,315760.1017547,171
1658996403.84315,315760.1017623,166
1658996403.84315,315760.1017706,169
1658996403.84315,315760.1017786,171
1658996403.84315,315760.1017866,162
1658996403.84315,315760.1017935,159
1658996403.84315,315760.1018018,164
1658996403.84315,315760.101808,152
1658996403.84315,315760.1018158,145
1658996403.84315,315760.1018228,157
1658996403.84315,315760.101831,157
1658996403.84315,315760.1018374,143
1658996403.84315,315760.1018456,143
1658996403.84315,315760.1018516,152
1658996403.84315,315760.10186,150
1658996403.84315,315760.1018662,140
1658996403.84315,315760.1018745,143
1658996403.84315,315760.1018804,145
1658996403.84315,315760.1018882,138
1658996403.84315,315760.1018969,143
1658996403.84315,315760.1019038,150
1658996403.84315,315760.1019121,150
1658996403.84315,315760.1019185,152
1658996403.84315,315760.1019265,164
1658996403.84315,315760.1019325,181
1658996403.84315,315760.1019404,176
1658996403.84315,315760.1019465,145
1658996403.84315,315760.1019544,114
1658996403.84315,315760.1019603,100
1658996403.84315,315760.1019686,85
1658996403.84315,315760.1019745,95
1658996403.84315,315760.1019827,128
1658996403.85102,315760.1019888,126
1658996403.85102,315760.101997,104
1658996403.85102,315760.6371617,109
1658996403.85102,315760.6371802,121
1658996403.85102,315760.6371869,119
1658996403.85102,315760.6371948,109
1658996403.85102,315760.6372023,100
1658996403.85102,315760.6372096,109
1658996403.85102,315760.6372178,143
1658996403.85102,315760.6372256,164
1658996403.85102,315760.6372306,85
1658996403.85102,315760.637235,-188
1658996403.85102,315760.6372393,-619
1658996403.85102,315760.6372435,-882
1658996403.85102,315760.6372479,-519
1658996403.85102,315760.6372522,166
1658996403.85102,315760.6372572,331
1658996403.85102,315760.6372648,97
1658996403.85102,315760.6372685,83
1658996403.85102,315760.6372736,178
1658996403.85102,315760.6372792,145
1658996403.85102,315760.6372864,107
1658996403.85102,315760.6372961,126
1658996403.85102,315760.6373031,121
1658996404.37934,315760.6373168,90
1658996404.37934,315760.6373248,85
1658996404.37934,315760.6373315,90
1658996404.37934,315760.6373388,66
1658996404.37934,315760.6373435,45
1658996404.37934,315760.6373473,38
1658996404.37934,315760.6373539,30
1658996404.37934,315760.6373584,30
1658996404.37934,315760.6373679,35
1658996404.37934,315760.6373803,26
1658996404.37934,315760.6373902,19
1658996404.37934,315760.6373981,28
1658996404.37934,315760.6374062,21
1658996404.37934,315760.6374121,4
1658996404.37934,315760.6374157,23
1658996404.37934,315760.6374296,57
1658996404.37934,315760.6374417,54
1658996404.37934,315760.6374516,38
1658996404.37934,315760.6374635,47
1658996404.37934,315760.6374729,69
1658996404.37934,315760.6374822,78
1658996404.37934,315760.6374899,92
1658996404.37934,315760.637493,126
1658996404.37934,315760.6375014,150
1658996404.37934,315760.6375139,152
1658996404.37934,315760.6375212,164
1658996404.37934,315760.6375293,190
1658996404.37934,315760.6375421,188
1658996404.37934,315760.6375548,181
1658996404.37934,315760.6375621,193
1658996404.37934,315760.6375761,190
1658996404.37934,315760.6375854,174
1658996404.37934,315760.6375944,162
1658996404.37934,315760.6376051,159
1658996404.37934,315760.6376195,157
1658996404.37934,315760.6376325,152
1658996404.37934,315760.6376459,150
1658996404.37934,315760.6377063,147
1658996404.37934,315760.6377195,147
1658996404.37934,315760.6377327,145
1658996404.37934,315760.6377409,145
1658996404.37934,315760.6377468,145
1658996404.37934,315760.637754,138
1658996404.37934,315760.6377576,143
1658996404.37934,315760.6377702,159
1658996404.37934,315760.637781,145
1658996404.37934,315760.6377942,133
1658996404.37934,315760.6378081,143
1658996404.37934,315760.6378214,140
1658996404.37934,315760.6378352,140
1658996404.38931,315760.637849,143
1658996404.38931,315761.1732044,135
1658996404.38931,315761.173225,135
1658996404.38931,315761.1732309,147
1658996404.38931,315761.1732377,152
1658996404.38931,315761.1732446,135
1658996404.38931,315761.1732517,102
1658996404.38931,315761.1732571,85
1658996404.38931,315761.1732611,88
1658996404.38931,315761.1732641,83
1658996404.38931,315761.1732672,76
1658996404.38931,315761.1732714,92
1658996404.38931,315761.173277,100
1658996404.38931,315761.1732833,73
1658996404.38931,315761.1732925,69
1658996404.38931,315761.1732983,81
1658996404.38931,315761.1733057,76
1658996404.38931,315761.1733135,66
1658996404.38931,315761.1733186,47
1658996404.38931,315761.1733336,21
1658996404.38931,315761.1733459,26
1658996404.38931,315761.1733573,78
1658996404.38931,315761.1733726,100
1658996404.38931,315761.1733852,-30
1658996404.96802,315761.1733977,-355
1658996404.96802,315761.1734072,-758
1658996404.96802,315761.173416,-853
1658996404.96802,315761.1734217,-321
1658996404.96802,315761.1734252,262
1658996404.96802,315761.173429,243
1658996404.96802,315761.1734325,47
1658996404.96802,315761.1734364,102
1658996404.96802,315761.173442,138
1658996404.96802,315761.173446,85
1658996404.96802,315761.1734519,97
1658996404.96802,315761.173456,119
1658996404.96802,315761.1734617,97
1658996404.96802,315761.1734652,92
1658996404.96802,315761.1734708,90
1658996404.96802,315761.1734751,78
1658996404.96802,315761.1734806,76
1658996404.96802,315761.1734844,73
1658996404.96802,315761.1734898,66
1658996404.96802,315761.1734941,59
1658996404.96802,315761.1734997,54
1658996404.96802,315761.1735039,47
1658996404.96802,315761.1735093,42
1658996404.96802,315761.1735132,38
1658996404.96802,315761.1735189,38
1658996404.96802,315761.1735224,38
1658996404.96802,315761.1735256,30
1658996404.96802,315761.173529,33
1658996404.96802,315761.1735342,42
1658996404.96802,315761.1735389,47
1658996404.96802,315761.1735422,52
1658996404.96802,315761.1735454,59
1658996404.96802,315761.1735504,71
1658996404.96802,315761.1735557,90
1658996404.96802,315761.1735594,116
1658996404.96802,315761.1735652,140
1658996404.96802,315761.1735684,164
1658996404.96802,315761.1735733,185
1658996404.96802,315761.1735768,195
1658996404.96802,315761.1735801,197
1658996404.96802,315761.1735855,200
1658996404.96802,315761.173592,200
1658996404.96802,315761.1735981,195
1658996404.96802,315761.1736035,193
1658996404.96802,315761.1736087,193
1658996404.96802,315761.1736159,193
1658996404.96802,315761.1736227,178
1658996404.96802,315761.1736283,166
1658996404.96802,315761.1736362,178
1658996404.96802,315761.1736488,181
1658996404.97893,315761.7578136,166
1658996404.97893,315761.757837,157
1658996404.97893,315761.7578522,162
1658996404.97893,315761.7578664,166
1658996404.97893,315761.7578764,157
1658996404.97893,315761.7578837,143
1658996404.97893,315761.7578926,147
1658996404.97893,315761.7578988,143
1658996404.97893,315761.7579113,114
1658996404.97893,315761.7579219,109
1658996404.97893,315761.7579291,128
1658996404.97893,315761.7579396,131
1658996404.97893,315761.7579504,116
1658996404.97893,315761.757959,107
1658996404.97893,315761.7579659,102
1658996404.97893,315761.7579779,97
1658996404.97893,315761.7579882,97
1658996404.97893,315761.7579948,109
1658996404.97893,315761.7580077,119
1658996404.97893,315761.7580178,131
1658996404.97893,315761.7580286,131
1658996404.97893,315761.7580399,121
1658996404.97893,315761.758048,114
1658996404.97893,315761.7580563,109
1658996405.55604,315761.7580688,97
1658996405.55604,315761.7580762,73
1658996405.55604,315761.7580827,76
1658996405.55604,315761.7580925,100
1658996405.55604,315761.7581008,100
1658996405.55604,315761.7581075,95
1658996405.55604,315761.7581128,112
1658996405.55604,315761.7581198,119
1658996405.55604,315761.7581321,104
1658996405.55604,315761.7581436,95
1658996405.55604,315761.7581519,107
1658996405.55604,315761.7581599,119
1658996405.55604,315761.7581724,128
1658996405.55604,315761.7581822,157
1658996405.55604,315761.758189,162
1658996405.55604,315761.7582009,-11
1658996405.55604,315761.7582141,-412
1658996405.55604,315761.7582248,-851
1658996405.55604,315761.7582293,-848
1658996405.55604,315761.7582313,-171
1658996405.55604,315761.7582335,402
1658996405.55604,315761.7582356,283
1658996405.55604,315761.7582377,81
1658996405.55604,315761.7582398,174
1658996405.55604,315761.7582418,214
1658996405.55604,315761.7582439,157
1658996405.55604,315761.758246,169
1658996405.55604,315761.7582493,174
1658996405.55604,315761.7582566,138
1658996405.55604,315761.7582671,133
1658996405.55604,315761.7582742,143
1658996405.55604,315761.7582844,131
1658996405.55604,315761.7582876,119
1658996405.55604,315761.7582906,109
1658996405.55604,315761.7582936,100
1658996405.55604,315761.7582964,95
1658996405.55604,315761.7582993,95
1658996405.55604,315761.7583022,92
1658996405.55604,315761.7583051,81
1658996405.55604,315761.7583102,76
1658996405.55604,315761.7583213,71
1658996405.55604,315761.75833,59
1658996405.55604,315761.7583419,64
1658996405.55604,315761.7583529,71
1658996405.55604,315761.7583613,71
1658996405.55604,315761.7583696,78
1658996405.55604,315761.7583755,88
1658996405.55604,315761.7583777,81
1658996405.55604,315761.7583797,81
1658996405.55604,315762.3438632,107
1658996405.568,315762.3438889,131
1658996405.568,315762.3438988,143
1658996405.568,315762.3439055,159
1658996405.568,315762.3439104,181
1658996405.568,315762.3439169,197
1658996405.568,315762.3439215,207
1658996405.568,315762.3439282,207
1658996405.568,315762.3439349,200
1658996405.568,315762.3439396,195
1658996405.568,315762.343947,183
1658996405.568,315762.3439521,159
1658996405.568,315762.3439583,150
1658996405.568,315762.3439633,150
1658996405.568,315762.3439694,147
1658996405.568,315762.3439753,154
1658996405.568,315762.3439832,152
1658996405.568,315762.3439892,121
1658996405.568,315762.3439934,107
1658996405.568,315762.3439998,119
1658996405.568,315762.3440044,116
1658996405.568,315762.3440118,107
1658996405.568,315762.3440185,114
1658996405.568,315762.3440228,116
1658996405.568,315762.3440289,119
1658996406.14101,315762.3440335,119
1658996406.14101,315762.3440377,112
1658996406.14101,315762.3440417,119
1658996406.14101,315762.3440456,133
1658996406.14101,315762.3440497,128
1658996406.14101,315762.3440537,121
1658996406.14101,315762.3442125,123
1658996406.14101,315762.3442291,116
1658996406.14101,315762.3442363,123
1658996406.14101,315762.344241,140
1658996406.14101,315762.3442475,138
1658996406.14101,315762.3442529,128
1658996406.14101,315762.3442592,116
1658996406.14101,315762.3442635,102
1658996406.14101,315762.344269,88
1658996406.14101,315762.3442734,71
1658996406.14101,315762.3442789,85
1658996406.14101,315762.3442829,116
1658996406.14101,315762.3442868,116
1658996406.14101,315762.3442907,97
1658996406.14101,315762.3442945,100
1658996406.14101,315762.3442989,109
1658996406.14101,315762.3443063,109
1658996406.14101,315762.3443148,107
1658996406.14101,315762.3443208,109
1658996406.14101,315762.3443271,102
1658996406.14101,315762.3443314,112
1658996406.14101,315762.3443371,157
1658996406.14101,315762.3443418,183
1658996406.14101,315762.344348,38
1658996406.14101,315762.3443539,-345
1658996406.14101,315762.3443609,-822
1658996406.14101,315762.344367,-920
1658996406.14101,315762.3443719,-286
1658996406.14101,315762.3443769,379
1658996406.14101,315762.3443835,329
1658996406.14101,315762.3443876,95
1658996406.14101,315762.3443921,164
1658996406.14101,315762.3443982,197
1658996406.14101,315762.3444033,116
1658996406.14101,315762.34441,126
1658996406.14101,315762.3444149,164
1658996406.14101,315762.3444212,133
1658996406.14101,315762.344426,107
1658996406.14101,315762.3444322,114
1658996406.14101,315762.3444367,112
1658996406.14101,315762.3444411,97
1658996406.14101,315762.3444473,88
1658996406.14101,315762.9294837,85
1658996406.14101,315762.9295115,83
1658996406.15198,315762.9295143,73
1658996406.15198,315762.9295179,64
1658996406.15198,315762.92952,61
1658996406.15198,315762.9295221,66
1658996406.15198,315762.9295241,59
1658996406.15198,315762.929526,40
1658996406.15198,315762.9295281,28
1658996406.15198,315762.92953,33
1658996406.15198,315762.929532,38
1658996406.15198,315762.929534,52
1658996406.15198,315762.929536,64
1658996406.15198,315762.9295398,61
1658996406.15198,315762.9295515,59
1658996406.15198,315762.9295584,81
1658996406.15198,315762.9295626,102
1658996406.15198,315762.9295682,119
1658996406.15198,315762.9295735,140
1658996406.15198,315762.9295816,159
1658996406.15198,315762.9295865,169
1658996406.15198,315762.9295937,166
1658996406.15198,315762.9295985,164
1658996406.15198,315762.9296057,169
1658996406.15198,315762.9296109,176
1658996406.15198,315762.9296188,164
1658996406.62275,315762.9296245,150
1658996406.62275,315762.9296306,147
1658996406.62275,315762.9296366,147
1658996406.62275,315762.9296431,143
1658996406.62275,315762.9296528,138
1658996406.62275,315762.9296641,135
1658996406.62275,315762.9296748,131
1658996406.62275,315762.9296829,123
1658996406.62275,315762.9296918,116
1658996406.62275,315762.9297005,119
1658996406.62275,315762.9297079,123
1658996406.62275,315762.9297147,126
1658996406.62275,315762.9297275,128
1658996406.62275,315762.929737,131
1658996406.62275,315762.929742,131
1658996406.62275,315762.9297467,133
1658996406.62275,315762.929752,140
1658996406.62275,315762.9297559,138
1658996406.62275,315762.9297607,133
1658996406.62275,315762.9297669,143
1658996406.62275,315762.9297755,143
1658996406.62275,315762.9297811,131
1658996406.62275,315762.9297864,121
1658996406.62275,315762.9297937,126
1658996406.62275,315762.9298104,126
1658996406.62275,315762.9298155,119
1658996406.62275,315762.9298199,116
1658996406.62275,315762.9298257,121
1658996406.62275,315762.9298293,121
1658996406.62275,315762.9298329,112
1658996406.62275,315762.9298383,88
1658996406.62275,315762.9298422,71
1658996406.62275,315762.9298475,64
1658996406.62275,315762.9298511,52
1658996406.62275,315762.9298548,59
1658996406.62275,315762.9298601,83
1658996406.62275,315762.9298637,88
1658996406.62275,315762.9298691,88
1658996406.62275,315762.929874,95
1658996406.62275,315762.9298794,95
1658996406.62275,315762.9298873,92
1658996406.62275,315762.9298932,95
1658996406.62275,315762.9298983,95
1658996406.62275,315762.9299037,95
1658996406.62275,315762.9299112,104
1658996406.62275,315762.9299165,135
1658996406.62275,315762.9299205,162
1658996406.62275,315763.4160539,78
1658996406.62275,315763.4160715,-216
1658996406.62275,315763.4160791,-679
1658996406.63472,315763.4160855,-946
1658996406.63472,315763.4160896,-515
1658996406.63472,315763.4160931,216
1658996406.63472,315763.4160965,355
1658996406.63472,315763.4161003,121
1658996406.63472,315763.4161307,128
1658996406.63472,315763.4161441,212
1658996406.63472,315763.4161501,171
1658996406.63472,315763.4161582,143
1658996406.63472,315763.4161656,150
1658996406.63472,315763.4161724,138
1658996406.63472,315763.4161783,126
1658996406.63472,315763.416183,123
1658996406.63472,315763.4161867,116
1658996406.63472,315763.4161902,90
1658996406.63472,315763.4161957,64
1658996406.63472,315763.4162018,59
1658996406.63472,315763.4162057,64
1658996406.63472,315763.4162092,59
1658996406.63472,315763.416213,52
1658996406.63472,315763.4162166,38
1658996406.63472,315763.41622,26
1658996406.63472,315763.4162236,30
1658996406.63472,315763.416231,35
1658996407.16788,315763.4162366,38
1658996407.16788,315763.4162401,42

1658996407.16788,315763.4162461,45
1658996407.16788,315763.41625,30
1658996407.16788,315763.4162535,26
1658996407.16788,315763.4162579,38
1658996407.16788,315763.4162628,54
1658996407.16788,315763.4162693,71
1658996407.16788,315763.4162738,97
1658996407.16788,315763.4162798,119
1658996407.16788,315763.4162855,131
1658996407.16788,315763.4162912,145
1658996407.16788,315763.4162984,164
1658996407.16788,315763.4163034,174
1658996407.16788,315763.4163071,176
1658996407.16788,315763.4163112,169
1658996407.16788,315763.4163149,152
1658996407.16788,315763.4163191,147
1658996407.16788,315763.4163226,138
1658996407.16788,315763.4163288,123
1658996407.16788,315763.4163331,121
1658996407.16788,315763.4163364,123
1658996407.16788,315763.4163398,109
1658996407.16788,315763.4163432,100
1658996407.16788,315763.4163462,109
1658996407.16788,315763.4163493,109
1658996407.16788,315763.4163526,97
1658996407.16788,315763.4163558,95
1658996407.16788,315763.416359,95
1658996407.16788,315763.4163623,97
1658996407.16788,315763.416366,109
1658996407.16788,315763.4163713,114
1658996407.16788,315763.4163747,92
1658996407.16788,315763.4163784,92
1658996407.16788,315763.4163854,102
1658996407.16788,315763.4163899,90
1658996407.16788,315763.416396,90
1658996407.16788,315763.4164011,97
1658996407.16788,315763.4164077,95
1658996407.16788,315763.416413,90
1658996407.16788,315763.4164185,90
1658996407.16788,315763.416424,92
1658996407.16788,315763.4164277,102
1658996407.16788,315763.4164397,102
1658996407.16788,315763.4164434,97
1658996407.16788,315763.4164781,100
1658996407.16788,315763.9540244,102
1658996407.16788,315763.954046,95
1658996407.16788,315763.9540613,95
1658996407.16788,315763.9540748,104
1658996407.17786,315763.954087,102
1658996407.17786,315763.9540951,92
1658996407.17786,315763.9541014,95
1658996407.17786,315763.9541121,102
1658996407.17786,315763.9541172,85
1658996407.17786,315763.9541194,69
1658996407.17786,315763.9541216,59
1658996407.17786,315763.954126,40
1658996407.17786,315763.954132,47
1658996407.17786,315763.9541366,76
1658996407.17786,315763.9541425,69
1658996407.17786,315763.9541465,47
1658996407.17786,315763.9541524,64
1658996407.17786,315763.9541581,76
1658996407.17786,315763.9541694,69
1658996407.17786,315763.9541772,76
1658996407.17786,315763.9541824,83
1658996407.17786,315763.954194,71
1658996407.17786,315763.9541996,66
1658996407.17786,315763.9542019,95
1658996407.17786,315763.954204,140
1658996407.17786,315763.9542063,88
1658996407.17786,315763.9542163,-178
1658996407.17786,315763.9542251,-627
1658996407.74456,315763.9542276,-922
1658996407.74456,315763.9542298,-572
1658996407.74456,315763.9542318,154
1658996407.74456,315763.9542338,355
1658996407.74456,315763.9542414,107
1658996407.74456,315763.9542504,81
1658996407.74456,315763.9542536,188
1658996407.74456,315763.9542594,157
1658996407.74456,315763.9542696,116
1658996407.74456,315763.9542761,145
1658996407.74456,315763.9542847,140
1658996407.74456,315763.9542924,112
1658996407.74456,315763.9543017,116
1658996407.74456,315763.9543153,112
1658996407.74456,315763.9543287,71
1658996407.74456,315763.9543419,61
1658996407.74456,315763.9543631,76
1658996407.74456,315763.9543658,64
1658996407.74456,315763.9543678,50
1658996407.74456,315763.9543697,52
1658996407.74456,315763.9543717,47
1658996407.74456,315763.9543874,40
1658996407.74456,315763.9543975,47
1658996407.74456,315763.9544057,52
1658996407.74456,315763.9544082,40
1658996407.74456,315763.9544108,30
1658996407.74456,315763.954413,30
1658996407.74456,315763.9544151,40
1658996407.74456,315763.954425,50
1658996407.74456,315763.9544337,54
1658996407.74456,315763.9544364,57
1658996407.74456,315763.9544386,71
1658996407.74456,315763.9544407,88
1658996407.74456,315763.9544428,112
1658996407.74456,315763.9544448,126
1658996407.74456,315763.9544468,135
1658996407.74456,315763.9544489,154
1658996407.74456,315763.9544509,164
1658996407.74456,315763.9544529,162
1658996407.74456,315763.9544557,169
1658996407.74456,315763.9544577,171
1658996407.74456,315763.9544597,154
1658996407.74456,315763.9544618,138
1658996407.74456,315763.9544638,131
1658996407.74456,315763.9544658,116
1658996407.74456,315764.5366476,104
1658996407.74456,315764.5366746,109
1658996407.74456,315764.5366867,112
1658996407.74456,315764.5366945,100
1658996407.74456,315764.5367046,78
1658996407.75553,315764.5367168,59
1658996407.75553,315764.5367307,71
1658996407.75553,315764.536739,78
1658996407.75553,315764.5367443,69
1658996407.75553,315764.5367516,78
1658996407.75553,315764.536756,85
1658996407.75553,315764.5367613,81
1658996407.75553,315764.5367657,83
1658996407.75553,315764.5367691,92
1658996407.75553,315764.5367726,92
1658996407.75553,315764.5367762,90
1658996407.75553,315764.5367816,83
1658996407.75553,315764.5367852,71
1658996407.75553,315764.5367889,71
1658996407.75553,315764.5367941,81
1658996407.75553,315764.5367976,81
1658996407.75553,315764.5368013,78
1658996407.75553,315764.536807,83
1658996407.75553,315764.5368112,88
1658996407.75553,315764.5368149,85
1658996407.75553,315764.53682,88
1658996407.75553,315764.5368235,92
1658996407.75553,315764.5368272,81
1658996407.75553,315764.5368309,76
1658996408.38462,315764.5368359,88
1658996408.38462,315764.5368395,92
1658996408.38462,315764.5368431,90
1658996408.38462,315764.5368466,95
1658996408.38462,315764.5368502,97
1658996408.38462,315764.5368538,104
1658996408.38462,315764.5368576,102
1658996408.38462,315764.5368611,83
1658996408.38462,315764.5368647,78
1658996408.38462,315764.5368684,85
1658996408.38462,315764.5368735,76
1658996408.38462,315764.5368779,54
1658996408.38462,315764.5368816,57
1658996408.38462,315764.5368866,83
1658996408.38462,315764.5368913,102
1658996408.38462,315764.5368964,97
1658996408.38462,315764.5369,92
1658996408.38462,315764.5369037,95
1658996408.38462,315764.5369075,104
1658996408.38462,315764.5369126,112
1658996408.38462,315764.5369162,107
1658996408.38462,315764.5369213,102
1658996408.38462,315764.5369248,109
1658996408.38462,315764.5369285,126
1658996408.38462,315764.5369334,157
1658996408.38462,315764.536937,112
1658996408.38462,315764.5369409,-147
1658996408.38462,315764.536946,-569
1658996408.38462,315764.5369496,-863
1658996408.38462,315764.5369532,-555
1658996408.38462,315764.5369569,157
1658996408.38462,315764.5369625,376
1658996408.38462,315764.5369667,135
1658996408.38462,315764.5369717,104
1658996408.38462,315764.5369752,195
1658996408.38462,315764.5369789,154
1658996408.38462,315764.5369838,133
1658996408.38462,315764.5369881,164
1658996408.38462,315764.5369934,150
1658996408.38462,315764.5369977,114
1658996408.38462,315764.5370028,107
1658996408.38462,315764.5370077,116
1658996408.38462,315764.5370128,112
1658996408.38462,315764.5370166,95
1658996408.38462,315765.1713669,83
1658996408.38462,315765.171389,78
1658996408.38462,315765.1713946,69
1658996408.38462,315765.1714024,66
1658996408.38462,315765.1714124,71
1658996408.38462,315765.1714196,59
1658996408.39558,315765.1714219,54
1658996408.39558,315765.1714239,50
1658996408.39558,315765.1714259,26
1658996408.39558,315765.1714279,14
1658996408.39558,315765.1714298,23
1658996408.39558,315765.1714327,21
1658996408.39558,315765.1714398,16
1658996408.39558,315765.1714483,21
1658996408.39558,315765.1714535,14
1658996408.39558,315765.1714623,2
1658996408.39558,315765.1714691,16
1658996408.39558,315765.1714733,50
1658996408.39558,315765.1714755,66
1658996408.39558,315765.1714775,76
1658996408.39558,315765.1714796,88
1658996408.39558,315765.1714816,90
1658996408.39558,315765.1714881,97
1658996408.39558,315765.1714996,109
1658996408.39558,315765.1715046,114
1658996408.39558,315765.1715067,107
1658996408.39558,315765.1715088,102
1658996408.39558,315765.1715108,100
1658996408.39558,315765.1715129,88
1658996408.39558,315765.1715152,88
1658996408.86618,315765.1715227,88
1658996408.86618,315765.1715319,81
1658996408.86618,315765.1715348,88
1658996408.86618,315765.1715368,88
1658996408.86618,315765.1715388,78
1658996408.86618,315765.171544,85
1658996408.86618,315765.171553,100
1658996408.86618,315765.1715576,107
1658996408.86618,315765.1715707,107
1658996408.86618,315765.1715809,104
1658996408.86618,315765.1715882,102
1658996408.86618,315765.1715906,109
1658996408.86618,315765.1715927,121
1658996408.86618,315765.1715948,126
1658996408.86618,315765.1715968,116
1658996408.86618,315765.1715989,116
1658996408.86618,315765.1716009,128
1658996408.86618,315765.1716029,133
1658996408.86618,315765.1716055,126
1658996408.86618,315765.1716149,123
1658996408.86618,315765.1716246,123
1658996408.86618,315765.1716272,116
1658996408.86618,315765.1716292,114
1658996408.86618,315765.1716311,123
1658996408.86618,315765.171633,123
1658996408.86618,315765.1716383,121
1658996408.86618,315765.1716498,123
1658996408.86618,315765.1716552,126
1658996408.86618,315765.1716579,126
1658996408.86618,315765.1716621,128
1658996408.86618,315765.1716736,131
1658996408.86618,315765.1716819,126
1658996408.86618,315765.1716899,128
1658996408.86618,315765.1716958,138
1658996408.86618,315765.1716999,138
1658996408.86618,315765.1717057,135
1658996408.86618,315765.1717105,140
1658996408.86618,315765.1717165,138
1658996408.86618,315765.1717211,116
1658996408.86618,315765.1717267,97
1658996408.86618,315765.1717319,97
1658996408.86618,315765.1717387,121
1658996408.86618,315765.1717434,135
1658996408.86618,315765.6586825,138
1658996408.86618,315765.6587011,133
1658996408.86618,315765.65871,131
1658996408.86618,315765.6587149,131
1658996408.86618,315765.6587212,133
1658996408.86618,315765.6587264,133
1658996408.86618,315765.6587307,133
1658996408.87816,315765.6587359,138
1658996408.87816,315765.6587403,152
1658996408.87816,315765.658746,183
1658996408.87816,315765.6587554,135
1658996408.87816,315765.6587621,-114
1658996408.87816,315765.6587702,-526
1658996408.87816,315765.6587792,-846
1658996408.87816,315765.6587902,-627
1658996408.87816,315765.6588002,69
1658996408.87816,315765.6588101,381
1658996408.87816,315765.6588229,157
1658996408.87816,315765.6588363,73
1658996408.87816,315765.6588494,169
1658996408.87816,315765.6588584,131
1658996408.87816,315765.658871,88
1658996408.87816,315765.6588792,131
1658996408.87816,315765.6588879,123
1658996408.87816,315765.6589039,69
1658996408.87816,315765.6589194,59
1658996408.87816,315765.6589242,73
1658996408.87816,315765.6589278,59
1658996408.87816,315765.6589315,42
1658996408.87816,315765.6589375,47
1658996408.87816,315765.6589412,40
1658996409.50515,315765.6589444,19
1658996409.50515,315765.6589478,14
1658996409.50515,315765.6589513,21
1658996409.50515,315765.6589548,21
1658996409.50515,315765.6589584,14
1658996409.50515,315765.6589618,9
1658996409.50515,315765.6589651,11
1658996409.50515,315765.6589686,16
1658996409.50515,315765.6589722,19
1658996409.50515,315765.6589756,23
1658996409.50515,315765.6589792,30
1658996409.50515,315765.6589826,30
1658996409.50515,315765.6589857,35
1658996409.50515,315765.6589884,52
1658996409.50515,315765.6589913,78
1658996409.50515,315765.658994,102
1658996409.50515,315765.6589966,119
1658996409.50515,315765.6589993,133
1658996409.50515,315765.6590019,145
1658996409.50515,315765.6590046,159
1658996409.50515,315765.6590073,176
1658996409.50515,315765.6590099,183
1658996409.50515,315765.6590126,178
1658996409.50515,315765.6590153,174
1658996409.50515,315765.6590179,171
1658996409.50515,315765.6590207,166
1658996409.50515,315765.6590234,169
1658996409.50515,315765.6590261,169
1658996409.50515,315765.6590288,164
1658996409.50515,315765.6590317,166
1658996409.50515,315765.6590347,164
1658996409.50515,315765.6590375,152
1658996409.50515,315765.6590403,150
1658996409.50515,315765.6590431,162
1658996409.50515,315765.6590457,164
1658996409.50515,315765.6590485,164
1658996409.50515,315765.6590511,169
1658996409.50515,315765.6590544,174
1658996409.50515,315765.6590572,171
1658996409.50515,315765.65906,169
1658996409.50515,315765.6590627,166
1658996409.50515,315765.6590675,166
1658996409.50515,315766.292474,169
1658996409.50515,315766.2924915,166
1658996409.50515,315766.2924971,162
1658996409.50515,315766.2925049,159
1658996409.50515,315766.2925088,159
1658996409.50515,315766.292513,164
1658996409.50515,315766.2925183,164
1658996409.50515,315766.2925232,154
1658996409.51712,315766.2925272,133
1658996409.51712,315766.292531,128
1658996409.51712,315766.2925348,152
1658996409.51712,315766.2925403,162
1658996409.51712,315766.2925452,147
1658996409.51712,315766.2925506,128
1658996409.51712,315766.2925554,95
1658996409.51712,315766.2925591,59
1658996409.51712,315766.292563,59
1658996409.51712,315766.2925684,81
1658996409.51712,315766.2925721,109
1658996409.51712,315766.2925776,116
1658996409.51712,315766.2925831,100
1658996409.51712,315766.2925888,97
1658996409.51712,315766.292594,114
1658996409.51712,315766.2925997,121
1658996409.51712,315766.2926033,114
1658996409.51712,315766.2926069,109
1658996409.51712,315766.2926121,104
1658996409.51712,315766.2926157,104
1658996409.51712,315766.2926206,128
1658996409.51712,315766.2926243,174
1658996409.51712,315766.2926279,92
1658996409.51712,315766.2926317,-233
1658996410.23253,315766.2926371,-712
1658996410.23253,315766.2926407,-975
1658996410.23253,315766.2926444,-534
1658996410.23253,315766.2926481,245
1658996410.23253,315766.2926517,391
1658996410.23253,315766.2926553,112
1658996410.23253,315766.292659,121
1658996410.23253,315766.2926625,216
1658996410.23253,315766.2926662,150
1658996410.23253,315766.2926697,128
1658996410.23253,315766.2926731,166
1658996410.23253,315766.2926766,147
1658996410.23253,315766.2926801,114
1658996410.23253,315766.2926836,107
1658996410.23253,315766.2926872,95
1658996410.23253,315766.2926907,92
1658996410.23253,315766.2926943,90
1658996410.23253,315766.2926978,71
1658996410.23253,315766.2927018,57
1658996410.23253,315766.2927075,52
1658996410.23253,315766.2927111,45
1658996410.23253,315766.2927164,40
1658996410.23253,315766.2927212,38
1658996410.23253,315766.2927264,33
1658996410.23253,315766.2927308,33
1658996410.23253,315766.2927361,26
1658996410.23253,315766.2927419,16
1658996410.23253,315766.2927455,26
1658996410.23253,315766.2927492,40
1658996410.23253,315766.2927542,47
1658996410.23253,315766.2927584,50
1658996410.23253,315766.2927636,61
1658996410.23253,315766.2927673,81
1658996410.23253,315766.2927713,102
1658996410.23253,315766.2927751,116
1658996410.23253,315766.2927788,140
1658996410.23253,315766.2927842,154
1658996410.23253,315766.292788,164
1658996410.23253,315766.292793,181
1658996410.23253,315766.2927987,183
1658996410.23253,315766.2928024,174
1658996410.23253,315767.0236236,181
1658996410.23253,315767.0236457,178
1658996410.23253,315767.0236617,159
1658996410.23253,315767.0236755,162
1658996410.23253,315767.0236857,169
1658996410.23253,315767.0236952,152
1658996410.23253,315767.0237029,126
1658996410.23253,315767.0237078,123
1658996410.23253,315767.0237191,133
1658996410.2435,315767.023725,131
1658996410.2435,315767.0237282,119
1658996410.2435,315767.0237304,102
1658996410.2435,315767.0237324,100
1658996410.2435,315767.0237344,121
1658996410.2435,315767.0237364,128
1658996410.2435,315767.0237385,116
1658996410.2435,315767.0237441,121
1658996410.2435,315767.0237559,123
1658996410.2435,315767.0237615,95
1658996410.2435,315767.0237644,83
1658996410.2435,315767.0237664,102
1658996410.2435,315767.0237684,100
1658996410.2435,315767.0237712,97
1658996410.2435,315767.0237812,112
1658996410.2435,315767.02379,114
1658996410.2435,315767.0237925,114
1658996410.2435,315767.0237946,123
1658996410.2435,315767.0237967,123
1658996410.2435,315767.0238002,121
1658996410.2435,315767.0238132,112
1658996410.2435,315767.0238191,78
1658996410.2435,315767.0238213,66
1658996410.2435,315767.0238233,81
1658996410.52249,315767.0238254,95
1658996410.52249,315767.0238274,107
1658996410.52249,315767.0238293,114
1658996410.52249,315767.0238356,100
1658996410.52249,315767.0238456,97
1658996410.52249,315767.0238496,102
1658996410.52249,315767.0238517,95
1658996410.52249,315767.0238572,104
1658996410.52249,315767.0238663,116
1658996410.52249,315767.0238721,104
1658996410.52249,315767.0238809,116
1658996410.52249,315767.0238876,178
1658996410.52249,315767.0238962,154
1658996410.52249,315767.0239038,-97
1658996410.52249,315767.0239122,-534
1658996410.52249,315767.023919,-939
1658996410.52249,315767.0239279,-815
1658996410.52249,315767.0239347,-61
1658996410.52249,315767.0239432,400
1658996410.52249,315767.0239501,200
1658996410.52249,315767.0239588,61
1658996410.52249,315767.0239658,164
1658996410.52249,315767.0239741,164
1658996410.52249,315767.0239813,107
1658996410.52249,315767.0239898,128
1658996410.52249,315767.0239967,147
1658996410.52249,315767.0240051,116
1658996410.52249,315767.0240132,85
1658996410.52249,315767.0240199,71
1658996410.52249,315767.0240281,64
1658996410.52249,315767.0240347,57
1658996410.52249,315767.0240429,38
1658996410.52249,315767.0240496,21
1658996410.52249,315767.0240581,38
1658996410.52249,315767.0240655,30
1658996410.52249,315767.0240743,-9
1658996410.52249,315767.0240808,-11
1658996410.52249,315767.0240889,9
1658996410.52249,315767.0240952,7
1658996410.52249,315767.0241036,2
1658996410.52249,315767.3159926,-4
1658996410.52249,315767.3160066,-11
1658996410.52249,315767.3160108,9
1658996410.52249,315767.3160138,28
1658996410.52249,315767.3160166,7
1658996410.52249,315767.3160194,0
1658996410.52249,315767.3160223,30
1658996410.52249,315767.3160249,52
1658996410.52249,315767.3160277,57
1658996410.52249,315767.3160303,83
1658996410.53146,315767.316033,109
1658996410.53146,315767.3160357,90
1658996410.53146,315767.3160384,81
1658996410.53146,315767.3160411,112
1658996410.53146,315767.3160438,131
1658996410.53146,315767.3160465,119
1658996410.53146,315767.3160491,102
1658996410.53146,315767.3160517,100
1658996410.53146,315767.3160544,109
1658996410.53146,315767.3160571,104
1658996410.53146,315767.3160603,92
1658996410.53146,315767.316063,78
1658996410.53146,315767.3160657,59
1658996410.53146,315767.3160683,52
1658996410.53146,315767.3160711,66
1658996410.53146,315767.3160738,78
1658996410.53146,315767.3160779,64
1658996410.53146,315767.3160825,54
1658996410.53146,315767.3160863,81
1658996410.53146,315767.3161133,100
1658996410.53146,315767.3161219,88
1658996410.53146,315767.3161255,81
1658996410.53146,315767.3161285,85
1658996410.53146,315767.3161316,54
1658996411.15967,315767.3161349,47
1658996411.15967,315767.316138,85
1658996411.15967,315767.3161416,100
1658996411.15967,315767.3161463,100
1658996411.15967,315767.3161515,88
1658996411.15967,315767.3161582,57
1658996411.15967,315767.316165,66
1658996411.15967,315767.3161718,92
1658996411.15967,315767.316181,64
1658996411.15967,315767.3162719,38
1658996411.15967,315767.3162847,52
1658996411.15967,315767.3162888,50
1658996411.15967,315767.3162925,33
1658996411.15967,315767.3162954,54
1658996411.15967,315767.3162982,78
1658996411.15967,315767.316301,73
1658996411.15967,315767.3163038,81
1658996411.15967,315767.3163065,95
1658996411.15967,315767.3163094,69
1658996411.15967,315767.3163121,47
1658996411.15967,315767.3163149,69
1658996411.15967,315767.3163176,81
1658996411.15967,315767.3163203,66
1658996411.15967,315767.316323,100
1658996411.15967,315767.3163257,133
1658996411.15967,315767.3163285,-19
1658996411.15967,315767.3163313,-383
1658996411.15967,315767.316334,-794
1658996411.15967,315767.3163367,-832
1658996411.15967,315767.3163394,-247
1658996411.15967,315767.3163422,295
1658996411.15967,315767.3163449,250
1658996411.15967,315767.3163477,78
1658996411.15967,315767.3163504,100
1658996411.15967,315767.3163532,126
1658996411.15967,315767.3163562,128
1658996411.15967,315767.3163592,138
1658996411.15967,315767.3163731,107
1658996411.15967,315767.3163794,92
1658996411.15967,315767.9503349,114
1658996411.15967,315767.9503481,92
1658996411.15967,315767.9503516,64
1658996411.15967,315767.9503548,47
1658996411.15967,315767.9503577,26
1658996411.15967,315767.9503605,28
1658996411.15967,315767.9503632,30
1658996411.15967,315767.950366,-2
1658996411.15967,315767.9503688,-42
1658996411.15967,315767.9503734,-57
1658996411.15967,315767.9503772,-64
1658996411.17288,315767.9503896,-81
1658996411.17288,315767.9503962,-85
1658996411.17288,315767.9504094,-57
1658996411.17288,315767.9504174,-14
1658996411.17288,315767.9504245,-9
1658996411.17288,315767.950431,-33
1658996411.17288,315767.9504435,-16
1658996411.17288,315767.9504575,16
1658996411.17288,315767.9504707,33
1658996411.17288,315767.9504838,50
1658996411.17288,315767.9504968,76
1658996411.17288,315767.9505097,92
1658996411.17288,315767.95052,85
1658996411.17288,315767.9505264,102
1658996411.17288,315767.9505334,135
1658996411.17288,315767.9505415,133
1658996411.17288,315767.9505515,121
1658996411.17288,315767.9505596,135
1658996411.17288,315767.950567,157
1658996411.17288,315767.9505703,128
1658996411.17288,315767.9505769,92
1658996411.17288,315767.9505842,121
1658996411.17288,315767.9505895,126
1658996411.17288,315767.950595,97
1658996411.69783,315767.9505982,107
1658996411.69783,315767.9506015,123
1658996411.69783,315767.9506046,128
1658996411.69783,315767.9506081,131
1658996411.69783,315767.9506116,119
1658996411.69783,315767.9506165,92
1658996411.69783,315767.9506219,97
1658996411.69783,315767.950626,126
1658996411.69783,315767.9506293,119
1658996411.69783,315767.9506325,116
1658996411.69783,315767.9506357,123
1658996411.69783,315767.950639,114
1658996411.69783,315767.9506421,112
1658996411.69783,315767.9506462,104
1658996411.69783,315767.9506505,81
1658996411.69783,315767.950654,76
1658996411.69783,315767.9506573,104
1658996411.69783,315767.9506616,102
1658996411.69783,315767.9506651,64
1658996411.69783,315767.9506686,69
1658996411.69783,315767.950673,104
1658996411.69783,315767.9506768,114
1658996411.69783,315767.9506824,114
1658996411.69783,315767.9506889,114
1658996411.69783,315767.9506952,100
1658996411.69783,315767.9506997,83
1658996411.69783,315767.9507051,95
1658996411.69783,315767.9507105,109
1658996411.69783,315767.9507165,90
1658996411.69783,315767.9507241,83
1658996411.69783,315767.9507302,112
1658996411.69783,315767.9507354,147
1658996411.69783,315767.9507415,169
1658996411.69783,315767.9507499,107
1658996411.69783,315767.9507562,-164
1658996411.69783,315767.9507606,-608
1658996411.69783,315767.9507645,-834
1658996411.69783,315767.9507692,-448
1658996411.69783,315768.4863081,193
1658996411.69783,315768.4863195,360
1658996411.69783,315768.4863379,164
1658996411.69783,315768.4863403,128
1658996411.69783,315768.4863423,183
1658996411.69783,315768.4863443,140
1658996411.69783,315768.4863464,128
1658996411.69783,315768.4863485,152
1658996411.69783,315768.4863505,109
1658996411.69783,315768.4863526,76
1658996411.69783,315768.4863546,85
1658996411.69783,315768.4863567,85
1658996411.7088,315768.4863587,76
1658996411.7088,315768.4863607,59
1658996411.7088,315768.4863627,38
1658996411.7088,315768.4863649,26
1658996411.7088,315768.4863669,19
1658996411.7088,315768.4863689,16
1658996411.7088,315768.4863714,16
1658996411.7088,315768.4863766,4
1658996411.7088,315768.4863889,-4
1658996411.7088,315768.4863931,7
1658996411.7088,315768.486397,21
1658996411.7088,315768.4863989,9
1658996411.7088,315768.486401,4
1658996411.7088,315768.4864031,16
1658996411.7088,315768.4864055,7
1658996411.7088,315768.4864138,0
1658996411.7088,315768.4864243,21
1658996411.7088,315768.4864288,40
1658996411.7088,315768.4864317,61
1658996411.7088,315768.4864348,95
1658996411.7088,315768.4864382,116
1658996411.7088,315768.4864504,116
1658996411.7088,315768.4864581,119
1658996411.7088,315768.4864616,123
1658996412.23076,315768.4864637,133
1658996412.23076,315768.4864657,150
1658996412.23076,315768.4864676,152
1658996412.23076,315768.4864698,123
1658996412.23076,315768.4864762,102
1658996412.23076,315768.4864848,116
1658996412.23076,315768.4864923,135
1658996412.23076,315768.4865,131
1658996412.23076,315768.4865074,114
1658996412.23076,315768.4865161,104
1658996412.23076,315768.486523,97
1658996412.23076,315768.4865254,88
1658996412.23076,315768.4865275,83
1658996412.23076,315768.4865295,81
1658996412.23076,315768.4865315,88
1658996412.23076,315768.4865339,88
1658996412.23076,315768.486541,78
1658996412.23076,315768.4865475,76
1658996412.23076,315768.4865545,88
1658996412.23076,315768.4865617,92
1658996412.23076,315768.4865679,90
1658996412.23076,315768.4865735,97
1658996412.23076,315768.4865778,92
1658996412.23076,315768.4865853,78
1658996412.23076,315768.4865888,81
1658996412.23076,315768.4865923,83
1658996412.23076,315768.4865957,59
1658996412.23076,315768.4865991,40
1658996412.23076,315768.4866048,38
1658996412.23076,315768.4866118,42
1658996412.23076,315768.4866198,66
1658996412.23076,315768.4866243,88
1658996412.23076,315768.4866276,76
1658996412.23076,315768.4866318,59
1658996412.23076,315768.4866368,61
1658996412.23076,315768.4866403,64
1658996412.23076,315768.4866463,64
1658996412.23076,315769.0228425,61
1658996412.23076,315769.022863,61
1658996412.23076,315769.022877,69
1658996412.23076,315769.0228868,97
1658996412.23076,315769.0228958,116
1658996412.23076,315769.0229022,7
1658996412.23076,315769.0229146,-286
1658996412.23076,315769.0229257,-672
1658996412.23076,315769.022934,-822
1658996412.23076,315769.0229423,-383
1658996412.23076,315769.0229549,221
1658996412.23076,315769.0229638,274
1658996412.23076,315769.0229706,59
1658996412.24173,315769.0229832,81
1658996412.24173,315769.0229934,140
1658996412.24173,315769.0230003,90
1658996412.24173,315769.0230129,78
1658996412.24173,315769.0230232,88
1658996412.24173,315769.0230315,61
1658996412.24173,315769.0230423,50
1658996412.24173,315769.0230508,47
1658996412.24173,315769.0230592,33
1658996412.24173,315769.0231252,28
1658996412.24173,315769.0231342,28
1658996412.24173,315769.0231367,23
1658996412.24173,315769.0231389,14
1658996412.24173,315769.0231411,11
1658996412.24173,315769.0231434,21
1658996412.24173,315769.0231485,14
1658996412.24173,315769.0231582,0
1658996412.24173,315769.0231645,2
1658996412.24173,315769.0231694,14
1658996412.24173,315769.0231732,7
1658996412.24173,315769.0231769,-2
1658996412.24173,315769.0231819,14
1658996412.24173,315769.023186,35
1658996412.24173,315769.023191,35
1658996412.81848,315769.0231944,45
1658996412.81848,315769.0231979,73
1658996412.81848,315769.0232012,95
1658996412.81848,315769.0232046,109
1658996412.81848,315769.023208,128
1658996412.81848,315769.0232114,150
1658996412.81848,315769.0232148,164
1658996412.81848,315769.0232184,176
1658996412.81848,315769.0232218,183
1658996412.81848,315769.0232256,190
1658996412.81848,315769.0232297,197
1658996412.81848,315769.0232336,197
1658996412.81848,315769.0232373,193
1658996412.81848,315769.0232409,190
1658996412.81848,315769.0232477,193
1658996412.81848,315769.0232538,190
1658996412.81848,315769.0232584,178
1658996412.81848,315769.0232604,174
1658996412.81848,315769.0232624,178
1658996412.81848,315769.0232644,176
1658996412.81848,315769.0232665,171
1658996412.81848,315769.0232686,174
1658996412.81848,315769.0232707,181
1658996412.81848,315769.0232728,190
1658996412.81848,315769.0232748,193
1658996412.81848,315769.0232769,185
1658996412.81848,315769.023279,183
1658996412.81848,315769.0232811,190
1658996412.81848,315769.0232831,205
1658996412.81848,315769.0232852,219
1658996412.81848,315769.0232873,216
1658996412.81848,315769.0232894,202
1658996412.81848,315769.0232915,200
1658996412.81848,315769.0232936,207
1658996412.81848,315769.0232956,202
1658996412.81848,315769.0232976,183
1658996412.81848,315769.6086566,178
1658996412.81848,315769.6086696,197
1658996412.81848,315769.6086731,195
1658996412.81848,315769.6086762,188
1658996412.81848,315769.6086791,202
1658996412.81848,315769.6086819,205
1658996412.81848,315769.6086847,185
1658996412.81848,315769.6086874,169
1658996412.81848,315769.60869,159
1658996412.81848,315769.6086926,162
1658996412.81848,315769.6086953,166
1658996412.81848,315769.6086981,185
1658996412.81848,315769.6087013,231
1658996412.81848,315769.6087056,154
1658996412.83044,315769.6087083,-181
1658996412.83044,315769.6087111,-674
1658996412.83044,315769.6087137,-989
1658996412.83044,315769.6087165,-624
1658996412.83044,315769.6087194,176
1658996412.83044,315769.6087221,436
1658996412.83044,315769.6087248,178
1658996412.83044,315769.6087275,138
1658996412.83044,315769.6087303,236
1658996412.83044,315769.608733,185
1658996412.83044,315769.6087357,147
1658996412.83044,315769.6087385,185
1658996412.83044,315769.6087412,171
1658996412.83044,315769.6087438,131
1658996412.83044,315769.6087465,143
1658996412.83044,315769.6087489,147
1658996412.83044,315769.6087512,114
1658996412.83044,315769.6087536,102
1658996412.83044,315769.6087559,102
1658996412.83044,315769.6087582,85
1658996412.83044,315769.6087604,66
1658996412.83044,315769.6087626,59
1658996412.83044,315769.6087649,64
1658996412.83044,315769.6087672,45
1658996413.34839,315769.6087694,9
1658996413.34839,315769.6087716,0
1658996413.34839,315769.6087739,9
1658996413.34839,315769.6087761,21
1658996413.34839,315769.6087783,45
1658996413.34839,315769.6087805,57
1658996413.34839,315769.6087827,42
1658996413.34839,315769.608785,42
1658996413.34839,315769.6087872,78
1658996413.34839,315769.6087895,128
1658996413.34839,315769.6087917,174
1658996413.34839,315769.6087939,188
1658996413.34839,315769.6087961,150
1658996413.34839,315769.6087983,154
1658996413.34839,315769.6088006,212
1658996413.34839,315769.6088028,212
1658996413.34839,315769.6088056,181
1658996413.34839,315769.6088079,183
1658996413.34839,315769.60881,193
1658996413.34839,315769.6088122,195
1658996413.34839,315769.6088154,214
1658996413.34839,315769.6088177,226
1658996413.34839,315769.60882,193
1658996413.34839,315769.6088223,157
1658996413.34839,315769.6088244,150
1658996413.34839,315769.6088266,166
1658996413.34839,315769.6088287,174
1658996413.34839,315769.6088309,157
1658996413.34839,315769.608833,162
1658996413.34839,315769.6088352,174
1658996413.34839,315769.6088374,157
1658996413.34839,315769.6088395,152
1658996413.34839,315769.6088417,171
1658996413.34839,315769.6088439,178
1658996413.34839,315769.608846,169
1658996413.34839,315770.1437979,157
1658996413.34839,315770.1438191,157
1658996413.34839,315770.1438348,164
1658996413.34839,315770.1438487,159
1658996413.34839,315770.1438589,135
1658996413.34839,315770.1438637,114
1658996413.34839,315770.1438768,119
1658996413.34839,315770.1438857,133
1658996413.34839,315770.1438965,138
1658996413.34839,315770.1439003,143
1658996413.34839,315770.1439042,143
1658996413.34839,315770.1439064,143
1658996413.34839,315770.1439099,135
1658996413.34839,315770.1439122,123
1658996413.34839,315770.1439146,112
1658996413.35936,315770.1439246,114
1658996413.35936,315770.1439371,128
1658996413.35936,315770.1439443,126
1658996413.35936,315770.1439512,131
1658996413.35936,315770.1439565,178
1658996413.35936,315770.1439609,116
1658996413.35936,315770.1439671,-200
1658996413.35936,315770.1439844,-677
1658996413.35936,315770.1439897,-963
1658996413.35936,315770.1440065,-591
1658996413.35936,315770.1440103,138
1658996413.35936,315770.1440142,317
1658996413.35936,315770.144018,61
1658996413.35936,315770.1440231,52
1658996413.35936,315770.1440269,145
1658996413.35936,315770.1440321,90
1658996413.35936,315770.1440358,54
1658996413.35936,315770.1440395,83
1658996413.35936,315770.1440432,76
1658996413.35936,315770.1440483,47
1658996413.35936,315770.1440516,54
1658996413.35936,315770.1440569,64
1658996413.35936,315770.144061,23
1658996413.35936,315770.1440661,-19
1658996413.88691,315770.1440699,2
1658996413.88691,315770.1440735,21
1658996413.88691,315770.1440792,2
1658996413.88691,315770.1440828,-16
1658996413.88691,315770.1440862,-28
1658996413.88691,315770.1440896,-33
1658996413.88691,315770.1440931,-26
1658996413.88691,315770.1440983,-23
1658996413.88691,315770.1441025,-26
1658996413.88691,315770.1441059,-28
1658996413.88691,315770.1441093,-14
1658996413.88691,315770.1441129,11
1658996413.88691,315770.1441166,9
1658996413.88691,315770.1441201,9
1658996413.88691,315770.1441236,45
1658996413.88691,315770.1441272,66
1658996413.88691,315770.1441308,76
1658996413.88691,315770.1441345,107
1658996413.88691,315770.1441379,147
1658996413.88691,315770.1441415,166
1658996413.88691,315770.1441456,176
1658996413.88691,315770.1441492,176
1658996413.88691,315770.1441522,164
1658996413.88691,315770.1441551,162
1658996413.88691,315770.1441582,154
1658996413.88691,315770.1441613,152
1658996413.88691,315770.1441647,159
1658996413.88691,315770.1441702,154
1658996413.88691,315770.1441735,145
1658996413.88691,315770.1441766,154
1658996413.88691,315770.1441799,174
1658996413.88691,315770.1441832,181
1658996413.88691,315770.1441865,178
1658996413.88691,315770.1441897,176
1658996413.88691,315770.6822164,185
1658996413.88691,315770.6822372,190
1658996413.88691,315770.6822469,178
1658996413.88691,315770.6822496,169
1658996413.88691,315770.6822517,164
1658996413.88691,315770.6822538,162
1658996413.88691,315770.6822558,162
1658996413.88691,315770.6822578,150
1658996413.88691,315770.6822598,126
1658996413.88691,315770.6822618,126
1658996413.88691,315770.6822639,150
1658996413.88691,315770.6822658,159
1658996413.88691,315770.6822678,152
1658996413.88691,315770.6822698,131
1658996413.88691,315770.6822727,104
1658996413.88691,315770.68228,88
1658996413.89688,315770.6822885,102
1658996413.89688,315770.6822948,116
1658996413.89688,315770.6823044,114
1658996413.89688,315770.6823123,104
1658996413.89688,315770.6823202,83
1658996413.89688,315770.6823312,81
1658996413.89688,315770.6823392,102
1658996413.89688,315770.6823473,104
1658996413.89688,315770.6823555,92
1658996413.89688,315770.6823648,88
1658996413.89688,315770.682376,76
1658996413.89688,315770.6823844,83
1658996413.89688,315770.6823943,104
1658996413.89688,315770.6824054,-11
1658996413.89688,315770.6824148,-324
1658996413.89688,315770.6824255,-693
1658996413.89688,315770.6824359,-763
1658996413.89688,315770.6824468,-262
1658996413.89688,315770.682458,288
1658996413.89688,315770.6824665,286
1658996413.89688,315770.6824739,102
1658996413.89688,315770.6824826,126
1658996413.89688,315770.6824906,157
1658996413.89688,315770.6824964,114
1658996414.51996,315770.6825039,112
1658996414.51996,315770.6825113,112
1658996414.51996,315770.6825154,95
1658996414.51996,315770.6825266,107
1658996414.51996,315770.6825364,112
1658996414.51996,315770.6825404,85
1658996414.51996,315770.6825517,76
1658996414.51996,315770.6825647,78
1658996414.51996,315770.6825792,64
1658996414.51996,315770.6825871,57
1658996414.51996,315770.6825956,52
1658996414.51996,315770.6826359,33
1658996414.51996,315770.6826553,28
1658996414.51996,315770.6826642,28
1658996414.51996,315770.6826697,26
1658996414.51996,315770.682675,28
1658996414.51996,315770.6826801,26
1658996414.51996,315770.6826849,21
1658996414.51996,315770.6826906,9
1658996414.51996,315770.6826967,-2
1658996414.51996,315770.6827019,14
1658996414.51996,315770.6827075,52
1658996414.51996,315770.682713,81
1658996414.51996,315770.6827194,92
1658996414.51996,315770.6827255,102
1658996414.51996,315770.6827324,131
1658996414.51996,315770.6827395,166
1658996414.51996,315770.6827459,188
1658996414.51996,315770.6827513,193
1658996414.51996,315770.6827567,185
1658996414.51996,315770.6827622,183
1658996414.51996,315770.6827689,190
1658996414.51996,315770.6827769,197
1658996414.51996,315771.313313,190
1658996414.51996,315771.3133302,181
1658996414.51996,315771.3133357,185
1658996414.51996,315771.3133432,178
1658996414.51996,315771.3133481,154
1658996414.51996,315771.3133548,138
1658996414.51996,315771.3133586,138

1658996414.51996,315771.3133619,140
1658996414.51996,315771.3133656,133
1658996414.51996,315771.3133714,128
1658996414.51996,315771.3133859,128
1658996414.51996,315771.3133959,119
1658996414.51996,315771.3133985,119
1658996414.51996,315771.3134014,119
1658996414.51996,315771.3134088,116
1658996414.51996,315771.313422,114
1658996414.51996,315771.3134339,97
1658996414.52993,315771.313447,73
1658996414.52993,315771.3134535,83
1658996414.52993,315771.3134643,100
1658996414.52993,315771.3134681,90
1658996414.52993,315771.3134781,85
1658996414.52993,315771.3134903,90
1658996414.52993,315771.3135016,73
1658996414.52993,315771.313513,52
1658996414.52993,315771.3135207,66
1658996414.52993,315771.3135279,102
1658996414.52993,315771.313537,114
1658996414.52993,315771.3135459,109
1658996414.52993,315771.3135545,104
1658996414.52993,315771.3135589,92
1658996414.52993,315771.313563,88
1658996414.52993,315771.3135683,97
1658996414.52993,315771.3135742,97
1658996414.52993,315771.3135802,90
1658996414.52993,315771.3135887,90
1658996414.52993,315771.3135977,107
1658996414.52993,315771.3136096,135
1658996414.52993,315771.3136214,138
1658996414.52993,315771.3136273,19
1658996414.52993,315771.3136335,-278
1658996415.06355,315771.3136452,-655
1658996415.06355,315771.3137882,-743
1658996415.06355,315771.3138023,-245
1658996415.06355,315771.3138106,305
1658996415.06355,315771.3138157,295
1658996415.06355,315771.3138214,102
1658996415.06355,315771.3138256,133
1658996415.06355,315771.313832,166
1658996415.06355,315771.3138386,112
1658996415.06355,315771.3138467,107
1658996415.06355,315771.3138547,119
1658996415.06355,315771.313862,97
1658996415.06355,315771.3138705,78
1658996415.06355,315771.313876,78
1658996415.06355,315771.3138795,76
1658996415.06355,315771.313885,61
1658996415.06355,315771.3138895,54
1658996415.06355,315771.313893,50
1658996415.06355,315771.3138967,42
1658996415.06355,315771.313901,35
1658996415.06355,315771.3139047,26
1658996415.06355,315771.3139112,14
1658996415.06355,315771.3139151,7
1658996415.06355,315771.3139224,4
1658996415.06355,315771.3139281,7
1658996415.06355,315771.3139312,11
1658996415.06355,315771.3139353,14
1658996415.06355,315771.3139397,11
1658996415.06355,315771.3139458,11
1658996415.06355,315771.3139494,26
1658996415.06355,315771.3139524,52
1658996415.06355,315771.3139687,76
1658996415.06355,315771.8496372,104
1658996415.06355,315771.8496563,131
1658996415.06355,315771.8496624,157
1658996415.06355,315771.8496773,181
1658996415.06355,315771.8496927,181
1658996415.06355,315771.8497078,176
1658996415.06355,315771.849723,195
1658996415.06355,315771.8497362,205
1658996415.06355,315771.8497496,193
1658996415.06355,315771.8497592,188
1658996415.06355,315771.8497617,193
1658996415.06355,315771.8497773,181
1658996415.06355,315771.8497793,171
1658996415.06355,315771.8497812,171
1658996415.06355,315771.8497831,152
1658996415.06355,315771.8498,138
1658996415.06355,315771.849802,152
1658996415.06355,315771.8498039,157
1658996415.07452,315771.8498059,150
1658996415.07452,315771.8498077,154
1658996415.07452,315771.8498108,143
1658996415.07452,315771.8498135,114
1658996415.07452,315771.8498165,104
1658996415.07452,315771.8498187,126
1658996415.07452,315771.8498207,154
1658996415.07452,315771.8498227,157
1658996415.07452,315771.8498248,143
1658996415.07452,315771.8498268,138
1658996415.07452,315771.8498288,138
1658996415.07452,315771.8498308,145
1658996415.07452,315771.8498328,157
1658996415.07452,315771.8498348,154
1658996415.07452,315771.8498368,138
1658996415.07452,315771.8498389,145
1658996415.07452,315771.8498409,174
1658996415.07452,315771.8498429,176
1658996415.07452,315771.849845,169
1658996415.07452,315771.849847,174
1658996415.07452,315771.8498491,164
1658996415.07452,315771.8498511,145
1658996415.07452,315771.8498532,123
1658996415.07452,315771.8498553,109
1658996415.59257,315771.8498573,121
1658996415.59257,315771.8498593,140
1658996415.59257,315771.8498612,143
1658996415.59257,315771.8498632,143
1658996415.59257,315771.8498651,154
1658996415.59257,315771.849867,174
1658996415.59257,315771.849869,174
1658996415.59257,315771.849871,152
1658996415.59257,315771.849873,140
1658996415.59257,315771.8498749,152
1658996415.59257,315771.8498768,174
1658996415.59257,315771.8498787,195
1658996415.59257,315771.8498806,123
1658996415.59257,315771.8498825,-143
1658996415.59257,315771.8498847,-557
1658996415.59257,315771.8498916,-870
1658996415.59257,315771.8499001,-588
1658996415.59257,315771.8499075,152
1658996415.59257,315771.8499152,412
1658996415.59257,315771.8499248,162
1658996415.59257,315771.8499298,123
1658996415.59257,315771.8499322,224
1658996415.59257,315771.8499342,176
1658996415.59257,315771.8499363,138
1658996415.59257,315771.8499383,164
1658996415.59257,315771.8499404,159
1658996415.59257,315771.8499424,133
1658996415.59257,315771.8499448,131
1658996415.59257,315771.8499532,114
1658996415.59257,315771.8499637,76
1658996415.59257,315771.8499664,66
1658996415.59257,315772.3861468,69
1658996415.59257,315772.3861688,52
1658996415.59257,315772.386179,42
1658996415.59257,315772.3861839,45
1658996415.59257,315772.3861934,21
1658996415.59257,315772.3862028,7
1658996415.59257,315772.3862099,23
1658996415.59257,315772.3862244,23
1658996415.59257,315772.3862356,0
1658996415.59257,315772.3862409,-9
1658996415.59257,315772.3862469,-16
1658996415.59257,315772.3862533,-21
1658996415.59257,315772.3862574,-2
1658996415.59257,315772.3862641,21
1658996415.59257,315772.3862689,45
1658996415.59257,315772.386274,69
1658996415.59257,315772.3862786,83
1658996415.59257,315772.3862821,97
1658996415.59257,315772.3862856,128
1658996415.60254,315772.3862888,140
1658996415.60254,315772.3862921,133
1658996415.60254,315772.3862972,150
1658996415.60254,315772.3863004,176
1658996415.60254,315772.3863034,183
1658996415.60254,315772.3863065,171
1658996415.60254,315772.3863113,162
1658996415.60254,315772.3863154,169
1658996415.60254,315772.3863207,166
1658996415.60254,315772.3863241,157
1658996415.60254,315772.3863296,162
1658996415.60254,315772.3863393,157
1658996415.60254,315772.3863479,138
1658996415.60254,315772.3863528,145
1658996415.60254,315772.3863578,159
1658996415.60254,315772.3863622,147
1658996415.60254,315772.3863668,140
1658996415.60254,315772.3863712,152
1658996415.60254,315772.3863794,154
1658996415.60254,315772.3863901,145
1658996415.60254,315772.3863975,138
1658996415.60254,315772.3864062,140
1658996415.60254,315772.3864125,145
1658996415.60254,315772.3864191,152
1658996416.18269,315772.3864232,157
1658996416.18269,315772.38643,154
1658996416.18269,315772.3864342,150
1658996416.18269,315772.3864396,159
1658996416.18269,315772.386444,171
1658996416.18269,315772.3864502,169
1658996416.18269,315772.3864586,154
1658996416.18269,315772.3864688,143
1658996416.18269,315772.3864781,140
1658996416.18269,315772.3864857,138
1658996416.18269,315772.3864913,128
1658996416.18269,315772.3864958,121
1658996416.18269,315772.3864992,131
1658996416.18269,315772.3865071,138
1658996416.18269,315772.3865155,126
1658996416.18269,315772.3865198,123
1658996416.18269,315772.3865229,138
1658996416.18269,315772.3865261,147
1658996416.18269,315772.3865344,140
1658996416.18269,315772.3865425,126
1658996416.18269,315772.386547,109
1658996416.18269,315772.3865537,100
1658996416.18269,315772.3865568,114
1658996416.18269,315772.3865622,162
1658996416.18269,315772.3865754,162
1658996416.18269,315772.3865829,-38
1658996416.18269,315772.3865918,-443
1658996416.18269,315772.3865994,-860
1658996416.18269,315772.3866273,-856
1658996416.18269,315772.3866361,-197
1658996416.18269,315772.9708174,350
1658996416.18269,315772.9708311,226
1658996416.18269,315772.9708341,52
1658996416.18269,315772.9708364,143
1658996416.18269,315772.9708384,159
1658996416.18269,315772.9708405,104
1658996416.18269,315772.9708425,121
1658996416.18269,315772.9708446,119
1658996416.18269,315772.9708467,76
1658996416.18269,315772.9708489,59
1658996416.18269,315772.9708548,59
1658996416.18269,315772.9708653,61
1658996416.18269,315772.9708706,61
1658996416.18269,315772.9708799,30
1658996416.18269,315772.9708877,0
1658996416.18269,315772.9709003,0
1658996416.18269,315772.9709119,-2
1658996416.18269,315772.970915,-14
1658996416.18269,315772.9709173,-9
1658996416.18269,315772.9709194,-19
1658996416.19466,315772.9709343,-52
1658996416.19466,315772.9709367,-57
1658996416.19466,315772.9709386,-42
1658996416.19466,315772.9709407,-54
1658996416.19466,315772.9709627,-64
1658996416.19466,315772.9709738,-52
1658996416.19466,315772.9709785,-30
1658996416.19466,315772.9709807,-7
1658996416.19466,315772.9709828,23
1658996416.19466,315772.9709848,64
1658996416.19466,315772.9709868,85
1658996416.19466,315772.9709927,104
1658996416.19466,315772.9710042,140
1658996416.19466,315772.9710094,154
1658996416.19466,315772.9710116,147
1658996416.19466,315772.9710272,159
1658996416.19466,315772.9710292,174
1658996416.19466,315772.9710491,171
1658996416.19466,315772.9710589,171
1658996416.19466,315772.9710643,169
1658996416.19466,315772.9710666,157
1658996416.19466,315772.9710687,157
1658996416.19466,315772.9710707,164
1658996416.19466,315772.9710727,147
1658996416.71812,315772.971076,138
1658996416.71812,315772.971087,145
1658996416.71812,315772.9710924,150
1658996416.71812,315772.9710947,152
1658996416.71812,315772.9710965,147
1658996416.71812,315772.971099,150
1658996416.71812,315772.9711032,145
1658996416.71812,315772.971108,138
1658996416.71812,315772.9711128,140
1658996416.71812,315772.9711176,140
1658996416.71812,315772.9711302,135
1658996416.71812,315772.9711419,133
1658996416.71812,315772.971149,126
1658996416.71812,315772.9711513,119
1658996416.71812,315772.9711533,109
1658996416.71812,315772.9711685,109
1658996416.71812,315772.9711715,116
1658996416.71812,315772.9711972,114
1658996416.71812,315772.971233,112
1658996416.71812,315772.9712458,109
1658996416.71812,315772.9712549,95
1658996416.71812,315772.9712615,83
1658996416.71812,315772.9712683,102
1658996416.71812,315772.9712718,128
1658996416.71812,315772.9712856,123
1658996416.71812,315772.9712989,102
1658996416.71812,315772.9713077,97
1658996416.71812,315772.9713195,88
1658996416.71812,315772.9713263,71
1658996416.71812,315773.5075728,73
1658996416.71812,315773.5075931,97
1658996416.71812,315773.5076088,114
1658996416.71812,315773.5076227,109
1658996416.71812,315773.5076332,88
1658996416.71812,315773.5076412,81
1658996416.71812,315773.507651,90
1658996416.71812,315773.5076614,88
1658996416.71812,315773.507672,78
1658996416.71812,315773.5076823,66
1658996416.71812,315773.5076926,57
1658996416.71812,315773.5077017,61
1658996416.71812,315773.5077123,95
1658996416.71812,315773.5077246,119
1658996416.71812,315773.5077331,11
1658996416.71812,315773.5077459,-290
1658996416.71812,315773.5077575,-698
1658996416.71812,315773.5077651,-882
1658996416.71812,315773.5077791,-457
1658996416.71812,315773.5077874,176
1658996416.71812,315773.5077989,259
1658996416.7271,315773.5078075,42
1658996416.7271,315773.5078154,64
1658996416.7271,315773.507825,133
1658996416.7271,315773.507831,88
1658996416.7271,315773.5078357,76
1658996416.7271,315773.5078421,88
1658996416.7271,315773.5078462,73
1658996416.7271,315773.5078523,69
1658996416.7271,315773.5078562,71
1658996416.7271,315773.5078627,47
1658996416.7271,315773.5078683,42
1658996416.7271,315773.5078745,57
1658996416.7271,315773.5078794,47
1658996416.7271,315773.5078857,23
1658996416.7271,315773.5078899,19
1658996416.7271,315773.5078941,19
1658996416.7271,315773.5078985,7
1658996416.7271,315773.5079048,0
1658996416.7271,315773.5079108,-4
1658996416.7271,315773.5079146,-11
1658996416.7271,315773.5079184,-9
1658996416.7271,315773.5079222,-7
1658996416.7271,315773.5079258,-19
1658996416.7271,315773.5079294,-14
1658996417.25089,315773.5079332,0
1658996417.25089,315773.5079367,-4
1658996417.25089,315773.5079405,9
1658996417.25089,315773.5079443,61
1658996417.25089,315773.5079478,97
1658996417.25089,315773.5079516,102
1658996417.25089,315773.5079552,119
1658996417.25089,315773.5079589,159
1658996417.25089,315773.5079629,178
1658996417.25089,315773.5079687,164
1658996417.25089,315773.5079725,159
1658996417.25089,315773.507982,159
1658996417.25089,315773.5079874,174
1658996417.25089,315773.5079914,188
1658996417.25089,315773.5079952,174
1658996417.25089,315773.5079988,159
1658996417.25089,315773.5080086,171
1658996417.25089,315773.5080124,171
1658996417.25089,315773.5080176,166
1658996417.25089,315773.5080212,174
1658996417.25089,315773.5080249,178
1658996417.25089,315773.5080293,164
1658996417.25089,315773.5080346,133
1658996417.25089,315773.508039,143
1658996417.25089,315773.5080443,188
1658996417.25089,315773.5080483,193
1658996417.25089,315773.5080551,166
1658996417.25089,315773.5080589,133
1658996417.25089,315774.0451075,126
1658996417.25089,315774.0451231,143
1658996417.25089,315774.0451294,145
1658996417.25089,315774.0451338,143
1658996417.25089,315774.0451393,135
1658996417.25089,315774.0451431,131
1658996417.25089,315774.0451469,143
1658996417.25089,315774.0451521,133
1658996417.25089,315774.045156,104
1658996417.25089,315774.0451611,95
1658996417.25089,315774.045165,112
1658996417.25089,315774.0451702,114
1658996417.25089,315774.045174,102
1658996417.25089,315774.0451794,88
1658996417.25089,315774.0451832,64
1658996417.25089,315774.0451883,66
1658996417.25089,315774.0451921,90
1658996417.25089,315774.0451973,88
1658996417.25089,315774.0452013,88
1658996417.25089,315774.0452065,97
1658996417.25089,315774.0452103,88
