Time,TimeLsl,Value
1658993909.2371,313264.6117431,81
1658993909.2371,313264.6117613,66
1658993909.2371,313264.6117667,59
1658993909.2371,313264.6117713,57
1658993909.2371,313264.6117754,54
1658993909.2371,313264.6117793,50
1658993909.2371,313264.6117829,52
1658993909.2371,313264.6117866,57
1658993909.2371,313264.6117902,54
1658993909.2371,313264.6117949,50
1658993909.2371,313264.6117995,57
1658993909.2371,313264.6118039,76
1658993909.2371,313264.6118131,90
1658993909.2371,313264.6118202,90
1658993909.2371,313264.6118294,88
1658993909.2371,313264.6118366,100
1658993909.2371,313264.6118453,114
1658993909.2371,313264.6118523,119
1658993909.2371,313264.6118587,126
1658993909.2371,313264.6118637,128
1658993909.2371,313264.6118724,119
1658993909.2371,313264.6118776,112
1658993909.2371,313264.6118841,109
1658993909.2371,313264.6118912,107
1658993909.2371,313264.6119002,95
1658993909.2371,313264.6119073,66
1658993909.2371,313264.6119163,47
1658993909.2371,313264.6119235,50
1658993909.2371,313264.6119326,54
1658993909.2371,313264.611939,45
1658993909.2371,313264.6119478,33
1658993909.2371,313264.6119545,40
1658993909.2371,313264.6119624,52
1658993909.2371,313264.6119685,40
1658993909.2371,313264.6119762,33
1658993909.2371,313264.6119823,47
1658993909.2371,313264.61199,50
1658993909.2371,313264.611996,42
1658993909.2371,313264.6120041,50
1658993909.2371,313264.6120102,59
1658993909.2371,313264.6120184,52
1658993909.2371,313264.6120244,52
1658993909.2371,313264.6120305,69
1658993909.2371,313264.6120385,76
1658993909.2371,313264.6120448,71
1658993909.2371,313264.6120528,73
1658993909.2371,313264.6120604,81
1658993909.2371,313264.6120669,88
1658993909.2371,313264.6120709,83
1658993909.2371,313264.6120749,66
1658993909.35996,313264.6120808,40
1658993909.35996,313264.6120845,33
1658993909.35996,313264.6120884,57
1658993909.35996,313264.6120933,88
1658993909.35996,313264.6120971,92
1658993909.35996,313264.6121008,85
1658993909.35996,313264.6121064,88
1658993909.35996,313264.6121112,85
1658993909.35996,313264.6121149,90
1658993909.35996,313264.6121205,92
1658993909.35996,313264.6121256,88
1658993909.35996,313264.6121299,95
1658993909.35996,313264.6121337,104
1658993909.35996,313264.6121373,121
1658993909.35996,313264.6121425,154
1658993909.35996,313264.6121473,114
1658993909.35996,313264.6121528,-131
1658993909.35996,313264.6121577,-553
1658993909.35996,313264.6121611,-875
1658993909.35996,313264.6121648,-631
1658993909.35996,313264.61217,59
1658993909.35996,313264.612175,355
1658993909.35996,313264.6121783,157
1658993909.35996,313265.0485551,95
1658993909.35996,313265.0485764,183
1658993909.35996,313265.0485915,159
1658993909.35996,313265.048606,126
1658993909.35996,313265.0486149,143
1658993909.35996,313265.0486175,133
1658993909.35996,313265.0486209,109
1658993909.35996,313265.0486317,109
1658993909.35996,313265.0486377,104
1658993909.35996,313265.0486709,81
1658993909.35996,313265.0486851,54
1658993909.35996,313265.0486986,38
1658993909.35996,313265.0487068,33
1658993909.35996,313265.0487094,30
1658993909.35996,313265.0487159,26
1658993909.35996,313265.0487286,21
1658993909.35996,313265.04874,16
1658993909.35996,313265.0487535,7
1658993909.35996,313265.0487615,-7
1658993909.35996,313265.0487639,-4
1658993909.35996,313265.0487672,0
1658993909.35996,313265.0487747,-9
1658993909.35996,313265.0487897,-14
1658993909.35996,313265.0488172,-7
1658993909.35996,313265.0488573,-4
1658993909.35996,313265.0488644,-4
1658993909.35996,313265.0488719,4
1658993909.41082,313265.0488754,28
1658993909.41082,313265.0488786,57
1658993909.41082,313265.0488846,76
1658993909.41082,313265.0488898,85
1658993909.41082,313265.0488969,95
1658993909.41082,313265.048905,107
1658993909.41082,313265.0489132,114
1658993909.41082,313265.0489201,114
1658993909.41082,313265.048924,112
1658993909.41082,313265.0489279,109
1658993909.41082,313265.0489316,104
1658993909.41082,313265.0489353,100
1658993909.41082,313265.0489399,92
1658993909.41082,313265.0489463,83
1658993909.41082,313265.0489493,66
1658993909.41082,313265.0489541,52
1658993909.41082,313265.0489591,47
1658993909.41082,313265.048964,50
1658993909.41082,313265.0489671,52
1658993909.41082,313265.0489701,54
1658993909.41082,313265.048973,54
1658993909.41082,313265.0489761,50
1658993909.41082,313265.048979,47
1658993909.41082,313265.0489819,66
1658993909.41082,313265.0489848,81
1658993909.41082,313265.0489879,71
1658993909.41082,313265.0489908,76
1658993909.41082,313265.0489937,92
1658993909.41082,313265.0489966,88
1658993909.41082,313265.0489996,81
1658993909.41082,313265.0490026,90
1658993909.41082,313265.0490055,97
1658993909.41082,313265.0490085,100
1658993909.41082,313265.0490115,116
1658993909.41082,313265.0490143,126
1658993909.41082,313265.0490173,102
1658993909.41082,313265.049026,73
1658993909.41082,313265.0490317,76
1658993909.41082,313265.0490472,100
1658993909.41082,313265.0490619,126
1658993909.41082,313265.04907,131
1658993909.41082,313265.049077,116
1658993909.41082,313265.0490825,123
1658993909.41082,313265.0490908,133
1658993909.41082,313265.049097,126
1658993909.41082,313265.049102,119
1658993909.41082,313265.5847742,128
1658993909.41082,313265.5847961,133
1658993909.70988,313265.5848102,131
1658993909.70988,313265.5848173,140
1658993909.70988,313265.5848229,181
1658993909.70988,313265.5848292,162
1658993909.70988,313265.584836,-38
1658993909.70988,313265.5848417,-424
1658993909.70988,313265.5848463,-767
1658993909.70988,313265.5848518,-627
1658993909.70988,313265.5848578,4
1658993909.70988,313265.584865,369
1658993909.70988,313265.5848721,216
1658993909.70988,313265.5848791,100
1658993909.70988,313265.584887,159
1658993909.70988,313265.5848936,159
1658993909.70988,313265.584899,135
1658993909.70988,313265.5849067,150
1658993909.70988,313265.5849138,145
1658993909.70988,313265.5849198,119
1658993909.70988,313265.5849262,102
1658993909.70988,313265.5849332,90
1658993909.70988,313265.5849368,88
1658993909.70988,313265.5849442,85
1658993909.70988,313265.5849507,81
1658993909.70988,313265.5849592,76
1658993909.70988,313265.5849659,71
1658993909.70988,313265.5849739,61
1658993909.70988,313265.5849834,64
1658993909.70988,313265.5849896,64
1658993909.70988,313265.5849981,47
1658993909.70988,313265.5850059,35
1658993909.70988,313265.5850099,30
1658993909.70988,313265.5850165,28
1658993909.70988,313265.5850231,35
1658993909.70988,313265.5850292,40
1658993909.70988,313265.5850337,45
1658993909.70988,313265.5850394,50
1658993909.70988,313265.5850467,54
1658993909.70988,313265.5850544,71
1658993909.70988,313265.5850616,97
1658993909.70988,313265.585071,116
1658993909.70988,313265.5850776,128
1658993909.70988,313265.5850849,140
1658993909.70988,313265.585091,152
1658993909.70988,313265.5850988,154
1658993909.70988,313265.5851049,159
1658993909.70988,313265.585113,169
1658993909.70988,313265.5851191,171
1658993909.70988,313265.5851267,162
1658993909.70988,313265.5851327,154
1658993909.70988,313265.5851403,157
1658993909.76625,313265.5851464,154
1658993909.76625,313265.5851542,147
1658993909.76625,313265.5851625,150
1658993909.76625,313265.5851702,152
1658993909.76625,313265.585175,152
1658993909.76625,313265.5851803,152
1658993909.76625,313265.5851848,145
1658993909.76625,313265.58519,143
1658993909.76625,313265.5851945,154
1658993909.76625,313265.5851983,154
1658993909.76625,313265.5852039,145
1658993909.76625,313265.5852075,143
1658993909.76625,313265.5852112,143
1658993909.76625,313265.5852167,145
1658993909.76625,313265.58522,154
1658993909.76625,313265.5852236,154
1658993909.76625,313265.5852288,150
1658993909.76625,313265.5852325,157
1658993909.76625,313265.5852376,166
1658993909.76625,313265.5852415,164
1658993909.76625,313265.5852449,171
1658993909.76625,313266.3661268,176
1658993909.76625,313266.3661418,171
1658993909.76625,313266.3661468,164
1658993909.91086,313266.3661573,147
1658993909.91086,313266.3661679,121
1658993909.91086,313266.3661715,112
1658993909.91086,313266.3661737,131
1658993909.91086,313266.3661759,159
1658993909.91086,313266.3661821,174
1658993909.91086,313266.3661918,171
1658993909.91086,313266.3662018,157
1658993909.91086,313266.3662072,143
1658993909.91086,313266.3662107,145
1658993909.91086,313266.3662172,150
1658993909.91086,313266.3662226,152
1658993909.91086,313266.3662287,157
1658993909.91086,313266.3662342,152
1658993909.91086,313266.3662389,154
1658993909.91086,313266.3662449,188
1658993909.91086,313266.366251,150
1658993909.91086,313266.3662575,-90
1658993909.91086,313266.3662636,-503
1658993909.91086,313266.366272,-829
1658993909.91086,313266.3662789,-591
1658993909.91086,313266.3662866,123
1658993909.91086,313266.3662926,429
1658993909.91086,313266.3663006,214
1658993909.91086,313266.3663064,162
1658993909.91086,313266.3663125,267
1658993909.91086,313266.3663195,231
1658993909.91086,313266.3663266,181
1658993909.91086,313266.3663355,212
1658993909.91086,313266.3663425,221
1658993909.91086,313266.3663521,200
1658993909.91086,313266.366358,197
1658993909.91086,313266.3663608,195
1658993909.91086,313266.3663692,171
1658993909.91086,313266.3663826,159
1658993909.91086,313266.3663948,162
1658993909.91086,313266.3664023,169
1658993909.91086,313266.3664085,164
1658993909.91086,313266.3664154,150
1658993909.91086,313266.3664204,138
1658993909.91086,313266.3664264,138
1658993909.91086,313266.3664294,140
1658993909.91086,313266.3664325,138
1658993909.91086,313266.3664357,128
1658993909.91086,313266.3664387,121
1658993909.91086,313266.3664419,121
1658993909.91086,313266.3664448,123
1658993909.91086,313266.3664479,131
1658993909.91086,313266.3664507,145
1658993909.91086,313266.3664536,152
1658993909.91984,313266.3664566,164
1658993909.91984,313266.36646,176
1658993909.91984,313266.3664854,185
1658993909.91984,313266.3664925,209
1658993909.91984,313266.3664963,233
1658993909.91984,313266.3664997,236
1658993909.91984,313266.3665029,233
1658993909.91984,313266.3665061,238
1658993909.91984,313266.3665158,238
1658993909.91984,313266.3665234,236
1658993909.91984,313266.3665274,233
1658993909.91984,313266.3665309,228
1658993909.91984,313266.3665355,221
1658993909.91984,313266.3665394,209
1658993909.91984,313266.3665452,195
1658993909.91984,313266.3665501,178
1658993909.91984,313266.3665541,171
1658993909.91984,313266.3665578,164
1658993909.91984,313266.3665614,157
1658993909.91984,313266.366565,159
1658993909.91984,313266.7069106,162
1658993909.91984,313266.7069344,162
1658993909.91984,313266.7069497,164
1658993909.91984,313266.7069586,162
1658993910.45029,313266.7069613,166
1658993910.45029,313266.7069634,174
1658993910.45029,313266.7069655,166
1658993910.45029,313266.7069675,159
1658993910.45029,313266.7069694,152
1658993910.45029,313266.7069713,147
1658993910.45029,313266.7069732,147
1658993910.45029,313266.7069774,150
1658993910.45029,313266.7069794,133
1658993910.45029,313266.7069821,112
1658993910.45029,313266.7069892,109
1658993910.45029,313266.7069961,109
1658993910.45029,313266.7070033,85
1658993910.45029,313266.7070102,78
1658993910.45029,313266.7070164,114
1658993910.45029,313266.7070215,128
1658993910.45029,313266.7070272,104
1658993910.45029,313266.707034,100
1658993910.45029,313266.7070382,102
1658993910.45029,313266.7070414,95
1658993910.45029,313266.7070448,104
1658993910.45029,313266.7070481,114
1658993910.45029,313266.7070514,85
1658993910.45029,313266.7070546,64
1658993910.45029,313266.7070576,90
1658993910.45029,313266.7070646,135
1658993910.45029,313266.7070685,109
1658993910.45029,313266.7070748,-123
1658993910.45029,313266.7070788,-577
1658993910.45029,313266.7070888,-987
1658993910.45029,313266.7071,-808
1658993910.45029,313266.7071079,-38
1658993910.45029,313266.7071125,364
1658993910.45029,313266.7071182,150
1658993910.45029,313266.7071227,57
1658993910.45029,313266.7071286,171
1658993910.45029,313266.7071333,157
1658993910.45029,313266.7071452,119
1658993910.45029,313266.7071553,138
1658993910.45029,313266.7071628,123
1658993910.45029,313266.7071674,102
1658993910.45029,313266.7071761,104
1658993910.45029,313266.7071827,100
1658993910.45029,313266.7071955,90
1658993910.45029,313266.7072067,81
1658993910.45029,313266.7072142,73
1658993910.45029,313266.7072211,66
1658993910.45029,313266.7072302,59
1658993910.45029,313266.7072393,47
1658993910.45029,313266.7072449,40
1658993910.46425,313266.7072541,40
1658993910.46425,313266.7072591,38
1658993910.46425,313266.7072668,33
1658993910.46425,313266.7072761,28
1658993910.46425,313266.707284,30
1658993910.46425,313266.7072899,47
1658993910.46425,313266.7072951,54
1658993910.46425,313266.7072997,50
1658993910.46425,313266.707306,52
1658993910.46425,313266.7073133,54
1658993910.46425,313266.7073189,59
1658993910.46425,313266.7073226,71
1658993910.46425,313266.707326,88
1658993910.46425,313266.7073308,116
1658993910.46425,313266.7073362,150
1658993910.46425,313266.7073407,154
1658993910.46425,313266.7073455,150
1658993910.46425,313266.7073504,157
1658993910.46425,313266.7073558,159
1658993910.46425,313267.2427765,157
1658993910.46425,313267.242798,159
1658993910.46425,313267.2428091,157
1658993910.46425,313267.2428184,150
1658993910.46425,313267.2428254,140
1658993911.0365,313267.2428321,135
1658993911.0365,313267.2428417,138
1658993911.0365,313267.2428476,145
1658993911.0365,313267.242852,140
1658993911.0365,313267.242856,143
1658993911.0365,313267.2428628,135
1658993911.0365,313267.2428704,102
1658993911.0365,313267.2429543,97
1658993911.0365,313267.2429658,116
1658993911.0365,313267.2429731,121
1658993911.0365,313267.2429789,121
1658993911.0365,313267.2429828,116
1658993911.0365,313267.2429857,97
1658993911.0365,313267.2429893,95
1658993911.0365,313267.2429925,119
1658993911.0365,313267.2429969,133
1658993911.0365,313267.2430017,128
1658993911.0365,313267.243006,121
1658993911.0365,313267.2430128,112
1658993911.0365,313267.2430162,104
1658993911.0365,313267.2430211,97
1658993911.0365,313267.2430244,100
1658993911.0365,313267.2430271,123
1658993911.0365,313267.2430298,131
1658993911.0365,313267.2430325,119
1658993911.0365,313267.2430352,114
1658993911.0365,313267.2430378,116
1658993911.0365,313267.2430405,114
1658993911.0365,313267.2430432,114
1658993911.0365,313267.2430459,121
1658993911.0365,313267.2430486,121
1658993911.0365,313267.2430512,112
1658993911.0365,313267.2430538,121
1658993911.0365,313267.2430564,174
1658993911.0365,313267.243059,183
1658993911.0365,313267.2430617,-14
1658993911.0365,313267.2430645,-431
1658993911.0365,313267.2430674,-853
1658993911.0365,313267.2430704,-796
1658993911.0365,313267.2430732,-121
1658993911.0365,313267.2430773,374
1658993911.0365,313267.2430837,252
1658993911.0365,313267.2430889,109
1658993911.0365,313267.2430938,195
1658993911.0365,313267.243097,214
1658993911.0365,313267.2431026,171
1658993911.0365,313267.2431055,185
1658993911.0365,313267.2431085,185
1658993911.0365,313267.2431114,159
1658993911.0365,313267.2431143,154
1658993911.04647,313267.2431172,152
1658993911.04647,313267.2431202,131
1658993911.04647,313267.2431231,116
1658993911.04647,313267.2431261,114
1658993911.04647,313267.2431289,109
1658993911.04647,313267.2431319,95
1658993911.04647,313267.2431348,83
1658993911.04647,313267.2431377,88
1658993911.04647,313267.2431406,95
1658993911.04647,313267.2431436,88
1658993911.04647,313267.2431465,81
1658993911.04647,313267.2431495,78
1658993911.04647,313267.2431526,73
1658993911.04647,313267.2431555,69
1658993911.04647,313267.2431583,71
1658993911.04647,313267.2431632,81
1658993911.04647,313267.2431756,83
1658993911.04647,313267.2431817,83
1658993911.04647,313267.8273038,100
1658993911.04647,313267.8273193,119
1658993911.04647,313267.8273223,131
1658993911.04647,313267.8273245,140
1658993911.04647,313267.8273309,154
1658993911.04647,313267.8273458,169
1658993911.62367,313267.8273516,176
1658993911.62367,313267.8273554,162
1658993911.62367,313267.8273589,145
1658993911.62367,313267.8273626,152
1658993911.62367,313267.8273694,157
1658993911.62367,313267.8273801,143
1658993911.62367,313267.8273884,135
1658993911.62367,313267.8273944,126
1658993911.62367,313267.8273994,114
1658993911.62367,313267.8274036,121
1658993911.62367,313267.8274077,126
1658993911.62367,313267.8274116,121
1658993911.62367,313267.8274153,121
1658993911.62367,313267.8274187,123
1658993911.62367,313267.8274223,126
1658993911.62367,313267.827426,133
1658993911.62367,313267.8274295,143
1658993911.62367,313267.8274331,147
1658993911.62367,313267.8274366,147
1658993911.62367,313267.8274401,147
1658993911.62367,313267.8274436,145
1658993911.62367,313267.827447,143
1658993911.62367,313267.8274506,140
1658993911.62367,313267.8274542,140
1658993911.62367,313267.8274577,150
1658993911.62367,313267.8274614,157
1658993911.62367,313267.8274649,154
1658993911.62367,313267.8274685,145
1658993911.62367,313267.8274722,135
1658993911.62367,313267.8274779,119
1658993911.62367,313267.8274814,109
1658993911.62367,313267.8274865,138
1658993911.62367,313267.8274905,166
1658993911.62367,313267.8274954,150
1658993911.62367,313267.8274989,138
1658993911.62367,313267.8275022,154
1658993911.62367,313267.8275056,150
1658993911.62367,313267.8275107,128
1658993911.62367,313267.8275142,128
1658993911.62367,313267.8275175,135
1658993911.62367,313267.8275217,131
1658993911.62367,313267.8275266,133
1658993911.62367,313267.82753,162
1658993911.62367,313267.8275334,166
1658993911.62367,313267.8275368,16
1658993911.62367,313267.8275403,-352
1658993911.62367,313267.8275453,-794
1658993911.62367,313267.8275488,-858
1658993911.62367,313267.8275537,-271
1658993911.62367,313267.8275572,309
1658993911.63564,313267.8275622,278
1658993911.63564,313267.8275657,97
1658993911.63564,313267.8275706,157
1658993911.63564,313267.827574,197
1658993911.63564,313267.827579,147
1658993911.63564,313267.8275824,147
1658993911.63564,313267.8275873,159
1658993911.63564,313267.8275908,140
1658993911.63564,313267.8275957,135
1658993911.63564,313267.8275991,135
1658993911.63564,313267.827604,126
1658993911.63564,313267.8276076,119
1658993911.63564,313267.8276125,114
1658993911.63564,313267.8276159,107
1658993911.63564,313267.8276208,100
1658993911.63564,313267.8276242,92
1658993911.63564,313267.8276311,88
1658993911.63564,313268.4129855,85
1658993911.63564,313268.4130082,88
1658993911.63564,313268.4130137,88
1658993911.63564,313268.4130182,78
1658993911.63564,313268.4130223,64
1658993911.63564,313268.4130262,71
1658993911.63564,313268.4130304,92
1658993912.15321,313268.4130344,92
1658993912.15321,313268.4130384,76
1658993912.15321,313268.4130423,78
1658993912.15321,313268.4130461,78
1658993912.15321,313268.4130504,73
1658993912.15321,313268.4130548,90
1658993912.15321,313268.4130585,116
1658993912.15321,313268.4130625,121
1658993912.15321,313268.4130664,126
1658993912.15321,313268.4130705,131
1658993912.15321,313268.4130745,114
1658993912.15321,313268.4130785,100
1658993912.15321,313268.4130844,107
1658993912.15321,313268.4130887,102
1658993912.15321,313268.4130927,97
1658993912.15321,313268.4130966,104
1658993912.15321,313268.4131046,95
1658993912.15321,313268.4131082,83
1658993912.15321,313268.4131165,92
1658993912.15321,313268.4131204,100
1658993912.15321,313268.4131241,92
1658993912.15321,313268.4131323,88
1658993912.15321,313268.4131366,97
1658993912.15321,313268.4131405,102
1658993912.15321,313268.4131443,104
1658993912.15321,313268.4131481,112
1658993912.15321,313268.4131519,116
1658993912.15321,313268.413156,116
1658993912.15321,313268.4131598,116
1658993912.15321,313268.4131634,119
1658993912.15321,313268.413167,121
1658993912.15321,313268.4131711,123
1658993912.15321,313268.4131757,126
1658993912.15321,313268.4131815,131
1658993912.15321,313268.4131848,138
1658993912.15321,313268.4131881,123
1658993912.15321,313268.4131928,100
1658993912.15321,313268.4131963,83
1658993912.15321,313268.4132004,78
1658993912.15321,313268.4132044,92
1658993912.15321,313268.4132082,107
1658993912.15321,313268.4132119,114
1658993912.15321,313268.4132159,109
1658993912.15321,313268.4132219,100
1658993912.15321,313268.4132256,100
1658993912.15321,313268.4132294,109
1658993912.15321,313268.4132332,107
1658993912.15321,313268.4132371,107
1658993912.15321,313268.4132409,109
1658993912.15321,313268.4132447,107
1658993912.16318,313268.4132513,107
1658993912.16318,313268.4132569,140
1658993912.16318,313268.4132609,133
1658993912.16318,313268.4132649,-88
1658993912.16318,313268.4132688,-510
1658993912.16318,313268.4132762,-853
1658993912.16318,313268.4132801,-667
1658993912.16318,313268.413284,-4
1658993912.16318,313268.4132917,333
1658993912.16318,313268.4132961,159
1658993912.16318,313268.4133024,71
1658993912.16318,313268.4133062,157
1658993912.16318,313268.4133142,154
1658993912.16318,313268.4133198,116
1658993912.16318,313268.4133235,121
1658993912.16318,313268.4133271,116
1658993912.16318,313268.9494675,109
1658993912.16318,313268.9494933,109
1658993912.16318,313268.9495045,97
1658993912.16318,313268.9495111,88
1658993912.16318,313268.9495165,88
1658993912.16318,313268.9495204,78
1658993912.16318,313268.949524,64
1658993912.16318,313268.9495274,64
1658993912.73716,313268.9495311,59
1658993912.73716,313268.9495347,42
1658993912.73716,313268.9495397,35
1658993912.73716,313268.9495435,38
1658993912.73716,313268.9495475,30
1658993912.73716,313268.9495536,9
1658993912.73716,313268.9495585,-14
1658993912.73716,313268.9495647,-7
1658993912.73716,313268.9495681,4
1658993912.73716,313268.9495715,9
1658993912.73716,313268.9495751,11
1658993912.73716,313268.9495784,2
1658993912.73716,313268.9495818,-4
1658993912.73716,313268.9495898,16
1658993912.73716,313268.9495954,40
1658993912.73716,313268.9496017,59
1658993912.73716,313268.9496086,78
1658993912.73716,313268.9496153,88
1658993912.73716,313268.9496218,92
1658993912.73716,313268.9496286,97
1658993912.73716,313268.9496354,97
1658993912.73716,313268.9496426,97
1658993912.73716,313268.9496496,107
1658993912.73716,313268.9496546,104
1658993912.73716,313268.9496587,90
1658993912.73716,313268.9496785,83
1658993912.73716,313268.9496871,83
1658993912.73716,313268.9496922,85
1658993912.73716,313268.9496965,83
1658993912.73716,313268.9497005,73
1658993912.73716,313268.9497046,69
1658993912.73716,313268.9497088,81
1658993912.73716,313268.9497127,90
1658993912.73716,313268.9497166,90
1658993912.73716,313268.9497203,100
1658993912.73716,313268.9497309,107
1658993912.73716,313268.9497372,102
1658993912.73716,313268.9497452,100
1658993912.73716,313268.9497513,107
1658993912.73716,313268.949755,116
1658993912.73716,313268.9497587,123
1658993912.73716,313268.9497624,123
1658993912.73716,313268.9497664,123
1658993912.73716,313268.9497702,126
1658993912.73716,313268.9497755,126
1658993912.73716,313268.9497815,123
1658993912.73716,313268.949786,126
1658993912.73716,313268.9497929,119
1658993912.73716,313268.9497964,102
1658993912.73716,313268.9498008,85
1658993912.74813,313268.9498043,95
1658993912.74813,313268.9498075,126
1658993912.74813,313268.9498106,140
1658993912.74813,313268.9498138,131
1658993912.74813,313268.9498169,126
1658993912.74813,313268.9498201,135
1658993912.74813,313268.9498276,135
1658993912.74813,313268.9498321,133
1658993912.74813,313268.9498353,138
1658993912.74813,313268.949842,140
1658993912.74813,313268.9498495,133
1658993912.74813,313268.9498588,133
1658993912.74813,313268.9498656,166
1658993912.74813,313268.9498748,166
1658993912.74813,313268.9498815,-14
1658993912.74813,313269.5337338,-398
1658993912.74813,313269.5337507,-786
1658993912.74813,313269.5337544,-720
1658993912.74813,313269.5337573,-90
1658993912.74813,313269.5337603,355
1658993912.74813,313269.533763,228
1658993912.74813,313269.5337657,95
1658993912.74813,313269.5337685,171
1658993912.74813,313269.5337751,178
1658993913.27877,313269.5337819,128
1658993913.27877,313269.5337876,135
1658993913.27877,313269.5337912,128
1658993913.27877,313269.5337948,107
1658993913.27877,313269.5338008,114
1658993913.27877,313269.533808,109
1658993913.27877,313269.5338149,92
1658993913.27877,313269.5338197,78
1658993913.27877,313269.5338232,61
1658993913.27877,313269.5338267,52
1658993913.27877,313269.53383,54
1658993913.27877,313269.5338332,50
1658993913.27877,313269.5338367,47
1658993913.27877,313269.53384,47
1658993913.27877,313269.5338432,40
1658993913.27877,313269.5338466,40
1658993913.27877,313269.5338502,38
1658993913.27877,313269.5338538,21
1658993913.27877,313269.5338569,19
1658993913.27877,313269.5338604,42
1658993913.27877,313269.5338642,50
1658993913.27877,313269.5338677,35
1658993913.27877,313269.5338712,42
1658993913.27877,313269.5338748,64
1658993913.27877,313269.5338789,73
1658993913.27877,313269.5338828,88
1658993913.27877,313269.5338867,116
1658993913.27877,313269.5338902,133
1658993913.27877,313269.5338939,145
1658993913.27877,313269.5338973,162
1658993913.27877,313269.5339008,169
1658993913.27877,313269.5339054,166
1658993913.27877,313269.5339087,169
1658993913.27877,313269.533912,162
1658993913.27877,313269.5339155,157
1658993913.27877,313269.5339192,166
1658993913.27877,313269.5339228,174
1658993913.27877,313269.5339263,166
1658993913.27877,313269.5339297,159
1658993913.27877,313269.5339332,164
1658993913.27877,313269.5339366,169
1658993913.27877,313269.5339411,166
1658993913.27877,313269.5339446,164
1658993913.27877,313269.5339501,174
1658993913.27877,313269.5339529,181
1658993913.27877,313269.5339557,171
1658993913.27877,313269.5339583,164
1658993913.27877,313269.5339612,181
1658993913.27877,313269.533964,195
1658993913.27877,313269.5339669,188
1658993913.28974,313269.5339696,188
1658993913.28974,313269.5339726,195
1658993913.28974,313269.533976,188
1658993913.28974,313269.5339793,183
1658993913.28974,313269.5339843,197
1658993913.28974,313269.5339917,214
1658993913.28974,313269.5339973,205
1658993913.28974,313269.5340009,185
1658993913.28974,313269.5340091,176
1658993913.28974,313269.5340167,166
1658993913.28974,313269.5340204,150
1658993913.28974,313269.5340253,140
1658993913.28974,313269.5340315,147
1658993913.28974,313269.5340393,171
1658993913.28974,313270.0704061,176
1658993913.28974,313270.0704257,169
1658993913.28974,313270.0704347,171
1658993913.28974,313270.0704408,178
1658993913.28974,313270.070447,171
1658993913.28974,313270.0704516,169
1658993913.28974,313270.0704572,178
1658993913.28974,313270.0704619,174
1658993913.28974,313270.0704682,157
1658993913.28974,313270.0704737,164
1658993913.85784,313270.0704804,209
1658993913.85784,313270.0704846,193
1658993913.85784,313270.0704889,-59
1658993913.85784,313270.0704933,-517
1658993913.85784,313270.0704976,-901
1658993913.85784,313270.0705019,-720
1658993913.85784,313270.0705066,14
1658993913.85784,313270.0705104,412
1658993913.85784,313270.070514,209
1658993913.85784,313270.0705182,78
1658993913.85784,313270.0705268,147
1658993913.85784,313270.0705379,140
1658993913.85784,313270.0705494,109
1658993913.85784,313270.0705601,126
1658993913.85784,313270.0705636,116
1658993913.85784,313270.070571,85
1658993913.85784,313270.070581,81
1658993913.85784,313270.070587,85
1658993913.85784,313270.0705899,73
1658993913.85784,313270.0705922,66
1658993913.85784,313270.0705943,71
1658993913.85784,313270.0705967,69
1658993913.85784,313270.0706066,57
1658993913.85784,313270.0706149,42
1658993913.85784,313270.0706174,45
1658993913.85784,313270.0706196,52
1658993913.85784,313270.0706217,45
1658993913.85784,313270.0706238,47
1658993913.85784,313270.0706258,59
1658993913.85784,313270.0706278,54
1658993913.85784,313270.07063,57
1658993913.85784,313270.0706321,69
1658993913.85784,313270.0706341,69
1658993913.85784,313270.0706361,73
1658993913.85784,313270.0706382,92
1658993913.85784,313270.0706403,109
1658993913.85784,313270.0706424,116
1658993913.85784,313270.0706444,133
1658993913.85784,313270.0706463,166
1658993913.85784,313270.0706483,188
1658993913.85784,313270.0706503,190
1658993913.85784,313270.0706522,195
1658993913.85784,313270.0706541,209
1658993913.85784,313270.070656,212
1658993913.85784,313270.0706579,205
1658993913.85784,313270.0706599,200
1658993913.85784,313270.0706618,197
1658993913.85784,313270.0706638,188
1658993913.85784,313270.0706659,181
1658993913.85784,313270.070668,178
1658993913.86981,313270.0706702,174
1658993913.86981,313270.0706722,174
1658993913.86981,313270.0706742,176
1658993913.86981,313270.0706763,169
1658993913.86981,313270.0706783,169
1658993913.86981,313270.0706802,181
1658993913.86981,313270.0706822,178
1658993913.86981,313270.0706842,169
1658993913.86981,313270.0706862,178
1658993913.86981,313270.0706883,193
1658993913.86981,313270.0706904,185
1658993913.86981,313270.0706925,181
1658993913.86981,313270.0706945,185
1658993913.86981,313270.6554613,188
1658993913.86981,313270.6554771,197
1658993913.86981,313270.6554835,202
1658993913.86981,313270.6554876,193
1658993913.86981,313270.6554915,174
1658993913.86981,313270.6554953,162
1658993913.86981,313270.6554991,150
1658993913.86981,313270.6555025,140
1658993913.86981,313270.6555061,154
1658993913.86981,313270.6555098,169
1658993913.86981,313270.6555206,150
1658993914.34938,313270.6555243,121
1658993914.34938,313270.6555278,107
1658993914.34938,313270.6555313,107
1658993914.34938,313270.6555348,116
1658993914.34938,313270.6555382,114
1658993914.34938,313270.6555432,85
1658993914.34938,313270.6555467,61
1658993914.34938,313270.6555503,73
1658993914.34938,313270.6555536,119
1658993914.34938,313270.6555569,154
1658993914.34938,313270.65556,61
1658993914.34938,313270.6555635,-269
1658993914.34938,313270.655567,-755
1658993914.34938,313270.6555704,-989
1658993914.34938,313270.6555738,-505
1658993914.34938,313270.6555773,226
1658993914.34938,313270.6555808,321
1658993914.34938,313270.6555842,73
1658993914.34938,313270.6555877,104
1658993914.34938,313270.6555911,181
1658993914.34938,313270.6555946,119
1658993914.34938,313270.6556002,109
1658993914.34938,313270.6556038,147
1658993914.34938,313270.6556075,131
1658993914.34938,313270.655611,102
1658993914.34938,313270.6556145,102
1658993914.34938,313270.6556196,102
1658993914.34938,313270.655623,95
1658993914.34938,313270.6556266,88
1658993914.34938,313270.6556315,78
1658993914.34938,313270.6556348,69
1658993914.34938,313270.6556397,59
1658993914.34938,313270.655643,57
1658993914.34938,313270.6556463,57
1658993914.34938,313270.6556497,52
1658993914.34938,313270.6556529,52
1658993914.34938,313270.6556563,47
1658993914.34938,313270.6556599,38
1658993914.34938,313270.6556633,38
1658993914.34938,313270.655667,52
1658993914.34938,313270.6556718,69
1658993914.34938,313270.6556752,69
1658993914.34938,313270.6556787,66
1658993914.34938,313270.6556835,76
1658993914.34938,313270.6556876,92
1658993914.34938,313270.6556912,112
1658993914.34938,313270.6556948,131
1658993914.34938,313270.6556983,145
1658993914.34938,313270.6557037,150
1658993914.34938,313270.6557072,157
1658993914.36035,313270.6557107,164
1658993914.36035,313270.6557142,169
1658993914.36035,313270.6557177,174
1658993914.36035,313270.6557211,174
1658993914.36035,313270.6557244,164
1658993914.36035,313270.6557279,157
1658993914.36035,313270.6557317,152
1658993914.36035,313270.6557352,145
1658993914.36035,313270.6557388,140
1658993914.36035,313270.6557424,138
1658993914.36035,313270.6557474,131
1658993914.36035,313270.6557508,133
1658993914.36035,313271.1430187,138
1658993914.36035,313271.1430381,133
1658993914.36035,313271.1430431,138
1658993914.36035,313271.1430496,145
1658993914.36035,313271.1430548,131
1658993914.36035,313271.1430583,119
1658993914.36035,313271.1430617,112
1658993914.36035,313271.1430652,88
1658993914.36035,313271.1430702,73
1658993914.36035,313271.1430766,90
1658993914.36035,313271.1430833,97
1658993914.36035,313271.1430867,92
1658993915.03366,313271.1430901,100
1658993915.03366,313271.1430934,90
1658993915.03366,313271.1430966,69
1658993915.03366,313271.1430999,66
1658993915.03366,313271.1431032,71
1658993915.03366,313271.1431065,54
1658993915.03366,313271.1431099,42
1658993915.03366,313271.1431132,64
1658993915.03366,313271.1431163,88
1658993915.03366,313271.1431195,88
1658993915.03366,313271.1431228,85
1658993915.03366,313271.143126,83
1658993915.03366,313271.1431292,90
1658993915.03366,313271.1431324,95
1658993915.03366,313271.1431357,92
1658993915.03366,313271.143139,88
1658993915.03366,313271.1431423,95
1658993915.03366,313271.1431459,104
1658993915.03366,313271.1431491,128
1658993915.03366,313271.1431524,154
1658993915.03366,313271.1431556,64
1658993915.03366,313271.1431589,-245
1658993915.03366,313271.1431622,-686
1658993915.03366,313271.1431654,-918
1658993915.03366,313271.1431687,-517
1658993915.03366,313271.1431719,174
1658993915.03366,313271.1431751,317
1658993915.03366,313271.1431787,92
1658993915.03366,313271.1431821,90
1658993915.03366,313271.143187,166
1658993915.03366,313271.1431918,131
1658993915.03366,313271.143195,116
1658993915.03366,313271.1431983,140
1658993915.03366,313271.1432016,123
1658993915.03366,313271.1432064,100
1658993915.03366,313271.1432097,100
1658993915.03366,313271.143213,100
1658993915.03366,313271.1432164,90
1658993915.03366,313271.1432213,78
1658993915.03366,313271.1432263,69
1658993915.03366,313271.1432296,57
1658993915.03366,313271.1432332,57
1658993915.03366,313271.1432366,61
1658993915.03366,313271.1432409,57
1658993915.03366,313271.1432443,54
1658993915.03366,313271.1432476,59
1658993915.03366,313271.143251,47
1658993915.03366,313271.1432543,28
1658993915.03366,313271.1432577,35
1658993915.03366,313271.1432612,50
1658993915.04315,313271.1432664,47
1658993915.04315,313271.1432744,45
1658993915.04315,313271.1432798,50
1658993915.04315,313271.1432867,61
1658993915.04315,313271.143291,69
1658993915.04315,313271.1432978,88
1658993915.04315,313271.1433033,114
1658993915.04315,313271.1433069,109
1658993915.04315,313271.1433104,100
1658993915.04315,313271.1433137,116
1658993915.04315,313271.1433175,128
1658993915.04315,313271.8255493,128
1658993915.04315,313271.8255738,126
1658993915.04315,313271.8255829,121
1658993915.04315,313271.825587,100
1658993915.04315,313271.8255909,78
1658993915.04315,313271.8255947,88
1658993915.04315,313271.8255984,92
1658993915.04315,313271.8256021,81
1658993915.04315,313271.8256058,83
1658993915.04315,313271.8256094,83
1658993915.04315,313271.8256131,59
1658993915.04315,313271.8256186,47
1658993915.04315,313271.8256219,64
1658993915.51459,313271.8256263,76
1658993915.51459,313271.8256295,69
1658993915.51459,313271.8256328,71
1658993915.51459,313271.8256366,83
1658993915.51459,313271.8257271,83
1658993915.51459,313271.825734,83
1658993915.51459,313271.8257378,92
1658993915.51459,313271.8257412,97
1658993915.51459,313271.8257447,95
1658993915.51459,313271.825748,100
1658993915.51459,313271.8257513,92
1658993915.51459,313271.8257548,83
1658993915.51459,313271.8257582,97
1658993915.51459,313271.8257615,107
1658993915.51459,313271.8257647,107
1658993915.51459,313271.825768,109
1658993915.51459,313271.8257714,100
1658993915.51459,313271.8257746,85
1658993915.51459,313271.8257779,76
1658993915.51459,313271.8257812,64
1658993915.51459,313271.8257845,73
1658993915.51459,313271.8257901,104
1658993915.51459,313271.8257942,109
1658993915.51459,313271.8258201,100
1658993915.51459,313271.8258257,114
1658993915.51459,313271.8258295,123
1658993915.51459,313271.8258339,112
1658993915.51459,313271.8258372,97
1658993915.51459,313271.8258406,95
1658993915.51459,313271.8258443,90
1658993915.51459,313271.825848,88
1658993915.51459,313271.8258515,104
1658993915.51459,313271.8258549,135
1658993915.51459,313271.8258591,102
1658993915.51459,313271.8258629,-114
1658993915.51459,313271.8258847,-512
1658993915.51459,313271.8258951,-841
1658993915.51459,313271.8258991,-634

1658993915.51459,313271.8259025,42
1658993915.51459,313271.8259058,355
1658993915.51459,313271.825909,159
1658993915.51459,313271.8259122,85
1658993915.51459,313271.8259154,176
1658993915.51459,313271.8259187,159
1658993915.51459,313271.8259219,121
1658993915.51459,313271.825925,140
1658993915.51459,313271.8259281,140
1658993915.51459,313271.8259313,119
1658993915.51459,313271.8259344,107
1658993915.51459,313271.8259376,85
1658993915.52655,313271.8259406,64
1658993915.52655,313271.8259436,59
1658993915.52655,313271.8259467,57
1658993915.52655,313271.82595,54
1658993915.52655,313271.8259531,54
1658993915.52655,313271.8259563,45
1658993915.52655,313271.8259605,33
1658993915.52655,313271.8259638,40
1658993915.52655,313271.8259669,40
1658993915.52655,313271.8259701,35
1658993915.52655,313272.3130193,38
1658993915.52655,313272.3130336,26
1658993915.52655,313272.313037,16
1658993915.52655,313272.3130397,35
1658993915.52655,313272.3130423,52
1658993915.52655,313272.3130447,42
1658993915.52655,313272.3130471,45
1658993915.52655,313272.3130494,64
1658993915.52655,313272.3130518,78
1658993915.52655,313272.313054,100
1658993915.52655,313272.3130563,126
1658993915.52655,313272.3130584,140
1658993915.52655,313272.3130605,135
1658993915.52655,313272.3130626,123
1658993916.10377,313272.3130662,119
1658993916.10377,313272.3130747,126
1658993916.10377,313272.3130792,133
1658993916.10377,313272.3130827,126
1658993916.10377,313272.3130887,116
1658993916.10377,313272.3130958,109
1658993916.10377,313272.3131024,109
1658993916.10377,313272.3131048,112
1658993916.10377,313272.3131075,104
1658993916.10377,313272.3131159,100
1658993916.10377,313272.3131288,107
1658993916.10377,313272.3131416,102
1658993916.10377,313272.313156,76
1658993916.10377,313272.31317,69
1658993916.10377,313272.3131834,90
1658993916.10377,313272.3131915,104
1658993916.10377,313272.3131952,104
1658993916.10377,313272.3131973,100
1658993916.10377,313272.3132035,97
1658993916.10377,313272.3132166,95
1658993916.10377,313272.3132282,90
1658993916.10377,313272.3132411,92
1658993916.10377,313272.3132478,102
1658993916.10377,313272.3132502,109
1658993916.10377,313272.3132523,104
1658993916.10377,313272.3132595,100
1658993916.10377,313272.313272,107
1658993916.10377,313272.3132831,112
1658993916.10377,313272.3132961,119
1658993916.10377,313272.3133089,123
1658993916.10377,313272.3133231,126
1658993916.10377,313272.3133353,126
1658993916.10377,313272.3133404,126
1658993916.10377,313272.3133425,121
1658993916.10377,313272.313345,107
1658993916.10377,313272.3133522,92
1658993916.10377,313272.3133648,83
1658993916.10377,313272.3133745,97
1658993916.10377,313272.3133874,107
1658993916.10377,313272.3134005,95
1658993916.10377,313272.3134139,78
1658993916.10377,313272.3134272,73
1658993916.10377,313272.3134404,73
1658993916.10377,313272.3134535,73
1658993916.10377,313272.3134666,71
1658993916.10377,313272.3134796,73
1658993916.10377,313272.3134928,83
1658993916.10377,313272.3135059,90
1658993916.10377,313272.3135188,114
1658993916.10377,313272.3135318,145
1658993916.11274,313272.3135449,52
1658993916.11274,313272.313558,-247
1658993916.11274,313272.3135712,-650
1658993916.11274,313272.3135843,-813
1658993916.11274,313272.3135926,-364
1658993916.11274,313272.3135952,257
1658993916.11274,313272.3135973,321
1658993916.11274,313272.313604,114
1658993916.11274,313272.3136147,143
1658993916.11274,313272.8981904,207
1658993916.11274,313272.8982096,159
1658993916.11274,313272.898217,154
1658993916.11274,313272.8982234,178
1658993916.11274,313272.8982293,159
1658993916.11274,313272.898235,145
1658993916.11274,313272.8982383,154
1658993916.11274,313272.8982427,147
1658993916.11274,313272.8982476,133
1658993916.11274,313272.8982537,123
1658993916.11274,313272.8982611,102
1658993916.11274,313272.8982672,83
1658993916.11274,313272.8982719,76
1658993916.11274,313272.8982801,76
1658993916.11274,313272.8982839,76
1658993916.69184,313272.8982873,66
1658993916.69184,313272.8982903,47
1658993916.69184,313272.8982948,30
1658993916.69184,313272.8983009,38
1658993916.69184,313272.8983056,50
1658993916.69184,313272.8983123,47
1658993916.69184,313272.8983174,54
1658993916.69184,313272.8983206,69
1658993916.69184,313272.8983237,71
1658993916.69184,313272.8983268,78
1658993916.69184,313272.89833,97
1658993916.69184,313272.8983329,121
1658993916.69184,313272.8983357,147
1658993916.69184,313272.8983388,171
1658993916.69184,313272.8983419,181
1658993916.69184,313272.8983459,181
1658993916.69184,313272.8983549,190
1658993916.69184,313272.8983609,207
1658993916.69184,313272.8983651,209
1658993916.69184,313272.8983692,205
1658993916.69184,313272.8983731,200
1658993916.69184,313272.8983769,195
1658993916.69184,313272.898382,195
1658993916.69184,313272.8983882,200
1658993916.69184,313272.8983941,200
1658993916.69184,313272.898399,190
1658993916.69184,313272.8984038,188
1658993916.69184,313272.8984093,195
1658993916.69184,313272.898414,190
1658993916.69184,313272.898419,178
1658993916.69184,313272.8984253,176
1658993916.69184,313272.8984312,171
1658993916.69184,313272.8984386,162
1658993916.69184,313272.8984454,154
1658993916.69184,313272.8984515,152
1658993916.69184,313272.8984574,157
1658993916.69184,313272.8984643,166
1658993916.69184,313272.898474,176
1658993916.69184,313272.8984802,174
1658993916.69184,313272.8984859,164
1658993916.69184,313272.8984942,166
1658993916.69184,313272.8985017,171
1658993916.69184,313272.898506,176
1658993916.69184,313272.8985105,176
1658993916.69184,313272.8985146,171
1658993916.69184,313272.8985194,171
1658993916.69184,313272.8985236,171
1658993916.69184,313272.8985282,166
1658993916.69184,313272.8985367,166
1658993916.69184,313272.898544,164
1658993916.70381,313272.898552,159
1658993916.70381,313272.8985586,147
1658993916.70381,313272.8985669,114
1658993916.70381,313272.8985719,100
1658993916.70381,313272.8985807,133
1658993916.70381,313272.8985885,166
1658993916.70381,313272.898593,162
1658993916.70381,313272.8985992,147
1658993916.70381,313273.4829468,145
1658993916.70381,313273.4829676,143
1658993916.70381,313273.4829774,140
1658993916.70381,313273.4829823,140
1658993916.70381,313273.4829887,140
1658993916.70381,313273.4829936,135
1658993916.70381,313273.482997,138
1658993916.70381,313273.4830004,159
1658993916.70381,313273.4830039,178
1658993916.70381,313273.4830075,59
1658993916.70381,313273.4830112,-274
1658993916.70381,313273.4830147,-715
1658993916.70381,313273.4830182,-856
1658993916.70381,313273.4830216,-319
1658993916.70381,313273.483025,331
1658993916.70381,313273.4830284,329
1658993917.17761,313273.4830321,104
1658993917.17761,313273.4830365,166
1658993917.17761,313273.4830421,219
1658993917.17761,313273.4830468,147
1658993917.17761,313273.4830506,135
1658993917.17761,313273.4830548,150
1658993917.17761,313273.4830584,133
1658993917.17761,313273.4830621,131
1658993917.17761,313273.4830659,140
1658993917.17761,313273.4830697,121
1658993917.17761,313273.4830734,104
1658993917.17761,313273.4830778,107
1658993917.17761,313273.4830826,109
1658993917.17761,313273.4830886,92
1658993917.17761,313273.4830951,76
1658993917.17761,313273.4830988,76
1658993917.17761,313273.4831038,81
1658993917.17761,313273.4831077,76
1658993917.17761,313273.483111,64
1658993917.17761,313273.4831146,50
1658993917.17761,313273.4831179,45
1658993917.17761,313273.4831225,54
1658993917.17761,313273.4831273,61
1658993917.17761,313273.4831316,61
1658993917.17761,313273.483141,61
1658993917.17761,313273.4831503,69
1658993917.17761,313273.4831579,88
1658993917.17761,313273.4831661,112
1658993917.17761,313273.4831714,126
1658993917.17761,313273.4831777,143
1658993917.17761,313273.4831823,166
1658993917.17761,313273.4831869,178
1658993917.17761,313273.4831914,171
1658993917.17761,313273.4831958,188
1658993917.17761,313273.4832003,212
1658993917.17761,313273.4832049,209
1658993917.17761,313273.4832174,197
1658993917.17761,313273.4832301,197
1658993917.17761,313273.4832433,193
1658993917.17761,313273.4832558,181
1658993917.17761,313273.4832614,181
1658993917.17761,313273.4832641,181
1658993917.17761,313273.4832741,166
1658993917.17761,313273.4832851,152
1658993917.17761,313273.4832937,145
1658993917.17761,313273.483302,143
1658993917.17761,313273.4833086,145
1658993917.17761,313273.483317,150
1658993917.17761,313273.4833237,143
1658993917.17761,313273.483332,133
1658993917.18958,313273.4833377,138
1658993917.18958,313273.4833454,147
1658993917.18958,313273.4833508,138
1658993917.18958,313273.4833586,131
1658993917.18958,313273.4833654,135
1658993917.18958,313273.4833714,133
1658993917.18958,313273.4833771,128
1658993917.18958,313273.9701203,133
1658993917.18958,313273.9701411,131
1658993917.18958,313273.9701515,123
1658993917.18958,313273.9701567,123
1658993917.18958,313273.9701627,119
1658993917.18958,313273.970168,112
1658993917.18958,313273.9701749,123
1658993917.18958,313273.9701795,126
1658993917.18958,313273.970186,104
1658993917.18958,313273.9701925,83
1658993917.18958,313273.9701982,71
1658993917.18958,313273.970205,85
1658993917.18958,313273.9702104,107
1658993917.18958,313273.9702166,116
1658993917.18958,313273.9702229,119
1658993917.18958,313273.9702289,112
1658993917.18958,313273.9702341,97
1658993917.71287,313273.9702408,85
1658993917.71287,313273.9702465,85
1658993917.71287,313273.9702515,85
1658993917.71287,313273.9702554,85
1658993917.71287,313273.9702603,92
1658993917.71287,313273.9702641,114
1658993917.71287,313273.9702688,131
1658993917.71287,313273.9702735,42
1658993917.71287,313273.9702776,-252
1658993917.71287,313273.9702843,-693
1658993917.71287,313273.9702894,-927
1658993917.71287,313273.9702959,-515
1658993917.71287,313273.9703001,183
1658993917.71287,313273.9703062,324
1658993917.71287,313273.9703117,92
1658993917.71287,313273.970318,83
1658993917.71287,313273.9703246,157
1658993917.71287,313273.9703305,107
1658993917.71287,313273.9703358,90
1658993917.71287,313273.9703419,119
1658993917.71287,313273.9703475,107
1658993917.71287,313273.9703547,90
1658993917.71287,313273.9703588,90
1658993917.71287,313273.9703634,81
1658993917.71287,313273.9703695,71
1658993917.71287,313273.9703738,66
1658993917.71287,313273.9703799,69
1658993917.71287,313273.9703852,64
1658993917.71287,313273.9703915,50
1658993917.71287,313273.9703953,40
1658993917.71287,313273.970399,40
1658993917.71287,313273.9704041,30
1658993917.71287,313273.970408,28
1658993917.71287,313273.9704119,38
1658993917.71287,313273.9704155,38
1658993917.71287,313273.9704192,30
1658993917.71287,313273.9704256,28
1658993917.71287,313273.9704332,35
1658993917.71287,313273.9704409,45
1658993917.71287,313273.970448,54
1658993917.71287,313273.9704589,69
1658993917.71287,313273.9704631,83
1658993917.71287,313273.9704654,90
1658993917.71287,313273.9704675,104
1658993917.71287,313273.9704696,126
1658993917.71287,313273.9704718,143
1658993917.71287,313273.9704738,150
1658993917.71287,313273.9704758,152
1658993917.71287,313273.9704779,157
1658993917.71287,313273.97048,154
1658993917.72384,313273.970482,147
1658993917.72384,313273.970484,145
1658993917.72384,313273.970486,143
1658993917.72384,313273.9704881,135
1658993917.72384,313273.9704901,123
1658993917.72384,313273.9704922,107
1658993917.72384,313274.5071127,102
1658993917.72384,313274.5071284,107
1658993917.72384,313274.5071331,109
1658993917.72384,313274.5071398,107
1658993917.72384,313274.5071435,102
1658993917.72384,313274.5071473,107
1658993917.72384,313274.5071526,104
1658993917.72384,313274.5071572,76
1658993917.72384,313274.5071621,73
1658993917.72384,313274.5071655,102
1658993917.72384,313274.5071689,100
1658993917.72384,313274.5071811,83
1658993917.72384,313274.5071844,81
1658993917.72384,313274.5071878,66
1658993917.72384,313274.5071912,42
1658993917.72384,313274.5071964,50
1658993917.72384,313274.5071999,61
1658993917.72384,313274.5072046,50
1658993918.34504,313274.507208,38
1658993918.34504,313274.5072114,42
1658993918.34504,313274.5072146,52
1658993918.34504,313274.5072178,59
1658993918.34504,313274.5072211,61
1658993918.34504,313274.5072242,61
1658993918.34504,313274.507228,59
1658993918.34504,313274.5072312,42
1658993918.34504,313274.5072344,14
1658993918.34504,313274.5072376,7
1658993918.34504,313274.5072409,33
1658993918.34504,313274.5072441,59
1658993918.34504,313274.5072473,61
1658993918.34504,313274.5072504,61
1658993918.34504,313274.5072538,66
1658993918.34504,313274.5072587,69
1658993918.34504,313274.507264,71
1658993918.34504,313274.5072686,78
1658993918.34504,313274.5072737,90
1658993918.34504,313274.5072785,88
1658993918.34504,313274.5072818,76
1658993918.34504,313274.5072852,97
1658993918.34504,313274.5072886,147
1658993918.34504,313274.5072933,102
1658993918.34504,313274.5072968,-147
1658993918.34504,313274.5073002,-548
1658993918.34504,313274.5073035,-834
1658993918.34504,313274.5073078,-586
1658993918.34504,313274.5073112,78
1658993918.34504,313274.5073145,362
1658993918.34504,313274.5073178,164
1658993918.34504,313274.5073211,97
1658993918.34504,313274.5073245,185
1658993918.34504,313274.5073278,164
1658993918.34504,313274.5073312,123
1658993918.34504,313274.5073344,143
1658993918.34504,313274.5073378,143
1658993918.34504,313274.5073411,128
1658993918.34504,313274.5073444,126
1658993918.34504,313274.5073477,119
1658993918.34504,313274.507351,102
1658993918.34504,313274.5073542,102
1658993918.34504,313274.5073576,95
1658993918.34504,313274.507361,78
1658993918.34504,313274.5073644,81
1658993918.34504,313274.5073677,88
1658993918.34504,313274.507371,76
1658993918.34504,313274.5073742,61
1658993918.34504,313274.5073777,59
1658993918.34504,313274.507381,57
1658993918.35701,313274.5073844,57
1658993918.35701,313274.5073876,47
1658993918.35701,313274.507391,38
1658993918.35701,313274.5073943,45
1658993918.35701,313274.5073976,59
1658993918.35701,313275.1408595,64
1658993918.35701,313275.1408794,71
1658993918.35701,313275.1408948,85
1658993918.35701,313275.1409094,92
1658993918.35701,313275.1409228,95
1658993918.35701,313275.1409366,109
1658993918.35701,313275.1409499,114
1658993918.35701,313275.1409632,114
1658993918.35701,313275.1409749,123
1658993918.35701,313275.1409873,119
1658993918.35701,313275.1409931,95
1658993918.35701,313275.1409953,83
1658993918.35701,313275.1409975,90
1658993918.35701,313275.1409995,97
1658993918.35701,313275.1410016,88
1658993918.35701,313275.1410036,78
1658993918.35701,313275.1410057,69
1658993918.35701,313275.1410078,57
1658993918.35701,313275.1410154,59
1658993918.93348,313275.1410264,57
1658993918.93348,313275.1410294,52
1658993918.93348,313275.1410335,54
1658993918.93348,313275.141044,45
1658993918.93348,313275.1410559,42
1658993918.93348,313275.1410628,54
1658993918.93348,313275.1410696,54
1658993918.93348,313275.1410766,50
1658993918.93348,313275.1410832,59
1658993918.93348,313275.141094,69
1658993918.93348,313275.1410999,61
1658993918.93348,313275.1411096,52
1658993918.93348,313275.1411204,61
1658993918.93348,313275.1411313,76
1658993918.93348,313275.1411376,71
1658993918.93348,313275.1411412,69
1658993918.93348,313275.141155,76
1658993918.93348,313275.1412281,85
1658993918.93348,313275.1412461,83
1658993918.93348,313275.1412518,81
1658993918.93348,313275.141259,90
1658993918.93348,313275.1412632,97
1658993918.93348,313275.1412978,90
1658993918.93348,313275.1413059,88
1658993918.93348,313275.1413106,92
1658993918.93348,313275.1413167,90
1658993918.93348,313275.1413206,78
1658993918.93348,313275.1413257,69
1658993918.93348,313275.141329,69
1658993918.93348,313275.1413357,90
1658993918.93348,313275.1413392,116
1658993918.93348,313275.1413428,116
1658993918.93348,313275.141348,109
1658993918.93348,313275.1413537,116
1658993918.93348,313275.1413599,121
1658993918.93348,313275.1413637,121
1658993918.93348,313275.141369,123
1658993918.93348,313275.1413757,121
1658993918.93348,313275.1413819,119
1658993918.93348,313275.141386,123
1658993918.93348,313275.1413902,152
1658993918.93348,313275.1413948,183
1658993918.93348,313275.141403,90
1658993918.93348,313275.1414074,-209
1658993918.93348,313275.1414119,-612
1658993918.93348,313275.1414165,-767
1658993918.93348,313275.1414225,-326
1658993918.93348,313275.1414272,286
1658993918.93348,313275.1414314,352
1658993918.93348,313275.141436,150
1658993918.94545,313275.1414398,185
1658993918.94545,313275.1414442,250
1658993918.94545,313275.1414482,193
1658993918.94545,313275.1414582,178
1658993918.94545,313275.7256385,200
1658993918.94545,313275.7256665,178
1658993918.94545,313275.7256761,157
1658993918.94545,313275.7256839,159
1658993918.94545,313275.7256912,157
1658993918.94545,313275.7256956,152
1658993918.94545,313275.7256989,150
1658993918.94545,313275.7257062,138
1658993918.94545,313275.7257129,119
1658993918.94545,313275.7257179,114
1658993918.94545,313275.7257227,112
1658993918.94545,313275.7257274,95
1658993918.94545,313275.7257317,78
1658993918.94545,313275.7257368,59
1658993918.94545,313275.7257457,33
1658993918.94545,313275.7257513,35
1658993918.94545,313275.7257556,57
1658993918.94545,313275.7257593,64
1658993918.94545,313275.7257642,64
1658993918.94545,313275.7257682,61
1658993919.46606,313275.7257749,52
1658993919.46606,313275.7257788,61
1658993919.46606,313275.7257838,88
1658993919.46606,313275.7257876,107
1658993919.46606,313275.7257912,123
1658993919.46606,313275.725795,143
1658993919.46606,313275.7257991,154
1658993919.46606,313275.725803,169
1658993919.46606,313275.7258096,178
1658993919.46606,313275.725818,178
1658993919.46606,313275.7258238,178
1658993919.46606,313275.725833,185
1658993919.46606,313275.7258406,171
1658993919.46606,313275.7258479,154
1658993919.46606,313275.725855,159
1658993919.46606,313275.7258592,159
1658993919.46606,313275.7258646,154
1658993919.46606,313275.7258689,150
1658993919.46606,313275.7258732,140
1658993919.46606,313275.7258768,131
1658993919.46606,313275.7258821,126
1658993919.46606,313275.7258869,126
1658993919.46606,313275.7258923,133
1658993919.46606,313275.7258974,138
1658993919.46606,313275.7259037,133
1658993919.46606,313275.7259079,128
1658993919.46606,313275.7259135,135
1658993919.46606,313275.7259177,140
1658993919.46606,313275.725923,143
1658993919.46606,313275.7259277,147
1658993919.46606,313275.725937,150
1658993919.46606,313275.7259465,147
1658993919.46606,313275.725956,150
1658993919.46606,313275.7259602,152
1658993919.46606,313275.72597,150
1658993919.46606,313275.7259801,147
1658993919.46606,313275.7259864,150
1658993919.46606,313275.7259944,154
1658993919.46606,313275.7260044,159
1658993919.46606,313275.7260106,162
1658993919.46606,313275.7260206,164
1658993919.46606,313275.7260324,169
1658993919.46606,313275.7260405,166
1658993919.46606,313275.7260505,154
1658993919.46606,313275.7260584,138
1658993919.46606,313275.7260644,123
1658993919.46606,313275.7260739,123
1658993919.46606,313275.7260798,154
1658993919.46606,313275.726089,169
1658993919.46606,313275.726099,157
1658993919.47902,313275.7261049,157
1658993919.47902,313275.7261155,166
1658993919.47902,313275.7261242,157
1658993919.47902,313276.2621031,157
1658993919.47902,313276.262119,166
1658993919.47902,313276.2621243,162
1658993919.47902,313276.2621288,154
1658993919.47902,313276.2621332,157
1658993919.47902,313276.2621374,181
1658993919.47902,313276.2621417,188
1658993919.47902,313276.262146,30
1658993919.47902,313276.2621504,-340
1658993919.47902,313276.2621547,-774
1658993919.47902,313276.2621591,-822
1658993919.47902,313276.2621633,-190
1658993919.47902,313276.2621677,395
1658993919.47902,313276.2621757,305
1658993919.47902,313276.2621969,107
1658993919.47902,313276.2622007,188
1658993919.47902,313276.2622042,207
1658993919.47902,313276.2622076,126
1658993919.47902,313276.2622111,133
1658993919.47902,313276.2622144,159
1658993919.47902,313276.2622178,131
1658993920.0011,313276.2622211,121
1658993920.0011,313276.2622245,123
1658993920.0011,313276.2622278,109
1658993920.0011,313276.2622312,92
1658993920.0011,313276.2622346,90
1658993920.0011,313276.2622381,88
1658993920.0011,313276.2622415,78
1658993920.0011,313276.2622448,71
1658993920.0011,313276.2622482,59
1658993920.0011,313276.2622516,50
1658993920.0011,313276.2622549,45
1658993920.0011,313276.2622583,42
1658993920.0011,313276.2622617,42
1658993920.0011,313276.2622651,40
1658993920.0011,313276.2622685,38
1658993920.0011,313276.2622718,42
1658993920.0011,313276.2622751,45
1658993920.0011,313276.2622785,52
1658993920.0011,313276.2622819,64
1658993920.0011,313276.2622853,85
1658993920.0011,313276.2622887,107
1658993920.0011,313276.262292,119
1658993920.0011,313276.2622954,131
1658993920.0011,313276.2622988,157
1658993920.0011,313276.2623021,171
1658993920.0011,313276.2623055,176
1658993920.0011,313276.2623088,181
1658993920.0011,313276.2623122,183
1658993920.0011,313276.2623156,181
1658993920.0011,313276.2623191,178
1658993920.0011,313276.2623225,178
1658993920.0011,313276.2623259,176
1658993920.0011,313276.2623294,166
1658993920.0011,313276.2623327,150
1658993920.0011,313276.2623362,131
1658993920.0011,313276.2623398,126
1658993920.0011,313276.2623432,126
1658993920.0011,313276.2623466,116
1658993920.0011,313276.26235,114
1658993920.0011,313276.2623534,114
1658993920.0011,313276.2623569,102
1658993920.0011,313276.2623603,100
1658993920.0011,313276.2623638,112
1658993920.0011,313276.2623672,114
1658993920.0011,313276.2623706,112
1658993920.0011,313276.262374,114
1658993920.0011,313276.2623778,109
1658993920.0011,313276.2623813,107
1658993920.0011,313276.2623847,107
1658993920.0011,313276.2623881,95
1658993920.01207,313276.2623916,97
1658993920.01207,313276.2623951,100
1658993920.01207,313276.7981554,95
1658993920.01207,313276.7981706,95
1658993920.01207,313276.7981744,102
1658993920.01207,313276.79818,109
1658993920.01207,313276.7981837,119
1658993920.01207,313276.7981868,119
1658993920.01207,313276.7981897,85
1658993920.01207,313276.7981925,47
1658993920.01207,313276.7981954,42
1658993920.01207,313276.7981982,69
1658993920.01207,313276.7982011,88
1658993920.01207,313276.7982039,88
1658993920.01207,313276.7982063,85
1658993920.01207,313276.7982087,85
1658993920.01207,313276.798211,81
1658993920.01207,313276.7982157,88
1658993920.01207,313276.7982189,102
1658993920.01207,313276.7982312,104
1658993920.01207,313276.7982391,100
1658993920.01207,313276.7982453,83
1658993920.01207,313276.7982512,78
1658993920.01207,313276.7982555,116
1658993920.54259,313276.7982604,123
1658993920.54259,313276.7982672,-57
1658993920.54259,313276.7982742,-448
1658993920.54259,313276.7982808,-865
1658993920.54259,313276.7982877,-834
1658993920.54259,313276.7982933,-159
1658993920.54259,313276.7983038,360
1658993920.54259,313276.7983131,236
1658993920.54259,313276.7983266,76
1658993920.54259,313276.7983351,162
1658993920.54259,313276.7983376,181
1658993920.54259,313276.7983398,133
1658993920.54259,313276.798342,143
1658993920.54259,313276.7983442,150
1658993920.54259,313276.7983462,131
1658993920.54259,313276.7983516,128
1658993920.54259,313276.7983621,126
1658993920.54259,313276.7983691,114
1658993920.54259,313276.798374,107
1658993920.54259,313276.7983847,97
1658993920.54259,313276.7983887,83
1658993920.54259,313276.7983927,81
1658993920.54259,313276.7983947,83
1658993920.54259,313276.7983968,73
1658993920.54259,313276.7983988,52
1658993920.54259,313276.7984008,40
1658993920.54259,313276.7984028,47
1658993920.54259,313276.7984049,52
1658993920.54259,313276.7984069,42
1658993920.54259,313276.7984089,40
1658993920.54259,313276.7984109,50
1658993920.54259,313276.7984129,50
1658993920.54259,313276.7984149,50
1658993920.54259,313276.798417,59
1658993920.54259,313276.7984191,71
1658993920.54259,313276.7984211,85
1658993920.54259,313276.7984231,109
1658993920.54259,313276.7984252,126
1658993920.54259,313276.7984272,138
1658993920.54259,313276.7984292,145
1658993920.54259,313276.7984314,143
1658993920.54259,313276.7984337,135
1658993920.54259,313276.7984357,133
1658993920.54259,313276.7984377,133
1658993920.54259,313276.7984397,128
1658993920.54259,313276.7984417,123
1658993920.54259,313276.7984438,128
1658993920.54259,313276.7984459,121
1658993920.54259,313276.7984479,107
1658993920.54259,313276.7984499,100
1658993920.55356,313276.7984519,97
1658993920.55356,313277.3342501,92
1658993920.55356,313277.3342669,85
1658993920.55356,313277.3342718,78
1658993920.55356,313277.3342775,81
1658993920.55356,313277.3342821,71
1658993920.55356,313277.3342875,59
1658993920.55356,313277.3342917,64
1658993920.55356,313277.3342988,71
1658993920.55356,313277.3343048,71
1658993920.55356,313277.3343087,64
1658993920.55356,313277.3343122,50
1658993920.55356,313277.3343156,38
1658993920.55356,313277.3343206,45
1658993920.55356,313277.3343241,64
1658993920.55356,313277.3343289,71
1658993920.55356,313277.3343325,66
1658993920.55356,313277.3343361,40
1658993920.55356,313277.3343397,21
1658993920.55356,313277.3343436,38
1658993920.55356,313277.3343489,57
1658993920.55356,313277.334353,54
1658993920.55356,313277.3343579,59
1658993920.55356,313277.3343621,66
1658993921.07948,313277.3343656,52
1658993921.07948,313277.3343693,30
1658993921.07948,313277.3343728,28
1658993921.07948,313277.3343765,45
1658993921.07948,313277.33438,73
1658993921.07948,313277.3343834,85
1658993921.07948,313277.3343871,78
1658993921.07948,313277.334391,85
1658993921.07948,313277.3343946,97
1658993921.07948,313277.3343985,92
1658993921.07948,313277.334404,88
1658993921.07948,313277.334409,97
1658993921.07948,313277.3344127,97
1658993921.07948,313277.3344163,88
1658993921.07948,313277.33442,92
1658993921.07948,313277.3344238,123
1658993921.07948,313277.3344297,143
1658993921.07948,313277.3344337,16
1658993921.07948,313277.3344394,-321
1658993921.07948,313277.3344431,-732
1658993921.07948,313277.3344486,-813
1658993921.07948,313277.3344529,-271
1658993921.07948,313277.3344584,309
1658993921.07948,313277.3344622,290
1658993921.07948,313277.3344678,92
1658993921.07948,313277.3344741,152
1658993921.07948,313277.3344812,207
1658993921.07948,313277.3344851,157
1658993921.07948,313277.3344902,154
1658993921.07948,313277.3344942,171
1658993921.07948,313277.3344994,157
1658993921.07948,313277.3345031,147
1658993921.07948,313277.3345083,123
1658993921.07948,313277.3345124,95
1658993921.07948,313277.3345162,104
1658993921.07948,313277.3345214,109
1658993921.07948,313277.3345252,92
1658993921.07948,313277.3345307,85
1658993921.07948,313277.3345354,85
1658993921.07948,313277.3345427,78
1658993921.07948,313277.3345466,71
1658993921.07948,313277.3345521,69
1658993921.07948,313277.3345558,59
1658993921.07948,313277.3345608,47
1658993921.07948,313277.3345648,42
1658993921.07948,313277.3345698,45
1658993921.07948,313277.3345731,42
1658993921.07948,313277.3345781,30
1658993921.07948,313277.3345818,30
1658993921.07948,313277.3345867,45
1658993921.09144,313277.8728782,59
1658993921.09144,313277.872899,71
1658993921.09144,313277.8729155,85
1658993921.09144,313277.8729295,104
1658993921.09144,313277.8729443,121
1658993921.09144,313277.8729579,133
1658993921.09144,313277.8729659,131
1658993921.09144,313277.8729703,119
1658993921.09144,313277.8729735,116
1658993921.09144,313277.8729772,128
1658993921.09144,313277.8729832,123
1658993921.09144,313277.8730572,114
1658993921.09144,313277.8730739,107
1658993921.09144,313277.8730895,90
1658993921.09144,313277.8731017,71
1658993921.09144,313277.873114,64
1658993921.09144,313277.8731271,61
1658993921.09144,313277.8731405,52
1658993921.09144,313277.8731545,54
1658993921.09144,313277.8731686,64
1658993921.09144,313277.873182,59
1658993921.09144,313277.8731949,59
1658993921.09144,313277.8732079,69
1658993921.09144,313277.8732342,71
1658993921.71086,313277.8732485,78
1658993921.71086,313277.873257,83
1658993921.71086,313277.8732623,81
1658993921.71086,313277.8732673,81
1658993921.71086,313277.8732715,83
1658993921.71086,313277.8732753,83
1658993921.71086,313277.8732791,88
1658993921.71086,313277.8732827,92
1658993921.71086,313277.8732864,97
1658993921.71086,313277.87329,102
1658993921.71086,313277.8732937,104
1658993921.71086,313277.8732973,112
1658993921.71086,313277.8733008,121
1658993921.71086,313277.8733043,126
1658993921.71086,313277.8733078,123
1658993921.71086,313277.8733115,126
1658993921.71086,313277.8733152,131
1658993921.71086,313277.8733204,119
1658993921.71086,313277.873324,97
1658993921.71086,313277.8733276,92
1658993921.71086,313277.873333,109
1658993921.71086,313277.8733366,140
1658993921.71086,313277.8733417,150
1658993921.71086,313277.8733453,133
1658993921.71086,313277.8733518,121
1658993921.71086,313277.8733649,126
1658993921.71086,313277.8733778,131
1658993921.71086,313277.8733908,128
1658993921.71086,313277.8734041,131
1658993921.71086,313277.8734175,135
1658993921.71086,313277.8734309,135
1658993921.71086,313277.8734441,145
1658993921.71086,313277.8734573,183
1658993921.71086,313277.8734704,164
1658993921.71086,313277.8734837,-42
1658993921.71086,313277.8734967,-431
1658993921.71086,313277.873509,-791
1658993921.71086,313277.8735185,-662
1658993921.71086,313277.8735307,4
1658993921.71086,313277.8735397,398
1658993921.71086,313277.8735471,224
1658993921.71086,313277.8735547,112
1658993921.71086,313277.8735607,209
1658993921.71086,313277.8735699,214
1658993921.71086,313277.8735753,176
1658993921.71086,313277.8735831,197
1658993921.71086,313277.87359,190
1658993921.71086,313277.8736,159
1658993921.71086,313277.8736091,159
1658993921.71086,313278.5055772,164
1658993921.72183,313278.5055937,152
1658993921.72183,313278.505598,135
1658993921.72183,313278.5056031,114
1658993921.72183,313278.5056066,95
1658993921.72183,313278.5056114,90
1658993921.72183,313278.5056147,90
1658993921.72183,313278.5056193,81
1658993921.72183,313278.5056227,73
1658993921.72183,313278.5056261,66
1658993921.72183,313278.5056299,47
1658993921.72183,313278.5056351,47
1658993921.72183,313278.5057219,69
1658993921.72183,313278.5057317,71
1658993921.72183,313278.5057369,61
1658993921.72183,313278.5057429,61
1658993921.72183,313278.5057473,52
1658993921.72183,313278.5057529,42
1658993921.72183,313278.5057576,57
1658993921.72183,313278.5057621,76
1658993921.72183,313278.505766,90
1658993921.72183,313278.5057718,114
1658993921.72183,313278.5057762,135
1658993921.72183,313278.5057798,135
1658993921.72183,313278.505785,140
1658993922.24294,313278.5057881,157
1658993922.24294,313278.5057912,169
1658993922.24294,313278.5057942,174
1658993922.24294,313278.5057974,166
1658993922.24294,313278.5058006,154
1658993922.24294,313278.5058038,150
1658993922.24294,313278.5058067,150
1658993922.24294,313278.5058095,145
1658993922.24294,313278.5058125,131
1658993922.24294,313278.5058154,121
1658993922.24294,313278.5058182,121
1658993922.24294,313278.505821,121
1658993922.24294,313278.5058238,119
1658993922.24294,313278.5058265,119
1658993922.24294,313278.5058293,121
1658993922.24294,313278.505832,126
1658993922.24294,313278.5058347,116
1658993922.24294,313278.5058374,104
1658993922.24294,313278.5058405,104
1658993922.24294,313278.5058435,116
1658993922.24294,313278.5058464,116
1658993922.24294,313278.5058493,119
1658993922.24294,313278.5058523,128
1658993922.24294,313278.5058554,128
1658993922.24294,313278.5058685,121
1658993922.24294,313278.5058797,121
1658993922.24294,313278.5058846,116
1658993922.24294,313278.5058875,121
1658993922.24294,313278.5058905,135
1658993922.24294,313278.5059013,138
1658993922.24294,313278.5059091,131
1658993922.24294,313278.5059185,123
1658993922.24294,313278.505929,116
1658993922.24294,313278.5059393,104
1658993922.24294,313278.5059463,107
1658993922.24294,313278.5059493,135
1658993922.24294,313278.5059576,154
1658993922.24294,313278.5059696,145
1658993922.24294,313278.5060122,135
1658993922.24294,313278.506018,143
1658993922.24294,313278.5060224,147
1658993922.24294,313278.5060274,152
1658993922.24294,313278.5060321,145
1658993922.24294,313278.5060362,140
1658993922.24294,313278.5060423,150
1658993922.24294,313278.506046,159
1658993922.24294,313278.5060533,188
1658993922.24294,313278.5060589,202
1658993922.24294,313279.0403931,66
1658993922.24294,313279.0404137,-286
1658993922.25292,313279.0404214,-724
1658993922.25292,313279.0404262,-834
1658993922.25292,313279.0404329,-255
1658993922.25292,313279.0404371,391
1658993922.25292,313279.0404418,367
1658993922.25292,313279.0404464,143
1658993922.25292,313279.0404507,205
1658993922.25292,313279.0404552,245
1658993922.25292,313279.0404597,171
1658993922.25292,313279.0404635,174
1658993922.25292,313279.040468,195
1658993922.25292,313279.0404725,157
1658993922.25292,313279.040477,138
1658993922.25292,313279.0404836,150
1658993922.25292,313279.0404884,133
1658993922.25292,313279.0404936,114
1658993922.25292,313279.040498,112
1658993922.25292,313279.0405034,88
1658993922.25292,313279.040507,54
1658993922.25292,313279.0405106,54
1658993922.25292,313279.0405145,59
1658993922.25292,313279.0405198,52
1658993922.25292,313279.0405274,42
1658993922.25292,313279.0405355,26
1658993922.78809,313279.0405403,14
1658993922.78809,313279.0405437,14
1658993922.78809,313279.0405467,19
1658993922.78809,313279.0405502,21
1658993922.78809,313279.0405531,30
1658993922.78809,313279.0405563,35
1658993922.78809,313279.0405593,40
1658993922.78809,313279.0405627,45
1658993922.78809,313279.0405659,54
1658993922.78809,313279.0405692,71
1658993922.78809,313279.0405728,88
1658993922.78809,313279.0405777,100
1658993922.78809,313279.0405832,107
1658993922.78809,313279.0405897,121
1658993922.78809,313279.0405962,138
1658993922.78809,313279.0406005,138
1658993922.78809,313279.0406039,126
1658993922.78809,313279.040607,119
1658993922.78809,313279.0406115,123
1658993922.78809,313279.0406157,116
1658993922.78809,313279.0406199,107
1658993922.78809,313279.040629,114
1658993922.78809,313279.0406905,123
1658993922.78809,313279.0407021,112
1658993922.78809,313279.0407122,97
1658993922.78809,313279.0407208,97
1658993922.78809,313279.0407279,102
1658993922.78809,313279.0407344,92
1658993922.78809,313279.0407408,88
1658993922.78809,313279.0407447,92
1658993922.78809,313279.040751,95
1658993922.78809,313279.0407544,97
1658993922.78809,313279.0407604,100
1658993922.78809,313279.0407637,97
1658993922.78809,313279.0407694,102
1658993922.78809,313279.0407728,102
1658993922.78809,313279.0407804,95
1658993922.78809,313279.0407873,100
1658993922.78809,313279.0407933,109
1658993922.78809,313279.0407996,109
1658993922.78809,313279.0408067,114
1658993922.78809,313279.0408135,119
1658993922.78809,313279.0408177,119
1658993922.78809,313279.0408237,119
1658993922.78809,313279.0408271,123
1658993922.78809,313279.0408323,128
1658993922.78809,313279.0408389,121
1658993922.78809,313279.577082,104
1658993922.78809,313279.5771022,78
1658993922.78809,313279.577111,69
1658993922.79707,313279.5771208,90
1658993922.79707,313279.5771279,114
1658993922.79707,313279.5771404,112
1658993922.79707,313279.5771515,107
1658993922.79707,313279.577159,114
1658993922.79707,313279.5771718,119
1658993922.79707,313279.5771805,107
1658993922.79707,313279.5771903,85
1658993922.79707,313279.5772014,78
1658993922.79707,313279.5772093,92
1658993922.79707,313279.577221,100
1658993922.79707,313279.5772336,116
1658993922.79707,313279.5772414,143
1658993922.79707,313279.5772486,64
1658993922.79707,313279.5772561,-224
1658993922.79707,313279.5772616,-655
1658993922.79707,313279.5772667,-937
1658993922.79707,313279.5772705,-586
1658993922.79707,313279.577274,138
1658993922.79707,313279.5772777,333
1658993922.79707,313279.577282,97
1658993922.79707,313279.5772859,88
1658993922.79707,313279.5772938,174
1658993922.79707,313279.5772996,119
1658993923.41982,313279.577307,97
1658993923.41982,313279.5773136,126

1658993923.41982,313279.577318,109
1658993923.41982,313279.5773233,88
1658993923.41982,313279.5773306,92
1658993923.41982,313279.5773374,90
1658993923.41982,313279.5773442,81
1658993923.41982,313279.577348,66
1658993923.41982,313279.577351,57
1658993923.41982,313279.5773564,52
1658993923.41982,313279.5773597,50
1658993923.41982,313279.5773633,45
1658993923.41982,313279.5773664,45
1658993923.41982,313279.5773696,38
1658993923.41982,313279.5773733,28
1658993923.41982,313279.577377,30
1658993923.41982,313279.5773802,28
1658993923.41982,313279.5773845,23
1658993923.41982,313279.577388,33
1658993923.41982,313279.5773915,42
1658993923.41982,313279.577395,42
1658993923.41982,313279.5773989,42
1658993923.41982,313279.5774026,52
1658993923.41982,313279.5774063,76
1658993923.41982,313279.5774098,92
1658993923.41982,313279.5774133,102
1658993923.41982,313279.577417,116
1658993923.41982,313279.5774233,126
1658993923.41982,313279.5774266,123
1658993923.41982,313279.5774298,131
1658993923.41982,313279.5774332,143
1658993923.41982,313279.5774367,150
1658993923.41982,313279.5774404,145
1658993923.41982,313279.5774442,135
1658993923.41982,313279.5774479,123
1658993923.41982,313279.5774516,116
1658993923.41982,313279.5774553,116
1658993923.41982,313279.5774605,121
1658993923.41982,313279.5774639,109
1658993923.41982,313279.5774688,92
1658993923.41982,313279.5774726,83
1658993923.41982,313279.5774762,88
1658993923.41982,313279.5774798,95
1658993923.41982,313279.577484,97
1658993923.41982,313279.5774882,102
1658993923.41982,313279.5774917,90
1658993923.41982,313280.2115475,66
1658993923.41982,313280.2115619,73
1658993923.41982,313280.2115684,92
1658993923.41982,313280.211576,92
1658993923.43079,313280.2115803,88
1658993923.43079,313280.2115849,83
1658993923.43079,313280.2115907,71
1658993923.43079,313280.2115952,57
1658993923.43079,313280.2116009,61
1658993923.43079,313280.2116059,71
1658993923.43079,313280.2116117,69
1658993923.43079,313280.2116169,71
1658993923.43079,313280.2116225,71
1658993923.43079,313280.2116289,57
1658993923.43079,313280.2116346,50
1658993923.43079,313280.2116402,54
1658993923.43079,313280.2116459,57
1658993923.43079,313280.2116501,42
1658993923.43079,313280.2116547,14
1658993923.43079,313280.211659,2
1658993923.43079,313280.2116633,33
1658993923.43079,313280.2116676,64
1658993923.43079,313280.2116719,61
1658993923.43079,313280.2116762,54
1658993923.43079,313280.2116804,54
1658993923.43079,313280.2116847,47
1658993923.43079,313280.2116891,45
1658993923.43079,313280.2116933,57
1658993923.95126,313280.2116976,66
1658993923.95126,313280.2117019,66
1658993923.95126,313280.2117062,73
1658993923.95126,313280.2117104,104
1658993923.95126,313280.2117146,123
1658993923.95126,313280.211719,-4
1658993923.95126,313280.2117233,-343
1658993923.95126,313280.2117276,-763
1658993923.95126,313280.211732,-865
1658993923.95126,313280.2117363,-319
1658993923.95126,313280.2117414,290
1658993923.95126,313280.2117478,276
1658993923.95126,313280.2117521,85
1658993923.95126,313280.2117564,147
1658993923.95126,313280.2117622,193
1658993923.95126,313280.2117666,143
1658993923.95126,313280.2117726,143
1658993923.95126,313280.211777,154
1658993923.95126,313280.2117827,138
1658993923.95126,313280.2117871,131
1658993923.95126,313280.2117931,123
1658993923.95126,313280.2117974,121
1658993923.95126,313280.2118031,119
1658993923.95126,313280.2118075,104
1658993923.95126,313280.2118118,95
1658993923.95126,313280.2118162,92
1658993923.95126,313280.2118219,83
1658993923.95126,313280.2118263,76
1658993923.95126,313280.211832,76
1658993923.95126,313280.2118363,57
1658993923.95126,313280.2118408,45
1658993923.95126,313280.2118451,50
1658993923.95126,313280.2118509,47
1658993923.95126,313280.2118553,45
1658993923.95126,313280.211861,50
1658993923.95126,313280.2118654,52
1658993923.95126,313280.2118697,57
1658993923.95126,313280.2118753,61
1658993923.95126,313280.2118797,66
1658993923.95126,313280.2118853,83
1658993923.95126,313280.2118896,107
1658993923.95126,313280.211894,116
1658993923.95126,313280.2118984,123
1658993923.95126,313280.2119042,133
1658993923.95126,313280.2119085,145
1658993923.95126,313280.7471321,152
1658993923.95126,313280.7471454,150
1658993923.95126,313280.7471482,143
1658993923.95126,313280.7471505,140
1658993923.95126,313280.7471526,135
1658993923.96323,313280.7471547,131
1658993923.96323,313280.7471568,131
1658993923.96323,313280.7471588,126
1658993923.96323,313280.7471608,121
1658993923.96323,313280.747163,119
1658993923.96323,313280.747165,114
1658993923.96323,313280.7471671,97
1658993923.96323,313280.7471691,85
1658993923.96323,313280.7471712,85
1658993923.96323,313280.7471732,90
1658993923.96323,313280.7471753,76
1658993923.96323,313280.7471773,47
1658993923.96323,313280.7471793,38
1658993923.96323,313280.7471816,50
1658993923.96323,313280.7471847,54
1658993923.96323,313280.7471954,52
1658993923.96323,313280.7472046,54
1658993923.96323,313280.7472071,45
1658993923.96323,313280.7472094,33
1658993923.96323,313280.7472171,45
1658993923.96323,313280.7472288,57
1658993923.96323,313280.7472425,52
1658993923.96323,313280.7472567,52
1658993923.96323,313280.7472713,59
1658993924.44302,313280.747282,59
1658993924.44302,313280.7472855,57
1658993924.44302,313280.7472883,61
1658993924.44302,313280.7472921,71
1658993924.44302,313280.747302,64
1658993924.44302,313280.7473136,47
1658993924.44302,313280.7473213,42
1658993924.44302,313280.7473307,54
1658993924.44302,313280.7473456,81
1658993924.44302,313280.747358,95
1658993924.44302,313280.7473644,90
1658993924.44302,313280.7473721,95
1658993924.44302,313280.7473869,100
1658993924.44302,313280.7473972,92
1658993924.44302,313280.7474064,95
1658993924.44302,313280.7474131,104
1658993924.44302,313280.7474198,109
1658993924.44302,313280.7474265,107
1658993924.44302,313280.7474305,119
1658993924.44302,313280.7474342,147
1658993924.44302,313280.747438,128
1658993924.44302,313280.7474436,-61
1658993924.44302,313280.7474473,-445
1658993924.44302,313280.7474535,-810
1658993924.44302,313280.7474575,-689
1658993924.44302,313280.7474623,-23
1658993924.44302,313280.7474669,379
1658993924.44302,313280.7474746,219
1658993924.44302,313280.7474812,109
1658993924.44302,313280.7474905,202
1658993924.44302,313280.7474974,200
1658993924.44302,313280.7475038,150
1658993924.44302,313280.7475131,166
1658993924.44302,313280.7475187,174
1658993924.44302,313280.7475245,150
1658993924.44302,313280.7475277,143
1658993924.44302,313280.7475307,140
1658993924.44302,313280.7475338,128
1658993924.44302,313280.7475367,121
1658993924.44302,313280.7475397,119
1658993924.44302,313280.7475426,107
1658993924.44302,313280.7475456,100
1658993924.44302,313280.7475485,102
1658993924.44302,313280.7475514,102
1658993924.44302,313281.236109,92
1658993924.44302,313281.236133,83
1658993924.44302,313281.2361426,71
1658993924.44302,313281.2361467,52
1658993924.44302,313281.2361513,42
1658993924.44302,313281.2361551,42
1658993924.45399,313281.2361589,42
1658993924.45399,313281.2361622,45
1658993924.45399,313281.2361658,50
1658993924.45399,313281.2361691,52
1658993924.45399,313281.2361728,66
1658993924.45399,313281.2361769,92
1658993924.45399,313281.2361807,104
1658993924.45399,313281.2361845,97
1658993924.45399,313281.2361885,102
1658993924.45399,313281.2361924,126
1658993924.45399,313281.236196,126
1658993924.45399,313281.2361995,123
1658993924.45399,313281.2362029,135
1658993924.45399,313281.2362063,121
1658993924.45399,313281.2362098,88
1658993924.45399,313281.2362134,88
1658993924.45399,313281.236217,100
1658993924.45399,313281.2362208,92
1658993924.45399,313281.2362262,85
1658993924.45399,313281.2362299,85
1658993924.45399,313281.2362334,88
1658993924.45399,313281.2362372,90
1658993924.45399,313281.2362408,92
1658993924.45399,313281.2362451,92
1658993925.07232,313281.2362489,88
1658993925.07232,313281.2362528,81
1658993925.07232,313281.2362564,83
1658993925.07232,313281.2362602,92
1658993925.07232,313281.2362641,90
1658993925.07232,313281.2362679,85
1658993925.07232,313281.2362721,95
1658993925.07232,313281.2362769,104
1658993925.07232,313281.23628,100
1658993925.07232,313281.2362832,90
1658993925.07232,313281.2362864,92
1658993925.07232,313281.2362895,102
1658993925.07232,313281.2362927,102
1658993925.07232,313281.2362958,104
1658993925.07232,313281.2362987,112
1658993925.07232,313281.2363044,116
1658993925.07232,313281.2363118,119
1658993925.07232,313281.2363171,121
1658993925.07232,313281.2363214,116
1658993925.07232,313281.236325,107
1658993925.07232,313281.2363296,97
1658993925.07232,313281.2363333,92
1658993925.07232,313281.2363366,119
1658993925.07232,313281.2363395,143
1658993925.07232,313281.2363425,138
1658993925.07232,313281.2363457,135
1658993925.07232,313281.2363493,145
1658993925.07232,313281.2363528,145
1658993925.07232,313281.2363564,145
1658993925.07232,313281.23636,154
1658993925.07232,313281.2363632,152
1658993925.07232,313281.2363664,147
1658993925.07232,313281.2363696,169
1658993925.07232,313281.236373,197
1658993925.07232,313281.2363764,200
1658993925.07232,313281.2363797,73
1658993925.07232,313281.236383,-257
1658993925.07232,313281.2363863,-677
1658993925.07232,313281.2363894,-765
1658993925.07232,313281.2363928,-216
1658993925.07232,313281.2363962,369
1658993925.07232,313281.2363995,329
1658993925.07232,313281.2364028,126
1658993925.07232,313281.8677994,200
1658993925.07232,313281.8678127,255
1658993925.07232,313281.8678177,188
1658993925.07232,313281.8678224,176
1658993925.07232,313281.8678245,188
1658993925.07232,313281.8678273,169
1658993925.07232,313281.8678293,164
1658993925.08326,313281.8678314,171
1658993925.08326,313281.8678334,152
1658993925.08326,313281.8678354,123
1658993925.08326,313281.8678375,107
1658993925.08326,313281.8678399,104
1658993925.08326,313281.8678419,102
1658993925.08326,313281.8678445,102
1658993925.08326,313281.8678511,90
1658993925.08326,313281.867861,61
1658993925.08326,313281.8678671,45
1658993925.08326,313281.8678776,50
1658993925.08326,313281.8678852,52
1658993925.08326,313281.8678934,54
1658993925.08326,313281.8679043,54
1658993925.08326,313281.8679078,50
1658993925.08326,313281.8679116,52
1658993925.08326,313281.8679137,64
1658993925.08326,313281.8679194,76
1658993925.08326,313281.8679312,83
1658993925.08326,313281.8679366,97
1658993925.08326,313281.8679387,116
1658993925.08326,313281.8679408,138
1658993925.08326,313281.867943,152
1658993925.08326,313281.8679454,159
1658993925.61003,313281.8679531,162
1658993925.61003,313281.8679624,166
1658993925.61003,313281.8679653,169
1658993925.61003,313281.8679675,162
1658993925.61003,313281.8679694,164
1658993925.61003,313281.8679715,171
1658993925.61003,313281.8679776,159
1658993925.61003,313281.8679866,145
1658993925.61003,313281.8679961,143
1658993925.61003,313281.8680077,147
1658993925.61003,313281.8680183,147
1658993925.61003,313281.8680218,147
1658993925.61003,313281.8680254,147
1658993925.61003,313281.8680274,157
1658993925.61003,313281.8680308,166
1658993925.61003,313281.868044,169
1658993925.61003,313281.8680499,169
1658993925.61003,313281.8680522,162
1658993925.61003,313281.8680542,154
1658993925.61003,313281.8680562,150
1658993925.61003,313281.8680584,145
1658993925.61003,313281.8680661,143
1658993925.61003,313281.8680771,147
1658993925.61003,313281.8680817,145
1658993925.61003,313281.8680848,145
1658993925.61003,313281.8680869,147
1658993925.61003,313281.8680926,154
1658993925.61003,313281.8681043,152
1658993925.61003,313281.8681096,150
1658993925.61003,313281.8681127,154
1658993925.61003,313281.8681148,140
1658993925.61003,313281.8681168,104
1658993925.61003,313281.8681188,88
1658993925.61003,313281.8681208,121
1658993925.61003,313281.8681228,150
1658993925.61003,313281.8681264,140
1658993925.61003,313281.8681397,135
1658993925.61003,313281.8681452,152
1658993925.61003,313281.868148,159
1658993925.61003,313281.86815,157
1658993925.61003,313281.8681535,162
1658993925.61003,313281.8681669,162
1658993925.61003,313282.4069391,159
1658993925.61003,313282.4069601,174
1658993925.61003,313282.4069709,205
1658993925.61003,313282.406979,236
1658993925.61003,313282.406987,164
1658993925.61003,313282.4069951,-145
1658993925.61003,313282.4070027,-643
1658993925.61003,313282.4070087,-958
1658993925.62,313282.4070117,-543
1658993925.62,313282.407015,283
1658993925.62,313282.4070217,488
1658993925.62,313282.4070287,207
1658993925.62,313282.4070371,188
1658993925.62,313282.407053,269
1658993925.62,313282.4070617,202
1658993925.62,313282.4070682,185
1658993925.62,313282.4070768,221
1658993925.62,313282.4070853,202
1658993925.62,313282.4070937,181
1658993925.62,313282.4071002,166
1658993925.62,313282.4071033,126
1658993925.62,313282.4071063,107
1658993925.62,313282.4071092,121
1658993925.62,313282.4071122,119
1658993925.62,313282.4071151,97
1658993925.62,313282.4071181,78
1658993925.62,313282.407121,69
1658993925.62,313282.4071239,66
1658993925.62,313282.4071268,66
1658993925.62,313282.4071298,61
1658993925.62,313282.4071346,59
1658993925.62,313282.4071441,61
1658993926.15091,313282.4071706,57
1658993926.15091,313282.4072873,57
1658993926.15091,313282.4072965,69
1658993926.15091,313282.4073015,76
1658993926.15091,313282.4073079,88
1658993926.15091,313282.4073126,104
1658993926.15091,313282.4073176,121
1658993926.15091,313282.4073223,140
1658993926.15091,313282.4073272,159
1658993926.15091,313282.4073319,176
1658993926.15091,313282.4073365,190
1658993926.15091,313282.4073408,197
1658993926.15091,313282.4073449,195
1658993926.15091,313282.4073491,188
1658993926.15091,313282.4075071,181
1658993926.15091,313282.4075174,185
1658993926.15091,313282.4075246,188
1658993926.15091,313282.4075313,178
1658993926.15091,313282.4075364,164
1658993926.15091,313282.4075445,157
1658993926.15091,313282.4075493,157
1658993926.15091,313282.4075556,147
1658993926.15091,313282.4075613,116
1658993926.15091,313282.4075654,90
1658993926.15091,313282.4075699,92
1658993926.15091,313282.4075745,102
1658993926.15091,313282.4075789,112
1658993926.15091,313282.4075849,123
1658993926.15091,313282.4075891,128
1658993926.15091,313282.4075951,126
1658993926.15091,313282.407601,116
1658993926.15091,313282.4076068,104
1658993926.15091,313282.407611,102
1658993926.15091,313282.4076176,102
1658993926.15091,313282.407622,102
1658993926.15091,313282.4077194,107
1658993926.15091,313282.4077302,116
1658993926.15091,313282.4077353,119
1658993926.15091,313282.4077418,107
1658993926.15091,313282.4077475,90
1658993926.15091,313282.4077525,81
1658993926.15091,313282.940593,95
1658993926.15091,313282.9406189,109
1658993926.15091,313282.9406285,114
1658993926.15091,313282.940637,119
1658993926.15091,313282.9406433,116
1658993926.15091,313282.9406491,112
1658993926.15091,313282.9406583,114
1658993926.15091,313282.9406646,119
1658993926.15091,313282.9406701,126
1658993926.16288,313282.9406783,119
1658993926.16288,313282.9406848,109
1658993926.16288,313282.9406936,154
1658993926.16288,313282.9406997,171
1658993926.16288,313282.940708,-33
1658993926.16288,313282.9407145,-479
1658993926.16288,313282.9407227,-939
1658993926.16288,313282.9407305,-894
1658993926.16288,313282.9407386,-162
1658993926.16288,313282.9407455,376
1658993926.16288,313282.9407536,216
1658993926.16288,313282.9407596,73
1658993926.16288,313282.940768,207
1658993926.16288,313282.9407763,200
1658993926.16288,313282.9407825,88
1658993926.16288,313282.9407907,104
1658993926.16288,313282.9407968,138
1658993926.16288,313282.9408044,107
1658993926.16288,313282.9408117,95
1658993926.16288,313282.9408194,97
1658993926.16288,313282.940824,85
1658993926.16288,313282.9408329,54
1658993926.16288,313282.94084,33
1658993926.16288,313282.9408464,64
1658993926.7317,313282.9408546,90
1658993926.7317,313282.9408596,59
1658993926.7317,313282.9408655,19
1658993926.7317,313282.9408699,9
1658993926.7317,313282.9408757,-4
1658993926.7317,313282.9408802,-14
1658993926.7317,313282.9408863,16
1658993926.7317,313282.940891,38
1658993926.7317,313282.940896,16
1658993926.7317,313282.9409014,4
1658993926.7317,313282.9409068,19
1658993926.7317,313282.9409172,26
1658993926.7317,313282.9409261,23
1658993926.7317,313282.940935,35
1658993926.7317,313282.9409397,50
1658993926.7317,313282.9409503,40
1658993926.7317,313282.9409554,45
1658993926.7317,313282.9409577,88
1658993926.7317,313282.940964,104
1658993926.7317,313282.9409752,92
1658993926.7317,313282.9409833,123
1658993926.7317,313282.9409907,135
1658993926.7317,313282.9410047,102
1658993926.7317,313282.941019,92
1658993926.7317,313282.9410277,104
1658993926.7317,313282.9410337,97
1658993926.7317,313282.9410424,88
1658993926.7317,313282.9410513,92
1658993926.7317,313282.9410552,88
1658993926.7317,313282.9410582,76
1658993926.7317,313282.9410612,73
1658993926.7317,313282.9410643,95
1658993926.7317,313282.9410674,121
1658993926.7317,313282.9410705,121
1658993926.7317,313282.9410736,100
1658993926.7317,313282.9410767,92
1658993926.7317,313282.9410801,92
1658993926.7317,313282.9410833,83
1658993926.7317,313282.9410867,88
1658993926.7317,313282.94109,109
1658993926.7317,313283.5261153,131
1658993926.7317,313283.5261352,166
1658993926.7317,313283.5261433,162
1658993926.7317,313283.52615,71
1658993926.7317,313283.5261559,35
1658993926.7317,313283.5261634,73
1658993926.7317,313283.5261703,40
1658993926.7317,313283.526179,0
1658993926.7317,313283.5261863,21
1658993926.7317,313283.5261938,35
1658993926.74267,313283.526199,38
1658993926.74267,313283.5262079,69
1658993926.74267,313283.5262154,73
1658993926.74267,313283.5262249,19
1658993926.74267,313283.5262334,-2
1658993926.74267,313283.5262371,26
1658993926.74267,313283.5262393,30
1658993926.74267,313283.5262413,28
1658993926.74267,313283.5262443,35
1658993926.74267,313283.5262522,30
1658993926.74267,313283.5262596,83
1658993926.74267,313283.526269,157
1658993926.74267,313283.5262777,61
1658993926.74267,313283.5262857,-286
1658993926.74267,313283.5262903,-763
1658993926.74267,313283.5262937,-1001
1658993926.74267,313283.5263074,-548
1658993926.74267,313283.5263192,195
1658993926.74267,313283.5263268,355
1658993926.74267,313283.5263329,126
1658993926.74267,313283.5263372,133
1658993926.74267,313283.5263427,221
1658993926.74267,313283.5263464,178
1658993926.74267,313283.5263499,169
1658993927.26484,313283.5263548,193
1658993927.26484,313283.5263581,154
1658993927.26484,313283.5263613,133
1658993927.26484,313283.5263642,147
1658993927.26484,313283.5263673,138
1658993927.26484,313283.5263704,107
1658993927.26484,313283.5263736,90
1658993927.26484,313283.5263767,90
1658993927.26484,313283.5263798,81
1658993927.26484,313283.5263829,61
1658993927.26484,313283.526386,52
1658993927.26484,313283.5263904,47
1658993927.26484,313283.5263934,42
1658993927.26484,313283.5263967,38
1658993927.26484,313283.5264,33
1658993927.26484,313283.5264033,28
1658993927.26484,313283.5264067,26
1658993927.26484,313283.52641,26
1658993927.26484,313283.5264134,38
1658993927.26484,313283.526417,42
1658993927.26484,313283.5264202,45
1658993927.26484,313283.5264234,59
1658993927.26484,313283.5264268,76
1658993927.26484,313283.5264321,88
1658993927.26484,313283.5264404,97
1658993927.26484,313283.5264505,116
1658993927.26484,313283.5264613,145
1658993927.26484,313283.526466,166
1658993927.26484,313283.5264704,171
1658993927.26484,313283.5264737,171
1658993927.26484,313283.52648,164
1658993927.26484,313283.5264888,152
1658993927.26484,313283.5264961,152
1658993927.26484,313283.5265004,154
1658993927.26484,313283.5265037,147
1658993927.26484,313283.526511,131
1658993927.26484,313283.526519,119
1658993927.26484,313283.5265233,114
1658993927.26484,313283.5265266,116
1658993927.26484,313284.0623614,123
1658993927.26484,313284.0623814,147
1658993927.26484,313284.0623919,157
1658993927.26484,313284.0623978,140
1658993927.26484,313284.0624045,126
1658993927.26484,313284.0624112,126
1658993927.26484,313284.062418,133
1658993927.26484,313284.0624251,126
1658993927.26484,313284.0624305,112
1658993927.26484,313284.0624346,109
1658993927.26484,313284.0624376,109
1658993927.27536,313284.0624419,102
1658993927.27536,313284.0624464,95
1658993927.27536,313284.062453,90
1658993927.27536,313284.062458,81
1658993927.27536,313284.0624671,57
1658993927.27536,313284.0624731,50
1658993927.27536,313284.0624764,57
1658993927.27536,313284.0624786,64
1658993927.27536,313284.0624847,78
1658993927.27536,313284.0624989,85
1658993927.27536,313284.0625115,85
1658993927.27536,313284.0625215,81
1658993927.27536,313284.0625284,73
1658993927.27536,313284.062542,76
1658993927.27536,313284.0625539,69
1658993927.27536,313284.0625608,47
1658993927.27536,313284.0625641,76
1658993927.27536,313284.0625739,147
1658993927.27536,313284.0625774,100
1658993927.27536,313284.0625851,-174
1658993927.27536,313284.0625982,-598
1658993927.27536,313284.0626054,-906
1658993927.27536,313284.0626162,-646
1658993927.27536,313284.0626248,33
1658993927.80895,313284.0626273,295
1658993927.80895,313284.0626294,109
1658993927.80895,313284.0626313,78
1658993927.80895,313284.0626363,171
1658993927.80895,313284.0626713,138
1658993927.80895,313284.0626857,97
1658993927.80895,313284.0626993,112
1658993927.80895,313284.062716,107
1658993927.80895,313284.0627295,107
1658993927.80895,313284.0627424,114
1658993927.80895,313284.0627545,90
1658993927.80895,313284.0627597,71
1658993927.80895,313284.0627618,78
1658993927.80895,313284.062769,76
1658993927.80895,313284.0627818,64
1658993927.80895,313284.0627887,57
1658993927.80895,313284.0627911,42
1658993927.80895,313284.0627932,19
1658993927.80895,313284.0627953,2
1658993927.80895,313284.0627973,7
1658993927.80895,313284.0627993,28
1658993927.80895,313284.0628016,30
1658993927.80895,313284.0628036,11
1658993927.80895,313284.0628063,4
1658993927.80895,313284.0628084,-4
1658993927.80895,313284.0628105,-11
1658993927.80895,313284.0628125,-2
1658993927.80895,313284.0628146,19
1658993927.80895,313284.0628166,57
1658993927.80895,313284.0628187,95
1658993927.80895,313284.0628207,97
1658993927.80895,313284.0628227,95
1658993927.80895,313284.0628248,112
1658993927.80895,313284.0628268,112
1658993927.80895,313284.0628289,104
1658993927.80895,313284.0628309,128
1658993927.80895,313284.0628329,143
1658993927.80895,313284.062835,128
1658993927.80895,313284.5982827,119
1658993927.80895,313284.5982982,112
1658993927.80895,313284.5983019,104
1658993927.80895,313284.5983049,102
1658993927.80895,313284.5983078,100
1658993927.80895,313284.5983106,85
1658993927.80895,313284.5983132,71
1658993927.80895,313284.5983159,69
1658993927.80895,313284.5983186,85
1658993927.80895,313284.5983211,85
1658993927.80895,313284.5983234,73
1658993927.80895,313284.5983256,81
1658993927.81992,313284.5983279,95
1658993927.81992,313284.5983301,85
1658993927.81992,313284.5983327,81
1658993927.81992,313284.5983354,92
1658993927.81992,313284.598338,92
1658993927.81992,313284.5983406,88
1658993927.81992,313284.5983432,97
1658993927.81992,313284.5983457,100
1658993927.81992,313284.5983482,90
1658993927.81992,313284.5983507,97
1658993927.81992,313284.5983532,95
1658993927.81992,313284.5983555,81
1658993927.81992,313284.5983578,66
1658993927.81992,313284.5983599,50
1658993927.81992,313284.5983621,64
1658993927.81992,313284.5983643,95
1658993927.81992,313284.5983666,97
1658993927.81992,313284.5983688,107
1658993927.81992,313284.598371,131
1658993927.81992,313284.5983731,126
1658993927.81992,313284.5983752,116
1658993927.81992,313284.5983773,131
1658993927.81992,313284.5983794,138
1658993927.81992,313284.5983815,140
1658993928.44142,313284.5983836,140
1658993928.44142,313284.598386,157
1658993928.44142,313284.5983882,205
1658993928.44142,313284.5983904,140
1658993928.44142,313284.5983929,-174
1658993928.44142,313284.5983953,-619
1658993928.44142,313284.5983974,-827
1658993928.44142,313284.5983996,-405
1658993928.44142,313284.5984018,269
1658993928.44142,313284.5984039,405
1658993928.44142,313284.5984059,188
1658993928.44142,313284.5984082,183
1658993928.44142,313284.5984106,250
1658993928.44142,313284.5984128,202
1658993928.44142,313284.598415,176
1658993928.44142,313284.5984172,188
1658993928.44142,313284.5984193,176
1658993928.44142,313284.5984232,169
1658993928.44142,313284.5984282,164
1658993928.44142,313284.5984332,157
1658993928.44142,313284.598441,162
1658993928.44142,313284.5984463,162
1658993928.44142,313284.5984551,145
1658993928.44142,313284.5984655,135
1658993928.44142,313284.5984717,133
1658993928.44142,313284.598474,123
1658993928.44142,313284.5984761,123
1658993928.44142,313284.5984783,121
1658993928.44142,313284.5984803,95
1658993928.44142,313284.5984824,88
1658993928.44142,313284.5984844,107
1658993928.44142,313284.5984864,104
1658993928.44142,313284.5984887,97
1658993928.44142,313284.5984908,112
1658993928.44142,313284.5984929,121
1658993928.44142,313284.5984949,126
1658993928.44142,313284.598497,147
1658993928.44142,313285.2319576,171
1658993928.44142,313285.2319786,178
1658993928.44142,313285.2319888,197
1658993928.44142,313285.2319916,214
1658993928.44142,313285.2319938,212
1658993928.44142,313285.2319958,219
1658993928.44142,313285.2319979,240
1658993928.44142,313285.232,240
1658993928.44142,313285.2320021,224
1658993928.44142,313285.2320041,212
1658993928.44142,313285.2320061,193
1658993928.44142,313285.2320085,174
1658993928.44142,313285.2320105,176
1658993928.45139,313285.2320125,181
1658993928.45139,313285.2320146,176
1658993928.45139,313285.2320166,178
1658993928.45139,313285.2320188,178
1658993928.45139,313285.2320245,164
1658993928.45139,313285.2320362,147
1658993928.45139,313285.2320416,154
1658993928.45139,313285.2320445,178
1658993928.45139,313285.2320466,174
1658993928.45139,313285.2320488,157
1658993928.45139,313285.2320538,171
1658993928.45139,313285.2320654,190
1658993928.45139,313285.2320707,185
1658993928.45139,313285.2320729,183
1658993928.45139,313285.2320759,193
1658993928.45139,313285.2320886,197
1658993928.45139,313285.2320946,193
1658993928.45139,313285.2320975,202
1658993928.45139,313285.2320995,216
1658993928.45139,313285.2321016,205
1658993928.45139,313285.2321069,185
1658993928.45139,313285.2321183,174
1658993928.45139,313285.2321235,176
1658993928.45139,313285.2321265,190
1658993929.02783,313285.2321285,202
1658993929.02783,313285.2321314,195
1658993929.02783,313285.2321421,183
1658993929.02783,313285.2321479,174
1658993929.02783,313285.2321501,166
1658993929.02783,313285.2321575,166
1658993929.02783,313285.2321655,166
1658993929.02783,313285.2321703,169
1658993929.02783,313285.2321748,178
1658993929.02783,313285.2321791,185
1658993929.02783,313285.2321833,221
1658993929.02783,313285.2321891,226
1658993929.02783,313285.232199,35
1658993929.02783,313285.2322069,-371
1658993929.02783,313285.2322164,-796
1658993929.02783,313285.2322242,-779
1658993929.02783,313285.232232,-112
1658993929.02783,313285.2322365,441
1658993929.02783,313285.232241,324
1658993929.02783,313285.2322472,145
1658993929.02783,313285.2322516,233
1658993929.02783,313285.2322571,247
1658993929.02783,313285.232261,183
1658993929.02783,313285.2322652,193
1658993929.02783,313285.2322693,197
1658993929.02783,313285.2322747,166
1658993929.02783,313285.2322785,164
1658993929.02783,313285.2322867,162
1658993929.02783,313285.232294,135
1658993929.02783,313285.2323031,121
1658993929.02783,313285.232312,121
1658993929.02783,313285.2323192,104
1658993929.02783,313285.2323262,88
1658993929.02783,313285.2323302,95
1658993929.02783,313285.2323359,102
1658993929.02783,313285.2323401,71
1658993929.02783,313285.8192173,47
1658993929.02783,313285.8192368,54
1658993929.02783,313285.8192467,54
1658993929.02783,313285.8192525,57
1658993929.02783,313285.8192597,64
1658993929.02783,313285.8192649,59
1658993929.02783,313285.8192725,54
1658993929.02783,313285.8192766,71
1658993929.02783,313285.8192801,102
1658993929.02783,313285.8192837,119
1658993929.02783,313285.8192887,119
1658993929.02783,313285.819292,121
1658993929.02783,313285.8192973,140
1658993929.02783,313285.8193016,145
1658993929.0398,313285.8193067,138
1658993929.0398,313285.8193105,152
1658993929.0398,313285.8193158,171
1658993929.0398,313285.8193193,166
1658993929.0398,313285.8193242,159
1658993929.0398,313285.8193286,145
1658993929.0398,313285.8193335,109
1658993929.0398,313285.8193384,97
1658993929.0398,313285.8193432,107
1658993929.0398,313285.8193463,92
1658993929.0398,313285.8193541,78
1658993929.0398,313285.8193605,92
1658993929.0398,313285.8193649,116
1658993929.0398,313285.819367,109
1658993929.0398,313285.8193689,88
1658993929.0398,313285.819371,95
1658993929.0398,313285.8193732,107
1658993929.0398,313285.8193753,104
1658993929.0398,313285.8193773,119
1658993929.0398,313285.8193794,128
1658993929.0398,313285.8193815,112
1658993929.0398,313285.8193835,102
1658993929.0398,313285.8193856,104
1658993929.0398,313285.8193877,104
1658993929.50829,313285.8193897,107
1658993929.50829,313285.8193917,109
1658993929.50829,313285.8193936,109
1658993929.50829,313285.8193955,112
1658993929.50829,313285.8193974,102
1658993929.50829,313285.8193993,78
1658993929.50829,313285.8194012,73
1658993929.50829,313285.8194032,76
1658993929.50829,313285.8194051,66
1658993929.50829,313285.819407,71
1658993929.50829,313285.8194089,102
1658993929.50829,313285.8194108,116
1658993929.50829,313285.8194127,90
1658993929.50829,313285.8194147,73
1658993929.50829,313285.8194167,88
1658993929.50829,313285.8194185,95
1658993929.50829,313285.8194204,92
1658993929.50829,313285.8194224,102
1658993929.50829,313285.8194243,107
1658993929.50829,313285.8194262,97
1658993929.50829,313285.8194281,114
1658993929.50829,313285.81943,152
1658993929.50829,313285.8194319,57
1658993929.50829,313285.8194339,-274
1658993929.50829,313285.8194358,-703
1658993929.50829,313285.8194378,-822
1658993929.50829,313285.8194407,-333
1658993929.50829,313285.819443,269
1658993929.50829,313285.819445,324
1658993929.50829,313285.8194471,126
1658993929.50829,313285.8194491,143
1658993929.50829,313285.8194512,205
1658993929.50829,313285.8194532,154
1658993929.50829,313285.8194554,104
1658993929.50829,313285.8194575,97
1658993929.50829,313286.305111,100
1658993929.50829,313286.3051245,116
1658993929.50829,313286.305128,121
1658993929.50829,313286.3051309,78
1658993929.50829,313286.3051337,47
1658993929.50829,313286.3051363,52
1658993929.50829,313286.305139,33
1658993929.50829,313286.3051416,9
1658993929.50829,313286.3051442,9
1658993929.50829,313286.3051469,0
1658993929.50829,313286.3051496,-11
1658993929.50829,313286.3051523,-16
1658993929.50829,313286.3051549,-26
1658993929.50829,313286.3051575,-28
1658993929.50829,313286.3051672,-30
1658993929.51826,313286.3051692,-45
1658993929.51826,313286.3051723,-57
1658993929.51826,313286.3051744,-54
1658993929.51826,313286.3051765,-57
1658993929.51826,313286.3051785,-35
1658993929.51826,313286.3051807,19
1658993929.51826,313286.3051828,45
1658993929.51826,313286.3051848,40
1658993929.51826,313286.3051868,69
1658993929.51826,313286.3051888,97
1658993929.51826,313286.3051908,97
1658993929.51826,313286.3051929,114
1658993929.51826,313286.3051949,128
1658993929.51826,313286.3051969,102
1658993929.51826,313286.3051989,73
1658993929.51826,313286.3052009,85
1658993929.51826,313286.3052029,104
1658993929.51826,313286.305205,97
1658993929.51826,313286.305207,107
1658993929.51826,313286.3052091,128
1658993929.51826,313286.3052111,85
1658993929.51826,313286.3052131,35
1658993929.51826,313286.3052151,69
1658993929.51826,313286.3052171,109
1658993930.09698,313286.3052192,92
1658993930.09698,313286.3052212,83
1658993930.09698,313286.305223,104
1658993930.09698,313286.3052249,95
1658993930.09698,313286.3052269,64
1658993930.09698,313286.3052288,73
1658993930.09698,313286.3052307,102
1658993930.09698,313286.3052326,112
1658993930.09698,313286.3052344,116
1658993930.09698,313286.3052363,119
1658993930.09698,313286.3052381,116
1658993930.09698,313286.30524,112
1658993930.09698,313286.3052418,119
1658993930.09698,313286.3052439,131
1658993930.09698,313286.3052458,140
1658993930.09698,313286.3052478,135
1658993930.09698,313286.3052497,121
1658993930.09698,313286.3052516,100
1658993930.09698,313286.3052543,90
1658993930.09698,313286.3052584,100
1658993930.09698,313286.3052631,123
1658993930.09698,313286.3052682,131
1658993930.09698,313286.3052741,119
1658993930.09698,313286.3052812,119
1658993930.09698,313286.3052861,131
1658993930.09698,313286.3052891,128
1658993930.09698,313286.3052921,126
1658993930.09698,313286.3052949,112
1658993930.09698,313286.3052978,102
1658993930.09698,313286.3053006,102
1658993930.09698,313286.3053034,107
1658993930.09698,313286.3053063,140
1658993930.09698,313286.3053091,164
1658993930.09698,313286.3053119,66
1658993930.09698,313286.8901228,-228
1658993930.09698,313286.8901432,-634
1658993930.09698,313286.8901483,-784
1658993930.09698,313286.8901527,-345
1658993930.09698,313286.8901569,240
1658993930.09698,313286.8901608,302
1658993930.09698,313286.8901648,97
1658993930.09698,313286.8901687,95
1658993930.09698,313286.8901727,140
1658993930.09698,313286.8901766,85
1658993930.09698,313286.8901803,59
1658993930.09698,313286.890184,71
1658993930.09698,313286.8901878,50
1658993930.09698,313286.8901917,14
1658993930.09698,313286.8901953,-11
1658993930.09698,313286.8901991,-38
1658993930.10796,313286.8902027,-50
1658993930.10796,313286.8902061,-42
1658993930.10796,313286.8902098,-33
1658993930.10796,313286.8902134,-52
1658993930.10796,313286.8902173,-78
1658993930.10796,313286.8902213,-66
1658993930.10796,313286.8902251,-50
1658993930.10796,313286.8902289,-57
1658993930.10796,313286.8902329,-97
1658993930.10796,313286.8902367,-123
1658993930.10796,313286.8902403,-95
1658993930.10796,313286.8902441,-64
1658993930.10796,313286.8902487,-64
1658993930.10796,313286.8902533,-64
1658993930.10796,313286.890257,-61
1658993930.10796,313286.8902609,-59
1658993930.10796,313286.8902646,-35
1658993930.10796,313286.8902681,-11
1658993930.10796,313286.8902717,0
1658993930.10796,313286.8902753,35
1658993930.10796,313286.8902787,81
1658993930.10796,313286.8902825,102
1658993930.10796,313286.8902859,100
1658993930.10796,313286.8902895,81
1658993930.62994,313286.8902937,76
1658993930.62994,313286.8902977,83
1658993930.62994,313286.8903017,81
1658993930.62994,313286.8903056,90
1658993930.62994,313286.8903095,104
1658993930.62994,313286.8903142,102
1658993930.62994,313286.8903183,81
1658993930.62994,313286.8903225,64
1658993930.62994,313286.8903266,64
1658993930.62994,313286.8903311,76
1658993930.62994,313286.8903353,88
1658993930.62994,313286.8903394,85
1658993930.62994,313286.8903435,78
1658993930.62994,313286.8903475,95
1658993930.62994,313286.8903517,100
1658993930.62994,313286.8903556,95
1658993930.62994,313286.8903599,102
1658993930.62994,313286.8903638,107
1658993930.62994,313286.8903678,109
1658993930.62994,313286.8903718,126
1658993930.62994,313286.8903759,131
1658993930.62994,313286.89038,121
1658993930.62994,313286.8903841,114
1658993930.62994,313286.8903879,114
1658993930.62994,313286.8903918,128
1658993930.62994,313286.8903958,143
1658993930.62994,313286.8904,140
1658993930.62994,313286.890406,145
1658993930.62994,313286.8904102,152
1658993930.62994,313286.8904165,138
1658993930.62994,313286.8904206,119
1658993930.62994,313286.8904266,119
1658993930.62994,313286.8904308,123
1658993930.62994,313287.4254772,138
1658993930.62994,313287.4255007,157
1658993930.62994,313287.4255101,162
1658993930.62994,313287.4255137,164
1658993930.62994,313287.4255182,157
1658993930.62994,313287.425521,140
1658993930.62994,313287.4255239,147

1658993930.62994,313287.4255267,159
1658993930.62994,313287.4255294,135
1658993930.62994,313287.4255321,116
1658993930.62994,313287.4255349,133
1658993930.62994,313287.4255376,176
1658993930.62994,313287.4255404,197
1658993930.62994,313287.4255431,102
1658993930.62994,313287.4255459,-176
1658993930.62994,313287.4255488,-593
1658993930.62994,313287.4255515,-820
1658993930.63992,313287.4255542,-445
1658993930.63992,313287.4255571,178
1658993930.63992,313287.4255599,317
1658993930.63992,313287.4255626,133
1658993930.63992,313287.4255654,126
1658993930.63992,313287.4255681,174
1658993930.63992,313287.4255708,138
1658993930.63992,313287.4255735,128
1658993930.63992,313287.4255763,143
1658993930.63992,313287.425579,131
1658993930.63992,313287.4255818,109
1658993930.63992,313287.4255845,102
1658993930.63992,313287.4255873,95
1658993930.63992,313287.4255915,92
1658993930.63992,313287.4255993,92
1658993930.63992,313287.4256119,85
1658993930.63992,313287.425625,73
1658993930.63992,313287.4256392,52
1658993930.63992,313287.4256482,42
1658993930.63992,313287.4256582,50
1658993930.63992,313287.4256702,52
1658993930.63992,313287.425676,40
1658993930.63992,313287.4256793,4
1658993930.63992,313287.4256816,-7
1658993931.16967,313287.4256849,26
1658993931.16967,313287.425695,30
1658993931.16967,313287.4257022,9
1658993931.16967,313287.4257102,30
1658993931.16967,313287.4257189,59
1658993931.16967,313287.4257266,69
1658993931.16967,313287.4257324,90
1658993931.16967,313287.4257463,128
1658993931.16967,313287.4257562,174
1658993931.16967,313287.4257665,202
1658993931.16967,313287.4257754,193
1658993931.16967,313287.4257843,176
1658993931.16967,313287.4257893,181
1658993931.16967,313287.4258035,185
1658993931.16967,313287.4258141,193
1658993931.16967,313287.4258194,200
1658993931.16967,313287.4258262,190
1658993931.16967,313287.425831,185
1658993931.16967,313287.4258356,205
1658993931.16967,313287.4258403,200
1658993931.16967,313287.4258455,171
1658993931.16967,313287.4258507,174
1658993931.16967,313287.4258578,171
1658993931.16967,313287.4258628,140
1658993931.16967,313287.4258676,145
1658993931.16967,313287.4258783,169
1658993931.16967,313287.425944,162
1658993931.16967,313287.4259561,152
1658993931.16967,313287.4259672,152
1658993931.16967,313287.4259746,143
1658993931.16967,313287.4259839,135
1658993931.16967,313287.4259887,147
1658993931.16967,313287.9630263,154
1658993931.16967,313287.9630443,147
1658993931.16967,313287.9630492,145
1658993931.16967,313287.9630527,135
1658993931.16967,313287.9630559,128
1658993931.16967,313287.9631158,138
1658993931.16967,313287.963126,135
1658993931.16967,313287.9631309,123
1658993931.16967,313287.9631354,116
1658993931.16967,313287.9631398,107
1658993931.16967,313287.9631442,104
1658993931.16967,313287.9631481,109
1658993931.16967,313287.9631525,107
1658993931.16967,313287.9631563,107
1658993931.16967,313287.9631609,114
1658993931.16967,313287.9631654,123
1658993931.16967,313287.9631699,126
1658993931.16967,313287.9631737,121
1658993931.18064,313287.9631784,116
1658993931.18064,313287.9631828,119
1658993931.18064,313287.9631863,126
1658993931.18064,313287.9631897,116
1658993931.18064,313287.9631931,102
1658993931.18064,313287.9631967,119
1658993931.18064,313287.9632004,164
1658993931.18064,313287.963204,159
1658993931.18064,313287.9632077,-14
1658993931.18064,313287.9632119,-393
1658993931.18064,313287.9632175,-796
1658993931.18064,313287.9632242,-770
1658993931.18064,313287.9632284,-131
1658993931.18064,313287.9632317,367
1658993931.18064,313287.9632348,259
1658993931.18064,313287.963238,116
1658993931.18064,313287.9632412,200
1658993931.18064,313287.9632448,202
1658993931.18064,313287.9632488,140
1658993931.18064,313287.9632524,164
1658993931.18064,313287.9632557,183
1658993931.18064,313287.9632591,143
1658993931.18064,313287.9632637,131
1658993931.18064,313287.9632684,147
1658993931.807,313287.963273,145
1658993931.807,313287.9632762,126
1658993931.807,313287.9632798,109
1658993931.807,313287.9632832,102
1658993931.807,313287.9632867,85
1658993931.807,313287.9632901,50
1658993931.807,313287.9632936,52
1658993931.807,313287.9632968,73
1658993931.807,313287.9633006,52
1658993931.807,313287.9633052,28
1658993931.807,313287.9633088,21
1658993931.807,313287.9633121,19
1658993931.807,313287.9633173,38
1658993931.807,313287.9633239,64
1658993931.807,313287.9633305,64
1658993931.807,313287.9633371,47
1658993931.807,313287.9633439,64
1658993931.807,313287.9633492,121
1658993931.807,313287.9633527,152
1658993931.807,313287.963356,133
1658993931.807,313287.9633588,116
1658993931.807,313287.9633619,154
1658993931.807,313287.9633653,188
1658993931.807,313287.9633711,174
1658993931.807,313287.9633759,166
1658993931.807,313287.9633791,200
1658993931.807,313287.963385,221
1658993931.807,313287.9633887,193
1658993931.807,313287.9633942,162
1658993931.807,313287.9633993,176
1658993931.807,313287.9634036,188
1658993931.807,313288.5961469,174
1658993931.807,313288.5961693,166
1658993931.807,313288.5961763,166
1658993931.807,313288.5961818,135
1658993931.807,313288.5961868,121
1658993931.807,313288.5961919,157
1658993931.807,313288.5961966,169
1658993931.807,313288.5962015,131
1658993931.807,313288.5962063,107
1658993931.807,313288.5962113,107
1658993931.807,313288.5962164,102
1658993931.807,313288.5962213,102
1658993931.807,313288.5962262,107
1658993931.807,313288.5962313,107
1658993931.807,313288.5962363,97
1658993931.807,313288.5962443,85
1658993931.807,313288.5962504,83
1658993931.807,313288.5962556,95
1658993931.807,313288.5962634,107
1658993931.81698,313288.5962678,109
1658993931.81698,313288.5962745,100
1658993931.81698,313288.5962799,92
1658993931.81698,313288.5962841,76
1658993931.81698,313288.5962897,50
1658993931.81698,313288.596296,61
1658993931.81698,313288.5963014,92
1658993931.81698,313288.5963074,102
1658993931.81698,313288.5963118,92
1658993931.81698,313288.5963181,81
1658993931.81698,313288.5963244,81
1658993931.81698,313288.5963307,88
1658993931.81698,313288.5963354,83
1658993931.81698,313288.5963395,59
1658993931.81698,313288.5963434,57
1658993931.81698,313288.5963477,81
1658993931.81698,313288.596357,112
1658993931.81698,313288.5963654,164
1658993931.81698,313288.5963736,133
1658993931.81698,313288.5963817,-121
1658993931.81698,313288.596387,-548
1658993931.81698,313288.5963933,-910
1658993931.81698,313288.5964001,-760
1658993931.81698,313288.5964084,-73
1658993932.33924,313288.5964156,324
1658993932.33924,313288.596421,176
1658993932.33924,313288.5964297,92
1658993932.33924,313288.5964363,193
1658993932.33924,313288.5964431,190
1658993932.33924,313288.5964495,135
1658993932.33924,313288.5964561,152
1658993932.33924,313288.5964624,166
1658993932.33924,313288.5964668,135
1658993932.33924,313288.5964712,116
1658993932.33924,313288.5964752,121
1658993932.33924,313288.5964793,121
1658993932.33924,313288.5964855,119
1658993932.33924,313288.5964913,112
1658993932.33924,313288.5964957,102
1658993932.33924,313288.5965021,92
1658993932.33924,313288.5965066,92
1658993932.33924,313288.5965124,97
1658993932.33924,313288.5965174,83
1658993932.33924,313288.5965243,57
1658993932.33924,313288.5965289,52
1658993932.33924,313288.5965348,54
1658993932.33924,313288.5965394,40
1658993932.33924,313288.5965474,28
1658993932.33924,313288.5965538,50
1658993932.33924,313288.5965604,90
1658993932.33924,313288.5965658,88
1658993932.33924,313288.5965726,64
1658993932.33924,313288.5965797,107
1658993932.33924,313288.596585,145
1658993932.33924,313289.1317329,119
1658993932.33924,313289.13175,128
1658993932.33924,313289.1317628,171
1658993932.33924,313289.1317676,164
1658993932.33924,313289.1317699,162
1658993932.33924,313289.1317731,181
1658993932.33924,313289.1317754,176
1658993932.33924,313289.1317775,162
1658993932.33924,313289.1317796,169
1658993932.33924,313289.1317817,171
1658993932.33924,313289.1317838,145
1658993932.33924,313289.1317859,119
1658993932.33924,313289.131788,114
1658993932.33924,313289.13179,95
1658993932.33924,313289.1317921,85
1658993932.33924,313289.1317942,116
1658993932.33924,313289.1317964,121
1658993932.33924,313289.1317984,102
1658993932.33924,313289.1318005,95
1658993932.33924,313289.1318026,81
1658993932.3532,313289.1318047,66
1658993932.3532,313289.1318068,81
1658993932.3532,313289.131809,88
1658993932.3532,313289.131811,83
1658993932.3532,313289.1318132,97
1658993932.3532,313289.1318152,102
1658993932.3532,313289.1318173,85
1658993932.3532,313289.1318194,85
1658993932.3532,313289.1318215,102
1658993932.3532,313289.1318236,100
1658993932.3532,313289.1318257,90
1658993932.3532,313289.1318278,81
1658993932.3532,313289.1318299,64
1658993932.3532,313289.1318319,73
1658993932.3532,313289.131834,85
1658993932.3532,313289.1318361,57
1658993932.3532,313289.1318381,47
1658993932.3532,313289.1318402,76
1658993932.3532,313289.1318423,85
1658993932.3532,313289.1318443,78
1658993932.3532,313289.1318465,69
1658993932.3532,313289.1318485,64
1658993932.3532,313289.1318506,73
1658993932.3532,313289.1318526,71
1658993932.87317,313289.1318547,57
1658993932.87317,313289.1318567,54
1658993932.87317,313289.1318587,69
1658993932.87317,313289.1318606,71
1658993932.87317,313289.1318626,81
1658993932.87317,313289.1318646,133
1658993932.87317,313289.1318666,107
1658993932.87317,313289.1318687,-131
1658993932.87317,313289.1318706,-536
1658993932.87317,313289.1318726,-887
1658993932.87317,313289.1318746,-727
1658993932.87317,313289.1318766,-57
1658993932.87317,313289.1318787,319
1658993932.87317,313289.1318809,178
1658993932.87317,313289.131883,119
1658993932.87317,313289.1318902,197
1658993932.87317,313289.1319011,164
1658993932.87317,313289.1319059,123
1658993932.87317,313289.1319091,154
1658993932.87317,313289.1319112,171
1658993932.87317,313289.1319138,154
1658993932.87317,313289.1319239,133
1658993932.87317,313289.131932,119
1658993932.87317,313289.1319345,131
1658993932.87317,313289.1319366,150
1658993932.87317,313289.1319386,126
1658993932.87317,313289.1319407,102
1658993932.87317,313289.1319427,119
1658993932.87317,313289.1319447,121
1658993932.87317,313289.6684513,76
1658993932.87317,313289.668474,47
1658993932.87317,313289.6684834,50
1658993932.87317,313289.6684873,30
1658993932.87317,313289.6684934,26
1658993932.87317,313289.6684964,50
1658993932.87317,313289.6684992,54
1658993932.87317,313289.6685018,54
1658993932.87317,313289.6685045,33
1658993932.87317,313289.6685072,-26
1658993932.87317,313289.6685098,-26
1658993932.87317,313289.6685124,54
1658993932.87317,313289.6685151,128
1658993932.87317,313289.668518,202
1658993932.87317,313289.6685207,228
1658993932.87317,313289.6685233,162
1658993932.87317,313289.6685259,143
1658993932.87317,313289.6685286,190
1658993932.87317,313289.6685311,109
1658993932.87317,313289.6685339,-52
1658993932.87317,313289.6685364,-38
1658993932.88513,313289.668539,71
1658993932.88513,313289.6685416,71
1658993932.88513,313289.6685444,40
1658993932.88513,313289.6685469,64
1658993932.88513,313289.6685547,59
1658993932.88513,313289.668564,19
1658993932.88513,313289.6685766,26
1658993932.88513,313289.668582,54
1658993932.88513,313289.6685888,35
1658993932.88513,313289.6685933,23
1658993932.88513,313289.6685997,54
1658993932.88513,313289.6686042,71
1658993932.88513,313289.6686083,61
1658993932.88513,313289.6686126,40
1658993932.88513,313289.668619,26
1658993932.88513,313289.6686244,26
1658993932.88513,313289.6686306,14
1658993932.88513,313289.668635,-9
1658993932.88513,313289.6686388,-9
1658993932.88513,313289.6686444,26
1658993932.88513,313289.6686481,52
1658993932.88513,313289.6686519,45
1658993932.88513,313289.6686575,30
1658993932.88513,313289.6686625,30
1658993933.50747,313289.6686694,30
1658993933.50747,313289.6686739,26
1658993933.50747,313289.6686773,30
1658993933.50747,313289.6686802,45
1658993933.50747,313289.6686831,45
1658993933.50747,313289.6686861,40
1658993933.50747,313289.6686889,40
1658993933.50747,313289.6686918,59
1658993933.50747,313289.6686945,95
1658993933.50747,313289.6686982,109
1658993933.50747,313289.668702,109
1658993933.50747,313289.6687057,119
1658993933.50747,313289.6687093,112
1658993933.50747,313289.6687162,92
1658993933.50747,313289.6687195,73
1658993933.50747,313289.6687246,26
1658993933.50747,313289.668729,-116
1658993933.50747,313289.6687344,-402
1658993933.50747,313289.6687379,-743
1658993933.50747,313289.6687419,-741
1658993933.50747,313289.6687474,-183
1658993933.50747,313289.668751,312
1658993933.50747,313289.6687549,264
1658993933.50747,313289.6687614,119
1658993933.50747,313289.6687669,154
1658993933.50747,313289.6687732,157
1658993933.50747,313289.668777,135
1658993933.50747,313289.6687826,162
1658993933.50747,313290.3021372,152
1658993933.50747,313290.3021551,112
1658993933.50747,313290.3021618,114
1658993933.50747,313290.3021659,147
1658993933.50747,313290.3021698,157
1658993933.50747,313290.3021734,131
1658993933.50747,313290.3021768,83
1658993933.50747,313290.3021803,57
1658993933.50747,313290.3021836,71
1658993933.50747,313290.302187,78
1658993933.50747,313290.3021905,61
1658993933.50747,313290.3021942,57
1658993933.50747,313290.302198,47
1658993933.50747,313290.3022017,7
1658993933.50747,313290.3022055,-21
1658993933.50747,313290.3022163,-19
1658993933.50747,313290.3022209,-11
1658993933.50747,313290.302227,-4
1658993933.50747,313290.3022343,-7
1658993933.50747,313290.3022396,-28
1658993933.50747,313290.3022478,-23
1658993933.50747,313290.3022544,4
1658993933.51645,313290.3022628,23
1658993933.51645,313290.3022693,35
1658993933.51645,313290.3022757,54
1658993933.51645,313290.3022821,83
1658993933.51645,313290.3022882,100
1658993933.51645,313290.3022948,100
1658993933.51645,313290.3022987,104
1658993933.51645,313290.3023037,102
