Time,TimeLsl,Value
1658994970.39258,314325.4928252,88
1658994970.39258,314325.4928462,85
1658994970.39258,314325.4928564,78
1658994970.39258,314325.4928604,69
1658994970.39258,314325.4928666,61
1658994970.39258,314325.4928734,64
1658994970.39258,314325.4928801,69
1658994970.39258,314325.4928859,71
1658994970.39258,314325.4928925,73
1658994970.39258,314325.492898,73
1658994970.39258,314325.4929021,59
1658994970.39258,314325.4929147,45
1658994970.39258,314325.4929254,54
1658994970.39258,314325.4929392,76
1658994970.39258,314325.4929476,90
1658994970.39258,314325.4929537,104
1658994970.39258,314325.4929598,116
1658994970.39258,314325.4929658,119
1658994970.39258,314325.4929793,123
1658994970.39258,314325.49299,133
1658994970.39258,314325.4929973,135
1658994970.39258,314325.4930016,133
1658994970.39258,314325.4930062,135
1658994970.39258,314325.4930112,138
1658994970.39258,314325.4930153,140
1658994970.39258,314325.4930199,138
1658994970.39258,314325.4930247,135
1658994970.39258,314325.4930289,140
1658994970.39258,314325.4930335,143
1658994970.39258,314325.4930383,133
1658994970.39258,314325.4930425,128
1658994970.39258,314325.4930477,133
1658994970.39258,314325.4930519,133
1658994970.39258,314325.4930559,135
1658994970.39258,314325.4930611,143
1658994970.39258,314325.4930652,143
1658994970.39258,314325.4930692,128
1658994970.39258,314325.4930743,119
1658994970.39258,314325.4930793,128
1658994970.39258,314325.493085,140
1658994970.39258,314325.4930895,143
1658994970.39258,314325.4930934,143
1658994970.39258,314325.4930978,143
1658994970.39258,314325.4931023,150
1658994970.39258,314325.4931062,159
1658994970.39258,314325.4931103,164
1658994970.39258,314325.4931157,166
1658994970.39258,314325.4931196,169
1658994970.39258,314325.4931241,171
1658994970.39258,314325.4931285,181
1658994970.52309,314325.4931323,188
1658994970.52309,314325.4931364,185
1658994970.52309,314325.4931411,185
1658994970.52309,314325.493146,193
1658994970.52309,314325.4931501,195
1658994970.52309,314325.4931551,181
1658994970.52309,314325.4931606,164
1658994970.52309,314325.4931643,178
1658994970.52309,314325.493168,212
1658994970.52309,314325.4931715,228
1658994970.52309,314325.4931759,216
1658994970.52309,314325.4931803,209
1658994970.52309,314325.4931847,219
1658994970.52309,314325.4931906,221
1658994970.52309,314325.4931965,212
1658994970.52309,314325.4932026,214
1658994970.52309,314325.4932074,219
1658994970.52309,314325.4932124,212
1658994970.52309,314325.4932178,214
1658994970.52309,314325.4932235,243
1658994970.52309,314325.4932289,190
1658994970.52309,314325.4932339,-66
1658994970.52309,314325.4932385,-481
1658994970.52309,314326.1250963,-763
1658994970.52309,314326.1251159,-445
1658994970.52309,314326.1251222,274
1658994970.52309,314326.1251279,493
1658994970.52309,314326.1251322,231
1658994970.52309,314326.1251368,185
1658994970.52309,314326.1251418,286
1658994970.52309,314326.1251475,228
1658994970.52309,314326.1251545,174
1658994970.52309,314326.125161,202
1658994970.52309,314326.1251653,197
1658994970.52309,314326.1251709,169
1658994970.52309,314326.1251743,174
1658994970.52309,314326.1251778,166
1658994970.52309,314326.1251808,140
1658994970.52309,314326.1251841,143
1658994970.52309,314326.1251874,152
1658994970.52309,314326.125192,143
1658994970.52309,314326.125197,131
1658994970.52309,314326.1252035,126
1658994970.52309,314326.1252083,109
1658994970.52309,314326.1252138,95
1658994970.52309,314326.125219,97
1658994970.52309,314326.1252223,97
1658994970.52309,314326.1252274,92
1658994970.52309,314326.125235,95
1658994970.52309,314326.1252426,95
1658994970.56947,314326.1252556,92
1658994970.56947,314326.1252662,88
1658994970.56947,314326.1252746,85
1658994970.56947,314326.1252816,95
1658994970.56947,314326.1252853,116
1658994970.56947,314326.1252891,133
1658994970.56947,314326.125295,147
1658994970.56947,314326.1253001,166
1658994970.56947,314326.1253056,176
1658994970.56947,314326.1253099,178
1658994970.56947,314326.1253171,188
1658994970.56947,314326.1253221,188
1658994970.56947,314326.1253288,176
1658994970.56947,314326.1253336,174
1658994970.56947,314326.1253402,183
1658994970.56947,314326.1253445,188
1658994970.56947,314326.1253508,183
1658994970.56947,314326.1253552,181
1658994970.56947,314326.1253616,185
1658994970.56947,314326.125366,188
1658994970.56947,314326.1253726,193
1658994970.56947,314326.1253805,195
1658994970.56947,314326.1253849,193
1658994970.56947,314326.1253912,190
1658994970.56947,314326.1253971,190
1658994970.56947,314326.1254012,188
1658994970.56947,314326.1254076,190
1658994970.56947,314326.125415,195
1658994970.56947,314326.1254193,200
1658994970.56947,314326.1254253,202
1658994970.56947,314326.1254299,195
1658994970.56947,314326.1254358,188
1658994970.56947,314326.1254434,181
1658994970.56947,314326.1254497,181
1658994970.56947,314326.1254543,181
1658994970.56947,314326.1254586,181
1658994970.56947,314326.1254651,185
1658994970.56947,314326.1254698,185
1658994970.56947,314326.1254759,188
1658994970.56947,314326.1254803,193
1658994970.56947,314326.1254865,181
1658994970.56947,314326.1254912,159
1658994970.56947,314326.1254984,145
1658994970.56947,314326.1255043,152
1658994970.56947,314326.1255086,169
1658994970.56947,314326.1255154,174
1658994970.56947,314326.7095017,169
1658994970.56947,314326.7095293,169
1658994970.56947,314326.7095381,169
1658994970.56947,314326.7095466,169
1658994970.59441,314326.7095528,164
1658994970.59441,314326.709559,159
1658994970.59441,314326.7095642,157
1658994970.59441,314326.7095687,159
1658994970.59441,314326.7095719,183
1658994970.59441,314326.7095751,224
1658994970.59441,314326.7095787,159
1658994970.59441,314326.709582,-135
1658994970.59441,314326.7095872,-593
1658994970.59441,314326.709592,-894
1658994970.59441,314326.7095964,-557
1658994970.59441,314326.709603,200
1658994970.59441,314326.709608,438
1658994970.59441,314326.709613,166
1658994970.59441,314326.7096183,114
1658994970.59441,314326.7096231,214
1658994970.59441,314326.7096271,176
1658994970.59441,314326.7096337,128
1658994970.59441,314326.7096379,140
1658994970.59441,314326.7096415,112
1658994970.59441,314326.7096483,71
1658994970.59441,314326.7096535,71
1658994970.59441,314326.7096565,69
1658994970.59441,314326.7096597,50
1658994970.59441,314326.7096632,50
1658994970.59441,314326.7096666,47
1658994970.59441,314326.7096702,26
1658994970.59441,314326.7096738,9
1658994970.59441,314326.709678,16
1658994970.59441,314326.7096822,19
1658994970.59441,314326.7096866,19
1658994970.59441,314326.7096905,16
1658994970.59441,314326.7096942,9
1658994970.59441,314326.709698,9
1658994970.59441,314326.7097039,16
1658994970.59441,314326.7097086,16
1658994970.59441,314326.709712,21
1658994970.59441,314326.7097165,26
1658994970.59441,314326.70972,14
1658994970.59441,314326.7097253,14
1658994970.59441,314326.7097309,33
1658994970.59441,314326.709735,47
1658994970.59441,314326.7097391,57
1658994970.59441,314326.709745,66
1658994970.59441,314326.709749,76
1658994970.59441,314326.7097554,81
1658994970.59441,314326.7097603,76
1658994970.59441,314326.7098465,73
1658994970.59441,314326.7098752,71
1658994970.59441,314326.7098884,66
1658994970.60737,314326.7098963,57
1658994970.60737,314326.7099042,54
1658994970.60737,314326.709911,52
1658994970.60737,314326.7099186,50
1658994970.60737,314326.709927,50
1658994970.60737,314326.7099337,47
1658994970.60737,314326.7099403,33
1658994970.60737,314326.7099496,28
1658994970.60737,314326.7099578,35
1658994970.60737,314326.7099663,40
1658994970.60737,314326.7099743,33
1658994970.60737,314326.7099826,30
1658994970.60737,314326.7099902,38
1658994970.60737,314326.7099979,38
1658994970.60737,314326.7100056,35
1658994970.60737,314326.7100131,42
1658994970.60737,314326.7100214,50
1658994970.60737,314326.7100293,52
1658994970.60737,314326.7100379,52
1658994970.60737,314327.1482244,61
1658994970.60737,314327.1482427,69
1658994970.60737,314327.1482518,66
1658994970.94575,314327.1482569,69
1658994970.94575,314327.148261,69
1658994970.94575,314327.1482652,50
1658994970.94575,314327.1482692,30
1658994970.94575,314327.1482732,23
1658994970.94575,314327.1482771,23
1658994970.94575,314327.1482809,35
1658994970.94575,314327.1482849,33
1658994970.94575,314327.148289,23
1658994970.94575,314327.1482953,35
1658994970.94575,314327.1482993,45
1658994970.94575,314327.148303,35
1658994970.94575,314327.1483068,26
1658994970.94575,314327.1483123,33
1658994970.94575,314327.1483161,40
1658994970.94575,314327.1483205,57
1658994970.94575,314327.1483276,107
1658994970.94575,314327.1483318,95
1658994970.94575,314327.1483376,-126
1658994970.94575,314327.1483417,-538
1658994970.94575,314327.1483473,-915
1658994970.94575,314327.1483512,-784
1658994970.94575,314327.1483551,-81
1658994970.94575,314327.1483607,333
1658994970.94575,314327.1483655,135
1658994970.94575,314327.148371,14
1658994970.94575,314327.1483748,121
1658994970.94575,314327.1483804,114
1658994970.94575,314327.1483847,69
1658994970.94575,314327.1483887,97
1658994970.94575,314327.1483927,95
1658994970.94575,314327.1483982,71
1658994970.94575,314327.1484038,81
1658994970.94575,314327.1484076,85
1658994970.94575,314327.1484135,78
1658994970.94575,314327.1484188,83
1658994970.94575,314327.1484225,97
1658994970.94575,314327.1484276,102
1658994970.94575,314327.1484341,88
1658994970.94575,314327.148438,71
1658994970.94575,314327.1484418,71
1658994970.94575,314327.1484477,73
1658994970.94575,314327.1484522,66
1658994970.94575,314327.1484558,52
1658994970.94575,314327.1484594,42
1658994970.94575,314327.1484633,35
1658994970.94575,314327.1484675,21
1658994970.94575,314327.1484737,9
1658994970.94575,314327.1484779,9
1658994970.94575,314327.1484812,9
1658994970.96832,314327.1484849,11
1658994970.96832,314327.1484888,30
1658994970.96832,314327.1484923,45
1658994970.96832,314327.1484964,50
1658994970.96832,314327.148502,64
1658994970.96832,314327.1485057,76
1658994970.96832,314327.1485122,78
1658994970.96832,314327.148521,92
1658994970.96832,314327.1485259,109
1658994970.96832,314327.1485291,114
1658994970.96832,314327.1485321,109
1658994970.96832,314327.1485353,100
1658994970.96832,314327.1485387,81
1658994970.96832,314327.148543,71
1658994970.96832,314327.1485475,76
1658994970.96832,314327.1485512,71
1658994970.96832,314327.1485548,64
1658994970.96832,314327.1485583,66
1658994970.96832,314327.1485619,59
1658994970.96832,314327.1485653,40
1658994970.96832,314327.7333813,35
1658994970.96832,314327.733406,38
1658994970.96832,314327.7334125,45
1658994970.96832,314327.7334167,47
1658994971.52444,314327.7334208,28
1658994971.52444,314327.7334248,16
1658994971.52444,314327.7334289,23
1658994971.52444,314327.7334332,21
1658994971.52444,314327.7334376,21
1658994971.52444,314327.7334419,33
1658994971.52444,314327.7334463,28
1658994971.52444,314327.7334505,4
1658994971.52444,314327.7334546,-2
1658994971.52444,314327.7334586,9
1658994971.52444,314327.7334623,7
1658994971.52444,314327.7334663,-16
1658994971.52444,314327.7334705,-16
1658994971.52444,314327.7334746,11
1658994971.52444,314327.7334786,23
1658994971.52444,314327.7334827,19
1658994971.52444,314327.7334867,28
1658994971.52444,314327.7334908,47
1658994971.52444,314327.7334952,45
1658994971.52444,314327.7335013,35
1658994971.52444,314327.7335061,42
1658994971.52444,314327.7335111,52
1658994971.52444,314327.7335153,52
1658994971.52444,314327.7335193,76
1658994971.52444,314327.7335231,128
1658994971.52444,314327.7335271,81
1658994971.52444,314327.7335311,-181
1658994971.52444,314327.7335352,-605
1658994971.52444,314327.7335394,-887
1658994971.52444,314327.7335435,-567
1658994971.52444,314327.7335477,112
1658994971.52444,314327.7335536,317
1658994971.52444,314327.73356,102
1658994971.52444,314327.7335639,76
1658994971.52444,314327.7335695,162
1658994971.52444,314327.7335757,126
1658994971.52444,314327.7335817,97
1658994971.52444,314327.7335868,121
1658994971.52444,314327.7335947,107
1658994971.52444,314327.7335997,90
1658994971.52444,314327.7336051,97
1658994971.52444,314327.7336082,90
1658994971.52444,314327.7336116,71
1658994971.52444,314327.7336172,73
1658994971.52444,314327.7336223,69
1658994971.52444,314327.7336273,47
1658994971.52444,314327.7336322,47
1658994971.52444,314327.7336352,59
1658994971.52444,314327.7336391,47
1658994971.52444,314327.7336434,35
1658994971.5394,314327.7336492,45
1658994971.5394,314327.7336524,45
1658994971.5394,314327.7336557,42
1658994971.5394,314327.7336587,47
1658994971.5394,314327.7336618,52
1658994971.5394,314327.7336649,57
1658994971.5394,314327.7336681,59
1658994971.5394,314327.7336712,50
1658994971.5394,314327.7336742,54
1658994971.5394,314327.733677,71
1658994971.5394,314327.73368,78
1658994971.5394,314327.7336832,92
1658994971.5394,314327.7336862,121
1658994971.5394,314327.7336895,128
1658994971.5394,314327.7336926,133
1658994971.5394,314327.7336955,157
1658994971.5394,314327.7336986,171
1658994971.5394,314327.7337018,164
1658994971.5394,314327.7337049,152
1658994971.5394,314328.3183844,138
1658994971.5394,314328.3184063,121
1658994971.5394,314328.3184157,119
1658994971.5394,314328.318422,114
1658994971.5394,314328.3184252,109
1658994972.06824,314328.3184291,112
1658994972.06824,314328.3184359,104
1658994972.06824,314328.3184426,78
1658994972.06824,314328.3184457,64
1658994972.06824,314328.3184497,76
1658994972.06824,314328.3184526,81
1658994972.06824,314328.3184555,85
1658994972.06824,314328.3184585,88
1658994972.06824,314328.3184639,64
1658994972.06824,314328.3184688,50
1658994972.06824,314328.3184719,66
1658994972.06824,314328.3184777,71
1658994972.06824,314328.3184822,59
1658994972.06824,314328.3184874,59
1658994972.06824,314328.3184911,64
1658994972.06824,314328.3184953,59
1658994972.06824,314328.318501,45
1658994972.06824,314328.318509,30
1658994972.06824,314328.3185485,30
1658994972.06824,314328.3185921,52
1658994972.06824,314328.3186029,76
1658994972.06824,314328.318607,73
1658994972.06824,314328.3186106,61
1658994972.06824,314328.3186141,71
1658994972.06824,314328.3186175,81
1658994972.06824,314328.3186211,81
1658994972.06824,314328.3186245,92
1658994972.06824,314328.318628,100
1658994972.06824,314328.3186319,90
1658994972.06824,314328.3186354,100
1658994972.06824,314328.3186388,147
1658994972.06824,314328.3186423,178
1658994972.06824,314328.3186496,52
1658994972.06824,314328.3186572,-295
1658994972.06824,314328.3186631,-701
1658994972.06824,314328.3186765,-734
1658994972.06824,314328.3186841,-176
1658994972.06824,314328.3187044,343
1658994972.06824,314328.3187095,276
1658994972.06824,314328.3187132,92
1658994972.06824,314328.3187169,147
1658994972.06824,314328.3187205,174
1658994972.06824,314328.318724,119
1658994972.06824,314328.3187274,123
1658994972.06824,314328.3187309,140
1658994972.06824,314328.3187346,116
1658994972.06824,314328.3187382,104
1658994972.06824,314328.3187415,109
1658994972.06824,314328.3187447,102
1658994972.06824,314328.3187484,85
1658994972.0822,314328.3187521,73
1658994972.0822,314328.3187552,66
1658994972.0822,314328.3187597,59
1658994972.0822,314328.3187642,54
1658994972.0822,314328.3187716,54
1658994972.0822,314328.318775,59
1658994972.0822,314328.3187821,61
1658994972.0822,314328.3187883,61
1658994972.0822,314328.3187933,61
1658994972.0822,314328.3187964,61
1658994972.0822,314328.3188005,57
1658994972.0822,314328.3188038,50
1658994972.0822,314328.3188072,52
1658994972.0822,314328.3188106,64
1658994972.0822,314328.3188141,69
1658994972.0822,314328.3188175,81
1658994972.0822,314328.3188208,102
1658994972.0822,314328.3188244,121
1658994972.0822,314328.8553125,138
1658994972.0822,314328.8553366,159
1658994972.0822,314328.8553603,181
1658994972.0822,314328.8553774,195
1658994972.0822,314328.8553841,200
1658994972.0822,314328.8553886,202
1658994972.6506,314328.8553929,205
1658994972.6506,314328.8553961,212
1658994972.6506,314328.8553991,212
1658994972.6506,314328.8554023,207
1658994972.6506,314328.8554057,190
1658994972.6506,314328.855409,169
1658994972.6506,314328.8554125,171
1658994972.6506,314328.8554158,190
1658994972.6506,314328.8554191,185
1658994972.6506,314328.8554224,171
1658994972.6506,314328.8554258,164
1658994972.6506,314328.855429,150
1658994972.6506,314328.8554321,143
1658994972.6506,314328.855435,159
1658994972.6506,314328.8554381,174
1658994972.6506,314328.8554412,174
1658994972.6506,314328.8554444,171
1658994972.6506,314328.8554477,174
1658994972.6506,314328.8554514,176
1658994972.6506,314328.855455,171
1658994972.6506,314328.8554583,171
1658994972.6506,314328.8554615,176
1658994972.6506,314328.8554645,176
1658994972.6506,314328.8554677,169
1658994972.6506,314328.8554707,157
1658994972.6506,314328.8554739,150
1658994972.6506,314328.855477,152
1658994972.6506,314328.8554802,169
1658994972.6506,314328.8554834,195
1658994972.6506,314328.8554866,205
1658994972.6506,314328.8554897,195
1658994972.6506,314328.855493,193
1658994972.6506,314328.855496,197
1658994972.6506,314328.8554991,200
1658994972.6506,314328.8555022,202
1658994972.6506,314328.8555054,202
1658994972.6506,314328.8555085,200
1658994972.6506,314328.8555116,207
1658994972.6506,314328.8555149,243
1658994972.6506,314328.8555182,276
1658994972.6506,314328.8555251,181
1658994972.6506,314328.8555286,-143
1658994972.6506,314328.8555319,-586
1658994972.6506,314328.8555349,-755
1658994972.6506,314328.8555382,-259
1658994972.6506,314328.8555415,407
1658994972.6506,314328.8555448,455
1658994972.6506,314328.8555479,219
1658994972.6506,314328.8555538,255
1658994972.6506,314328.8555574,314
1658994972.66456,314328.8555628,245
1658994972.66456,314328.8555661,233
1658994972.66456,314328.8555713,255
1658994972.66456,314328.8555746,219
1658994972.66456,314328.8555782,197
1658994972.66456,314328.8555819,202
1658994972.66456,314328.855587,188
1658994972.66456,314328.8555907,169
1658994972.66456,314328.8555945,164
1658994972.66456,314328.8555999,171
1658994972.66456,314328.8556036,169
1658994972.66456,314328.8556089,152
1658994972.66456,314328.8556126,135
1658994972.66456,314328.8556181,131
1658994972.66456,314328.8556218,131
1658994972.66456,314328.8556271,133
1658994972.66456,314328.8556309,138
1658994972.66456,314329.4411026,135
1658994972.66456,314329.4411249,138
1658994972.66456,314329.4411317,135
1658994972.66456,314329.4411389,138
1658994972.66456,314329.4411458,159
1658994972.66456,314329.4411512,166
1658994972.66456,314329.4411579,147
1658994973.23828,314329.4411641,143
1658994973.23828,314329.4411686,157
1658994973.23828,314329.4411762,178
1658994973.23828,314329.4411848,195
1658994973.23828,314329.4411911,202
1658994973.23828,314329.4411968,207
1658994973.23828,314329.4412021,190
1658994973.23828,314329.4412064,164
1658994973.23828,314329.4412103,159
1658994973.23828,314329.4412147,162
1658994973.23828,314329.4412187,150
1658994973.23828,314329.4412244,152
1658994973.23828,314329.4412298,157
1658994973.23828,314329.4412351,147
1658994973.23828,314329.441242,145
1658994973.23828,314329.4412465,150
1658994973.23828,314329.4412509,152
1658994973.23828,314329.4412565,152
1658994973.23828,314329.4412608,150
1658994973.23828,314329.4412662,152
1658994973.23828,314329.4412712,154
1658994973.23828,314329.4412763,157
1658994973.23828,314329.4412813,164
1658994973.23828,314329.4412855,171
1658994973.23828,314329.441291,174
1658994973.23828,314329.4412954,183
1658994973.23828,314329.4413006,195
1658994973.23828,314329.4413057,193
1658994973.23828,314329.4413103,188
1658994973.23828,314329.4413159,181
1658994973.23828,314329.4413204,157
1658994973.23828,314329.4413256,131
1658994973.23828,314329.4413307,133
1658994973.23828,314329.441335,154
1658994973.23828,314329.4413401,166
1658994973.23828,314329.4413448,159
1658994973.23828,314329.4413499,152
1658994973.23828,314329.441355,152
1658994973.23828,314329.4413594,140
1658994973.23828,314329.4413646,131
1658994973.23828,314329.4413688,140
1658994973.23828,314329.4413741,143
1658994973.23828,314329.4413792,126
1658994973.23828,314329.4413838,140
1658994973.23828,314329.4413893,193
1658994973.23828,314329.4413938,174
1658994973.23828,314329.441399,-38
1658994973.23828,314329.4414041,-467
1658994973.23828,314329.4414093,-896
1658994973.23828,314329.4414134,-777
1658994973.26022,314329.4414177,-28
1658994973.26022,314329.4414221,419
1658994973.26022,314329.4414262,214
1658994973.26022,314329.4414304,73
1658994973.26022,314329.4414345,178
1658994973.26022,314329.4414387,169
1658994973.26022,314329.4414425,107
1658994973.26022,314329.4414465,131
1658994973.26022,314329.4414502,128
1658994973.26022,314329.4414547,100
1658994973.26022,314329.4414592,102
1658994973.26022,314329.441464,90
1658994973.26022,314329.4414683,66
1658994973.26022,314329.4414728,57
1658994973.26022,314329.4414771,52
1658994973.26022,314329.4414815,45
1658994973.26022,314330.0259272,42
1658994973.26022,314330.0259488,33
1658994973.26022,314330.0259578,23
1658994973.26022,314330.0259631,28
1658994973.26022,314330.0259677,33
1658994973.26022,314330.0259718,30
1658994973.26022,314330.0259762,26
1658994973.26022,314330.0259804,28
1658994973.87296,314330.0259848,35
1658994973.87296,314330.0259894,30
1658994973.87296,314330.0259934,23
1658994973.87296,314330.0259991,23
1658994973.87296,314330.0260024,28
1658994973.87296,314330.0260065,40
1658994973.87296,314330.0260093,59
1658994973.87296,314330.0260123,81
1658994973.87296,314330.0260167,90
1658994973.87296,314330.0260217,83
1658994973.87296,314330.0260282,83
1658994973.87296,314330.0260346,95
1658994973.87296,314330.0260415,112
1658994973.87296,314330.0260476,121
1658994973.87296,314330.0260546,121
1658994973.87296,314330.0260613,107
1658994973.87296,314330.0260677,90
1658994973.87296,314330.0260745,100
1658994973.87296,314330.0260815,114
1658994973.87296,314330.026088,112
1658994973.87296,314330.026097,100
1658994973.87296,314330.0261052,85
1658994973.87296,314330.0261117,88
1658994973.87296,314330.0261198,100
1658994973.87296,314330.0261268,92
1658994973.87296,314330.0261351,85
1658994973.87296,314330.026143,97
1658994973.87296,314330.0261513,112
1658994973.87296,314330.0261565,102
1658994973.87296,314330.0261721,90
1658994973.87296,314330.026184,102
1658994973.87296,314330.026193,123
1658994973.87296,314330.0262022,128
1658994973.87296,314330.0262097,128
1658994973.87296,314330.0262176,116
1658994973.87296,314330.0262278,90
1658994973.87296,314330.0262379,61
1658994973.87296,314330.0262468,66
1658994973.87296,314330.0262557,104
1658994973.87296,314330.0262629,119
1658994973.87296,314330.0262716,102
1658994973.87296,314330.0262786,107
1658994973.87296,314330.0262869,114
1658994973.87296,314330.0262944,109
1658994973.87296,314330.0263028,116
1658994973.87296,314330.0263096,128
1658994973.87296,314330.0263176,123
1658994973.87296,314330.0263246,123
1658994973.87296,314330.0263313,147
1658994973.87296,314330.0263364,190
1658994973.88492,314330.0263425,162
1658994973.88492,314330.0263471,-83
1658994973.88492,314330.0263556,-531
1658994973.88492,314330.0263622,-870
1658994973.88492,314330.026367,-605
1658994973.88492,314330.02638,97
1658994973.88492,314330.0263855,369
1658994973.88492,314330.0263914,157
1658994973.88492,314330.0263963,104
1658994973.88492,314330.0264006,207
1658994973.88492,314330.0264058,178
1658994973.88492,314330.026434,131
1658994973.88492,314330.0264438,162
1658994973.88492,314330.0264489,171
1658994973.88492,314330.0264519,135
1658994973.88492,314330.6598788,116
1658994973.88492,314330.6598979,116
1658994973.88492,314330.659908,107
1658994973.88492,314330.6599121,92
1658994973.88492,314330.6599249,69
1658994973.88492,314330.6599378,57
1658994973.88492,314330.6599444,59
1658994973.88492,314330.6599493,33
1658994973.88492,314330.6599573,2
1658994974.40769,314330.6599663,9
1658994974.40769,314330.6599692,23
1658994974.40769,314330.6599716,21
1658994974.40769,314330.659979,14
1658994974.40769,314330.6599888,2
1658994974.40769,314330.6600013,-14
1658994974.40769,314330.6600142,-11
1658994974.40769,314330.6600254,-2
1658994974.40769,314330.6600364,2
1658994974.40769,314330.6600493,16
1658994974.40769,314330.6601069,35
1658994974.40769,314330.6601214,42
1658994974.40769,314330.660128,57
1658994974.40769,314330.6601326,83
1658994974.40769,314330.6601383,90
1658994974.40769,314330.6601418,97
1658994974.40769,314330.6601452,109
1658994974.40769,314330.6601489,109
1658994974.40769,314330.6601524,114
1658994974.40769,314330.6601557,121
1658994974.40769,314330.6601588,114
1658994974.40769,314330.660162,104
1658994974.40769,314330.6601677,107
1658994974.40769,314330.6601728,114
1658994974.40769,314330.6601796,109
1658994974.40769,314330.6601828,107
1658994974.40769,314330.6601859,107
1658994974.40769,314330.6601892,95
1658994974.40769,314330.6601922,83
1658994974.40769,314330.6601954,90
1658994974.40769,314330.6601986,97
1658994974.40769,314330.6602025,107
1658994974.40769,314330.6602056,109
1658994974.40769,314330.6602089,109
1658994974.40769,314330.6602121,123
1658994974.40769,314330.6602154,131
1658994974.40769,314330.6602186,121
1658994974.40769,314330.6602218,119
1658994974.40769,314330.6602249,123
1658994974.40769,314330.6602279,121
1658994974.40769,314330.6602309,121
1658994974.40769,314330.6602341,119
1658994974.40769,314330.6602374,107
1658994974.40769,314330.6602406,100
1658994974.40769,314330.6602437,126
1658994974.40769,314330.660247,152
1658994974.40769,314330.6602503,140
1658994974.40769,314330.6602539,131
1658994974.40769,314330.660258,143
1658994974.40769,314330.6602612,145
1658994974.41966,314330.6602643,150
1658994974.41966,314330.6602676,152
1658994974.41966,314330.6602709,147
1658994974.41966,314330.6602743,157
1658994974.41966,314330.6602776,188
1658994974.41966,314330.6602819,224
1658994974.41966,314330.6602854,174
1658994974.41966,314330.6602916,-64
1658994974.41966,314330.6602951,-464
1658994974.41966,314330.6602985,-751
1658994974.41966,314330.6603021,-484
1658994974.41966,314330.6603058,162
1658994974.41966,314330.6603098,400
1658994974.41966,314330.6603138,200
1658994974.41966,314331.1972341,145
1658994974.41966,314331.1972571,221
1658994974.41966,314331.197272,195
1658994974.41966,314331.1972873,169
1658994974.41966,314331.1973005,183
1658994974.41966,314331.1973135,164
1658994974.41966,314331.1973255,147
1658994974.41966,314331.1973331,152
1658994974.41966,314331.1973432,145
1658994974.41966,314331.1973522,133
1658994974.99918,314331.1973641,123
1658994974.99918,314331.1973723,107
1658994974.99918,314331.197382,92
1658994974.99918,314331.1973879,90
1658994974.99918,314331.1973916,90
1658994974.99918,314331.1973953,81
1658994974.99918,314331.1974014,57
1658994974.99918,314331.1974085,35
1658994974.99918,314331.19742,40
1658994974.99918,314331.1974333,47
1658994974.99918,314331.1974461,47
1658994974.99918,314331.1974717,57
1658994974.99918,314331.197485,59
1658994974.99918,314331.1974969,50
1658994974.99918,314331.1975091,54
1658994974.99918,314331.1975192,76
1658994974.99918,314331.1975513,90
1658994974.99918,314331.1975601,100
1658994974.99918,314331.1975646,121
1658994974.99918,314331.1975706,131
1658994974.99918,314331.1975762,131
1658994974.99918,314331.1975836,152
1658994974.99918,314331.1975903,169
1658994974.99918,314331.197599,164
1658994974.99918,314331.1976059,166
1658994974.99918,314331.197614,166
1658994974.99918,314331.1976954,157
1658994974.99918,314331.1977053,150
1658994974.99918,314331.1977123,147
1658994974.99918,314331.1977218,152
1658994974.99918,314331.1977333,159
1658994974.99918,314331.1977967,152
1658994974.99918,314331.1978064,145
1658994974.99918,314331.1978109,145
1658994974.99918,314331.1978153,145
1658994974.99918,314331.1978188,152
1658994974.99918,314331.1978225,159
1658994974.99918,314331.1978262,159
1658994974.99918,314331.1978299,171
1658994974.99918,314331.1978353,181
1658994974.99918,314331.1978391,174
1658994974.99918,314331.1978428,166
1658994974.99918,314331.1978463,171
1658994974.99918,314331.1978523,181
1658994974.99918,314331.197859,195
1658994974.99918,314331.1978674,197
1658994974.99918,314331.1978762,181
1658994974.99918,314331.1978838,178
1658994974.99918,314331.1978889,181
1658994974.99918,314331.1978958,164
1658994975.01612,314331.1979002,145
1658994975.01612,314331.1979062,154
1658994975.01612,314331.1979103,181
1658994975.01612,314331.1979145,195
1658994975.01612,314331.1979205,195
1658994975.01612,314331.1979247,200
1658994975.01612,314331.1979309,202
1658994975.01612,314331.1979356,195
1658994975.01612,314331.1979416,188
1658994975.01612,314331.1979484,195
1658994975.01612,314331.197953,195
1658994975.01612,314331.1979596,188
1658994975.01612,314331.1979637,216
1658994975.01612,314331.7813928,257
1658994975.01612,314331.7814097,178
1658994975.01612,314331.7814152,-128
1658994975.01612,314331.7814234,-586
1658994975.01612,314331.7814294,-829
1658994975.01612,314331.7814355,-424
1658994975.01612,314331.7814402,276
1658994975.01612,314331.7814505,433
1658994975.01612,314331.7814645,197
1658994975.01612,314331.7814747,181
1658994975.01612,314331.7814799,247
1658994975.47268,314331.7814863,197
1658994975.47268,314331.7814968,181
1658994975.47268,314331.7815035,202
1658994975.47268,314331.7815116,181
1658994975.47268,314331.7815173,157
1658994975.47268,314331.7815218,164
1658994975.47268,314331.7815262,164
1658994975.47268,314331.7815328,147
1658994975.47268,314331.7815374,133
1658994975.47268,314331.7815436,121
1658994975.47268,314331.7815538,97
1658994975.47268,314331.7815674,71
1658994975.47268,314331.781579,59
1658994975.47268,314331.7815906,61
1658994975.47268,314331.7816018,59
1658994975.47268,314331.7816145,33
1658994975.47268,314331.781627,9
1658994975.47268,314331.7816396,21
1658994975.47268,314331.7816513,38
1658994975.47268,314331.781663,40
1658994975.47268,314331.7816781,33
1658994975.47268,314331.7816873,23
1658994975.47268,314331.7816921,9
1658994975.47268,314331.7816987,14
1658994975.47268,314331.7817088,40
1658994975.47268,314331.7817226,57
1658994975.47268,314331.7817353,78
1658994975.47268,314331.7817482,104
1658994975.47268,314331.7817613,109
1658994975.47268,314331.7817734,112
1658994975.47268,314331.7817834,131
1658994975.47268,314331.7817899,138
1658994975.47268,314331.7817981,138
1658994975.47268,314331.7818059,143
1658994975.47268,314331.7818112,133
1658994975.47268,314331.7818241,123
1658994975.47268,314331.7818366,131
1658994975.47268,314331.7818477,135
1658994975.47268,314331.7818587,133
1658994975.47268,314331.7818741,133
1658994975.47268,314331.7818872,123
1658994975.47268,314331.7819004,119
1658994975.47268,314331.7819126,128
1658994975.47268,314331.7819216,133
1658994975.47268,314331.7819324,133
1658994975.47268,314331.7819386,135
1658994975.47268,314331.781946,143
1658994975.47268,314331.7819512,140
1658994975.47268,314331.7819574,135
1658994975.47268,314331.7819622,143
1658994975.49163,314331.7819656,154
1658994975.49163,314331.7819726,164
1658994975.49163,314331.781976,154
1658994975.49163,314331.7819823,145
1658994975.49163,314331.7819878,152
1658994975.49163,314331.781991,140
1658994975.49163,314331.7819993,119
1658994975.49163,314331.7820058,116
1658994975.49163,314331.7820088,112
1658994975.49163,314331.7820118,119
1658994975.49163,314331.7820148,143
1658994975.49163,314331.7820177,145
1658994975.49163,314332.2674785,138
1658994975.49163,314332.2674982,145
1658994975.49163,314332.2675131,143
1658994975.49163,314332.2675267,135
1658994975.49163,314332.26754,140
1658994975.49163,314332.2675532,147
1658994975.49163,314332.2675621,143
1658994975.49163,314332.2675647,150
1658994975.49163,314332.2675699,200
1658994975.49163,314332.2675815,185
1658994975.49163,314332.2675872,-59
1658994975.49163,314332.2675899,-512
1658994976.01819,314332.2675921,-891
1658994976.01819,314332.2675947,-691
1658994976.01819,314332.2676046,45
1658994976.01819,314332.2676114,405
1658994976.01819,314332.2676159,183
1658994976.01819,314332.26762,78
1658994976.01819,314332.2676243,183
1658994976.01819,314332.2676283,176
1658994976.01819,314332.2676324,128
1658994976.01819,314332.2676365,147
1658994976.01819,314332.2676416,143
1658994976.01819,314332.2676458,107
1658994976.01819,314332.2676502,85
1658994976.01819,314332.2676544,69
1658994976.01819,314332.2676608,52
1658994976.01819,314332.2676657,47
1658994976.01819,314332.2676703,45
1658994976.01819,314332.2676764,33
1658994976.01819,314332.2676818,14
1658994976.01819,314332.2676909,9
1658994976.01819,314332.2676996,11
1658994976.01819,314332.2677122,7
1658994976.01819,314332.2677255,4
1658994976.01819,314332.2677377,0
1658994976.01819,314332.2677501,-11
1658994976.01819,314332.2677827,-9
1658994976.01819,314332.267861,4
1658994976.01819,314332.2678686,2
1658994976.01819,314332.267872,2
1658994976.01819,314332.2678757,16
1658994976.01819,314332.2678792,19
1658994976.01819,314332.2678829,23
1658994976.01819,314332.2678882,42
1658994976.01819,314332.2678922,66
1658994976.01819,314332.2678981,81
1658994976.01819,314332.2679033,95
1658994976.01819,314332.2679089,109
1658994976.01819,314332.2679149,119
1658994976.01819,314332.2679209,121
1658994976.01819,314332.2679251,119
1658994976.01819,314332.2679302,121
1658994976.01819,314332.2679357,119
1658994976.01819,314332.2679398,107
1658994976.01819,314332.267943,102
1658994976.01819,314332.267946,100
1658994976.01819,314332.2679489,97
1658994976.01819,314332.2679518,92
1658994976.01819,314332.2679549,95
1658994976.01819,314332.2679584,97
1658994976.01819,314332.2679665,90
1658994976.03677,314332.2679697,83
1658994976.03677,314332.2679761,92
1658994976.03677,314332.267982,104
1658994976.03677,314332.2679888,104
1658994976.03677,314332.2679921,100
1658994976.03677,314332.267998,104
1658994976.03677,314332.2680012,112
1658994976.03677,314332.2680075,114
1658994976.03677,314332.2680149,121
1658994976.03677,314332.2680189,126
1658994976.03677,314332.2680221,123
1658994976.03677,314332.8053278,126
1658994976.03677,314332.8053514,131
1658994976.03677,314332.8053622,126
1658994976.03677,314332.80537,116
1658994976.03677,314332.8053768,114
1658994976.03677,314332.8053819,100
1658994976.03677,314332.8053861,81
1658994976.03677,314332.8053899,83
1658994976.03677,314332.8053937,104
1658994976.03677,314332.8053975,112
1658994976.03677,314332.8054014,107
1658994976.03677,314332.8054073,114
1658994976.03677,314332.8054146,121
1658994976.59376,314332.8054185,104
1658994976.59376,314332.805422,81
1658994976.59376,314332.8054258,81
1658994976.59376,314332.8054292,88
1658994976.59376,314332.8054327,83
1658994976.59376,314332.8054362,107
1658994976.59376,314332.8054398,121
1658994976.59376,314332.8054433,-23
1658994976.59376,314332.8054471,-371
1658994976.59376,314332.8054508,-779
1658994976.59376,314332.8054545,-870
1658994976.59376,314332.8054585,-331
1658994976.59376,314332.8054619,262
1658994976.59376,314332.8054656,245
1658994976.59376,314332.805471,47
1658994976.59376,314332.8054757,97
1658994976.59376,314332.8054807,150
1658994976.59376,314332.8054844,114
1658994976.59376,314332.8054878,116
1658994976.59376,314332.8054914,126
1658994976.59376,314332.8054963,112
1658994976.59376,314332.8055021,104
1658994976.59376,314332.8055064,100
1658994976.59376,314332.8055108,78
1658994976.59376,314332.8055162,66
1658994976.59376,314332.805523,64
1658994976.59376,314332.8055271,50
1658994976.59376,314332.8055309,38
1658994976.59376,314332.8055366,35
1658994976.59376,314332.8055414,30
1658994976.59376,314332.8055469,28
1658994976.59376,314332.8055505,23
1658994976.59376,314332.8055544,23
1658994976.59376,314332.8055593,26
1658994976.59376,314332.8055632,23
1658994976.59376,314332.8055683,11
1658994976.59376,314332.8055719,4
1658994976.59376,314332.8055758,16

1658994976.59376,314332.8055797,26
1658994976.59376,314332.8055856,19
1658994976.59376,314332.8055914,21
1658994976.59376,314332.8055976,38
1658994976.59376,314332.8056014,57
1658994976.59376,314332.8056065,78
1658994976.59376,314332.8056102,97
1658994976.59376,314332.8056153,104
1658994976.59376,314332.8056195,107
1658994976.59376,314332.8056251,112
1658994976.59376,314332.8056297,121
1658994976.59376,314332.805635,123
1658994976.61227,314332.8056411,123
1658994976.61227,314332.8056468,116
1658994976.61227,314332.8056517,104
1658994976.61227,314332.8056587,92
1658994976.61227,314332.8056624,95
1658994976.61227,314332.8056722,104
1658994976.61227,314332.8056759,104
1658994976.61227,314332.8056815,104
1658994976.61227,314332.8056857,107
1658994976.61227,314332.8056891,97
1658994976.61227,314333.3891267,83
1658994976.61227,314333.3891469,85
1658994976.61227,314333.3891559,92
1658994976.61227,314333.3891614,92
1658994976.61227,314333.3891658,97
1658994976.61227,314333.3891696,100
1658994976.61227,314333.3891741,97
1658994976.61227,314333.3891784,92
1658994976.61227,314333.3891828,100
1658994976.61227,314333.3891877,102
1658994976.61227,314333.3891933,100
1658994976.61227,314333.3891971,92
1658994976.61227,314333.3891999,85
1658994976.61227,314333.3892031,100
1658994977.14341,314333.3892071,128
1658994977.14341,314333.3892126,123
1658994977.14341,314333.3892173,97
1658994977.14341,314333.3892221,83
1658994977.14341,314333.389229,78
1658994977.14341,314333.3892355,64
1658994977.14341,314333.3892422,54
1658994977.14341,314333.389249,78
1658994977.14341,314333.3892529,104
1658994977.14341,314333.389256,85
1658994977.14341,314333.3892592,59
1658994977.14341,314333.3892626,76
1658994977.14341,314333.3892664,95
1658994977.14341,314333.3892712,81
1658994977.14341,314333.3892753,71
1658994977.14341,314333.3892808,83
1658994977.14341,314333.3892899,81
1658994977.14341,314333.3893002,69
1658994977.14341,314333.3893083,112
1658994977.14341,314333.3893146,154
1658994977.14341,314333.3893211,42
1658994977.14341,314333.389328,-267
1658994977.14341,314333.3893323,-662
1658994977.14341,314333.3893385,-796
1658994977.14341,314333.3893466,-333
1658994977.14341,314333.38936,252
1658994977.14341,314333.3893729,290
1658994977.14341,314333.3893861,95
1658994977.14341,314333.3893991,116
1658994977.14341,314333.3894122,162
1658994977.14341,314333.3895707,116
1658994977.14341,314333.3895859,109
1658994977.14341,314333.3895996,128
1658994977.14341,314333.3896126,112
1658994977.14341,314333.3896244,90
1658994977.14341,314333.3896323,85
1658994977.14341,314333.3896383,85
1658994977.14341,314333.3896442,83
1658994977.14341,314333.3896517,76
1658994977.14341,314333.3896578,66
1658994977.14341,314333.3896639,61
1658994977.14341,314333.3896701,61
1658994977.14341,314333.3896763,57
1658994977.14341,314333.3896828,50
1658994977.14341,314333.3896893,47
1658994977.14341,314333.3896958,47
1658994977.14341,314333.3897024,45
1658994977.14341,314333.3897091,45
1658994977.14341,314333.3897152,57
1658994977.14341,314333.3897213,57
1658994977.16711,314333.3897269,50
1658994977.16711,314333.3897303,47
1658994977.16711,314333.3897338,42
1658994977.16711,314333.3897423,47
1658994977.16711,314333.3897504,66
1658994977.16711,314333.3897592,88
1658994977.16711,314333.3897663,104
1658994977.16711,314333.3897744,119
1658994977.16711,314333.3897816,128
1658994977.16711,314333.9251663,135
1658994977.16711,314333.9251843,143
1658994977.16711,314333.9251925,152
1658994977.16711,314333.9251981,159
1658994977.16711,314333.9252037,154
1658994977.16711,314333.9252099,145
1658994977.16711,314333.9252167,140
1658994977.16711,314333.9252238,128
1658994977.16711,314333.9252339,116
1658994977.16711,314333.92524,128
1658994977.16711,314333.9252455,143
1658994977.16711,314333.9252512,143
1658994977.16711,314333.9252589,140
1658994977.16711,314333.9252645,138
1658994977.16711,314333.9252715,138
1658994977.6776,314333.9252771,150
1658994977.6776,314333.9252826,159
1658994977.6776,314333.925288,157
1658994977.6776,314333.9252933,157
1658994977.6776,314333.9253001,157
1658994977.6776,314333.9253076,150
1658994977.6776,314333.9253129,150
1658994977.6776,314333.9253196,159
1658994977.6776,314333.925326,164
1658994977.6776,314333.9253324,164
1658994977.6776,314333.9253394,164
1658994977.6776,314333.9253464,162
1658994977.6776,314333.9253524,166
1658994977.6776,314333.9253588,174
1658994977.6776,314333.925364,174
1658994977.6776,314333.9253703,169
1658994977.6776,314333.9253754,174
1658994977.6776,314333.9253816,169
1658994977.6776,314333.9253865,154
1658994977.6776,314333.9253927,147
1658994977.6776,314333.9253995,143
1658994977.6776,314333.9254057,133
1658994977.6776,314333.9254106,145
1658994977.6776,314333.9254168,169
1658994977.6776,314333.9254218,169
1658994977.6776,314333.9254282,162
1658994977.6776,314333.9254347,166
1658994977.6776,314333.925441,169
1658994977.6776,314333.925446,169
1658994977.6776,314333.925454,169
1658994977.6776,314333.925459,169
1658994977.6776,314333.9254652,176
1658994977.6776,314333.9254719,178
1658994977.6776,314333.9254781,197
1658994977.6776,314333.9254829,207
1658994977.6776,314333.9254891,66
1658994977.6776,314333.925494,-276
1658994977.6776,314333.9254987,-691
1658994977.6776,314333.9255048,-763
1658994977.6776,314333.9255096,-185
1658994977.6776,314333.9255158,393
1658994977.6776,314333.9255749,333
1658994977.6776,314333.9255826,128
1658994977.6776,314333.9255867,185
1658994977.6776,314333.92559,219
1658994977.6776,314333.9255933,166
1658994977.6776,314333.9255965,176
1658994977.6776,314333.9255994,190
1658994977.6776,314333.9256025,164
1658994977.6776,314333.9256082,157
1658994977.69455,314333.9256129,154
1658994977.69455,314333.92562,133
1658994977.69455,314333.9256242,123
1658994977.69455,314333.9256313,126
1658994977.69455,314333.9256398,119
1658994977.69455,314333.9256472,107
1658994977.69455,314333.9256569,102
1658994977.69455,314333.9256669,107
1658994977.69455,314334.4626318,107
1658994977.69455,314334.4626505,107
1658994977.69455,314334.462659,112
1658994977.69455,314334.462667,104
1658994977.69455,314334.4626747,97
1658994977.69455,314334.4626824,104
1658994977.69455,314334.4626879,114
1658994977.69455,314334.4626915,116
1658994977.69455,314334.4626975,121
1658994977.69455,314334.4627011,131
1658994977.69455,314334.4627599,126
1658994977.69455,314334.4627666,116
1658994977.69455,314334.4627702,131
1658994977.69455,314334.4627737,154
1658994977.69455,314334.4627772,171
1658994977.69455,314334.4627807,185
1658994978.29669,314334.4627863,181
1658994978.29669,314334.4627897,169
1658994978.29669,314334.4627932,176
1658994978.29669,314334.4627967,193
1658994978.29669,314334.4628001,188
1658994978.29669,314334.4628035,174
1658994978.29669,314334.4628069,162
1658994978.29669,314334.4628104,154
1658994978.29669,314334.4628139,152
1658994978.29669,314334.4628174,159
1658994978.29669,314334.4628208,162
1658994978.29669,314334.4628242,150
1658994978.29669,314334.4628276,150
1658994978.29669,314334.4628311,159
1658994978.29669,314334.4628345,159
1658994978.29669,314334.4628381,162
1658994978.29669,314334.4628425,169
1658994978.29669,314334.4628459,174
1658994978.29669,314334.4628493,174
1658994978.29669,314334.4628527,174
1658994978.29669,314334.4628561,169
1658994978.29669,314334.4628595,171
1658994978.29669,314334.462863,181
1658994978.29669,314334.4628664,178
1658994978.29669,314334.4628699,164
1658994978.29669,314334.4628733,164
1658994978.29669,314334.4628767,171
1658994978.29669,314334.4628802,176
1658994978.29669,314334.462884,174
1658994978.29669,314334.462888,171
1658994978.29669,314334.462892,162
1658994978.29669,314334.4628954,150
1658994978.29669,314334.4628988,138
1658994978.29669,314334.4629022,143
1658994978.29669,314334.4629056,154
1658994978.29669,314334.4629091,145
1658994978.29669,314334.4629125,135
1658994978.29669,314334.462916,133
1658994978.29669,314334.4629194,126
1658994978.29669,314334.4629229,121
1658994978.29669,314334.4629265,123
1658994978.29669,314334.4629299,119
1658994978.29669,314334.4629334,107
1658994978.29669,314334.4629369,114
1658994978.29669,314334.4629404,150
1658994978.29669,314334.4629438,176
1658994978.29669,314334.4629473,64
1658994978.29669,314334.4629509,-259
1658994978.29669,314334.4629543,-715
1658994978.29669,314334.4629577,-927
1658994978.32752,314334.4629611,-433
1658994978.32752,314334.4629645,300
1658994978.32752,314334.462968,371
1658994978.32752,314334.4629714,109
1658994978.32752,314334.4629749,147
1658994978.32752,314334.4629784,231
1658994978.32752,314334.4629819,164
1658994978.32752,314335.0952936,152
1658994978.32752,314335.0953124,181
1658994978.32752,314335.0953193,162
1658994978.32752,314335.0953238,143
1658994978.32752,314335.095328,147
1658994978.32752,314335.0953319,138
1658994978.32752,314335.0953361,116
1658994978.32752,314335.0953401,100
1658994978.32752,314335.0953439,85
1658994978.32752,314335.0953477,78
1658994978.32752,314335.0953518,81
1658994978.32752,314335.0953559,83
1658994978.32752,314335.09536,66
1658994978.32752,314335.095364,42
1658994978.32752,314335.0953679,30
1658994978.32752,314335.0953718,33
1658994978.32752,314335.0953756,35
1658994978.94033,314335.0953794,40
1658994978.94033,314335.0953839,59
1658994978.94033,314335.0953887,66
1658994978.94033,314335.095393,61
1658994978.94033,314335.0953969,64
1658994978.94033,314335.0954015,85
1658994978.94033,314335.0954064,100
1658994978.94033,314335.0954105,112
1658994978.94033,314335.0954146,128
1658994978.94033,314335.0954187,140
1658994978.94033,314335.0954231,147
1658994978.94033,314335.0954276,162
1658994978.94033,314335.0954364,174
1658994978.94033,314335.0954441,181
1658994978.94033,314335.095449,181
1658994978.94033,314335.0954535,171
1658994978.94033,314335.0954602,166
1658994978.94033,314335.0954672,169
1658994978.94033,314335.0954731,171
1658994978.94033,314335.0954775,166
1658994978.94033,314335.0954816,169
1658994978.94033,314335.0954859,166
1658994978.94033,314335.0954911,159
1658994978.94033,314335.0954982,159
1658994978.94033,314335.0955047,162
1658994978.94033,314335.0955097,159
1658994978.94033,314335.0955152,154
1658994978.94033,314335.0955199,150
1658994978.94033,314335.0955245,140
1658994978.94033,314335.095529,140
1658994978.94033,314335.0955335,147
1658994978.94033,314335.095538,152
1658994978.94033,314335.0955425,150
1658994978.94033,314335.095547,150
1658994978.94033,314335.0955516,150
1658994978.94033,314335.0955561,145
1658994978.94033,314335.095561,150
1658994978.94033,314335.0955655,159
1658994978.94033,314335.09557,166
1658994978.94033,314335.0955749,169
1658994978.94033,314335.0955793,164
1658994978.94033,314335.0955838,154
1658994978.94033,314335.0955886,150
1658994978.94033,314335.0955931,145
1658994978.94033,314335.0955975,138
1658994978.94033,314335.0956021,150
1658994978.94033,314335.0956066,166
1658994978.94033,314335.0956118,162
1658994978.94033,314335.0956169,150
1658994978.94033,314335.0956227,152
1658994978.95973,314335.0956273,150
1658994978.95973,314335.0956328,140
1658994978.95973,314335.0956373,138
1658994978.95973,314335.0956431,138
1658994978.95973,314335.0956486,138
1658994978.95973,314335.0956533,152
1658994978.95973,314335.7290285,185
1658994978.95973,314335.7290462,190
1658994978.95973,314335.7290535,33
1658994978.95973,314335.7290583,-350
1658994978.95973,314335.7290628,-808
1658994978.95973,314335.729067,-867
1658994978.95973,314335.7290713,-245
1658994978.95973,314335.7290754,355
1658994978.95973,314335.72908,307
1658994978.95973,314335.7290849,123
1658994978.95973,314335.7290895,197
1658994978.95973,314335.7290938,233
1658994978.95973,314335.7290981,178
1658994978.95973,314335.7291019,190
1658994978.95973,314335.729106,205
1658994978.95973,314335.7291122,171
1658994978.95973,314335.729119,152
1658994978.95973,314335.7291252,143
1658994979.39419,314335.7291316,126
1658994979.39419,314335.7291359,121
1658994979.39419,314335.7291403,123
1658994979.39419,314335.7291443,121
1658994979.39419,314335.7291482,109
1658994979.39419,314335.7291527,81
1658994979.39419,314335.729157,69
1658994979.39419,314335.7291612,78
1658994979.39419,314335.7291662,78
1658994979.39419,314335.7291709,71
1658994979.39419,314335.7291747,78
1658994979.39419,314335.7291788,78
1658994979.39419,314335.7291829,73
1658994979.39419,314335.7291872,76
1658994979.39419,314335.7291917,81
1658994979.39419,314335.7291959,85
1658994979.39419,314335.7292011,97
1658994979.39419,314335.7292055,100
1658994979.39419,314335.7292097,95
1658994979.39419,314335.7292139,102
1658994979.39419,314335.7292185,119
1658994979.39419,314335.7292229,138
1658994979.39419,314335.7292275,154
1658994979.39419,314335.7292321,164
1658994979.39419,314335.7292366,166
1658994979.39419,314335.7292413,169
1658994979.39419,314335.729246,162
1658994979.39419,314335.7292503,154
1658994979.39419,314335.7292545,159
1658994979.39419,314335.7292591,162
1658994979.39419,314335.7292636,157
1658994979.39419,314335.7292683,143
1658994979.39419,314335.7292738,143
1658994979.39419,314335.7292783,150
1658994979.39419,314335.729283,152
1658994979.39419,314335.7292882,150
1658994979.39419,314335.7292934,150
1658994979.39419,314335.7293001,143
1658994979.39419,314335.7293061,135
1658994979.39419,314335.7293109,138
1658994979.39419,314335.7293157,140
1658994979.39419,314335.7293208,143
1658994979.39419,314335.7293256,145
1658994979.39419,314335.7293305,140
1658994979.39419,314335.7293353,140
1658994979.39419,314335.72934,147
1658994979.39419,314335.729347,147
1658994979.39419,314335.7293514,145
1658994979.39419,314335.7293557,147
1658994979.39419,314335.7293599,152
1658994979.42211,314335.7293656,147
1658994979.42211,314335.7293717,138
1658994979.42211,314335.7293766,138
1658994979.42211,314335.7293827,145
1658994979.42211,314335.7293871,135
1658994979.42211,314336.1672877,104
1658994979.42211,314336.1673076,83
1658994979.42211,314336.1673228,97
1658994979.42211,314336.1673371,121
1658994979.42211,314336.1673514,126
1658994979.42211,314336.167366,121
1658994979.42211,314336.1673734,114
1658994979.42211,314336.1673871,102
1658994979.42211,314336.1674001,100
1658994979.42211,314336.1674132,107
1658994979.42211,314336.1674265,107
1658994979.42211,314336.1674397,104
1658994979.42211,314336.1674528,109
1658994979.42211,314336.1674672,128
1658994979.42211,314336.1674803,123
1658994979.42211,314336.1674934,-19
1658994979.42211,314336.1675078,-357
1658994979.42211,314336.167521,-767
1658994979.42211,314336.1675352,-846
1658994979.95483,314336.1675483,-298
1658994979.95483,314336.1675562,286
1658994979.95483,314336.1675625,264
1658994979.95483,314336.1675733,73
1658994979.95483,314336.167586,131
1658994979.95483,314336.1675991,176
1658994979.95483,314336.1676121,121
1658994979.95483,314336.1676257,126
1658994979.95483,314336.1676386,140
1658994979.95483,314336.1676526,95
1658994979.95483,314336.1676659,78
1658994979.95483,314336.167679,95
1658994979.95483,314336.1676929,83
1658994979.95483,314336.167703,57
1658994979.95483,314336.16771,40
1658994979.95483,314336.1677228,30
1658994979.95483,314336.1677353,35
1658994979.95483,314336.167748,38
1658994979.95483,314336.1677636,33
1658994979.95483,314336.1677768,33
1658994979.95483,314336.1677898,38
1658994979.95483,314336.1678041,33
1658994979.95483,314336.1678173,38
1658994979.95483,314336.167826,42
1658994979.95483,314336.1678362,40
1658994979.95483,314336.1678468,50
1658994979.95483,314336.1678541,59
1658994979.95483,314336.1678628,57
1658994979.95483,314336.1678678,59
1658994979.95483,314336.1678707,64
1658994979.95483,314336.1678729,71
1658994979.95483,314336.1678751,92
1658994979.95483,314336.1678771,112
1658994979.95483,314336.1678792,123
1658994979.95483,314336.167882,140
1658994979.95483,314336.167885,154
1658994979.95483,314336.1678959,154
1658994979.95483,314336.1679029,157
1658994979.95483,314336.1679052,159
1658994979.95483,314336.1679073,150
1658994979.95483,314336.1679093,140
1658994979.95483,314336.1679124,128
1658994979.95483,314336.1679233,131
1658994979.95483,314336.1679299,140
1658994979.95483,314336.1679323,135
1658994979.95483,314336.1679344,126
1658994979.95483,314336.1679393,128
1658994979.95483,314336.1679507,131
1658994979.95483,314336.1679565,121
1658994979.95483,314336.1679596,121
1658994979.97777,314336.1679634,135
1658994979.97777,314336.1679746,143
1658994979.97777,314336.1679813,140
1658994979.97777,314336.1679837,140
1658994979.97777,314336.752773,143
1658994979.97777,314336.7527976,140
1658994979.97777,314336.752808,143
1658994979.97777,314336.7528133,150
1658994979.97777,314336.7528214,143
1658994979.97777,314336.7528282,140
1658994979.97777,314336.7528376,152
1658994979.97777,314336.7528444,154
1658994979.97777,314336.7528516,157
1658994979.97777,314336.752865,152
1658994979.97777,314336.7528794,135
1658994979.97777,314336.7528972,121
1658994979.97777,314336.7529147,107
1658994979.97777,314336.7529209,83
1658994979.97777,314336.7529243,69
1658994979.97777,314336.7529304,88
1658994979.97777,314336.752936,104
1658994979.97777,314336.7529415,81
1658994979.97777,314336.7529451,59
1658994979.97777,314336.7529484,66
1658994980.50093,314336.7529517,61
1658994980.50093,314336.7529549,52
1658994980.50093,314336.7529582,57
1658994980.50093,314336.7529614,57
1658994980.50093,314336.752965,54
1658994980.50093,314336.7529682,71
1658994980.50093,314336.7529714,102
1658994980.50093,314336.7529746,121
1658994980.50093,314336.7529778,16
1658994980.50093,314336.7529811,-309
1658994980.50093,314336.7529843,-734
1658994980.50093,314336.7529876,-844
1658994980.50093,314336.7529907,-331
1658994980.50093,314336.7529937,274
1658994980.50093,314336.752997,300
1658994980.50093,314336.7530003,97
1658994980.50093,314336.7530035,123
1658994980.50093,314336.7530085,176
1658994980.50093,314336.7530141,140
1658994980.50093,314336.7530186,143
1658994980.50093,314336.7530242,154
1658994980.50093,314336.7530277,133
1658994980.50093,314336.7530312,121
1658994980.50093,314336.7530345,126
1658994980.50093,314336.7530394,123
1658994980.50093,314336.7530429,114
1658994980.50093,314336.7530471,109
1658994980.50093,314336.753052,107
1658994980.50093,314336.7530591,97
1658994980.50093,314336.7530651,90
1658994980.50093,314336.7530732,85
1658994980.50093,314336.7530833,81
1658994980.50093,314336.7530965,83
1658994980.50093,314336.7531045,83
1658994980.50093,314336.7531107,78
1658994980.50093,314336.7531141,78
1658994980.50093,314336.7531205,81
1658994980.50093,314336.7531264,85
1658994980.50093,314336.7531343,88
1658994980.50093,314336.7531438,88
1658994980.50093,314336.7531527,85
1658994980.50093,314336.75316,92
1658994980.50093,314336.7531667,107
1658994980.50093,314336.75317,123
1658994980.50093,314336.7531755,143
1658994980.50093,314336.753179,154
1658994980.50093,314336.7531833,169
1658994980.50093,314336.7531894,178
1658994980.50093,314336.7531925,181
1658994980.50093,314336.7532013,185
1658994980.52935,314336.753205,188
1658994980.52935,314336.753208,183
1658994980.52935,314336.753211,176
1658994980.52935,314337.2888498,174
1658994980.52935,314337.2888673,174
1658994980.52935,314337.288879,174
1658994980.52935,314337.2888922,171
1658994980.52935,314337.288905,169
1658994980.52935,314337.2889191,169
1658994980.52935,314337.2889321,164
1658994980.52935,314337.2889451,150
1658994980.52935,314337.2889538,135
1658994980.52935,314337.2889564,131
1658994980.52935,314337.2889585,133
1658994980.52935,314337.2889607,135
1658994980.52935,314337.2889667,135
1658994980.52935,314337.288978,126
1658994980.52935,314337.2889832,121
1658994980.52935,314337.2889854,131
1658994980.52935,314337.2889875,138
1658994980.52935,314337.2889896,131
1658994980.52935,314337.2889955,133
1658994980.52935,314337.2890066,135
1658994980.52935,314337.2890175,116
1658994981.02901,314337.2890307,114
1658994981.02901,314337.2890388,126
1658994981.02901,314337.289046,126
1658994981.02901,314337.2890536,119
1658994981.02901,314337.2890603,102
1658994981.02901,314337.2890697,78
1658994981.02901,314337.2890786,66
1658994981.02901,314337.2890921,85
1658994981.02901,314337.2891048,112
1658994981.02901,314337.289118,112
1658994981.02901,314337.2891315,102
1658994981.02901,314337.2891445,109
1658994981.02901,314337.2891577,119
1658994981.02901,314337.289171,119
1658994981.02901,314337.2891841,114
1658994981.02901,314337.2891972,114
1658994981.02901,314337.2892102,119
1658994981.02901,314337.2892232,123
1658994981.02901,314337.2892362,152
1658994981.02901,314337.2892576,169
1658994981.02901,314337.2892682,11
1658994981.02901,314337.2892813,-367
1658994981.02901,314337.2892931,-782
1658994981.02901,314337.2893019,-798
1658994981.02901,314337.2893084,-190
1658994981.02901,314337.2893152,369
1658994981.02901,314337.2893211,300
1658994981.02901,314337.2893281,109
1658994981.02901,314337.2893487,181
1658994981.02901,314337.289359,219
1658994981.02901,314337.2893678,164
1658994981.02901,314337.2893746,169
1658994981.02901,314337.2893784,181
1658994981.02901,314337.2893814,159
1658994981.02901,314337.2893848,154
1658994981.02901,314337.2893895,154
1658994981.02901,314337.2893928,145
1658994981.02901,314337.2893958,138
1658994981.02901,314337.2894003,131
1658994981.02901,314337.2894041,119
1658994981.02901,314337.289407,114
1658994981.02901,314337.2894101,116
1658994981.02901,314337.289413,121
1658994981.02901,314337.289416,109
1658994981.02901,314337.2894189,104
1658994981.02901,314337.2894218,114
1658994981.02901,314337.2894248,116
1658994981.02901,314337.2894295,109
1658994981.02901,314337.2894432,119
1658994981.02901,314337.2894465,121
1658994981.04995,314337.2894515,112
1658994981.04995,314337.2894641,107
1658994981.04995,314337.8247172,114
1658994981.04995,314337.8247323,121
1658994981.04995,314337.8247377,135
1658994981.04995,314337.8247504,140
1658994981.04995,314337.8247606,150
1658994981.04995,314337.8247656,171
1658994981.04995,314337.8247732,174
1658994981.04995,314337.8247855,176
1658994981.04995,314337.8247905,193
1658994981.04995,314337.8247927,183
1658994981.04995,314337.8247985,154
1658994981.04995,314337.8248109,143
1658994981.04995,314337.8248186,145
1658994981.04995,314337.8248235,140
1658994981.04995,314337.8248297,138
1658994981.04995,314337.8248346,140
1658994981.04995,314337.8248414,123
1658994981.04995,314337.824846,107
1658994981.04995,314337.8248509,116
1658994981.04995,314337.8248574,126
1658994981.04995,314337.8248623,119
1658994981.04995,314337.8248684,121
1658994981.6185,314337.8248731,128
1658994981.6185,314337.8248775,114
1658994981.6185,314337.8248819,109
1658994981.6185,314337.8248863,121
1658994981.6185,314337.8248934,128
1658994981.6185,314337.8249048,123
1658994981.6185,314337.8249125,119
1658994981.6185,314337.8249193,114
1658994981.6185,314337.8249241,119
1658994981.6185,314337.8249286,126
1658994981.6185,314337.8249402,121
1658994981.6185,314337.8249461,114
1658994981.6185,314337.8249536,112
1658994981.6185,314337.8249587,104
1658994981.6185,314337.82497,85
1658994981.6185,314337.8249802,76
1658994981.6185,314337.8249906,83
1658994981.6185,314337.8249995,104
1658994981.6185,314337.8250107,109
1658994981.6185,314337.8250216,95
1658994981.6185,314337.8250306,92
1658994981.6185,314337.82504,92
1658994981.6185,314337.825051,88
1658994981.6185,314337.8250592,85
1658994981.6185,314337.8250697,88
1658994981.6185,314337.8250835,85
1658994981.6185,314337.8250973,81
1658994981.6185,314337.8251024,109
1658994981.6185,314337.8251063,152
1658994981.6185,314337.8251099,76
1658994981.6185,314337.8251135,-226
1658994981.6185,314337.8251175,-670
1658994981.6185,314337.8251242,-920
1658994981.6185,314337.8251304,-517
1658994981.6185,314337.8251392,209
1658994981.6185,314337.8251477,364
1658994981.6185,314337.8251529,112
1658994981.6185,314337.8251573,107
1658994981.6185,314337.8251618,190
1658994981.6185,314337.825167,143
1658994981.6185,314337.8251762,123
1658994981.6185,314337.8251852,152
1658994981.6185,314337.8251945,128
1658994981.6185,314337.8252023,109
1658994981.6185,314337.8252113,114
1658994981.6185,314337.8252203,104
1658994981.6185,314337.8252261,92
1658994981.6185,314337.8252341,88
1658994981.6185,314337.8252445,78
1658994981.6185,314337.8252537,61
1658994981.64743,314337.8252592,54
1658994981.64743,314338.4098416,47
1658994981.64743,314338.4098622,35
1658994981.64743,314338.4098776,38
1658994981.64743,314338.4098931,52
1658994981.64743,314338.4099066,57
1658994981.64743,314338.4099198,57
1658994981.64743,314338.4099337,50
1658994981.64743,314338.4099471,33
1658994981.64743,314338.4099607,30
1658994981.64743,314338.4099741,40
1658994981.64743,314338.4099876,42
1658994981.64743,314338.4100015,50
1658994981.64743,314338.4100159,61
1658994981.64743,314338.4100294,64
1658994981.64743,314338.4100425,66
1658994981.64743,314338.410057,81
1658994981.64743,314338.4100709,97
1658994981.64743,314338.4100843,109
1658994981.64743,314338.4100988,119
1658994981.64743,314338.410112,121
1658994981.64743,314338.4101255,119
1658994981.64743,314338.4101397,119
1658994981.64743,314338.4101528,116
1658994982.22143,314338.410165,107
1658994982.22143,314338.4101756,100
1658994982.22143,314338.4101836,100
1658994982.22143,314338.4101921,97
1658994982.22143,314338.410202,88
1658994982.22143,314338.4102119,90
1658994982.22143,314338.4102279,102
1658994982.22143,314338.4102368,104
1658994982.22143,314338.4102396,107
1658994982.22143,314338.4102417,107
1658994982.22143,314338.4102438,102
1658994982.22143,314338.4102496,109
1658994982.22143,314338.4102609,121
1658994982.22143,314338.4102645,116
1658994982.22143,314338.4102744,109
1658994982.22143,314338.4102829,116
1658994982.22143,314338.4102904,114
1658994982.22143,314338.4102928,104
1658994982.22143,314338.4102953,107
1658994982.22143,314338.4103053,119
1658994982.22143,314338.4103136,126
1658994982.22143,314338.4103162,128
1658994982.22143,314338.4103184,123
1658994982.22143,314338.4103212,112
1658994982.22143,314338.410332,100
1658994982.22143,314338.4103375,88
1658994982.22143,314338.4103398,92
1658994982.22143,314338.4103418,121
1658994982.22143,314338.4103437,123
1658994982.22143,314338.4103497,102
1658994982.22143,314338.4103594,102
1658994982.22143,314338.4103637,109
1658994982.22143,314338.4103734,95
1658994982.22143,314338.4103823,78
1658994982.22143,314338.4103895,76
1658994982.22143,314338.4103919,76
1658994982.22143,314338.4103941,81
1658994982.22143,314338.410402,114
1658994982.22143,314338.4104124,154
1658994982.22143,314338.4104164,73
1658994982.22143,314338.4104185,-219
1658994982.22143,314338.4104215,-662
1658994982.22143,314338.4104322,-944
1658994982.22143,314338.4104393,-584
1658994982.22143,314338.4104417,140
1658994982.22143,314338.4104439,333
1658994982.22143,314338.4104467,95
1658994982.22143,314338.4104574,76
1658994982.22143,314338.4104647,162
1658994982.22143,314338.4104672,121
1658994982.24238,314338.9948884,100
1658994982.24238,314338.9949082,131
1658994982.24238,314338.994929,116
1658994982.24238,314338.9949416,92
1658994982.24238,314338.9949501,88
1658994982.24238,314338.9949629,85
1658994982.24238,314338.9949728,85
1658994982.24238,314338.9949814,85
1658994982.24238,314338.9949876,71
1658994982.24238,314338.994996,57
1658994982.24238,314338.9950027,38
1658994982.24238,314338.9950118,19
1658994982.24238,314338.9950177,26
1658994982.24238,314338.9950276,38
1658994982.24238,314338.9950393,21
1658994982.24238,314338.9950479,4
1658994982.24238,314338.9950606,-2
1658994982.24238,314338.9950926,-7
1658994982.24238,314338.9951021,0
1658994982.24238,314338.9951088,9
1658994982.24238,314338.9951146,7
1658994982.24238,314338.9951218,7
1658994982.24238,314338.9951364,9
1658994982.24238,314338.995144,19
1658994982.83811,314338.9951508,38
1658994982.83811,314338.9951574,52
1658994982.83811,314338.9951635,61
1658994982.83811,314338.9951685,81
1658994982.83811,314338.9951749,104
1658994982.83811,314338.9951791,104
1658994982.83811,314338.9951822,104
1658994982.83811,314338.9951856,107
1658994982.83811,314338.9951889,100
1658994982.83811,314338.9951942,97
1658994982.83811,314338.9951985,104
1658994982.83811,314338.9952035,100
1658994982.83811,314338.9952093,90
1658994982.83811,314338.9952129,88
1658994982.83811,314338.9952161,90
1658994982.83811,314338.9952221,97
1658994982.83811,314338.9952278,102
1658994982.83811,314338.995233,104
1658994982.83811,314338.9952381,107
1658994982.83811,314338.9952412,104
1658994982.83811,314338.9952442,104
1658994982.83811,314338.9952472,116
1658994982.83811,314338.99525,119
1658994982.83811,314338.9952529,104
1658994982.83811,314338.9952557,95
1658994982.83811,314338.9952586,92
1658994982.83811,314338.9952616,90
1658994982.83811,314338.9952644,92
1658994982.83811,314338.9952673,95
1658994982.83811,314338.9952702,95
1658994982.83811,314338.9952732,102
1658994982.83811,314338.9952765,109
1658994982.83811,314338.9952823,100
1658994982.83811,314338.9952853,85
1658994982.83811,314338.9952881,71
1658994982.83811,314338.9952911,54
1658994982.83811,314338.9952942,42
1658994982.83811,314338.995297,50
1658994982.83811,314338.9952998,71
1658994982.83811,314338.9953027,78
1658994982.83811,314338.9953056,76
1658994982.83811,314338.9953086,83
1658994982.83811,314338.9953115,78
1658994982.83811,314338.9953143,59
1658994982.83811,314338.9953171,54
1658994982.83811,314338.99532,59
1658994982.83811,314338.995323,59
1658994982.83811,314338.9953259,59
1658994982.83811,314338.9953288,85
1658994982.83811,314339.6296716,116
1658994982.86105,314339.6296927,52
1658994982.86105,314339.6296982,-214
1658994982.86105,314339.6297019,-639
1658994982.86105,314339.6297071,-915
1658994982.86105,314339.629714,-584
1658994982.86105,314339.629718,97
1658994982.86105,314339.6297235,300
1658994982.86105,314339.6297271,85
1658994982.86105,314339.6297308,64
1658994982.86105,314339.6297363,147
1658994982.86105,314339.6297412,109
1658994982.86105,314339.6297467,78
1658994982.86105,314339.62975,81
1658994982.86105,314339.6297551,54
1658994982.86105,314339.6297609,54
1658994982.86105,314339.6297642,66
1658994982.86105,314339.6297676,57
1658994982.86105,314339.6297731,42
1658994982.86105,314339.6297782,21
1658994982.86105,314339.6297821,0
1658994982.86105,314339.6297876,4
1658994982.86105,314339.6297929,11
1658994982.86105,314339.629798,-2
1658994982.86105,314339.6298037,-2
1658994983.36678,314339.6298082,4
1658994983.36678,314339.629812,0
1658994983.36678,314339.6298157,-2
1658994983.36678,314339.6298194,11
1658994983.36678,314339.6298233,16
1658994983.36678,314339.6298281,16
1658994983.36678,314339.6298319,23
1658994983.36678,314339.6298357,19
1658994983.36678,314339.6298394,9
1658994983.36678,314339.6298432,26
1658994983.36678,314339.629847,47
1658994983.36678,314339.6298508,52
1658994983.36678,314339.6298546,57
1658994983.36678,314339.6298584,69
1658994983.36678,314339.6298623,90
1658994983.36678,314339.629868,114
1658994983.36678,314339.6298718,119
1658994983.36678,314339.6298757,109
1658994983.36678,314339.6298809,112
1658994983.36678,314339.6298847,112
1658994983.36678,314339.6298885,109
1658994983.36678,314339.6298922,104
1658994983.36678,314339.6298971,107
1658994983.36678,314339.6299011,109
1658994983.36678,314339.6299065,104
1658994983.36678,314339.629911,97
1658994983.36678,314339.6299148,85
1658994983.36678,314339.6299186,83
1658994983.36678,314339.6299243,90
1658994983.36678,314339.6299282,92
1658994983.36678,314339.6299333,95
1658994983.36678,314339.629938,102
1658994983.36678,314339.6299418,109
1658994983.36678,314339.6299468,112
1658994983.36678,314339.6299505,116
1658994983.36678,314339.629956,123
1658994983.36678,314339.6299605,114
1658994983.36678,314339.6299655,102
1658994983.36678,314339.6299688,112
1658994983.36678,314339.6299723,116
1658994983.36678,314339.6299777,112
1658994983.36678,314339.6299814,116
1658994983.36678,314339.6299853,121
1658994983.36678,314339.6299906,123
1658994983.36678,314339.6299943,119
1658994983.36678,314339.6299997,107
1658994983.36678,314339.6300049,95
1658994983.36678,314339.6300087,81
1658994983.36678,314340.1648013,69
1658994983.36678,314340.1648221,92
1658994983.39332,314340.1648373,123
1658994983.39332,314340.1648525,119
1658994983.39332,314340.1648602,109
1658994983.39332,314340.1648675,112
1658994983.39332,314340.1648748,104
1658994983.39332,314340.1648831,97
1658994983.39332,314340.1648918,92
1658994983.39332,314340.1649012,88
1658994983.39332,314340.1649082,78
1658994983.39332,314340.1649138,78
1658994983.39332,314340.164918,114
1658994983.39332,314340.1649252,128
1658994983.39332,314340.1649586,-26
1658994983.39332,314340.164968,-393
1658994983.39332,314340.1649732,-803
1658994983.39332,314340.1649807,-813
1658994983.39332,314340.1649883,-202
1658994983.39332,314340.164994,319
1658994983.39332,314340.165001,231
1658994983.39332,314340.1650058,64
1658994983.39332,314340.1650108,128
1658994983.39332,314340.1650186,131
1658994983.39332,314340.1650241,76
1658994983.39332,314340.1650315,97
1658994983.94387,314340.1650385,114
1658994983.94387,314340.165043,92
1658994983.94387,314340.165048,88
1658994983.94387,314340.1650533,85
1658994983.94387,314340.1650577,69
1658994983.94387,314340.1650616,69
1658994983.94387,314340.1650677,73
1658994983.94387,314340.1650724,69
1658994983.94387,314340.1650769,64
1658994983.94387,314340.1650816,59
1658994983.94387,314340.1650859,47
1658994983.94387,314340.1650904,50
1658994983.94387,314340.1650951,57
1658994983.94387,314340.165099,59
1658994983.94387,314340.1651036,61
1658994983.94387,314340.1651079,61
1658994983.94387,314340.165112,54
1658994983.94387,314340.1651164,52
1658994983.94387,314340.1651243,54
1658994983.94387,314340.165129,59
1658994983.94387,314340.1651337,64
1658994983.94387,314340.1651403,71
1658994983.94387,314340.1651439,85
1658994983.94387,314340.1651474,102
1658994983.94387,314340.1651508,126
1658994983.94387,314340.1651549,150
1658994983.94387,314340.1651584,171
1658994983.94387,314340.1651619,183
1658994983.94387,314340.1651654,183
1658994983.94387,314340.165169,181
1658994983.94387,314340.1651735,183
1658994983.94387,314340.16518,181
1658994983.94387,314340.1651854,183
1658994983.94387,314340.1651894,188
1658994983.94387,314340.165193,181
1658994983.94387,314340.1652008,169
1658994983.94387,314340.1652065,169
1658994983.94387,314340.1652115,176
1658994983.94387,314340.1652165,178
1658994983.94387,314340.1652227,183
1658994983.94387,314340.1652325,183
1658994983.94387,314340.1652376,181
1658994983.94387,314340.1652437,185
1658994983.94387,314340.16525,197
1658994983.94387,314340.1652581,202
1658994983.94387,314340.1652657,205
1658994983.94387,314340.1652707,207
1658994983.94387,314340.7018153,197
1658994983.94387,314340.7018335,193
1658994983.94387,314340.7018408,193
1658994983.97977,314340.7018466,190
1658994983.97977,314340.7018504,197
1658994983.97977,314340.7018538,212
1658994983.97977,314340.701857,202
1658994983.97977,314340.7018602,176
1658994983.97977,314340.701865,162
1658994983.97977,314340.7018689,164
1658994983.97977,314340.7018741,154
1658994983.97977,314340.7018787,135
1658994983.97977,314340.7018846,133
1658994983.97977,314340.7018879,150
1658994983.97977,314340.7018932,150
1658994983.97977,314340.7018996,140
1658994983.97977,314340.701906,147
1658994983.97977,314340.7019093,157
1658994983.97977,314340.7019143,145
1658994983.97977,314340.7019207,138
1658994983.97977,314340.7019268,133
1658994983.97977,314340.7019302,121
1658994983.97977,314340.7019334,116
1658994983.97977,314340.7019377,143
1658994983.97977,314340.7019435,181
1658994983.97977,314340.7019473,138
1658994983.97977,314340.7019504,-107
1658994984.44933,314340.7019605,-541
1658994984.44933,314340.7019646,-891

1658994984.44933,314340.7019748,-636
1658994984.44933,314340.7019846,116
1658994984.44933,314340.7019984,433
1658994984.44933,314340.7020111,200
1658994984.44933,314340.7020202,123
1658994984.44933,314340.7020326,214
1658994984.44933,314340.7020447,171
1658994984.44933,314340.7020518,131
1658994984.44933,314340.7020758,171
1658994984.44933,314340.7020856,166
1658994984.44933,314340.7020899,135
1658994984.44933,314340.7020937,135
1658994984.44933,314340.7020971,138
1658994984.44933,314340.7021007,126
1658994984.44933,314340.7021056,116
1658994984.44933,314340.7021115,112
1658994984.44933,314340.7021184,112
1658994984.44933,314340.7021215,109
1658994984.44933,314340.7021245,104
1658994984.44933,314340.7021276,100
1658994984.44933,314340.7021306,102
1658994984.44933,314340.7021335,104
1658994984.44933,314340.7021364,102
1658994984.44933,314340.7021392,95
1658994984.44933,314340.7021421,95
1658994984.44933,314340.7021451,107
1658994984.44933,314340.702148,121
1658994984.44933,314340.702151,121
1658994984.44933,314340.7021538,116
1658994984.44933,314340.7021568,116
1658994984.44933,314340.7021598,131
1658994984.44933,314340.7021627,154
1658994984.44933,314340.7021656,166
1658994984.44933,314340.7021685,183
1658994984.44933,314340.7021714,209
1658994984.44933,314340.7021743,216
1658994984.44933,314340.7021772,214
1658994984.44933,314340.7021802,221
1658994984.44933,314340.7021831,226
1658994984.44933,314340.7021862,224
1658994984.44933,314340.7021893,212
1658994984.44933,314340.7022088,200
1658994984.44933,314340.7022202,202
1658994984.44933,314340.7022314,202
1658994984.44933,314341.2376364,195
1658994984.44933,314341.2376554,188
1658994984.44933,314341.2377218,190
1658994984.44933,314341.2377317,195
1658994984.48124,314341.2377358,190
1658994984.48124,314341.237741,181
1658994984.48124,314341.2377462,185
1658994984.48124,314341.2377513,197
1658994984.48124,314341.2377562,200
1658994984.48124,314341.2377606,200
1658994984.48124,314341.2377655,200
1658994984.48124,314341.2377697,193
1658994984.48124,314341.2377744,193
1658994984.48124,314341.237778,195
1658994984.48124,314341.2377815,190
1658994984.48124,314341.2377851,178
1658994984.48124,314341.23779,162
1658994984.48124,314341.2377936,152
1658994984.48124,314341.2377986,150
1658994984.48124,314341.2378029,140
1658994984.48124,314341.2378065,126
1658994984.48124,314341.2378101,121
1658994984.48124,314341.2378136,131
1658994984.48124,314341.2378185,128
1658994984.48124,314341.2378221,114
1658994984.48124,314341.2378268,121
1658994984.48124,314341.2378304,126
1658994984.48124,314341.237834,109
1658994984.99949,314341.2378377,100
1658994984.99949,314341.2378412,100
1658994984.99949,314341.2378451,97
1658994984.99949,314341.2378485,97
1658994984.99949,314341.237852,121
1658994984.99949,314341.2378554,166
1658994984.99949,314341.2378589,119
1658994984.99949,314341.2378633,-154
1658994984.99949,314341.2378669,-610
1658994984.99949,314341.2378704,-953
1658994984.99949,314341.2378739,-677
1658994984.99949,314341.2378774,97
1658994984.99949,314341.2378809,402
1658994984.99949,314341.2378843,150
1658994984.99949,314341.2378877,81
1658994984.99949,314341.2378912,176
1658994984.99949,314341.2378947,143
1658994984.99949,314341.2378982,112
1658994984.99949,314341.2379017,140
1658994984.99949,314341.2379051,131
1658994984.99949,314341.2379085,104
1658994984.99949,314341.2379121,112
1658994984.99949,314341.2379157,114
1658994984.99949,314341.2379193,97
1658994984.99949,314341.2379229,90
1658994984.99949,314341.2379265,88
1658994984.99949,314341.23793,81
1658994984.99949,314341.2379335,73
1658994984.99949,314341.2379386,69
1658994984.99949,314341.237942,66
1658994984.99949,314341.2379466,66
1658994984.99949,314341.2379518,69
1658994984.99949,314341.2379565,71
1658994984.99949,314341.23796,71
1658994984.99949,314341.2379635,76
1658994984.99949,314341.2379672,83
1658994984.99949,314341.2379725,83
1658994984.99949,314341.237976,88
1658994984.99949,314341.2379797,95
1658994984.99949,314341.237985,95
1658994984.99949,314341.2379885,104
1658994984.99949,314341.2379936,126
1658994984.99949,314341.2379972,140
1658994984.99949,314341.2380008,154
1658994984.99949,314341.2380043,176
1658994984.99949,314341.7741067,185
1658994984.99949,314341.7741278,181
1658994984.99949,314341.7741435,178
1658994984.99949,314341.7741569,174
1658994984.99949,314341.7741666,169
1658994985.02243,314341.774174,166
1658994985.02243,314341.7741822,152
1658994985.02243,314341.7741894,128
1658994985.02243,314341.7741965,123
1658994985.02243,314341.7741994,131
1658994985.02243,314341.7742016,133
1658994985.02243,314341.7742037,126
1658994985.02243,314341.7742058,119
1658994985.02243,314341.7742078,104
1658994985.02243,314341.7742099,95
1658994985.02243,314341.774212,97
1658994985.02243,314341.7742141,102
1658994985.02243,314341.7742162,109
1658994985.02243,314341.7742183,114
1658994985.02243,314341.7742205,114
1658994985.02243,314341.7742284,104
1658994985.02243,314341.7742388,102
1658994985.02243,314341.7742466,109
1658994985.02243,314341.7742566,119
1658994985.02243,314341.7742671,123
1658994985.02243,314341.7742759,119
1658994985.02243,314341.7742881,109
1658994985.02243,314341.774297,100
1658994985.02243,314341.7743051,90
1658994985.56299,314341.774316,73
1658994985.56299,314341.7743232,71
1658994985.56299,314341.7743312,100
1658994985.56299,314341.77434,112
1658994985.56299,314341.7743475,100
1658994985.56299,314341.7743519,95
1658994985.56299,314341.7743604,97
1658994985.56299,314341.7743711,92
1658994985.56299,314341.77438,92
1658994985.56299,314341.774389,92
1658994985.56299,314341.7743962,97
1658994985.56299,314341.7744089,100
1658994985.56299,314341.7744179,121
1658994985.56299,314341.7744266,162
1658994985.56299,314341.7744374,104
1658994985.56299,314341.7744453,-193
1658994985.56299,314341.7744556,-670
1658994985.56299,314341.7744661,-963
1658994985.56299,314341.7744742,-598
1658994985.56299,314341.7744866,143
1658994985.56299,314341.7744951,348
1658994985.56299,314341.7745058,104
1658994985.56299,314341.7745165,85
1658994985.56299,314341.7745237,176
1658994985.56299,314341.774535,133
1658994985.56299,314341.7745451,109
1658994985.56299,314341.774553,140
1658994985.56299,314341.7745641,121
1658994985.56299,314341.7745728,95
1658994985.56299,314341.7745831,100
1658994985.56299,314341.7745936,95
1658994985.56299,314341.7746029,83
1658994985.56299,314341.774617,81
1658994985.56299,314341.7746246,69
1658994985.56299,314341.774632,54
1658994985.56299,314341.7746623,47
1658994985.56299,314341.7746753,50
1658994985.56299,314341.7746854,45
1658994985.56299,314341.7747001,35
1658994985.56299,314341.7747086,33
1658994985.56299,314341.7747161,40
1658994985.56299,314341.7747207,40
1658994985.56299,314341.7747308,35
1658994985.56299,314341.7747434,38
1658994985.56299,314342.3611682,50
1658994985.56299,314342.3611897,52
1658994985.56299,314342.3611992,45
1658994985.56299,314342.3612035,47
1658994985.56299,314342.361207,64
1658994985.56299,314342.3612115,83
1658994985.59562,314342.3612157,100
1658994985.59562,314342.3612201,119
1658994985.59562,314342.3612313,128
1658994985.59562,314342.3612493,126
1658994985.59562,314342.3612664,119
1658994985.59562,314342.3612791,121
1658994985.59562,314342.3612873,116
1658994985.59562,314342.3612947,90
1658994985.59562,314342.3613075,76
1658994985.59562,314342.3613162,81
1658994985.59562,314342.3613244,61
1658994985.59562,314342.3613293,38
1658994985.59562,314342.3613363,47
1658994985.59562,314342.3613402,61
1658994985.59562,314342.3613466,57
1658994985.59562,314342.3613505,52
1658994985.59562,314342.3613558,54
1658994985.59562,314342.3613591,57
1658994985.59562,314342.3613625,61
1658994985.59562,314342.3613659,61
1658994985.59562,314342.3613697,57
1658994985.59562,314342.361373,59
1658994985.59562,314342.3613771,66
1658994985.59562,314342.3613801,73
1658994986.12293,314342.3613833,81
1658994986.12293,314342.3613866,81
1658994986.12293,314342.3613897,76
1658994986.12293,314342.3613928,85
1658994986.12293,314342.3613959,97
1658994986.12293,314342.3613985,88
1658994986.12293,314342.3614016,83
1658994986.12293,314342.3614045,95
1658994986.12293,314342.3614105,88
1658994986.12293,314342.3614181,66
1658994986.12293,314342.3614251,54
1658994986.12293,314342.3614354,57
1658994986.12293,314342.3614647,78
1658994986.12293,314342.3614777,100
1658994986.12293,314342.3614888,92
1658994986.12293,314342.3615008,88
1658994986.12293,314342.3615088,100
1658994986.12293,314342.3615165,102
1658994986.12293,314342.3615291,92
1658994986.12293,314342.3615379,88
1658994986.12293,314342.3615429,95
1658994986.12293,314342.3615506,104
1658994986.12293,314342.3615551,114
1658994986.12293,314342.3615597,143
1658994986.12293,314342.361567,128
1658994986.12293,314342.361574,-88
1658994986.12293,314342.3615835,-522
1658994986.12293,314342.3615903,-903
1658994986.12293,314342.3616001,-746
1658994986.12293,314342.3616064,-42
1658994986.12293,314342.3616131,345
1658994986.12293,314342.3616228,157
1658994986.12293,314342.3616285,47
1658994986.12293,314342.3616386,147
1658994986.12293,314342.3616935,140
1658994986.12293,314342.3617057,88
1658994986.12293,314342.3617133,114
1658994986.12293,314342.3617181,121
1658994986.12293,314342.3617264,90
1658994986.12293,314342.3617351,81
1658994986.12293,314342.3617478,88
1658994986.12293,314342.3617616,85
1658994986.12293,314342.3617748,78
1658994986.12293,314342.8959379,66
1658994986.12293,314342.8959569,50
1658994986.12293,314342.8959629,50
1658994986.12293,314342.8959677,59
1658994986.12293,314342.8959732,52
1658994986.12293,314342.8959815,30
1658994986.12293,314342.8959857,16
1658994986.15136,314342.8959911,21
1658994986.15136,314342.8959953,28
1658994986.15136,314342.8959997,23
1658994986.15136,314342.8960039,26
1658994986.15136,314342.8960082,35
1658994986.15136,314342.8960122,35
1658994986.15136,314342.8960162,28
1658994986.15136,314342.8960201,35
1658994986.15136,314342.8960245,52
1658994986.15136,314342.8960287,59
1658994986.15136,314342.8960327,66
1658994986.15136,314342.8960371,90
1658994986.15136,314342.8960415,95
1658994986.15136,314342.8960479,83
1658994986.15136,314342.8960522,95
1658994986.15136,314342.896098,109
1658994986.15136,314342.8961152,107
1658994986.15136,314342.89612,107
1658994986.15136,314342.8961234,100
1658994986.15136,314342.8961275,69
1658994986.15136,314342.8961312,61
1658994986.15136,314342.896135,78
1658994986.15136,314342.8961393,78
1658994986.15136,314342.8961433,73
1658994986.65125,314342.8961473,81
1658994986.65125,314342.8961513,83
1658994986.65125,314342.8961551,83
1658994986.65125,314342.8961593,88
1658994986.65125,314342.8961634,95
1658994986.65125,314342.8961673,104
1658994986.65125,314342.8961713,107
1658994986.65125,314342.8961753,102
1658994986.65125,314342.8961793,109
1658994986.65125,314342.8961832,123
1658994986.65125,314342.8961869,116
1658994986.65125,314342.8961907,114
1658994986.65125,314342.8962076,128
1658994986.65125,314342.8962121,131
1658994986.65125,314342.896216,121
1658994986.65125,314342.8962199,126
1658994986.65125,314342.8962237,131
1658994986.65125,314342.8962365,121
1658994986.65125,314342.8962414,116
1658994986.65125,314342.8962454,126
1658994986.65125,314342.8962494,126
1658994986.65125,314342.8962531,107
1658994986.65125,314342.8962569,92
1658994986.65125,314342.8962715,85
1658994986.65125,314342.8962763,85
1658994986.65125,314342.8962804,100
1658994986.65125,314342.8962844,123
1658994986.65125,314342.8962885,126
1658994986.65125,314342.8962923,119
1658994986.65125,314342.8963888,121
1658994986.65125,314342.8963943,123
1658994986.65125,314342.8963997,126
1658994986.65125,314342.8964034,123
1658994986.65125,314342.896407,114
1658994986.65125,314342.8964143,114
1658994986.65125,314342.8964179,128
1658994986.65125,314342.8964314,154
1658994986.65125,314342.8964355,145
1658994986.65125,314342.8964391,-23
1658994986.65125,314342.8964427,-407
1658994986.65125,314342.8964526,-813
1658994986.65125,314342.8964576,-763
1658994986.65125,314343.43217,-116
1658994986.65125,314343.4321921,355
1658994986.65125,314343.432202,226
1658994986.65125,314343.4322084,76
1658994986.65125,314343.4322138,164
1658994986.65125,314343.4322267,181
1658994986.65125,314343.4322347,128
1658994986.65125,314343.4322474,133
1658994986.67618,314343.4322566,133
1658994986.67618,314343.4322612,109
1658994986.67618,314343.4322675,90
1658994986.67618,314343.4322734,76
1658994986.67618,314343.4322835,71
1658994986.67618,314343.4322965,71
1658994986.67618,314343.4323053,66
1658994986.67618,314343.4323098,66
1658994986.67618,314343.4323154,54
1658994986.67618,314343.4323193,33
1658994986.67618,314343.4323249,26
1658994986.67618,314343.4323287,33
1658994986.67618,314343.4323326,38
1658994986.67618,314343.432339,42
1658994986.67618,314343.4323429,35
1658994986.67618,314343.4323487,30
1658994986.67618,314343.4323539,40
1658994986.67618,314343.4323622,52
1658994986.67618,314343.4323662,54
1658994986.67618,314343.4324047,59
1658994986.67618,314343.4324132,66
1658994986.67618,314343.432417,76
1658994986.67618,314343.4324213,95
1658994986.67618,314343.4324268,119
1658994987.25341,314343.432432,135
1658994987.25341,314343.4324355,152
1658994987.25341,314343.4324391,166
1658994987.25341,314343.4324429,164
1658994987.25341,314343.4324493,166
1658994987.25341,314343.432455,183
1658994987.25341,314343.4324611,193
1658994987.25341,314343.4324649,174
1658994987.25341,314343.4324701,159
1658994987.25341,314343.4324743,157
1658994987.25341,314343.4324804,157
1658994987.25341,314343.4324851,157
1658994987.25341,314343.4324887,152
1658994987.25341,314343.4324916,145
1658994987.25341,314343.4324947,147
1658994987.25341,314343.4324976,150
1658994987.25341,314343.4325005,143
1658994987.25341,314343.4325034,150
1658994987.25341,314343.4325191,166
1658994987.25341,314343.4325315,166
1658994987.25341,314343.4325433,169
1658994987.25341,314343.4325543,178
1658994987.25341,314343.4325656,181
1658994987.25341,314343.4325728,174
1658994987.25341,314343.4325766,169
1658994987.25341,314343.4325842,166
1658994987.25341,314343.4325914,171
1658994987.25341,314343.4325988,181
1658994987.25341,314343.4326068,169
1658994987.25341,314343.4326199,147
1658994987.25341,314343.4326323,150
1658994987.25341,314343.4326461,152
1658994987.25341,314343.432659,138
1658994987.25341,314343.4326716,140
1658994987.25341,314343.4326856,154
1658994987.25341,314343.4326984,150
1658994987.25341,314343.4327079,143
1658994987.25341,314343.4327124,147
1658994987.25341,314343.4327167,145
1658994987.25341,314343.4327233,123
1658994987.25341,314343.4327279,100
1658994987.25341,314344.0170528,85
1658994987.25341,314344.0170705,102
1658994987.25341,314344.0170763,133
1658994987.25341,314344.0170832,131
1658994987.25341,314344.0170883,116
1658994987.25341,314344.0170949,116
1658994987.25341,314344.0170999,102
1658994987.25341,314344.0171066,76
1658994987.25341,314344.0171115,73
1658994987.28533,314344.0171167,83
1658994987.28533,314344.0171256,78
1658994987.28533,314344.0171325,92
1658994987.28533,314344.0171411,126
1658994987.28533,314344.0171476,85
1658994987.28533,314344.0171566,-133
1658994987.28533,314344.0171626,-517
1658994987.28533,314344.017169,-891
1658994987.28533,314344.0171736,-774
1658994987.28533,314344.0171782,-64
1658994987.28533,314344.0171844,374
1658994987.28533,314344.0171921,185
1658994987.28533,314344.0172024,64
1658994987.28533,314344.0172074,166
1658994987.28533,314344.0172139,152
1658994987.28533,314344.0172178,97
1658994987.28533,314344.0172216,123
1658994987.28533,314344.0172253,133
1658994987.28533,314344.0172289,112
1658994987.28533,314344.0172324,109
1658994987.28533,314344.0172362,112
1658994987.28533,314344.0172397,102
1658994987.28533,314344.0172436,81
1658994987.28533,314344.0172567,66
1658994987.8828,314344.0172678,66
1658994987.8828,314344.0172709,69
1658994987.8828,314344.017273,61
1658994987.8828,314344.0172765,54
1658994987.8828,314344.0172865,54
1658994987.8828,314344.0172971,50
1658994987.8828,314344.0173057,50
1658994987.8828,314344.0173096,61
1658994987.8828,314344.0173145,64
1658994987.8828,314344.0173178,64
1658994987.8828,314344.0173223,73
1658994987.8828,314344.0173293,73
1658994987.8828,314344.0173329,73
1658994987.8828,314344.0173368,85
1658994987.8828,314344.0173422,95
1658994987.8828,314344.0173455,107
1658994987.8828,314344.0173489,133
1658994987.8828,314344.0173536,157
1658994987.8828,314344.0173585,166
1658994987.8828,314344.0173618,176
1658994987.8828,314344.0173712,188
1658994987.8828,314344.0173765,195
1658994987.8828,314344.0173787,190
1658994987.8828,314344.0173819,178
1658994987.8828,314344.0173938,174
1658994987.8828,314344.0174007,169
1658994987.8828,314344.0174048,157
1658994987.8828,314344.0174098,147
1658994987.8828,314344.0174134,145
1658994987.8828,314344.0174169,147
1658994987.8828,314344.0174205,140
1658994987.8828,314344.0174285,128
1658994987.8828,314344.01744,128
1658994987.8828,314344.0174529,133
1658994987.8828,314344.0174657,131
1658994987.8828,314344.0174799,135
1658994987.8828,314344.0174929,143
1658994987.8828,314344.0175061,135
1658994987.8828,314344.0175194,131
1658994987.8828,314344.0175325,133
1658994987.8828,314344.6500602,133
1658994987.8828,314344.6500804,135
1658994987.8828,314344.6500878,138
1658994987.8828,314344.6500928,131
1658994987.8828,314344.6500975,121
1658994987.8828,314344.6501007,128
1658994987.8828,314344.6501041,135
1658994987.8828,314344.6501071,135
1658994987.8828,314344.6501119,131
1658994987.8828,314344.6501179,126
1658994987.90759,314344.6501238,112
1658994987.90759,314344.6501271,107
1658994987.90759,314344.6501304,119
1658994987.90759,314344.6501339,116
1658994987.90759,314344.6501401,95
1658994987.90759,314344.6501435,66
1658994987.90759,314344.6501484,45
1658994987.90759,314344.6501516,54
1658994987.90759,314344.650156,71
1658994987.90759,314344.6501609,69
1658994987.90759,314344.6501641,61
1658994987.90759,314344.6501683,59
1658994987.90759,314344.6501735,52
1658994987.90759,314344.6501768,45
1658994987.90759,314344.6501802,52
1658994987.90759,314344.650184,61
1658994987.90759,314344.6501876,61
1658994987.90759,314344.6501909,73
1658994987.90759,314344.6501944,112
1658994987.90759,314344.6501999,100
1658994987.90759,314344.6502041,-97
1658994987.90759,314344.6502079,-510
1658994987.90759,314344.6502134,-915
1658994987.90759,314344.6502168,-801
1658994988.34053,314344.6502203,-85
1658994988.34053,314344.6502233,369
1658994988.34053,314344.6502263,195
1658994988.34053,314344.6502305,69
1658994988.34053,314344.6502337,176
1658994988.34053,314344.6502371,171
1658994988.34053,314344.6502405,114
1658994988.34053,314344.6502458,138
1658994988.34053,314344.6502508,140
1658994988.34053,314344.650254,109
1658994988.34053,314344.6502575,109
1658994988.34053,314344.6502626,116
1658994988.34053,314344.6502681,102
1658994988.34053,314344.6502715,95
1658994988.34053,314344.650276,83
1658994988.34053,314344.6502792,64
1658994988.34053,314344.6502842,61
1658994988.34053,314344.6502915,61
1658994988.34053,314344.6502948,52
1658994988.34053,314344.6502984,45
1658994988.34053,314344.6503035,40
1658994988.34053,314344.6503082,40
1658994988.34053,314344.6503116,45
1658994988.34053,314344.6503164,47
1658994988.34053,314344.6503195,50
1658994988.34053,314344.6503226,57
1658994988.34053,314344.6503278,61
1658994988.34053,314344.6503327,59
1658994988.34053,314344.6503369,69
1658994988.34053,314344.650342,90
1658994988.34053,314344.6503473,102
1658994988.34053,314344.650351,116
1658994988.34053,314344.6503567,140
1658994988.34053,314344.650362,154
1658994988.34053,314344.6503668,154
1658994988.34053,314344.6503742,159
1658994988.34053,314344.6503783,171
1658994988.34053,314344.6503887,181
1658994988.34053,314344.6503935,176
1658994988.34053,314345.1381944,159
1658994988.34053,314345.1382211,147
1658994988.34053,314345.1382359,152
1658994988.34053,314345.1382499,154
1658994988.34053,314345.1382595,140
1658994988.34053,314345.1382666,138
1658994988.34053,314345.1382755,135
1658994988.34053,314345.1382812,112
1658994988.34053,314345.1382913,97
1658994988.34053,314345.1383023,107
1658994988.34053,314345.138306,107
1658994988.37145,314345.1383096,100
1658994988.37145,314345.1383117,102
1658994988.37145,314345.1383139,102
1658994988.37145,314345.138316,95
1658994988.37145,314345.1383188,97
1658994988.37145,314345.1383305,107
1658994988.37145,314345.1383448,109
1658994988.37145,314345.1383542,107
1658994988.37145,314345.1383653,92
1658994988.37145,314345.1383801,78
1658994988.37145,314345.1383955,81
1658994988.37145,314345.1384094,85
1658994988.37145,314345.138417,85
1658994988.37145,314345.1384193,88
1658994988.37145,314345.1384213,83
1658994988.37145,314345.1384234,78
1658994988.37145,314345.1384284,76
1658994988.37145,314345.1384398,71
1658994988.37145,314345.1384451,76
1658994988.37145,314345.1384473,85
1658994988.37145,314345.1384494,83
1658994988.37145,314345.1384514,76
1658994988.37145,314345.1384535,59
1658994988.37145,314345.1384557,40
1658994988.92888,314345.1384639,38
1658994988.92888,314345.1384738,57
1658994988.92888,314345.1384792,81
1658994988.92888,314345.1384836,85
1658994988.92888,314345.1384906,78
1658994988.92888,314345.1384989,81
1658994988.92888,314345.1385049,76
1658994988.92888,314345.1385101,57
1658994988.92888,314345.1385189,59
1658994988.92888,314345.1385263,73
1658994988.92888,314345.1385288,66
1658994988.92888,314345.1385309,61
1658994988.92888,314345.138533,88
1658994988.92888,314345.1385349,123
1658994988.92888,314345.138542,42
1658994988.92888,314345.1385532,-252
1658994988.92888,314345.1385567,-677
1658994988.92888,314345.1385596,-882
1658994988.92888,314345.1385628,-467
1658994988.92888,314345.1385727,197
1658994988.92888,314345.1385863,319
1658994988.92888,314345.1386022,102
1658994988.92888,314345.1386151,107
1658994988.92888,314345.1386248,181
1658994988.92888,314345.1386322,140
1658994988.92888,314345.138642,121
1658994988.92888,314345.1386464,150
1658994988.92888,314345.1386516,143
1658994988.92888,314345.1386611,119
1658994988.92888,314345.1386717,109
1658994988.92888,314345.138678,112
1658994988.92888,314345.1386824,107
1658994988.92888,314345.1386884,97
1658994988.92888,314345.1386936,95
1658994988.92888,314345.1386992,97
1658994988.92888,314345.1387032,83
1658994988.92888,314345.1387087,66
1658994988.92888,314345.1387138,71
1658994988.92888,314345.7228912,73
1658994988.92888,314345.7229112,64
1658994988.92888,314345.7229229,61
1658994988.92888,314345.7229303,66
1658994988.92888,314345.7229377,59
1658994988.92888,314345.7229433,59
1658994988.92888,314345.7229473,71
1658994988.92888,314345.7229509,71
1658994988.92888,314345.7229573,64
1658994988.92888,314345.7229959,54
1658994988.92888,314345.7230042,50
1658994988.92888,314345.723008,66
1658994988.95388,314345.7230114,97
1658994988.95388,314345.7230147,123
1658994988.95388,314345.7230182,131
1658994988.95388,314345.7230214,135
1658994988.95388,314345.7230247,123
1658994988.95388,314345.7230279,102
1658994988.95388,314345.7230312,104
1658994988.95388,314345.7230344,112
1658994988.95388,314345.7230376,102
1658994988.95388,314345.7230408,102
1658994988.95388,314345.723044,95
1658994988.95388,314345.7230472,78
1658994988.95388,314345.7230505,78
1658994988.95388,314345.7230537,88
1658994988.95388,314345.723057,85
1658994988.95388,314345.7230602,78
1658994988.95388,314345.7230634,83
1658994988.95388,314345.7230666,92
1658994988.95388,314345.7230698,97
1658994988.95388,314345.723073,97
1658994988.95388,314345.7230763,97
1658994988.95388,314345.7230796,92
1658994988.95388,314345.7230829,81
1658994988.95388,314345.7230861,66
1658994989.46335,314345.7230893,59
1658994989.46335,314345.7230925,64
1658994989.46335,314345.7230963,64
1658994989.46335,314345.7230994,64
1658994989.46335,314345.7231031,61
1658994989.46335,314345.7231063,50
1658994989.46335,314345.7231095,52
1658994989.46335,314345.7231126,73
1658994989.46335,314345.7231174,83
1658994989.46335,314345.7231217,73
1658994989.46335,314345.7231259,71
1658994989.46335,314345.7231297,81
1658994989.46335,314345.7231348,81
1658994989.46335,314345.7231378,76
1658994989.46335,314345.7231416,81
1658994989.46335,314345.7231445,95
1658994989.46335,314345.7231484,100
1658994989.46335,314345.723152,92
1658994989.46335,314345.723155,81
1658994989.46335,314345.7231583,76
1658994989.46335,314345.7231629,73
1658994989.46335,314345.7231663,66
1658994989.46335,314345.7231699,71
1658994989.46335,314345.7231731,100
1658994989.46335,314345.7231775,107
1658994989.46335,314345.7231818,95
1658994989.46335,314345.7231886,100
1658994989.46335,314345.7231923,109
1658994989.46335,314345.7231974,107
1658994989.46335,314345.7232022,104
1658994989.46335,314345.723208,109
1658994989.46335,314345.7232125,109
1658994989.46335,314345.7232166,100
1658994989.46335,314345.7232202,126
1658994989.46335,314345.7232233,138
1658994989.46335,314345.7232274,-4
1658994989.46335,314345.7232307,-340
1658994989.46335,314346.2588068,-722
1658994989.46335,314346.2588272,-743
1658994989.46335,314346.2588377,-181
1658994989.46335,314346.2588469,324
1658994989.46335,314346.258855,259
1658994989.46335,314346.2588624,97
1658994989.46335,314346.258867,154
1658994989.46335,314346.258869,176
1658994989.46335,314346.2588717,133
1658994989.46335,314346.2588738,150
1658994989.46335,314346.2588758,157
1658994989.46335,314346.2588778,133
1658994989.46335,314346.2588798,123
1658994989.49199,314346.2588824,102
1658994989.49199,314346.2588844,78
1658994989.49199,314346.2588873,83
1658994989.49199,314346.2588984,88
1658994989.49199,314346.2589058,73
1658994989.49199,314346.2589082,61
1658994989.49199,314346.2589103,40
1658994989.49199,314346.2589123,21
1658994989.49199,314346.2589143,26
1658994989.49199,314346.2589166,35
1658994989.49199,314346.2589263,35
1658994989.49199,314346.258935,38
1658994989.49199,314346.2589374,35
1658994989.49199,314346.2589396,28
1658994989.49199,314346.2589417,23
1658994989.49199,314346.2589442,16
1658994989.49199,314346.2589543,16
1658994989.49199,314346.2589624,26
1658994989.49199,314346.2589648,30
1658994989.49199,314346.2589668,45
1658994989.49199,314346.2589688,71
1658994989.49199,314346.2589715,92
1658994989.49199,314346.2589818,112
1658994989.49199,314346.2589899,133
1658994990.05909,314346.2589923,145
1658994990.05909,314346.2589945,154
1658994990.05909,314346.2589964,166
1658994990.05909,314346.2589986,171
1658994990.05909,314346.2590078,171
1658994990.05909,314346.2590149,166
1658994990.05909,314346.2590174,162
1658994990.05909,314346.2590208,162
1658994990.05909,314346.2590255,154
1658994990.05909,314346.2590304,154
1658994990.05909,314346.259035,166
1658994990.05909,314346.2590378,169
1658994990.05909,314346.25904,159
1658994990.05909,314346.259042,152
1658994990.05909,314346.2590441,154
1658994990.05909,314346.259052,166
1658994990.05909,314346.2590626,176
1658994990.05909,314346.2590667,181
1658994990.05909,314346.2590689,181
1658994990.05909,314346.2590716,181
1658994990.05909,314346.2590822,181
1658994990.05909,314346.2590899,188
1658994990.05909,314346.2590923,190
1658994990.05909,314346.2590944,176
1658994990.05909,314346.2590965,169
1658994990.05909,314346.2590984,181
1658994990.05909,314346.2591004,188
1658994990.05909,314346.2591079,188
1658994990.05909,314346.2591187,190
1658994990.05909,314346.2591231,200
1658994990.05909,314346.2591253,207
1658994990.05909,314346.2591274,216
1658994990.05909,314346.2591299,224
1658994990.05909,314346.2591398,219
1658994990.05909,314346.259153,209
1658994990.05909,314346.2591667,207
1658994990.05909,314346.8439008,195
1658994990.05909,314346.8439212,174
1658994990.05909,314346.8439358,181
1658994990.05909,314346.8439503,212
1658994990.05909,314346.8439634,224
1658994990.05909,314346.8439771,209
1658994990.05909,314346.8439891,202
1658994990.05909,314346.8439993,209
1658994990.05909,314346.8440078,221
1658994990.05909,314346.8440204,212
1658994990.05909,314346.8440333,178
1658994990.05909,314346.844046,169
1658994990.05909,314346.844055,183
1658994990.05909,314346.8440674,214
1658994990.08402,314346.8440795,247
1658994990.08402,314346.8440899,157
1658994990.08402,314346.8441022,-169
1658994990.08402,314346.8441123,-631
1658994990.08402,314346.8441178,-901
1658994990.08402,314346.8441242,-500
1658994990.08402,314346.8441276,247
1658994990.08402,314346.8441324,417
1658994990.08402,314346.8441443,154
1658994990.08402,314346.8441531,145
1658994990.08402,314346.8441616,240
1658994990.08402,314346.8441693,197
1658994990.08402,314346.8441776,176
1658994990.08402,314346.844198,207
1658994990.08402,314346.8442088,193
1658994990.08402,314346.844214,162
1658994990.08402,314346.8442193,164
1658994990.08402,314346.8442263,171
1658994990.08402,314346.8442323,159
1658994990.08402,314346.8442378,143
1658994990.08402,314346.844244,140
1658994990.08402,314346.844249,145
1658994990.08402,314346.8442616,135
1658994990.08402,314346.8442666,121
1658994990.60527,314346.8442713,119
1658994990.60527,314346.8442753,119
1658994990.60527,314346.8442796,109
1658994990.60527,314346.844284,104
1658994990.60527,314346.8442899,112
1658994990.60527,314346.8442962,109
1658994990.60527,314346.8443002,102
1658994990.60527,314346.844304,114
1658994990.60527,314346.8443077,128
1658994990.60527,314346.8443109,133
1658994990.60527,314346.8443144,135
1658994990.60527,314346.8443177,147
1658994990.60527,314346.8443212,159
1658994990.60527,314346.8443249,169
1658994990.60527,314346.8443289,190
1658994990.60527,314346.8443337,212
1658994990.60527,314346.844337,214
1658994990.60527,314346.8443405,214
1658994990.60527,314346.8443445,231
1658994990.60527,314346.8443485,240
1658994990.60527,314346.8443519,228
1658994990.60527,314346.8443575,214
1658994990.60527,314346.8443617,200
1658994990.60527,314346.8443661,188
1658994990.60527,314346.8443702,185
1658994990.60527,314346.8443736,188
1658994990.60527,314346.8443772,183
1658994990.60527,314346.8443808,181
1658994990.60527,314346.8443846,181
1658994990.60527,314346.8443882,176
1658994990.60527,314346.8443918,178
1658994990.60527,314346.8443949,190
1658994990.60527,314346.8443982,197
1658994990.60527,314346.8444015,197
1658994990.60527,314346.8444055,200
1658994990.60527,314347.3807953,197
1658994990.60527,314347.3808149,193
1658994990.60527,314347.3808258,202
1658994990.60527,314347.3808327,212
1658994990.60527,314347.380836,205
1658994990.60527,314347.3808406,197
1658994990.60527,314347.3808454,183
1658994990.60527,314347.3808506,162
1658994990.60527,314347.3808542,162
1658994990.60527,314347.3808576,157
1658994990.60527,314347.3808617,128
1658994990.60527,314347.380866,109
1658994990.60527,314347.3808698,92
1658994990.60527,314347.3808757,85
1658994990.60527,314347.3808788,100
1658994990.63021,314347.3808818,112
1658994990.63021,314347.3808849,104
1658994990.63021,314347.3808879,102
1658994990.63021,314347.3808908,100
1658994990.63021,314347.3808938,88
1658994990.63021,314347.3808968,78
1658994990.63021,314347.3808996,92
1658994990.63021,314347.3809025,100
1658994990.63021,314347.3809054,97
1658994990.63021,314347.3809083,112
1658994990.63021,314347.3809112,150
1658994990.63021,314347.3809143,123
1658994990.63021,314347.3809173,-121
1658994990.63021,314347.3809202,-588
1658994990.63021,314347.3809232,-987
1658994990.63021,314347.3809263,-743
1658994990.63021,314347.3809293,66
1658994990.63021,314347.3809394,433
1658994990.63021,314347.380952,176
1658994990.63021,314347.3809617,92
1658994990.63021,314347.380969,212
1658994990.63021,314347.3809778,174
1658994990.63021,314347.3809873,128
1658994990.63021,314347.380994,169
1658994991.12161,314347.3810004,157
1658994991.12161,314347.3810066,112
1658994991.12161,314347.3810125,102
1658994991.12161,314347.3810188,97
1658994991.12161,314347.3810223,85
1658994991.12161,314347.3810256,88
1658994991.12161,314347.3810288,88
1658994991.12161,314347.381032,78
1658994991.12161,314347.3810355,59
1658994991.12161,314347.3810398,52
1658994991.12161,314347.3810433,42
1658994991.12161,314347.3810489,28
1658994991.12161,314347.381055,33
1658994991.12161,314347.3810587,45
1658994991.12161,314347.3810642,45
1658994991.12161,314347.3810699,47
1658994991.12161,314347.3810768,47
1658994991.12161,314347.3810818,50
1658994991.12161,314347.3810875,64
1658994991.12161,314347.3810914,73
1658994991.12161,314347.3811596,81
1658994991.12161,314347.381174,95
1658994991.12161,314347.3811846,112
1658994991.12161,314347.381193,116
1658994991.12161,314347.3811991,109
1658994991.12161,314347.3812034,119
1658994991.12161,314347.3812091,147
1658994991.12161,314347.3812132,164
1658994991.12161,314347.3812206,166
1658994991.12161,314347.3812264,171
1658994991.12161,314347.3812327,169
1658994991.12161,314347.3812369,147
1658994991.12161,314347.381243,128
1658994991.12161,314347.3812463,131
1658994991.12161,314347.9165499,131
1658994991.12161,314347.916571,123
1658994991.12161,314347.9165848,121
1658994991.12161,314347.9165981,119
1658994991.12161,314347.9166112,104
1658994991.12161,314347.9166243,85
1658994991.12161,314347.9166383,71
1658994991.12161,314347.9166526,76
1658994991.12161,314347.9166659,71
1658994991.12161,314347.9166791,57
1658994991.12161,314347.9166913,50
1658994991.12161,314347.9167003,54
1658994991.12161,314347.9167091,52
1658994991.12161,314347.916713,45
1658994991.12161,314347.9167166,54
1658994991.12161,314347.9167211,64
1658994991.14356,314347.9167255,50
1658994991.14356,314347.9167302,40
1658994991.14356,314347.9167363,52
1658994991.14356,314347.9167398,59
1658994991.14356,314347.9167434,57
1658994991.14356,314347.9167471,52
1658994991.14356,314347.9167522,38
1658994991.14356,314347.9167571,16
1658994991.14356,314347.9167626,33
1658994991.14356,314347.916768,76
1658994991.14356,314347.9167763,78
1658994991.14356,314347.9167813,59
1658994991.14356,314347.9167852,64
1658994991.14356,314347.916792,69
1658994991.14356,314347.9167962,66
1658994991.14356,314347.9167995,76
1658994991.14356,314347.9168093,76
1658994991.14356,314347.9168195,57
1658994991.14356,314347.9168288,66
1658994991.14356,314347.9168314,107
1658994991.14356,314347.9168335,147
1658994991.14356,314347.9168355,78
1658994991.14356,314347.9168376,-216
1658994991.14356,314347.9168397,-677
1658994991.80838,314347.9168418,-949
1658994991.80838,314347.9168438,-572
1658994991.80838,314347.9168495,150
1658994991.80838,314347.9168593,343
1658994991.80838,314347.9168634,116
1658994991.80838,314347.9168717,100
1658994991.80838,314347.9168777,188
1658994991.80838,314347.9168828,152
1658994991.80838,314347.9168865,123
1658994991.80838,314347.9168961,140
1658994991.80838,314347.9169054,131
1658994991.80838,314347.916917,114
1658994991.80838,314347.9169278,114
1658994991.80838,314347.9169313,112
1658994991.80838,314347.9169352,102
1658994991.80838,314347.9169372,90
1658994991.80838,314347.9169424,85
1658994991.80838,314347.9169541,78
1658994991.80838,314347.9169594,73
1658994991.80838,314347.9169625,78
1658994991.80838,314347.9169648,76
1658994991.80838,314347.9169675,59
1658994991.80838,314347.916978,59
1658994991.80838,314347.9169884,69
1658994991.80838,314347.9170144,59
1658994991.80838,314347.9170213,54
1658994991.80838,314347.9170257,61
1658994991.80838,314347.917028,61
1658994991.80838,314347.91703,64
1658994991.80838,314347.9170321,71
1658994991.80838,314347.9170342,76
1658994991.80838,314347.9170362,81
1658994991.80838,314347.9170383,90
1658994991.80838,314348.5987732,109
1658994991.80838,314348.5987924,126
1658994991.80838,314348.5988022,138
1658994991.80838,314348.5988102,145
1658994991.80838,314348.5988146,145
1658994991.80838,314348.5988205,145
1658994991.80838,314348.5988244,138

1658994991.80838,314348.5988303,121
1658994991.80838,314348.5988344,116
1658994991.80838,314348.5988385,114
1658994991.80838,314348.5988427,104
1658994991.80838,314348.5988489,104
1658994991.80838,314348.5988529,97
1658994991.80838,314348.5988568,71
1658994991.80838,314348.598863,64
1658994991.80838,314348.5988673,66
1658994991.80838,314348.5988713,73
1658994991.83124,314348.5988752,95
1658994991.83124,314348.5988794,100
1658994991.83124,314348.5988855,71
1658994991.83124,314348.5988896,64
1658994991.83124,314348.5988951,76
1658994991.83124,314348.5989,66
1658994991.83124,314348.598904,59
1658994991.83124,314348.5989101,61
1658994991.83124,314348.5989142,52
1658994991.83124,314348.5989182,50
1658994991.83124,314348.5989239,69
1658994991.83124,314348.5989278,76
1658994991.83124,314348.5989324,71
1658994991.83124,314348.5989392,69
1658994991.83124,314348.5989432,71
1658994991.83124,314348.5989492,59
1658994991.83124,314348.5989535,45
1658994991.83124,314348.5989592,35
1658994991.83124,314348.5989632,42
1658994991.83124,314348.5989677,71
1658994991.83124,314348.5989738,83
1658994991.83124,314348.5989779,78
1658994991.83124,314348.5989839,76
1658994991.83124,314348.5989882,85
1658994992.29404,314348.5989922,95
1658994992.29404,314348.5989963,95
1658994992.29404,314348.5990003,92
1658994992.29404,314348.5990049,102
1658994992.29404,314348.5990089,112
1658994992.29404,314348.599013,128
1658994992.29404,314348.5990169,162
1658994992.29404,314348.5990207,69
1658994992.29404,314348.5990247,-255
1658994992.29404,314348.5990286,-689
1658994992.29404,314348.5990322,-867
1658994992.29404,314348.5990368,-402
1658994992.29404,314348.5990423,264
1658994992.29404,314348.5990484,352
1658994992.29404,314348.5990535,128
1658994992.29404,314348.5990596,138
1658994992.29404,314348.5990649,193
1658994992.29404,314348.599071,143
1658994992.29404,314348.5990753,145
1658994992.29404,314348.5990813,174
1658994992.29404,314348.5990856,152
1658994992.29404,314348.5990914,138
1658994992.29404,314348.5990953,131
1658994992.29404,314348.5990993,97
1658994992.29404,314348.5991052,88
1658994992.29404,314348.5991094,102
1658994992.29404,314348.5991134,90
1658994992.29404,314348.5991176,64
1658994992.29404,314348.5991232,57
1658994992.29404,314348.5991283,59
1658994992.29404,314348.5991338,59
1658994992.29404,314348.5991475,57
1658994992.29404,314349.086939,71
1658994992.29404,314349.0869586,73
1658994992.29404,314349.0869681,61
1658994992.29404,314349.0869749,54
1658994992.29404,314349.0869846,52
1658994992.29404,314349.0869923,52
1658994992.29404,314349.0869972,69
1658994992.29404,314349.087007,76
1658994992.29404,314349.0870153,76
1658994992.29404,314349.0870189,97
1658994992.29404,314349.087022,112
1658994992.29404,314349.087025,112
1658994992.29404,314349.0870278,131
1658994992.29404,314349.0870306,159
1658994992.29404,314349.0870334,157
1658994992.29404,314349.0870362,135
1658994992.29404,314349.0870399,121
1658994992.29404,314349.087043,121
1658994992.31499,314349.087046,121
1658994992.31499,314349.0870489,109
1658994992.31499,314349.0870519,102
1658994992.31499,314349.0870548,95
1658994992.31499,314349.0870576,71
1658994992.31499,314349.0870606,50
1658994992.31499,314349.0870635,57
1658994992.31499,314349.0870664,64
1658994992.31499,314349.0870692,61
1658994992.31499,314349.087072,61
1658994992.31499,314349.0870747,45
1658994992.31499,314349.0870776,26
1658994992.31499,314349.0870803,40
1658994992.31499,314349.0870831,59
1658994992.31499,314349.0870858,52
1658994992.31499,314349.0870892,59
1658994992.31499,314349.0870988,66
1658994992.31499,314349.0871077,61
1658994992.31499,314349.0871122,61
1658994992.31499,314349.0871159,66
1658994992.31499,314349.0871193,66
1658994992.31499,314349.0871226,71
1658994992.31499,314349.0871259,73
1658994992.31499,314349.08713,69
1658994992.8403,314349.0871357,64
1658994992.8403,314349.0871393,64
1658994992.8403,314349.0871432,52
1658994992.8403,314349.0871466,35
1658994992.8403,314349.08715,30
1658994992.8403,314349.0871534,42
1658994992.8403,314349.0871581,64
1658994992.8403,314349.0871612,73
1658994992.8403,314349.0871645,61
1658994992.8403,314349.0871678,57
1658994992.8403,314349.0871715,78
1658994992.8403,314349.0871753,100
1658994992.8403,314349.0871785,102
1658994992.8403,314349.087183,95
1658994992.8403,314349.087187,81
1658994992.8403,314349.0871903,73
1658994992.8403,314349.0871939,92
1658994992.8403,314349.0871976,138
1658994992.8403,314349.0872013,169
1658994992.8403,314349.0872049,54
1658994992.8403,314349.0872086,-278
1658994992.8403,314349.0872124,-708
1658994992.8403,314349.087216,-832
1658994992.8403,314349.0872196,-307
1658994992.8403,314349.0872231,326
1658994992.8403,314349.0872268,348
1658994992.8403,314349.0872304,131
1658994992.8403,314349.0872343,169
1658994992.8403,314349.0872378,219
1658994992.8403,314349.0872415,174
1658994992.8403,314349.0872451,185
1658994992.8403,314349.6261336,202
1658994992.8403,314349.6261553,171
1658994992.8403,314349.6261667,162
1658994992.8403,314349.6261768,178
1658994992.8403,314349.6261868,166
1658994992.8403,314349.6261928,150
1658994992.8403,314349.6262012,145
1658994992.8403,314349.6262079,131
1658994992.8403,314349.6262163,123
1658994992.8403,314349.6262228,126
1658994992.8403,314349.6262291,121
1658994992.8403,314349.6262356,121
1658994992.8403,314349.6262422,116
1658994992.8403,314349.6262498,95
1658994992.8403,314349.6262561,85
1658994992.8403,314349.6262638,97
1658994992.8403,314349.6262706,109
1658994992.8403,314349.6262796,109
1658994992.8403,314349.626287,107
1658994992.86125,314349.626294,95
1658994992.86125,314349.6262989,85
1658994992.86125,314349.6263065,97
1658994992.86125,314349.6263139,123
1658994992.86125,314349.6263209,147
1658994992.86125,314349.6263267,159
1658994992.86125,314349.6263329,169
1658994992.86125,314349.6263401,183
1658994992.86125,314349.6263458,200
1658994992.86125,314349.6263526,209
1658994992.86125,314349.6263583,214
1658994992.86125,314349.6263634,219
1658994992.86125,314349.6263686,216
1658994992.86125,314349.6263778,207
1658994992.86125,314349.6263828,207
1658994992.86125,314349.626388,214
1658994992.86125,314349.6263952,219
1658994992.86125,314349.6264039,216
1658994992.86125,314349.6264085,214
1658994992.86125,314349.6264115,216
1658994992.86125,314349.6264143,219
1658994992.86125,314349.6264185,224
1658994992.86125,314349.6264228,228
1658994992.86125,314349.6264263,228
1658994993.37582,314349.6264299,231
1658994993.37582,314349.6264335,219
1658994993.37582,314349.6264372,207
1658994993.37582,314349.6264408,209
1658994993.37582,314349.6264444,216
1658994993.37582,314349.6264481,205
1658994993.37582,314349.626452,183
1658994993.37582,314349.6264559,174
1658994993.37582,314349.6264598,181
1658994993.37582,314349.6264635,185
1658994993.37582,314349.6264674,185
1658994993.37582,314349.6264711,190
1658994993.37582,314349.6264747,188
1658994993.37582,314349.6264789,176
1658994993.37582,314349.6264828,164
1658994993.37582,314349.6264867,157
1658994993.37582,314349.6264905,159
1658994993.37582,314349.6264943,178
1658994993.37582,314349.6264981,190
1658994993.37582,314349.6265022,178
1658994993.37582,314349.6265061,166
1658994993.37582,314349.6265098,166
1658994993.37582,314349.6265134,171
1658994993.37582,314349.6265171,164
1658994993.37582,314349.6265207,152
1658994993.37582,314349.6265243,152
1658994993.37582,314349.6265278,162
1658994993.37582,314349.626531,183
1658994993.37582,314349.6265347,219
1658994993.37582,314349.6265385,185
1658994993.37582,314350.1594082,-71
1658994993.37582,314350.1594256,-541
1658994993.37582,314350.159434,-922
1658994993.37582,314350.1594435,-689
1658994993.37582,314350.1594477,92
1658994993.37582,314350.1594532,467
1658994993.37582,314350.159457,238
1658994993.37582,314350.1594621,147
1658994993.37582,314350.1594663,255
1658994993.37582,314350.1594713,214
1658994993.37582,314350.159475,147
1658994993.37582,314350.1594786,174
1658994993.37582,314350.1594821,174
1658994993.37582,314350.1594856,145
1658994993.37582,314350.159489,145
1658994993.37582,314350.1594939,135
1658994993.37582,314350.1594972,107
1658994993.37582,314350.1595004,88
1658994993.37582,314350.1595054,78
1658994993.37582,314350.1595085,69
1658994993.3951,314350.1595132,69
1658994993.3951,314350.1595184,69
1658994993.3951,314350.1595237,57
1658994993.3951,314350.159527,35
1658994993.3951,314350.1595318,30
1658994993.3951,314350.1595358,35
1658994993.3951,314350.1595407,42
1658994993.3951,314350.1595451,47
1658994993.3951,314350.1595499,52
1658994993.3951,314350.1595542,50
1658994993.3951,314350.1595596,50
1658994993.3951,314350.1595633,57
1658994993.3951,314350.1595686,69
1658994993.3951,314350.1595723,83
1658994993.3951,314350.1595757,102
1658994993.3951,314350.1595789,121
1658994993.3951,314350.1595824,135
1658994993.3951,314350.1595873,147
1658994993.3951,314350.1595909,164
1658994993.3951,314350.159594,178
1658994993.3951,314350.1595988,178
1658994993.3951,314350.1596038,174
1658994993.3951,314350.1596082,162
1658994993.3951,314350.1596129,143
1658994993.9722,314350.1596161,143
1658994993.9722,314350.1596194,152
1658994993.9722,314350.159623,145
1658994993.9722,314350.1596263,140
1658994993.9722,314350.1596295,140
1658994993.9722,314350.1596327,135
1658994993.9722,314350.159636,135
1658994993.9722,314350.1596391,140
1658994993.9722,314350.1596421,147
1658994993.9722,314350.1596451,147
1658994993.9722,314350.1596481,143
1658994993.9722,314350.1596513,140
1658994993.9722,314350.1596552,143
1658994993.9722,314350.1596597,147
1658994993.9722,314350.1596632,157
1658994993.9722,314350.1596682,159
1658994993.9722,314350.1596724,150
1658994993.9722,314350.1596757,143
1658994993.9722,314350.1596789,143
1658994993.9722,314350.1596822,140
1658994993.9722,314350.1596853,138
1658994993.9722,314350.1596885,143
1658994993.9722,314350.1596917,133
1658994993.9722,314350.1596968,112
1658994993.9722,314350.1597,92
1658994993.9722,314350.1597036,97
1658994993.9722,314350.1597087,126
1658994993.9722,314350.159713,143
1658994993.9722,314350.1597164,131
1658994993.9722,314350.7440894,119
1658994993.9722,314350.7441075,128
1658994993.9722,314350.7441165,133
1658994993.9722,314350.7441204,131
1658994993.9722,314350.7441258,131
1658994993.9722,314350.7441311,121
1658994993.9722,314350.7441345,102
1658994993.9722,314350.7441424,97
1658994993.9722,314350.744149,133
1658994993.9722,314350.7441572,123
1658994993.9722,314350.7441634,-97
1658994993.9722,314350.7441697,-534
1658994993.9722,314350.744176,-958
1658994993.9722,314350.7441823,-856
1658994993.9722,314350.7441887,-128
1658994993.9722,314350.7441922,338
1658994993.9722,314350.744197,166
1658994993.9722,314350.7442009,33
1658994993.9722,314350.744205,131
1658994993.9722,314350.7442093,126
1658994993.9722,314350.7442125,66
1658994993.99314,314350.7442164,83
1658994993.99314,314350.7442209,90
1658994993.99314,314350.7442255,57
1658994993.99314,314350.7442327,52
1658994993.99314,314350.7442377,66
1658994993.99314,314350.7442427,54
1658994993.99314,314350.744246,38
1658994993.99314,314350.7442525,38
1658994993.99314,314350.7442565,38
1658994993.99314,314350.7442601,26
1658994993.99314,314350.7442651,23
1658994993.99314,314350.7442693,30
1658994993.99314,314350.7442745,21
1658994993.99314,314350.7442781,0
1658994993.99314,314350.7442837,-11
1658994993.99314,314350.7442875,-2
1658994993.99314,314350.7442927,7
1658994993.99314,314350.7442971,9
1658994993.99314,314350.7443018,16
1658994993.99314,314350.7443083,19
1658994993.99314,314350.7443165,14
1658994993.99314,314350.7443309,23
1658994993.99314,314350.7443416,45
1658994993.99314,314350.7443468,59
1658994994.5851,314350.7443537,71
1658994994.5851,314350.7443605,90
1658994994.5851,314350.7443642,112
1658994994.5851,314350.7443679,126
1658994994.5851,314350.7443722,131
1658994994.5851,314350.7443761,135
1658994994.5851,314350.7443806,138
1658994994.5851,314350.744385,121
1658994994.5851,314350.7443927,112
1658994994.5851,314350.7443974,116
1658994994.5851,314350.7444012,116
1658994994.5851,314350.7444054,112
1658994994.5851,314350.7444103,112
1658994994.5851,314350.7444154,114
1658994994.5851,314350.7444218,112
1658994994.5851,314350.7444275,107
1658994994.5851,314350.7444348,104
1658994994.5851,314350.7444417,107
1658994994.5851,314350.7444527,112
1658994994.5851,314350.7444574,114
1658994994.5851,314350.7444619,119
1658994994.5851,314350.7444694,126
1658994994.5851,314350.7444746,123
1658994994.5851,314350.7444801,128
1658994994.5851,314350.7444854,128
1658994994.5851,314350.7444894,121
1658994994.5851,314350.7444939,121
1658994994.5851,314350.7445001,128
1658994994.5851,314351.3783221,123
1658994994.5851,314351.3783396,123
1658994994.5851,314351.3783449,123
1658994994.5851,314351.3783489,119
1658994994.5851,314351.3783525,119
1658994994.5851,314351.3783562,114
1658994994.5851,314351.3783597,97
1658994994.5851,314351.378363,78
1658994994.5851,314351.3783661,71
1658994994.5851,314351.3783696,83
1658994994.5851,314351.3783731,95
1658994994.5851,314351.3783767,78
1658994994.5851,314351.3783802,69
1658994994.5851,314351.3783843,76
1658994994.5851,314351.3783887,76
1658994994.5851,314351.3783923,66
1658994994.5851,314351.3783976,47
1658994994.5851,314351.3784012,30
1658994994.5851,314351.3784051,38
1658994994.5851,314351.3784105,42
1658994994.5851,314351.378414,59
1658994994.5851,314351.3784179,88
1658994994.61387,314351.3784232,-4
1658994994.61387,314351.3784284,-326
1658994994.61387,314351.3784323,-770
1658994994.61387,314351.3784369,-980
1658994994.61387,314351.3784417,-550
1658994994.61387,314351.3784492,131
1658994994.61387,314351.3784562,250
