Time,TimeLsl,Value
1659000154.63733,319510.0153815,63
1659000154.63733,319510.0154031,18
1659000154.63733,319510.0154132,-14
1659000154.63733,319510.0154196,275
1659000154.63733,319510.0154275,989
1659000154.63733,319510.0154336,1472
1659000154.63733,319510.0154412,1100
1659000154.63733,319510.0154473,134
1659000154.63733,319510.0154553,-407
1659000154.63733,319510.0154614,-174
1659000154.63733,319510.0154689,-14
1659000154.63733,319510.0154749,-176
1659000154.63733,319510.0154825,-190
1659000154.63733,319510.0154885,-115
1659000154.63733,319510.0154959,-122
1659000154.63733,319510.0155017,-120
1659000154.63733,319510.0155095,-91
1659000154.63733,319510.0155162,-89
1659000154.63733,319510.0155238,-91
1659000154.63733,319510.0155297,-73
1659000154.63733,319510.0155356,-44
1659000154.63733,319510.015539,-21
1659000154.63733,319510.0155433,4
1659000154.63733,319510.0155469,28
1659000154.63733,319510.0155503,42
1659000154.63733,319510.0155537,68
1659000154.63733,319510.0155572,106
1659000154.63733,319510.015563,131
1659000154.63733,319510.0155663,141
1659000154.63733,319510.0155699,146
1659000154.63733,319510.0155753,139
1659000154.63733,319510.0155787,113
1659000154.63733,319510.0155835,94
1659000154.63733,319510.0155868,87
1659000154.63733,319510.0155902,56
1659000154.63733,319510.0155954,11
1659000154.63733,319510.0156,-4
1659000154.63733,319510.0156042,-9
1659000154.63733,319510.0156128,-23
1659000154.63733,319510.0156201,-35
1659000154.63733,319510.0156307,-37
1659000154.63733,319510.0156354,-40
1659000154.63733,319510.0156405,-28
1659000154.63733,319510.0156436,-11
1659000154.63733,319510.0156474,0
1659000154.63733,319510.0156515,2
1659000154.63733,319510.015656,-2
1659000154.63733,319510.0156595,-7
1659000154.63733,319510.015663,7
1659000154.63733,319510.0156662,16
1659000154.77099,319510.0156697,4
1659000154.77099,319510.0156752,0
1659000154.77099,319510.0156787,7
1659000154.77099,319510.0156822,7
1659000154.77099,319510.0156857,4
1659000154.77099,319510.0156893,11
1659000154.77099,319510.0156932,9
1659000154.77099,319510.0156966,-9
1659000154.77099,319510.0157001,-14
1659000154.77099,319510.0157038,0
1659000154.77099,319510.0157077,32
1659000154.77099,319510.0157114,73
1659000154.77099,319510.0157151,80
1659000154.77099,319510.0157185,42
1659000154.77099,319510.0157222,4
1659000154.77099,319510.0157259,-9
1659000154.77099,319510.0157295,-9
1659000154.77099,319510.0157332,-9
1659000154.77099,319510.015737,-21
1659000154.77099,319510.0157408,-28
1659000154.77099,319510.0157445,-16
1659000154.77099,319510.0157484,-4
1659000154.77099,319510.0157521,-47
1659000154.77099,319510.6502845,-65
1659000154.77099,319510.6503104,287
1659000154.77099,319510.6503177,1010
1659000154.77099,319510.6503276,1394
1659000154.77099,319510.6503325,928
1659000154.77099,319510.6503389,-11
1659000154.77099,319510.6503479,-431
1659000154.77099,319510.6503582,-162
1659000154.77099,319510.6503678,-96
1659000154.77099,319510.6503781,-285
1659000154.77099,319510.6503939,-235
1659000154.77099,319510.6504078,-139
1659000154.77099,319510.6504231,-183
1659000154.77099,319510.6504411,-186
1659000154.77099,319510.6504518,-148
1659000154.77099,319510.65046,-169
1659000154.77099,319510.6504723,-197
1659000154.77099,319510.6504818,-183
1659000154.77099,319510.65049,-164
1659000154.77099,319510.6504933,-155
1659000154.77099,319510.6504964,-134
1659000154.77099,319510.6504994,-103
1659000154.77099,319510.6505022,-73
1659000154.77099,319510.6505052,-32
1659000154.77099,319510.6505082,-2
1659000154.77099,319510.6505111,21
1659000154.77099,319510.6505139,40
1659000154.8311,319510.6505168,42
1659000154.8311,319510.6505196,28
1659000154.8311,319510.6505226,16
1659000154.8311,319510.6505255,-4
1659000154.8311,319510.6505284,-37
1659000154.8311,319510.6505313,-65
1659000154.8311,319510.6505341,-89
1659000154.8311,319510.6505371,-115
1659000154.8311,319510.6505399,-127
1659000154.8311,319510.6505428,-127
1659000154.8311,319510.6505456,-129
1659000154.8311,319510.6505485,-134
1659000154.8311,319510.6505513,-129
1659000154.8311,319510.6505543,-108
1659000154.8311,319510.6505613,-94
1659000154.8311,319510.6505661,-89
1659000154.8311,319510.6505712,-80
1659000154.8311,319510.6505762,-68
1659000154.8311,319510.6505826,-68
1659000154.8311,319510.65059,-68
1659000154.8311,319510.6506233,-61
1659000154.8311,319510.6506346,-49
1659000154.8311,319510.6506406,-51
1659000154.8311,319510.6506512,-56
1659000154.8311,319510.6506607,-54
1659000154.8311,319510.6506671,-49
1659000154.8311,319510.6506728,-47
1659000154.8311,319510.6506819,-51
1659000154.8311,319510.6506893,-61
1659000154.8311,319510.6506931,-49
1659000154.8311,319510.6506967,-14
1659000154.8311,319510.6507017,18
1659000154.8311,319510.6507051,42
1659000154.8311,319510.6507087,32
1659000154.8311,319510.6507122,-7
1659000154.8311,319510.6507159,-42
1659000154.8311,319510.6507193,-58
1659000154.8311,319510.6507228,-58
1659000154.8311,319510.6507267,-56
1659000154.8311,319510.6507304,-63
1659000154.8311,319510.650734,-65
1659000154.8311,319510.6507375,-44
1659000154.8311,319510.6507407,-23
1659000154.8311,319510.6507441,-65
1659000154.8311,319510.6507483,-23
1659000154.8311,319510.6507527,452
1659000154.8311,319511.1363209,1154
1659000154.8311,319511.1363381,1354
1659000155.08449,319511.1363465,730
1659000155.08449,319511.1363512,-190
1659000155.08449,319511.1363551,-435
1659000155.08449,319511.1363588,-113
1659000155.08449,319511.1363626,-113
1659000155.08449,319511.1363662,-273
1659000155.08449,319511.1363698,-193
1659000155.08449,319511.1363733,-136
1659000155.08449,319511.136377,-183
1659000155.08449,319511.136381,-179
1659000155.08449,319511.1363846,-146
1659000155.08449,319511.1363883,-136
1659000155.08449,319511.1363939,-127
1659000155.08449,319511.1363975,-106
1659000155.08449,319511.1364022,-82
1659000155.08449,319511.1364059,-61
1659000155.08449,319511.1364098,-56
1659000155.08449,319511.136415,-47
1659000155.08449,319511.1364193,-14
1659000155.08449,319511.1364247,23
1659000155.08449,319511.1364285,56
1659000155.08449,319511.1364324,82
1659000155.08449,319511.1364378,87
1659000155.08449,319511.1364428,80
1659000155.08449,319511.1364468,80
1659000155.08449,319511.1364523,63
1659000155.08449,319511.136458,30
1659000155.08449,319511.1364641,2
1659000155.08449,319511.1364732,-25
1659000155.08449,319511.1364823,-58
1659000155.08449,319511.1364908,-87
1659000155.08449,319511.136498,-89
1659000155.08449,319511.1365066,-84
1659000155.08449,319511.1365145,-80
1659000155.08449,319511.1365185,-80
1659000155.08449,319511.1365246,-70
1659000155.08449,319511.1365327,-47
1659000155.08449,319511.1365383,-28
1659000155.08449,319511.1365441,-30
1659000155.08449,319511.1365527,-30
1659000155.08449,319511.13656,-16
1659000155.08449,319511.136569,-11
1659000155.08449,319511.1365763,-16
1659000155.08449,319511.1365851,-11
1659000155.08449,319511.1365915,0
1659000155.08449,319511.1366003,2
1659000155.08449,319511.1366073,2
1659000155.08449,319511.1366153,11
1659000155.08449,319511.1366215,16
1659000155.08449,319511.1366295,9
1659000155.14034,319511.1366359,2
1659000155.14034,319511.1366438,11
1659000155.14034,319511.13665,37
1659000155.14034,319511.1366578,77
1659000155.14034,319511.1366642,91
1659000155.14034,319511.136672,51
1659000155.14034,319511.1366787,7
1659000155.14034,319511.1366866,-7
1659000155.14034,319511.1366929,-11
1659000155.14034,319511.136701,-7
1659000155.14034,319511.1367087,7
1659000155.14034,319511.1367149,14
1659000155.14034,319511.1367227,16
1659000155.14034,319511.1367288,25
1659000155.14034,319511.136737,-4
1659000155.14034,319511.1367414,-49
1659000155.14034,319511.1367469,216
1659000155.14034,319511.1367521,881
1659000155.14034,319511.1367577,1357
1659000155.14034,319511.1367641,1133
1659000155.14034,319511.1367679,296
1659000155.14034,319511.7707674,-327
1659000155.14034,319511.7707897,-169
1659000155.14034,319511.7708003,14
1659000155.14034,319511.7708078,-157
1659000155.14034,319511.7708153,-164
1659000155.46998,319511.7708223,-58
1659000155.46998,319511.7708294,-84
1659000155.46998,319511.7708369,-113
1659000155.46998,319511.7708439,-91
1659000155.46998,319511.7708511,-94
1659000155.46998,319511.7708583,-80
1659000155.46998,319511.7708652,-47
1659000155.46998,319511.770872,-42
1659000155.46998,319511.7708793,-40
1659000155.46998,319511.7708864,-18
1659000155.46998,319511.7708933,-9
1659000155.46998,319511.7709002,-2
1659000155.46998,319511.7709072,32
1659000155.46998,319511.7709143,80
1659000155.46998,319511.7709215,103
1659000155.46998,319511.7709287,115
1659000155.46998,319511.7709356,120
1659000155.46998,319511.7709425,106
1659000155.46998,319511.7709519,84
1659000155.46998,319511.7709592,68
1659000155.46998,319511.7709665,44
1659000155.46998,319511.7709756,14
1659000155.46998,319511.7709844,-4
1659000155.46998,319511.7709914,-9
1659000155.46998,319511.7710004,-7
1659000155.46998,319511.7710077,0
1659000155.46998,319511.7710167,7
1659000155.46998,319511.7710254,0
1659000155.46998,319511.771034,-4
1659000155.46998,319511.7710408,11
1659000155.46998,319511.7710475,35
1659000155.46998,319511.7710566,54
1659000155.46998,319511.7710638,68
1659000155.46998,319511.7710724,73
1659000155.46998,319511.7710785,70
1659000155.46998,319511.7710871,68
1659000155.46998,319511.7710941,65
1659000155.46998,319511.7711022,68
1659000155.46998,319511.7711085,87
1659000155.46998,319511.7711167,103
1659000155.46998,319511.7711226,98
1659000155.46998,319511.7711304,82
1659000155.46998,319511.7711377,68
1659000155.46998,319511.7711447,77
1659000155.46998,319511.7711517,106
1659000155.46998,319511.7711608,141
1659000155.46998,319511.7711675,169
1659000155.46998,319511.7711758,167
1659000155.46998,319511.7711827,129
1659000155.46998,319511.7711912,94
1659000155.48395,319511.7711984,87
1659000155.48395,319511.771207,84
1659000155.48395,319511.7712113,70
1659000155.48395,319511.7712178,77
1659000155.48395,319511.7712222,89
1659000155.48395,319511.7712303,87
1659000155.48395,319511.7712373,73
1659000155.48395,319511.7712418,21
1659000155.48395,319511.7712472,169
1659000155.48395,319511.7712512,772
1659000155.48395,319511.7712572,1357
1659000155.48395,319511.7712649,1302
1659000155.48395,319511.7712712,563
1659000155.48395,319511.7712756,-174
1659000155.48395,319511.7712815,-169
1659000155.48395,319511.7712857,75
1659000155.48395,319511.7712919,-37
1659000155.48395,319511.7712963,-113
1659000155.48395,319512.2598423,-28
1659000155.48395,319512.2598692,-40
1659000155.48395,319512.2598749,-68
1659000155.48395,319512.2598819,-30
1659000156.05336,319512.2598859,-30
1659000156.05336,319512.2598902,-49
1659000156.05336,319512.259894,-25
1659000156.05336,319512.2598976,-2
1659000156.05336,319512.2599015,0
1659000156.05336,319512.2599053,16
1659000156.05336,319512.2599093,40
1659000156.05336,319512.2599131,42
1659000156.05336,319512.2599179,42
1659000156.05336,319512.2599221,65
1659000156.05336,319512.2599262,87
1659000156.05336,319512.25993,98
1659000156.05336,319512.2599337,113
1659000156.05336,319512.2599376,108
1659000156.05336,319512.2599416,73
1659000156.05336,319512.2599452,40
1659000156.05336,319512.2599489,30
1659000156.05336,319512.2599528,35
1659000156.05336,319512.2599567,30
1659000156.05336,319512.259961,7
1659000156.05336,319512.2599647,-18
1659000156.05336,319512.2599695,-37
1659000156.05336,319512.2599738,-32
1659000156.05336,319512.2599776,-18
1659000156.05336,319512.2599819,-9
1659000156.05336,319512.2599859,-7
1659000156.05336,319512.2599894,-2
1659000156.05336,319512.2599932,4
1659000156.05336,319512.259997,11
1659000156.05336,319512.2600021,23
1659000156.05336,319512.2600069,42
1659000156.05336,319512.2600112,54
1659000156.05336,319512.2600155,40
1659000156.05336,319512.2600185,28
1659000156.05336,319512.2600217,35
1659000156.05336,319512.2600262,42
1659000156.05336,319512.2600323,44
1659000156.05336,319512.2600377,56
1659000156.05336,319512.2600409,56
1659000156.05336,319512.2600444,40
1659000156.05336,319512.2600476,63
1659000156.05336,319512.2600514,120
1659000156.05336,319512.2600552,150
1659000156.05336,319512.2600588,136
1659000156.05336,319512.2600627,96
1659000156.05336,319512.2600668,56
1659000156.05336,319512.2600716,42
1659000156.05336,319512.2600746,61
1659000156.05336,319512.2600797,65
1659000156.05336,319512.2600839,56
1659000156.06533,319512.2600872,56
1659000156.06533,319512.2600907,56
1659000156.06533,319512.2600941,32
1659000156.06533,319512.2600976,-9
1659000156.06533,319512.260101,146
1659000156.06533,319512.2601051,732
1659000156.06533,319512.260112,1342
1659000156.06533,319512.2601175,1291
1659000156.06533,319512.2601289,494
1659000156.06533,319512.2601322,-256
1659000156.06533,319512.2601362,-219
1659000156.06533,319512.2601424,40
1659000156.06533,319512.260149,-70
1659000156.06533,319512.2601558,-139
1659000156.06533,319512.2601602,-35
1659000156.06533,319512.2601636,-25
1659000156.06533,319512.2601672,-56
1659000156.06533,319512.2601707,-28
1659000156.06533,319512.2601741,-25
1659000156.06533,319512.843391,-47
1659000156.06533,319512.8434117,-25
1659000156.06533,319512.8434495,9
1659000156.06533,319512.8434577,23
1659000156.06533,319512.843505,30
1659000156.64611,319512.8435424,42
1659000156.64611,319512.8435471,61
1659000156.64611,319512.8435513,115
1659000156.64611,319512.8435557,157
1659000156.64611,319512.8435597,150
1659000156.64611,319512.8435638,141
1659000156.64611,319512.8435681,157
1659000156.64611,319512.8435723,169
1659000156.64611,319512.8435763,167
1659000156.64611,319512.8435804,143
1659000156.64611,319512.8435851,89
1659000156.64611,319512.8435903,37
1659000156.64611,319512.8435965,16
1659000156.64611,319512.8436019,14
1659000156.64611,319512.843606,2
1659000156.64611,319512.84361,-11
1659000156.64611,319512.8436141,-28
1659000156.64611,319512.8436181,-40
1659000156.64611,319512.8436224,-35
1659000156.64611,319512.8436661,-28
1659000156.64611,319512.8436752,-28
1659000156.64611,319512.8436814,-9
1659000156.64611,319512.8436876,0
1659000156.64611,319512.8436937,-9
1659000156.64611,319512.8437,4
1659000156.64611,319512.8437067,28
1659000156.64611,319512.8437149,23
1659000156.64611,319512.8437215,18
1659000156.64611,319512.8437267,32
1659000156.64611,319512.8437309,56
1659000156.64611,319512.8437353,61
1659000156.64611,319512.8437396,42
1659000156.64611,319512.8437441,30
1659000156.64611,319512.8437483,42
1659000156.64611,319512.8437523,68
1659000156.64611,319512.8437569,108
1659000156.64611,319512.8437616,127
1659000156.64611,319512.8437662,94
1659000156.64611,319512.8437708,51
1659000156.64611,319512.8437755,28
1659000156.64611,319512.8437801,25
1659000156.64611,319512.8437863,42
1659000156.64611,319512.8437909,51
1659000156.64611,319512.8437955,51
1659000156.64611,319512.8438004,56
1659000156.64611,319512.8438053,58
1659000156.64611,319512.843845,23
1659000156.64611,319512.8438509,28
1659000156.64611,319512.8438552,386
1659000156.64611,319512.8438592,1029
1659000156.65808,319512.8438638,1298
1659000156.65808,319512.8438716,810
1659000156.65808,319512.8438772,-21
1659000156.65808,319512.8438837,-329
1659000156.65808,319512.8438885,-54
1659000156.65808,319512.843895,7
1659000156.65808,319512.8438994,-136
1659000156.65808,319512.843904,-87
1659000156.65808,319512.8439097,-25
1659000156.65808,319512.8439141,-65
1659000156.65808,319512.8439197,-68
1659000156.65808,319512.8439239,-35
1659000156.65808,319512.8439297,-21
1659000156.65808,319512.843934,-9
1659000156.65808,319512.8439396,4
1659000156.65808,319512.8439438,18
1659000156.65808,319512.8439494,35
1659000156.65808,319512.843955,47
1659000156.65808,319513.4275856,58
1659000156.65808,319513.4276042,75
1659000156.65808,319513.4276126,115
1659000156.65808,319513.4276168,176
1659000156.65808,319513.4276221,207
1659000156.65808,319513.4276268,179
1659000157.1275,319513.4276323,155
1659000157.1275,319513.4276371,164
1659000157.1275,319513.4276413,150
1659000157.1275,319513.4276453,115
1659000157.1275,319513.4276495,89
1659000157.1275,319513.4276533,44
1659000157.1275,319513.4276588,-9
1659000157.1275,319513.4276629,-14
1659000157.1275,319513.4276665,7
1659000157.1275,319513.4276702,-9
1659000157.1275,319513.4276742,-32
1659000157.1275,319513.4276803,-25
1659000157.1275,319513.4276849,-18
1659000157.1275,319513.427692,-16
1659000157.1275,319513.4276966,4
1659000157.1275,319513.4276998,25
1659000157.1275,319513.4277029,32
1659000157.1275,319513.427706,37
1659000157.1275,319513.4277172,37
1659000157.1275,319513.4277299,28
1659000157.1275,319513.4277454,30
1659000157.1275,319513.427753,40
1659000157.1275,319513.4277555,49
1659000157.1275,319513.4277629,58
1659000157.1275,319513.4277774,56
1659000157.1275,319513.4277885,44
1659000157.1275,319513.4277981,49
1659000157.1275,319513.4278047,77
1659000157.1275,319513.4278094,115
1659000157.1275,319513.4278139,141
1659000157.1275,319513.4278171,134
1659000157.1275,319513.4278203,98
1659000157.1275,319513.4278237,65
1659000157.1275,319513.4278295,58
1659000157.1275,319513.427834,68
1659000157.1275,319513.4278392,65
1659000157.1275,319513.4278427,49
1659000157.1275,319513.4278459,54
1659000157.1275,319513.4278491,73
1659000157.1275,319513.4278523,58
1659000157.1275,319513.4278551,40
1659000157.1275,319513.427858,301
1659000157.1275,319513.4278608,928
1659000157.1275,319513.4278659,1345
1659000157.1275,319513.427869,1029
1659000157.1275,319513.4278717,171
1659000157.1275,319513.4278744,-341
1659000157.1275,319513.427877,-98
1659000157.1275,319513.4278796,75
1659000157.1275,319513.4278823,-101
1659000157.14147,319513.4278849,-110
1659000157.14147,319513.4278876,-23
1659000157.14147,319513.4278902,-63
1659000157.14147,319513.4278927,-63
1659000157.14147,319513.4278955,14
1659000157.14147,319513.4278981,23
1659000157.14147,319513.4279008,-25
1659000157.14147,319513.4279034,-18
1659000157.14147,319513.4279062,40
1659000157.14147,319513.4279087,77
1659000157.14147,319513.4279114,84
1659000157.14147,319513.4279194,91
1659000157.14147,319513.4279221,103
1659000157.14147,319513.4279247,113
1659000157.14147,319513.4279272,117
1659000157.14147,319513.4279298,150
1659000157.14147,319513.4279334,226
1659000157.14147,319513.9148959,256
1659000157.14147,319513.9149172,207
1659000157.14147,319513.914931,174
1659000157.14147,319513.9149444,167
1659000157.14147,319513.9149531,136
1659000157.14147,319513.9149557,75
1659000157.14147,319513.9149579,14
1659000157.81351,319513.9149601,2
1659000157.81351,319513.9149621,30
1659000157.81351,319513.914964,32
1659000157.81351,319513.9149658,11
1659000157.81351,319513.9149677,7
1659000157.81351,319513.9149696,14
1659000157.81351,319513.9149715,23
1659000157.81351,319513.9149734,32
1659000157.81351,319513.9149753,25
1659000157.81351,319513.9149772,16
1659000157.81351,319513.9149791,28
1659000157.81351,319513.9149811,40
1659000157.81351,319513.9149831,40
1659000157.81351,319513.9149851,42
1659000157.81351,319513.914987,35
1659000157.81351,319513.9149889,21
1659000157.81351,319513.9149908,28
1659000157.81351,319513.9149932,32
1659000157.81351,319513.9150008,14
1659000157.81351,319513.9150126,4
1659000157.81351,319513.9150213,40
1659000157.81351,319513.9150285,110
1659000157.81351,319513.9150416,150
1659000157.81351,319513.9150547,115
1659000157.81351,319513.9150679,75
1659000157.81351,319513.9150763,58
1659000157.81351,319513.9150788,42
1659000157.81351,319513.915081,30
1659000157.81351,319513.915083,32
1659000157.81351,319513.915085,40
1659000157.81351,319513.9150872,40
1659000157.81351,319513.9150892,49
1659000157.81351,319513.9150912,30
1659000157.81351,319513.9150933,9
1659000157.81351,319513.9150953,306
1659000157.81351,319513.9150973,956
1659000157.81351,319513.9150993,1340
1659000157.81351,319513.9151014,998
1659000157.81351,319513.9151035,141
1659000157.81351,319513.9151057,-339
1659000157.81351,319513.9151077,-91
1659000157.81351,319513.9151097,35
1659000157.81351,319513.9151118,-150
1659000157.81351,319513.9151138,-108
1659000157.81351,319513.9151159,21
1659000157.81351,319513.915118,-25
1659000157.81351,319513.9151201,-61
1659000157.81351,319513.9151221,-9
1659000157.81351,319513.9151242,9
1659000157.81351,319513.9151262,-2
1659000157.82747,319513.9151283,14
1659000157.82747,319513.9151304,28
1659000157.82747,319513.9151325,42
1659000157.82747,319513.9151346,75
1659000157.82747,319513.9151366,115
1659000157.82747,319513.9151386,153
1659000157.82747,319513.9151407,193
1659000157.82747,319513.9151428,221
1659000157.82747,319513.9151448,221
1659000157.82747,319513.9151469,209
1659000157.82747,319513.9151489,202
1659000157.82747,319513.9151509,181
1659000157.82747,319513.9151529,146
1659000157.82747,319513.9151549,122
1659000157.82747,319513.9151569,110
1659000157.82747,319513.9151589,82
1659000157.82747,319514.5976687,54
1659000157.82747,319514.597688,47
1659000157.82747,319514.5976975,47
1659000157.82747,319514.5977043,23
1659000157.82747,319514.5977091,-16
1659000157.82747,319514.5977157,-30
1659000157.82747,319514.5977224,-14
1659000157.82747,319514.5977289,0
1659000158.3994,319514.597733,-2
1659000158.3994,319514.5977368,-2
1659000158.3994,319514.5977408,9
1659000158.3994,319514.5977449,9
1659000158.3994,319514.5977487,-7
1659000158.3994,319514.5977527,-16
1659000158.3994,319514.5977578,-18
1659000158.3994,319514.5977625,-9
1659000158.3994,319514.5977672,18
1659000158.3994,319514.5977713,51
1659000158.3994,319514.5977754,42
1659000158.3994,319514.5977808,7
1659000158.3994,319514.5977855,11
1659000158.3994,319514.5977897,58
1659000158.3994,319514.5977937,77
1659000158.3994,319514.5977979,51
1659000158.3994,319514.597802,49
1659000158.3994,319514.5978084,65
1659000158.3994,319514.5978126,30
1659000158.3994,319514.597817,0
1659000158.3994,319514.5978234,28
1659000158.3994,319514.5978277,49
1659000158.3994,319514.5978336,21
1659000158.3994,319514.5978379,-7
1659000158.3994,319514.597842,-21
1659000158.3994,319514.5978463,-75
1659000158.3994,319514.5978522,68
1659000158.3994,319514.5978559,659
1659000158.3994,319514.5978612,1215
1659000158.3994,319514.5978653,1161
1659000158.3994,319514.5978694,457
1659000158.3994,319514.5978735,-247
1659000158.3994,319514.5978794,-228
1659000158.3994,319514.5978837,4
1659000158.3994,319514.5978895,-117
1659000158.3994,319514.5978938,-183
1659000158.3994,319514.5978992,-84
1659000158.3994,319514.5979035,-91
1659000158.3994,319514.5979077,-129
1659000158.3994,319514.5979124,-96
1659000158.3994,319514.5979173,-65
1659000158.3994,319514.5979215,-61
1659000158.3994,319514.5979256,-58
1659000158.3994,319514.5979297,-58
1659000158.3994,319514.5979339,-47
1659000158.3994,319514.5979381,-21
1659000158.3994,319514.597944,11
1659000158.3994,319514.5979484,40
1659000158.3994,319514.5979526,54
1659000158.3994,319514.5979593,77
1659000158.41288,319514.5979669,110
1659000158.41288,319514.5979761,127
1659000158.41288,319514.5979821,117
1659000158.41288,319514.597994,91
1659000158.41288,319514.5980048,63
1659000158.41288,319514.5980133,35
1659000158.41288,319514.5980206,7
1659000158.41288,319514.598033,-16
1659000158.41288,319514.5980423,-37
1659000158.41288,319514.5980491,-47
1659000158.41288,319514.5980616,-58
1659000158.41288,319514.5980715,-68
1659000158.41288,319514.5980777,-68
1659000158.41288,319514.5980902,-73
1659000158.41288,319514.5980987,-73
1659000158.41288,319515.1837763,-54
1659000158.41288,319515.1837903,-49
1659000158.41288,319515.1837963,-63
1659000158.41288,319515.1838002,-47
1659000158.41288,319515.1838065,-18
1659000158.41288,319515.18381,-16
1659000158.41288,319515.1838135,-21
1659000158.41288,319515.1838183,-21
1659000158.41288,319515.1838216,-25
1659000158.84498,319515.1838268,-23
1659000158.84498,319515.183831,-14
1659000158.84498,319515.1838375,-14
1659000158.84498,319515.1838437,-30
1659000158.84498,319515.1838478,-28
1659000158.84498,319515.1838521,-2
1659000158.84498,319515.1838572,30
1659000158.84498,319515.1838617,49
1659000158.84498,319515.1838655,32
1659000158.84498,319515.1838695,-11
1659000158.84498,319515.1838755,-49
1659000158.84498,319515.1838803,-58
1659000158.84498,319515.1838863,-56
1659000158.84498,319515.1838914,-63
1659000158.84498,319515.1838969,-73
1659000158.84498,319515.1839076,-73
1659000158.84498,319515.1839168,-82
1659000158.84498,319515.1839266,-164
1659000158.84498,319515.1839291,-150
1659000158.84498,319515.1839313,329
1659000158.84498,319515.1839338,1013
1659000158.84498,319515.1839422,1187
1659000158.84498,319515.1839562,621
1659000158.84498,319515.1839663,-190
1659000158.84498,319515.1839714,-417
1659000158.84498,319515.1839751,-150
1659000158.84498,319515.1839814,-160
1659000158.84498,319515.1839861,-278
1659000158.84498,319515.1839949,-186
1659000158.84498,319515.1840022,-146
1659000158.84498,319515.184009,-193
1659000158.84498,319515.1840201,-174
1659000158.84498,319515.1840314,-155
1659000158.84498,319515.1840387,-162
1659000158.84498,319515.1840488,-148
1659000158.84498,319515.1840615,-124
1659000158.84498,319515.1840684,-120
1659000158.84498,319515.1840836,-110
1659000158.84498,319515.184094,-89
1659000158.84498,319515.1841019,-54
1659000158.84498,319515.1841119,-14
1659000158.84498,319515.1841223,18
1659000158.84498,319515.1841295,37
1659000158.84498,319515.1841404,58
1659000158.84498,319515.1841532,75
1659000158.84498,319515.184161,65
1659000158.84498,319515.184166,47
1659000158.84498,319515.1841709,21
1659000158.84498,319515.1841749,-21
1659000158.84498,319515.1841783,-65
1659000158.86592,319515.184191,-94
1659000158.86592,319515.1841979,-89
1659000158.86592,319515.1842019,-77
1659000158.86592,319515.1842088,-96
1659000158.86592,319515.1842195,-117
1659000158.86592,319515.1842304,-115
1659000158.86592,319515.1842423,-106
1659000158.86592,319515.1842553,-103
1659000158.86592,319515.1842625,-108
1659000158.86592,319515.184273,-103
1659000158.86592,319515.1842841,-77
1659000158.86592,319515.1843215,-63
1659000158.86592,319515.1843307,-77
1659000158.86592,319515.1843363,-70
1659000158.86592,319515.6220703,-40
1659000158.86592,319515.622089,-32
1659000158.86592,319515.6220953,-40
1659000158.86592,319515.6221031,-32
1659000158.86592,319515.6221069,-35
1659000158.86592,319515.6221115,-49
1659000158.86592,319515.6221163,-54
1659000158.86592,319515.6221222,-42
1659000158.86592,319515.6221287,-16
1659000158.86592,319515.6221344,21
1659000159.36337,319515.6221445,49
1659000159.36337,319515.6221548,32
1659000159.36337,319515.6221615,-21
1659000159.36337,319515.6221657,-61
1659000159.36337,319515.6221725,-73
1659000159.36337,319515.6221856,-77
1659000159.36337,319515.6221975,-73
1659000159.36337,319515.6222078,-63
1659000159.36337,319515.6222311,-73
1659000159.36337,319515.6222391,-84
1659000159.36337,319515.6222469,-106
1659000159.36337,319515.6222557,-150
1659000159.36337,319515.6222583,77
1659000159.36337,319515.6222611,746
1659000159.36337,319515.6222686,1267
1659000159.36337,319515.6222795,1017
1659000159.36337,319515.6222898,150
1659000159.36337,319515.6222992,-428
1659000159.36337,319515.6223045,-242
1659000159.36337,319515.6223149,-42
1659000159.36337,319515.6223297,-200
1659000159.36337,319515.6223436,-226
1659000159.36337,319515.6223567,-131
1659000159.36337,319515.6223692,-150
1659000159.36337,319515.6223787,-164
1659000159.36337,319515.6223862,-127
1659000159.36337,319515.6223943,-129
1659000159.36337,319515.6224011,-131
1659000159.36337,319515.6224138,-103
1659000159.36337,319515.6224274,-87
1659000159.36337,319515.6224354,-75
1659000159.36337,319515.6224423,-51
1659000159.36337,319515.622451,-35
1659000159.36337,319515.6224575,-18
1659000159.36337,319515.6224648,14
1659000159.36337,319515.6224718,49
1659000159.36337,319515.6224798,73
1659000159.36337,319515.6224847,84
1659000159.36337,319515.6224914,96
1659000159.36337,319515.6224945,98
1659000159.36337,319515.6225043,89
1659000159.36337,319515.6225074,61
1659000159.36337,319515.6225135,18
1659000159.36337,319515.6225238,-21
1659000159.36337,319515.6225323,-42
1659000159.36337,319515.6225442,-65
1659000159.36337,319515.6225521,-89
1659000159.36337,319515.6225591,-89
1659000159.36337,319515.6225675,-80
1659000159.36337,319515.6225725,-73
1659000159.37833,319515.6225804,-68
1659000159.37833,319515.6225868,-75
1659000159.37833,319515.6225934,-73
1659000159.37833,319515.6226008,-56
1659000159.37833,319515.6226076,-47
1659000159.37833,319515.6226149,-42
1659000159.37833,319515.6226199,-35
1659000159.37833,319515.6226284,-28
1659000159.37833,319515.6226367,-25
1659000159.37833,319515.6226436,-25
1659000159.37833,319515.6226506,-30
1659000159.37833,319515.6226587,-21
1659000159.37833,319515.6226641,0
1659000159.37833,319516.1585383,9
1659000159.37833,319516.1585517,0
1659000159.37833,319516.1585547,-11
1659000159.37833,319516.1585572,-9
1659000159.37833,319516.1585594,16
1659000159.37833,319516.1585615,68
1659000159.37833,319516.1585635,89
1659000159.37833,319516.1585656,51
1659000159.37833,319516.1585676,-4
1659000159.37833,319516.1585696,-56
1659000159.37833,319516.1585717,-73
1659000159.95725,319516.1585737,-56
1659000159.95725,319516.1585757,-49
1659000159.95725,319516.1585776,-47
1659000159.95725,319516.1585795,-37
1659000159.95725,319516.1585815,-61
1659000159.95725,319516.1585834,-129
1659000159.95725,319516.1585861,-23
1659000159.95725,319516.1585954,532
1659000159.95725,319516.1586067,1192
1659000159.95725,319516.1586165,1248
1659000159.95725,319516.1586305,518
1659000159.95725,319516.1586373,-285
1659000159.95725,319516.1586403,-315
1659000159.95725,319516.1586424,-16
1659000159.95725,319516.1586449,-103
1659000159.95725,319516.1586556,-204
1659000159.95725,319516.1586634,-101
1659000159.95725,319516.1586658,-84
1659000159.95725,319516.158668,-115
1659000159.95725,319516.1586701,-84
1659000159.95725,319516.1586721,-70
1659000159.95725,319516.1586741,-65
1659000159.95725,319516.158676,-25
1659000159.95725,319516.158678,0
1659000159.95725,319516.15868,-7
1659000159.95725,319516.158682,7
1659000159.95725,319516.1586839,40
1659000159.95725,319516.1586858,58
1659000159.95725,319516.1586878,77
1659000159.95725,319516.1586899,110
1659000159.95725,319516.1586918,136
1659000159.95725,319516.1586938,155
1659000159.95725,319516.1586957,174
1659000159.95725,319516.1586976,181
1659000159.95725,319516.1587013,176
1659000159.95725,319516.1587052,167
1659000159.95725,319516.1587075,136
1659000159.95725,319516.1587096,89
1659000159.95725,319516.1587116,56
1659000159.95725,319516.1587137,35
1659000159.95725,319516.1587157,16
1659000159.95725,319516.1587178,-2
1659000159.95725,319516.1587199,-23
1659000159.95725,319516.1587221,-30
1659000159.95725,319516.1587241,-18
1659000159.95725,319516.1587262,0
1659000159.95725,319516.1587283,4
1659000159.95725,319516.1587303,11
1659000159.95725,319516.1587324,30
1659000159.95725,319516.1587344,40
1659000159.97121,319516.1587365,42
1659000159.97121,319516.1587386,49
1659000159.97121,319516.1587406,54
1659000159.97121,319516.1587426,61
1659000159.97121,319516.1587446,65
1659000159.97121,319516.1587467,61
1659000159.97121,319516.1587488,63
1659000159.97121,319516.1587509,70
1659000159.97121,319516.158753,61
1659000159.97121,319516.158755,49
1659000159.97121,319516.1587571,51
1659000159.97121,319516.1587593,84
1659000159.97121,319516.7434435,115
1659000159.97121,319516.7434624,106
1659000159.97121,319516.7434782,70
1659000159.97121,319516.7434858,32
1659000159.97121,319516.7434926,18
1659000159.97121,319516.7434995,18
1659000159.97121,319516.7435065,4
1659000159.97121,319516.7435115,-4
1659000159.97121,319516.7435154,9
1659000159.97121,319516.7435191,30
1659000159.97121,319516.7435227,-4
1659000159.97121,319516.7435286,-54
1659000160.53617,319516.7435353,214
1659000160.53617,319516.7435389,871
1659000160.53617,319516.7435434,1319
1659000160.53617,319516.7435495,1057
1659000160.53617,319516.7435571,214
1659000160.53617,319516.743564,-360
1659000160.53617,319516.7435692,-171
1659000160.53617,319516.7435749,25
1659000160.53617,319516.7435799,-110
1659000160.53617,319516.7435841,-115
1659000160.53617,319516.7435891,-30
1659000160.53617,319516.7435933,-56
1659000160.53617,319516.7435996,-73
1659000160.53617,319516.7436057,-42
1659000160.53617,319516.7436088,-35
1659000160.53617,319516.7436117,-16
1659000160.53617,319516.7436161,21
1659000160.53617,319516.7436201,32
1659000160.53617,319516.7436261,40
1659000160.53617,319516.7436302,63
1659000160.53617,319516.7436332,82
1659000160.53617,319516.7436362,101
1659000160.53617,319516.743639,134
1659000160.53617,319516.7436428,176
1659000160.53617,319516.743649,223
1659000160.53617,319516.743652,254
1659000160.53617,319516.7436549,242
1659000160.53617,319516.7436578,223
1659000160.53617,319516.7436607,214
1659000160.53617,319516.7436635,183
1659000160.53617,319516.7436665,131
1659000160.53617,319516.7437214,94
1659000160.53617,319516.7437291,65
1659000160.53617,319516.7437348,47
1659000160.53617,319516.7437378,40
1659000160.53617,319516.7437407,32
1659000160.53617,319516.7437437,21
1659000160.53617,319516.7437466,9
1659000160.53617,319516.7437497,2
1659000160.53617,319516.7437526,28
1659000160.53617,319516.7437554,73
1659000160.53617,319516.7437584,87
1659000160.53617,319516.7437612,80
1659000160.53617,319516.7437641,82
1659000160.53617,319516.743767,84
1659000160.53617,319516.74377,84
1659000160.53617,319516.7437728,87
1659000160.53617,319516.7437757,91
1659000160.53617,319516.7437786,91
1659000160.53617,319516.7437815,94
1659000160.55213,319516.7437844,91
1659000160.55213,319516.7437874,82
1659000160.55213,319516.7437903,84
1659000160.55213,319516.7437931,106
1659000160.55213,319516.7437959,146
1659000160.55213,319516.7437988,183
1659000160.55213,319516.7438017,167
1659000160.55213,319516.7438045,113
1659000160.55213,319516.7438075,77
1659000160.55213,319516.7438103,63
1659000160.55213,319516.7438132,61
1659000160.55213,319517.3277696,75
1659000160.55213,319517.3277922,75
1659000160.55213,319517.3278062,80
1659000160.55213,319517.3278187,103
1659000160.55213,319517.3278302,65
1659000160.55213,319517.3278435,-25
1659000160.55213,319517.327857,183
1659000160.55213,319517.3278706,848
1659000160.55213,319517.3278829,1397
1659000160.55213,319517.327894,1274
1659000160.55213,319517.327906,494
1659000160.55213,319517.3279194,-200
1659000160.55213,319517.3279338,-139
1659000161.07841,319517.3279472,75
1659000161.07841,319517.3279556,-73
1659000161.07841,319517.3279631,-134
1659000161.07841,319517.3279711,-30
1659000161.07841,319517.3279763,-25
1659000161.07841,319517.3279878,-54
1659000161.07841,319517.3280027,-25
1659000161.07841,319517.3280157,-14
1659000161.07841,319517.3280232,-18
1659000161.07841,319517.3280272,-7
1659000161.07841,319517.3280294,9
1659000161.07841,319517.3280315,18
1659000161.07841,319517.3280335,25
1659000161.07841,319517.3280355,37
1659000161.07841,319517.3280376,63
1659000161.07841,319517.3280402,96
1659000161.07841,319517.3280488,110
1659000161.07841,319517.3280634,117
1659000161.07841,319517.3280761,150
1659000161.07841,319517.3280888,176
1659000161.07841,319517.3280979,167
1659000161.07841,319517.3281115,141
1659000161.07841,319517.3281255,122
1659000161.07841,319517.3281386,98
1659000161.07841,319517.3281521,70
1659000161.07841,319517.3281653,49
1659000161.07841,319517.3281772,40
1659000161.07841,319517.3281844,32
1659000161.07841,319517.3281878,18
1659000161.07841,319517.3281924,9
1659000161.07841,319517.3281952,16
1659000161.07841,319517.328198,42
1659000161.07841,319517.3282008,54
1659000161.07841,319517.3282036,44
1659000161.07841,319517.3282063,35
1659000161.07841,319517.3282091,49
1659000161.07841,319517.3282119,77
1659000161.07841,319517.3282147,91

1659000161.07841,319517.3282176,84
1659000161.07841,319517.3282204,73
1659000161.07841,319517.3282232,68
1659000161.07841,319517.3282259,73
1659000161.07841,319517.3282287,87
1659000161.07841,319517.3282315,98
1659000161.07841,319517.3282342,94
1659000161.07841,319517.3282369,80
1659000161.07841,319517.3282396,75
1659000161.07841,319517.3282425,98
1659000161.07841,319517.3282452,136
1659000161.07841,319517.3282479,150
1659000161.09636,319517.3282506,127
1659000161.09636,319517.3282535,96
1659000161.09636,319517.3282562,68
1659000161.09636,319517.3282598,49
1659000161.09636,319517.3282661,61
1659000161.09636,319517.3282841,75
1659000161.09636,319517.3282928,73
1659000161.09636,319517.3282992,73
1659000161.09636,319517.3283233,77
1659000161.09636,319517.328337,21
1659000161.09636,319517.8649782,-7
1659000161.09636,319517.8649949,358
1659000161.09636,319517.8649999,1071
1659000161.09636,319517.8650044,1460
1659000161.09636,319517.8650087,1076
1659000161.09636,319517.8650131,193
1659000161.09636,319517.8650175,-285
1659000161.09636,319517.865022,-51
1659000161.09636,319517.8650264,61
1659000161.09636,319517.8650307,-106
1659000161.09636,319517.865035,-84
1659000161.09636,319517.8650393,-9
1659000161.09636,319517.8650436,-47
1659000161.09636,319517.8650477,-47
1659000161.67674,319517.865052,-11
1659000161.67674,319517.8650563,-18
1659000161.67674,319517.8650605,-18
1659000161.67674,319517.8650647,-4
1659000161.67674,319517.8650691,-11
1659000161.67674,319517.8650733,-4
1659000161.67674,319517.8650775,28
1659000161.67674,319517.8650819,42
1659000161.67674,319517.8650862,51
1659000161.67674,319517.8650905,91
1659000161.67674,319517.865095,117
1659000161.67674,319517.8650994,129
1659000161.67674,319517.8651035,155
1659000161.67674,319517.8651073,164
1659000161.67674,319517.8651114,150
1659000161.67674,319517.8651161,141
1659000161.67674,319517.8651207,117
1659000161.67674,319517.8651251,77
1659000161.67674,319517.8651292,42
1659000161.67674,319517.8651332,18
1659000161.67674,319517.8651376,7
1659000161.67674,319517.8651417,4
1659000161.67674,319517.8651459,2
1659000161.67674,319517.86515,-4
1659000161.67674,319517.8652036,2
1659000161.67674,319517.8652135,9
1659000161.67674,319517.8652186,11
1659000161.67674,319517.8652235,28
1659000161.67674,319517.8652278,42
1659000161.67674,319517.865232,30
1659000161.67674,319517.8652363,7
1659000161.67674,319517.8652408,9
1659000161.67674,319517.8652454,47
1659000161.67674,319517.86525,70
1659000161.67674,319517.8652549,56
1659000161.67674,319517.8652594,47
1659000161.67674,319517.8652638,51
1659000161.67674,319517.8652682,47
1659000161.67674,319517.8652724,49
1659000161.67674,319517.8652769,47
1659000161.67674,319517.8652817,18
1659000161.67674,319517.8652865,9
1659000161.67674,319517.8652915,54
1659000161.67674,319517.8652965,110
1659000161.67674,319517.8653014,127
1659000161.67674,319517.865306,96
1659000161.67674,319517.8653108,51
1659000161.67674,319517.8653152,18
1659000161.67674,319517.8653194,16
1659000161.67674,319517.8653235,25
1659000161.69869,319517.8653279,25
1659000161.69869,319517.8653325,35
1659000161.69869,319517.8653371,54
1659000161.69869,319517.8653418,40
1659000161.69869,319517.8653465,-32
1659000161.69869,319517.8653511,30
1659000161.69869,319517.8653559,539
1659000161.69869,319517.8653606,1213
1659000161.69869,319517.8653648,1354
1659000161.69869,319518.4504473,725
1659000161.69869,319518.4504606,-113
1659000161.69869,319518.450464,-282
1659000161.69869,319518.4504667,2
1659000161.69869,319518.4504691,-32
1659000161.69869,319518.4504713,-169
1659000161.69869,319518.4504736,-82
1659000161.69869,319518.4504759,-42
1659000161.69869,319518.4504781,-108
1659000161.69869,319518.4504805,-101
1659000161.69869,319518.4504827,-65
1659000161.69869,319518.4504849,-70
1659000161.69869,319518.4504872,-54
1659000161.69869,319518.4504894,-30
1659000161.69869,319518.4504917,-54
1659000162.20036,319518.450494,-61
1659000162.20036,319518.4504962,-18
1659000162.20036,319518.4504984,14
1659000162.20036,319518.4505006,21
1659000162.20036,319518.4505028,54
1659000162.20036,319518.4505049,94
1659000162.20036,319518.450507,108
1659000162.20036,319518.4505091,108
1659000162.20036,319518.4505111,106
1659000162.20036,319518.4505133,91
1659000162.20036,319518.4505154,68
1659000162.20036,319518.4505195,42
1659000162.20036,319518.4505248,21
1659000162.20036,319518.4505384,-2
1659000162.20036,319518.4505441,-21
1659000162.20036,319518.4505498,-32
1659000162.20036,319518.4505565,-47
1659000162.20036,319518.4505609,-61
1659000162.20036,319518.4505653,-61
1659000162.20036,319518.4505713,-56
1659000162.20036,319518.4505786,-54
1659000162.20036,319518.4505854,-51
1659000162.20036,319518.4505933,-42
1659000162.20036,319518.4506045,-35
1659000162.20036,319518.4506132,-30
1659000162.20036,319518.4506218,-44
1659000162.20036,319518.4506326,-61
1659000162.20036,319518.4506409,-32
1659000162.20036,319518.4506488,11
1659000162.20036,319518.4506549,9
1659000162.20036,319518.4506571,-9
1659000162.20036,319518.4506592,-7
1659000162.20036,319518.4506612,-11
1659000162.20036,319518.4506633,-25
1659000162.20036,319518.4506653,-35
1659000162.20036,319518.4506674,-37
1659000162.20036,319518.4506694,-42
1659000162.20036,319518.4506715,-37
1659000162.20036,319518.4506736,9
1659000162.20036,319518.4506756,75
1659000162.20036,319518.4506776,80
1659000162.20036,319518.4506797,21
1659000162.20036,319518.4506817,-21
1659000162.20036,319518.4506838,-35
1659000162.20036,319518.4506859,-44
1659000162.20036,319518.4506879,-54
1659000162.20036,319518.4506899,-44
1659000162.20036,319518.4506919,-7
1659000162.20036,319518.4506939,25
1659000162.20036,319518.450696,-11
1659000162.21532,319518.450698,-42
1659000162.21532,319518.4506999,252
1659000162.21532,319518.450702,904
1659000162.21532,319518.450704,1307
1659000162.21532,319518.450706,944
1659000162.21532,319518.4507081,37
1659000162.21532,319518.4507101,-445
1659000162.21532,319518.4507123,-153
1659000162.21532,319518.9858224,14
1659000162.21532,319518.9858437,-181
1659000162.21532,319518.9858532,-188
1659000162.21532,319518.9858577,-70
1659000162.21532,319518.9858626,-84
1659000162.21532,319518.9858668,-110
1659000162.21532,319518.9858701,-77
1659000162.21532,319518.9858743,-68
1659000162.21532,319518.9858794,-84
1659000162.21532,319518.9858922,-61
1659000162.21532,319518.9859009,-4
1659000162.21532,319518.98591,16
1659000162.21532,319518.9859232,-4
1659000162.21532,319518.9859365,2
1659000162.21532,319518.9859496,32
1659000162.21532,319518.9859628,61
1659000162.7801,319518.985975,117
1659000162.7801,319518.9859828,171
1659000162.7801,319518.9859908,167
1659000162.7801,319518.9860003,150
1659000162.7801,319518.9860135,146
1659000162.7801,319518.9860262,131
1659000162.7801,319518.9860403,108
1659000162.7801,319518.9860537,77
1659000162.7801,319518.9860671,32
1659000162.7801,319518.9860802,-9
1659000162.7801,319518.9860926,-35
1659000162.7801,319518.9861247,-58
1659000162.7801,319518.9861396,-77
1659000162.7801,319518.9861464,-84
1659000162.7801,319518.9861502,-82
1659000162.7801,319518.9861549,-63
1659000162.7801,319518.9861609,-42
1659000162.7801,319518.9861752,-32
1659000162.7801,319518.986188,-28
1659000162.7801,319518.9861958,-21
1659000162.7801,319518.9862026,-11
1659000162.7801,319518.9862074,-9
1659000162.7801,319518.9862136,-16
1659000162.7801,319518.986218,-16
1659000162.7801,319518.9862241,-11
1659000162.7801,319518.9862285,-18
1659000162.7801,319518.9862341,-21
1659000162.7801,319518.9862384,-14
1659000162.7801,319518.986244,0
1659000162.7801,319518.9862491,21
1659000162.7801,319518.9862544,25
1659000162.7801,319518.9862585,7
1659000162.7801,319518.9862642,4
1659000162.7801,319518.9862681,40
1659000162.7801,319518.9862738,82
1659000162.7801,319518.9862793,84
1659000162.7801,319518.9862837,58
1659000162.7801,319518.9862892,44
1659000162.7801,319518.986293,32
1659000162.7801,319518.9862967,18
1659000162.7801,319518.9863022,16
1659000162.7801,319518.9863061,16
1659000162.7801,319518.9863101,16
1659000162.7801,319518.986314,23
1659000162.7801,319518.9863198,16
1659000162.7801,319518.9863237,-47
1659000162.7801,319518.9863288,32
1659000162.7801,319518.9863326,546
1659000162.7801,319518.9863381,1194
1659000162.7801,319518.9863419,1312
1659000162.80304,319518.9863458,657
1659000162.80304,319518.9863497,-200
1659000162.80304,319518.9863553,-334
1659000162.80304,319518.9863592,-7
1659000162.80304,319518.9863644,-42
1659000162.80304,319518.9863683,-179
1659000162.80304,319518.9863738,-87
1659000162.80304,319519.5703458,-40
1659000162.80304,319519.5703608,-75
1659000162.80304,319519.5703657,-42
1659000162.80304,319519.5703729,0
1659000162.80304,319519.570377,-4
1659000162.80304,319519.5703824,7
1659000162.80304,319519.5703861,30
1659000162.80304,319519.5703899,30
1659000162.80304,319519.5703952,32
1659000162.80304,319519.5703998,54
1659000162.80304,319519.5704034,75
1659000162.80304,319519.5704069,94
1659000162.80304,319519.5704105,120
1659000162.80304,319519.570414,153
1659000162.80304,319519.5704177,160
1659000162.80304,319519.5704212,139
1659000162.80304,319519.570426,117
1659000163.32025,319519.5704299,96
1659000163.32025,319519.5704336,63
1659000163.32025,319519.5704372,32
1659000163.32025,319519.5704406,18
1659000163.32025,319519.570444,4
1659000163.32025,319519.5704475,-32
1659000163.32025,319519.570451,-77
1659000163.32025,319519.5704545,-65
1659000163.32025,319519.5704579,-35
1659000163.32025,319519.5704613,-44
1659000163.32025,319519.5704647,-61
1659000163.32025,319519.5704681,-49
1659000163.32025,319519.5704715,-44
1659000163.32025,319519.570475,-51
1659000163.32025,319519.5704784,-44
1659000163.32025,319519.5704818,-32
1659000163.32025,319519.5704852,-32
1659000163.32025,319519.5704886,-32
1659000163.32025,319519.5704921,-18
1659000163.32025,319519.5704956,-7
1659000163.32025,319519.570499,-7
1659000163.32025,319519.5705024,-4
1659000163.32025,319519.5705059,0
1659000163.32025,319519.5705093,-7
1659000163.32025,319519.5705128,-14
1659000163.32025,319519.5705163,-4
1659000163.32025,319519.57052,16
1659000163.32025,319519.5705237,40
1659000163.32025,319519.5705272,68
1659000163.32025,319519.5705308,110
1659000163.32025,319519.5705354,117
1659000163.32025,319519.570539,70
1659000163.32025,319519.5705426,25
1659000163.32025,319519.5705476,16
1659000163.32025,319519.570551,21
1659000163.32025,319519.5705545,21
1659000163.32025,319519.5705596,23
1659000163.32025,319519.5705632,42
1659000163.32025,319519.5705667,58
1659000163.32025,319519.5705715,42
1659000163.32025,319519.5705755,-9
1659000163.32025,319519.570579,16
1659000163.32025,319519.5705826,393
1659000163.32025,319519.5705863,1071
1659000163.32025,319519.5705911,1439
1659000163.32025,319519.5705956,996
1659000163.32025,319519.5706003,61
1659000163.32025,319519.5706044,-329
1659000163.32025,319519.570608,-16
1659000163.32025,319519.5706115,63
1659000163.33721,319519.570615,-120
1659000163.33721,319519.5706199,-68
1659000163.33721,319519.5706234,11
1659000163.33721,319519.5706285,-30
1659000163.33721,319519.5706319,-35
1659000163.33721,319519.5706354,0
1659000163.33721,319520.1064533,2
1659000163.33721,319520.1064659,18
1659000163.33721,319520.1064698,70
1659000163.33721,319520.1064724,101
1659000163.33721,319520.1064748,82
1659000163.33721,319520.1064771,65
1659000163.33721,319520.1064794,77
1659000163.33721,319520.1064817,98
1659000163.33721,319520.106484,122
1659000163.33721,319520.1064863,136
1659000163.33721,319520.1064886,146
1659000163.33721,319520.1064908,164
1659000163.33721,319520.1064931,164
1659000163.33721,319520.1064954,146
1659000163.33721,319520.1064987,117
1659000163.33721,319520.1065117,96
1659000163.33721,319520.1065186,73
1659000163.33721,319520.106521,37
1659000163.94637,319520.1065233,-2
1659000163.94637,319520.1065254,-25
1659000163.94637,319520.1065273,-44
1659000163.94637,319520.1065298,-51
1659000163.94637,319520.1065399,-30
1659000163.94637,319520.1065468,-16
1659000163.94637,319520.1065492,-18
1659000163.94637,319520.1065512,-11
1659000163.94637,319520.1065533,-14
1659000163.94637,319520.1065608,-14
1659000163.94637,319520.1065687,14
1659000163.94637,319520.1065768,25
1659000163.94637,319520.1065793,14
1659000163.94637,319520.1065814,16
1659000163.94637,319520.1065834,18
1659000163.94637,319520.1065854,11
1659000163.94637,319520.1065875,16
1659000163.94637,319520.1065908,30
1659000163.94637,319520.1066037,25
1659000163.94637,319520.1066099,21
1659000163.94637,319520.106612,28
1659000163.94637,319520.1066141,28
1659000163.94637,319520.1066161,14
1659000163.94637,319520.1066185,23
1659000163.94637,319520.1066284,70
1659000163.94637,319520.106637,101
1659000163.94637,319520.1066394,80
1659000163.94637,319520.1066416,56
1659000163.94637,319520.1066436,37
1659000163.94637,319520.1066463,9
1659000163.94637,319520.1066566,18
1659000163.94637,319520.1066646,51
1659000163.94637,319520.106667,44
1659000163.94637,319520.1066691,32
1659000163.94637,319520.1066711,49
1659000163.94637,319520.1066769,25
1659000163.94637,319520.1066881,-37
1659000163.94637,319520.1066932,94
1659000163.94637,319520.1066955,654
1659000163.94637,319520.1066975,1293
1659000163.94637,319520.1067003,1352
1659000163.94637,319520.1067107,631
1659000163.94637,319520.1067184,-179
1659000163.94637,319520.1067209,-240
1659000163.94637,319520.1067231,37
1659000163.94637,319520.1067251,-37
1659000163.94637,319520.1067324,-120
1659000163.94637,319520.1067431,-18
1659000163.94637,319520.1067476,-7
1659000163.94637,319520.1067499,-37
1659000163.96532,319520.1067521,2
1659000163.96532,319520.1067596,11
1659000163.96532,319520.1067703,-16
1659000163.96532,319520.1067747,-4
1659000163.96532,319520.1067787,35
1659000163.96532,319520.7405059,56
1659000163.96532,319520.7405271,65
1659000163.96532,319520.7405382,94
1659000163.96532,319520.7405481,115
1659000163.96532,319520.7405569,124
1659000163.96532,319520.7405662,150
1659000163.96532,319520.740579,190
1659000163.96532,319520.7405889,221
1659000163.96532,319520.7405978,204
1659000163.96532,319520.7406087,174
1659000163.96532,319520.7406193,176
1659000163.96532,319520.7406299,183
1659000163.96532,319520.740641,141
1659000163.96532,319520.7406503,84
1659000163.96532,319520.7406609,37
1659000163.96532,319520.7406663,-9
1659000163.96532,319520.7406686,-30
1659000163.96532,319520.7406707,-35
1659000163.96532,319520.7406736,-49
1659000164.48332,319520.7406757,-61
1659000164.48332,319520.7406778,-75
1659000164.48332,319520.7406797,-70
1659000164.48332,319520.7406816,-44
1659000164.48332,319520.7406838,-21
1659000164.48332,319520.7406857,-23
1659000164.48332,319520.7406876,-35
1659000164.48332,319520.7406895,-21
1659000164.48332,319520.7406916,-4
1659000164.48332,319520.7406935,-7
1659000164.48332,319520.7406954,-4
1659000164.48332,319520.7406974,-4
1659000164.48332,319520.7406993,-21
1659000164.48332,319520.7407013,-18
1659000164.48332,319520.7407033,0
1659000164.48332,319520.7407052,-2
1659000164.48332,319520.7407071,-21
1659000164.48332,319520.740709,-23
1659000164.48332,319520.7407109,-4
1659000164.48332,319520.7407129,42
1659000164.48332,319520.7407148,87
1659000164.48332,319520.7407274,84
1659000164.48332,319520.7407355,54
1659000164.48332,319520.7407402,23
1659000164.48332,319520.7407456,9
1659000164.48332,319520.7407505,14
1659000164.48332,319520.740756,11
1659000164.48332,319520.7407604,2
1659000164.48332,319520.7407643,14
1659000164.48332,319520.7407696,30
1659000164.48332,319520.7407732,14
1659000164.48332,319520.7407774,-40
1659000164.48332,319520.7407826,-23
1659000164.48332,319520.7407863,376
1659000164.48332,319520.7407944,1097
1659000164.48332,319520.7408016,1453
1659000164.48332,319520.7408041,968
1659000164.48332,319520.7408064,18
1659000164.48332,319520.7408085,-379
1659000164.48332,319520.7408104,-87
1659000164.48332,319520.7408123,-4
1659000164.48332,319520.7408143,-179
1659000164.48332,319520.7408162,-115
1659000164.48332,319520.7408181,-16
1659000164.48332,319520.74082,-68
1659000164.48332,319520.7408219,-87
1659000164.48332,319520.7408238,-42
1659000164.48332,319520.7408257,-37
1659000164.48332,319520.7408276,-47
1659000164.48332,319520.7408295,-32
1659000164.50426,319520.7408314,-18
1659000164.50426,319520.7408333,-4
1659000164.50426,319520.7408352,14
1659000164.50426,319520.7408372,35
1659000164.50426,319521.2764856,61
1659000164.50426,319521.2765034,94
1659000164.50426,319521.2765105,134
1659000164.50426,319521.2765171,162
1659000164.50426,319521.2765209,174
1659000164.50426,319521.2765245,160
1659000164.50426,319521.2765284,127
1659000164.50426,319521.276532,106
1659000164.50426,319521.2765356,94
1659000164.50426,319521.2765388,65
1659000164.50426,319521.2765421,23
1659000164.50426,319521.2765467,-11
1659000164.50426,319521.2765512,-28
1659000164.50426,319521.2765541,-47
1659000164.50426,319521.2765571,-61
1659000164.50426,319521.27656,-58
1659000164.50426,319521.2765631,-58
1659000164.50426,319521.276566,-63
1659000164.50426,319521.276569,-68
1659000164.50426,319521.2765718,-54
1659000165.18008,319521.2765747,-42
1659000165.18008,319521.2765776,-54
1659000165.18008,319521.2765804,-63
1659000165.18008,319521.2765832,-51
1659000165.18008,319521.276586,-32
1659000165.18008,319521.2765887,-25
1659000165.18008,319521.2765916,-32
1659000165.18008,319521.2765947,-42
1659000165.18008,319521.2765977,-37
1659000165.18008,319521.2766009,-25
1659000165.18008,319521.2766037,-30
1659000165.18008,319521.2766064,-42
1659000165.18008,319521.2766092,-44
1659000165.18008,319521.2766119,-32
1659000165.18008,319521.2766147,7
1659000165.18008,319521.2766175,49
1659000165.18008,319521.2766204,44
1659000165.18008,319521.2766231,11
1659000165.18008,319521.2766258,-2
1659000165.18008,319521.276629,-21
1659000165.18008,319521.2766334,-35
1659000165.18008,319521.2766394,-23
1659000165.18008,319521.2766464,-16
1659000165.18008,319521.2766536,-14
1659000165.18008,319521.276659,-4
1659000165.18008,319521.276664,-16
1659000165.18008,319521.276675,-91
1659000165.18008,319521.2766807,-61
1659000165.18008,319521.276683,409
1659000165.18008,319521.2766861,1130
1659000165.18008,319521.2766896,1413
1659000165.18008,319521.2766959,883
1659000165.18008,319521.2766999,-73
1659000165.18008,319521.2767029,-428
1659000165.18008,319521.2767061,-94
1659000165.18008,319521.276715,-37
1659000165.18008,319521.2767238,-219
1659000165.18008,319521.2767362,-153
1659000165.18008,319521.2767445,-82
1659000165.18008,319521.2767503,-129
1659000165.18008,319521.2767542,-117
1659000165.18008,319521.2767588,-87
1659000165.18008,319521.2767663,-96
1659000165.18008,319521.2767732,-87
1659000165.18008,319521.2767823,-56
1659000165.18008,319521.2767873,-49
1659000165.18008,319521.2768006,-42
1659000165.18008,319521.2768126,-14
1659000165.18008,319521.276822,16
1659000165.18008,319521.2768385,32
1659000165.20003,319521.2768458,65
1659000165.20003,319521.2768529,108
1659000165.20003,319521.2768625,139
1659000165.20003,319521.9594994,150
1659000165.20003,319521.9595205,148
1659000165.20003,319521.9595348,129
1659000165.20003,319521.9595481,98
1659000165.20003,319521.9595615,58
1659000165.20003,319521.9595748,14
1659000165.20003,319521.9595833,-21
1659000165.20003,319521.9595859,-47
1659000165.20003,319521.9595881,-70
1659000165.20003,319521.9595902,-82
1659000165.20003,319521.9595924,-82
1659000165.20003,319521.9595944,-77
1659000165.20003,319521.9595965,-75
1659000165.20003,319521.9595986,-73
1659000165.20003,319521.9596007,-87
1659000165.20003,319521.9596027,-101
1659000165.20003,319521.9596048,-77
1659000165.20003,319521.9596068,-40
1659000165.20003,319521.959609,-25
1659000165.20003,319521.959611,-28
1659000165.20003,319521.959613,-28
1659000165.57024,319521.9596151,-40
1659000165.57024,319521.9596171,-56
1659000165.57024,319521.959619,-44
1659000165.57024,319521.959621,-28
1659000165.57024,319521.9596229,-37
1659000165.57024,319521.9596248,-54
1659000165.57024,319521.9596267,-51
1659000165.57024,319521.9596287,-23
1659000165.57024,319521.9596306,18
1659000165.57024,319521.9596326,47
1659000165.57024,319521.9596345,28
1659000165.57024,319521.9596365,-2
1659000165.57024,319521.9596384,-21
1659000165.57024,319521.9596403,-35
1659000165.57024,319521.9596423,-28
1659000165.57024,319521.9596442,-18
1659000165.57024,319521.9596473,-18
1659000165.57024,319521.9596564,-16
1659000165.57024,319521.9596659,-4
1659000165.57024,319521.9596724,-37
1659000165.57024,319521.9597212,-110
1659000165.57024,319521.9597243,80
1659000165.57024,319521.9597265,732
1659000165.57024,319521.9597286,1328
1659000165.57024,319521.9597306,1279
1659000165.57024,319521.9597326,532
1659000165.57024,319521.9597347,-252
1659000165.57024,319521.9597368,-289
1659000165.57024,319521.9597396,-35
1659000165.57024,319521.9597417,-117
1659000165.57024,319521.9597438,-183
1659000165.57024,319521.9597459,-91
1659000165.57024,319521.9597479,-89
1659000165.57024,319521.9597499,-113
1659000165.57024,319521.959752,-75
1659000165.57024,319521.9597541,-54
1659000165.57024,319521.9597561,-65
1659000165.57024,319521.959758,-68
1659000165.57024,319521.9597601,-56
1659000165.57024,319521.9597622,-32
1659000165.57024,319521.9597641,-25
1659000165.57024,319521.9597662,-25
1659000165.57024,319521.9597683,-2
1659000165.57024,319521.9597704,40
1659000165.57024,319521.9597724,58
1659000165.57024,319521.9597744,65
1659000165.57024,319521.9597765,77
1659000165.57024,319521.9597786,73
1659000165.57024,319521.9597806,58
1659000165.57024,319521.9597827,56
1659000165.59118,319521.9597847,44
1659000165.59118,319521.9597875,9
1659000165.59118,319522.3493363,-21
1659000165.59118,319522.34935,-35
1659000165.59118,319522.349354,-40
1659000165.59118,319522.3493566,-40
1659000165.59118,319522.349359,-44
1659000165.59118,319522.3493613,-54
1659000165.59118,319522.3493635,-56
1659000165.59118,319522.3493658,-49
1659000165.59118,319522.3493681,-30
1659000165.59118,319522.3493704,-4
1659000165.59118,319522.3493727,2
1659000165.59118,319522.349375,2
1659000165.59118,319522.3493773,7
1659000165.59118,319522.3493796,11
1659000165.59118,319522.3493819,14
1659000165.59118,319522.3493842,16
1659000165.59118,319522.3493864,18
1659000165.59118,319522.3493887,23
1659000165.59118,319522.3493909,21
1659000165.59118,319522.3493931,16
1659000165.59118,319522.3493954,23
1659000165.59118,319522.3493977,32
1659000166.14498,319522.3494,40
1659000166.14498,319522.3494022,56
1659000166.14498,319522.3494043,89
1659000166.14498,319522.3494064,101
1659000166.14498,319522.3494085,80
1659000166.14498,319522.3494107,58
1659000166.14498,319522.349414,40
1659000166.14498,319522.3494219,14
1659000166.14498,319522.3494272,-4
1659000166.14498,319522.3494332,-14
1659000166.14498,319522.3494399,-11
1659000166.14498,319522.349446,2
1659000166.14498,319522.3494525,21
1659000166.14498,319522.349463,2
1659000166.14498,319522.3494674,-84
1659000166.14498,319522.3494695,18
1659000166.14498,319522.3494716,624
1659000166.14498,319522.3494737,1298
1659000166.14498,319522.3494757,1340
1659000166.14498,319522.3494777,636
1659000166.14498,319522.3494799,-176
1659000166.14498,319522.3494819,-282
1659000166.14498,319522.3494839,-11
1659000166.14498,319522.349486,-70
1659000166.14498,319522.349488,-174
1659000166.14498,319522.34949,-87
1659000166.14498,319522.349492,-63
1659000166.14498,319522.3494939,-91
1659000166.14498,319522.349496,-58
1659000166.14498,319522.349498,-35
1659000166.14498,319522.3495,-40
1659000166.14498,319522.349502,-16
1659000166.14498,319522.349504,2
1659000166.14498,319522.3495061,-4
1659000166.14498,319522.3495082,4
1659000166.14498,319522.3495102,30
1659000166.14498,319522.3495123,44
1659000166.14498,319522.3495143,63
1659000166.14498,319522.3495163,94
1659000166.14498,319522.3495183,108
1659000166.14498,319522.3495203,110
1659000166.14498,319522.3495224,120
1659000166.14498,319522.3495245,124
1659000166.14498,319522.3495265,113
1659000166.14498,319522.3495285,101
1659000166.14498,319522.3495307,80
1659000166.14498,319522.3495326,44
1659000166.14498,319522.3495346,14
1659000166.14498,319522.3495367,-2
1659000166.14498,319522.3495387,-9
1659000166.16593,319522.3495408,-4
1659000166.16593,319522.9339501,-7
1659000166.16593,319522.9339674,-9
1659000166.16593,319522.9339757,9
1659000166.16593,319522.933982,25
1659000166.16593,319522.9339861,23
1659000166.16593,319522.9339916,28
1659000166.16593,319522.9339956,40
1659000166.16593,319522.9340014,35
1659000166.16593,319522.9340056,18
1659000166.16593,319522.9340116,7
1659000166.16593,319522.9340156,16
1659000166.16593,319522.9340215,28
1659000166.16593,319522.9340254,35
1659000166.16593,319522.9340294,42
1659000166.16593,319522.9340351,28
1659000166.16593,319522.9340401,2
1659000166.16593,319522.9340456,14
1659000166.16593,319522.9340503,25
1659000166.16593,319522.9340541,18
1659000166.16593,319522.9340598,42
1659000166.16593,319522.9340637,91
1659000166.16593,319522.9340692,115
1659000166.16593,319522.9340742,98
1659000166.67969,319522.9340823,65
1659000166.67969,319522.9340883,32
1659000166.67969,319522.9340946,21
1659000166.67969,319522.9341026,35
1659000166.67969,319522.9341072,37
1659000166.67969,319522.9341132,30
1659000166.67969,319522.9341171,42
1659000166.67969,319522.9341248,63
1659000166.67969,319522.9341288,40
1659000166.67969,319522.9341369,-23
1659000166.67969,319522.934146,186
1659000166.67969,319522.9341525,850
1659000166.67969,319522.9341549,1413
1659000166.67969,319522.934157,1243
1659000166.67969,319522.934159,405
1659000166.67969,319522.9341657,-263
1659000166.67969,319522.9341747,-160
1659000166.67969,319522.9341807,56
1659000166.67969,319522.9341854,-75
1659000166.67969,319522.9341911,-120
1659000166.67969,319522.934195,-32
1659000166.67969,319522.9342004,-42
1659000166.67969,319522.9342061,-49
1659000166.67969,319522.9342112,2
1659000166.67969,319522.9342148,11
1659000166.67969,319522.9342206,2
1659000166.67969,319522.9342257,21
1659000166.67969,319522.93423,40
1659000166.67969,319522.9342361,42
1659000166.67969,319522.9342428,49
1659000166.67969,319522.9342466,58
1659000166.67969,319522.9342523,77
1659000166.67969,319522.9342559,103
1659000166.67969,319522.9342599,120
1659000166.67969,319522.9342638,136
1659000166.67969,319522.9342675,160
1659000166.67969,319522.9342712,160
1659000166.67969,319522.9342749,136
1659000166.67969,319522.9342797,127
1659000166.67969,319522.9342866,117
1659000166.67969,319522.9342926,89
1659000166.67969,319522.9343008,61
1659000166.67969,319522.934308,42
1659000166.67969,319522.9343119,25
1659000166.67969,319522.9343166,14
1659000166.67969,319522.9343204,7
1659000166.67969,319522.9343235,11
1659000166.67969,319522.9343264,25
1659000166.67969,319522.9343297,28
1659000166.67969,319522.934334,25
1659000166.70163,319523.4707684,37
1659000166.70163,319523.4707874,51
1659000166.70163,319523.4707959,51
1659000166.70163,319523.4708028,51
1659000166.70163,319523.4708097,58
1659000166.70163,319523.4708182,58
1659000166.70163,319523.4708268,65
1659000166.70163,319523.4708356,77
1659000166.70163,319523.4708382,73
1659000166.70163,319523.4708405,68
1659000166.70163,319523.4708425,70
1659000166.70163,319523.4708446,58
1659000166.70163,319523.4708466,40
1659000166.70163,319523.4708495,40
1659000166.70163,319523.4708516,49
1659000166.70163,319523.4708536,70
1659000166.70163,319523.4708556,108
1659000166.70163,319523.4708576,127
1659000166.70163,319523.4708596,96
1659000166.70163,319523.4708616,56
1659000166.70163,319523.4708636,37
1659000166.70163,319523.4708656,25
1659000166.70163,319523.4708676,23
1659000166.70163,319523.4708696,30
1659000167.23704,319523.4708716,30
1659000167.23704,319523.4708736,37
1659000167.23704,319523.4708756,49
1659000167.23704,319523.4708774,42
1659000167.23704,319523.4708795,-18
1659000167.23704,319523.4708815,65
1659000167.23704,319523.4708834,610
1659000167.23704,319523.4708853,1302
1659000167.23704,319523.4708872,1406
1659000167.23704,319523.4708891,702
1659000167.23704,319523.470891,-146
1659000167.23704,319523.470893,-261
1659000167.23704,319523.4708952,25
1659000167.23704,319523.4709027,-25
1659000167.23704,319523.4709113,-136
1659000167.23704,319523.4709192,-37
1659000167.23704,319523.4709267,-7
1659000167.23704,319523.4709314,-47
1659000167.23704,319523.4709337,-21
1659000167.23704,319523.4709446,7
1659000167.23704,319523.4709529,0
1659000167.23704,319523.4709554,16
1659000167.23704,319523.4709576,44
1659000167.23704,319523.4709602,51
1659000167.23704,319523.4709634,47
1659000167.23704,319523.4709758,51
1659000167.23704,319523.4709817,73
1659000167.23704,319523.4709838,89
1659000167.23704,319523.4709867,110
1659000167.23704,319523.4709892,148
1659000167.23704,319523.4709992,169
1659000167.23704,319523.4710071,164
1659000167.23704,319523.4710096,155
1659000167.23704,319523.4710117,160
1659000167.23704,319523.4710138,153
1659000167.23704,319523.4710197,117
1659000167.23704,319523.4710307,94
1659000167.23704,319523.4710357,80
1659000167.23704,319523.4710388,51
1659000167.23704,319523.4710409,28
1659000167.23704,319523.4710468,18
1659000167.23704,319523.4710576,11
1659000167.23704,319523.4710626,16
1659000167.23704,319523.4710647,32
1659000167.23704,319523.4710667,42
1659000167.23704,319523.4710698,51
1659000167.23704,319523.4710822,58
1659000167.23704,319523.4710884,65
1659000167.23704,319523.4710916,82
1659000167.23704,319524.0077965,91
1659000167.25799,319524.0078088,82
1659000167.25799,319524.0078126,75
1659000167.25799,319524.0078147,82
1659000167.25799,319524.0078168,82
1659000167.25799,319524.007819,70
1659000167.25799,319524.007824,75
1659000167.25799,319524.0078285,84
1659000167.25799,319524.0078396,77
1659000167.25799,319524.0078462,51
1659000167.25799,319524.0078549,40
1659000167.25799,319524.0078661,58
1659000167.25799,319524.0078787,91
1659000167.25799,319524.0078881,120
1659000167.25799,319524.007896,124
1659000167.25799,319524.0079021,96
1659000167.25799,319524.0079083,58
1659000167.25799,319524.0079124,28
1659000167.25799,319524.0079165,21
1659000167.25799,319524.0079233,35
1659000167.25799,319524.0079281,42
1659000167.25799,319524.0079337,44
1659000167.25799,319524.0079377,51
1659000167.25799,319524.0079433,58
1659000167.25799,319524.0079479,30
1659000167.82933,319524.0079533,0
1659000167.82933,319524.0079574,266
1659000167.82933,319524.0079619,923
1659000167.82933,319524.0079658,1399
1659000167.82933,319524.0079698,1159
1659000167.82933,319524.0079738,285
1659000167.82933,319524.0079796,-336
1659000167.82933,319524.0079841,-124
1659000167.82933,319524.0079887,89
1659000167.82933,319524.0079935,-94
1659000167.82933,319524.0079981,-108
1659000167.82933,319524.0080026,2
1659000167.82933,319524.0080074,-30
1659000167.82933,319524.0080137,-51
1659000167.82933,319524.0080183,-4
1659000167.82933,319524.0080249,2
1659000167.82933,319524.0080291,-11
1659000167.82933,319524.0080354,4
1659000167.82933,319524.0080399,21
1659000167.82933,319524.0080447,30
1659000167.82933,319524.0080492,47
1659000167.82933,319524.0080552,63
1659000167.82933,319524.0080591,80
1659000167.82933,319524.0080649,106
1659000167.82933,319524.0080694,131
1659000167.82933,319524.0080739,164
1659000167.82933,319524.0080794,193
1659000167.82933,319524.008084,195
1659000167.82933,319524.00809,190
1659000167.82933,319524.0080948,181
1659000167.82933,319524.0080995,134
1659000167.82933,319524.0081054,73
1659000167.82933,319524.0081114,49
1659000167.82933,319524.0081175,40
1659000167.82933,319524.008126,14
1659000167.82933,319524.0081322,2
1659000167.82933,319524.0081421,11
1659000167.82933,319524.0081466,18
1659000167.82933,319524.0081507,21
1659000167.82933,319524.0081551,25
1659000167.82933,319524.008161,35
1659000167.82933,319524.0081646,42
1659000167.82933,319524.0081695,51
1659000167.82933,319524.0081757,65
1659000167.82933,319524.0081795,68
1659000167.82933,319524.0081846,56
1659000167.82933,319524.0081883,56
1659000167.82933,319524.0081935,70
1659000167.82933,319524.591914,68
1659000167.82933,319524.591926,65
1659000167.85127,319524.5919284,75
1659000167.85127,319524.591932,84
1659000167.85127,319524.5919341,77
1659000167.85127,319524.5919362,47
1659000167.85127,319524.5919382,32
1659000167.85127,319524.5919403,70
1659000167.85127,319524.5919423,127
1659000167.85127,319524.5919448,160
1659000167.85127,319524.5919467,148
1659000167.85127,319524.5919488,101
1659000167.85127,319524.5919507,54
1659000167.85127,319524.5919527,42
1659000167.85127,319524.5919547,47
1659000167.85127,319524.5919567,44
1659000167.85127,319524.5919587,37
1659000167.85127,319524.5919619,30
1659000167.85127,319524.5919727,35
1659000167.85127,319524.5919819,51
1659000167.85127,319524.5919844,11
1659000167.85127,319524.5919865,75
1659000167.85127,319524.5919887,586
1659000167.85127,319524.5919908,1255
1659000167.85127,319524.5919935,1375
1659000167.85127,319524.5920018,746
1659000168.38165,319524.5920131,-65
1659000168.38165,319524.5920157,-223
1659000168.38165,319524.5920177,47
1659000168.38165,319524.5920196,-4
1659000168.38165,319524.5920215,-134
1659000168.38165,319524.5920234,-40
1659000168.38165,319524.5920253,4
1659000168.38165,319524.5920272,-54
1659000168.38165,319524.5920292,-58
1659000168.38165,319524.5920351,-25
1659000168.38165,319524.5920435,-18
1659000168.38165,319524.5920504,-18
1659000168.38165,319524.5920585,0
1659000168.38165,319524.5920651,21
1659000168.38165,319524.5920741,30
1659000168.38165,319524.592081,40
1659000168.38165,319524.5920833,63
1659000168.38165,319524.5920855,84
1659000168.38165,319524.5920877,103
1659000168.38165,319524.5920896,122
1659000168.38165,319524.5920917,139
1659000168.38165,319524.5920938,136
1659000168.38165,319524.5920958,131
1659000168.38165,319524.5920978,122
1659000168.38165,319524.5921003,98
1659000168.38165,319524.592108,70
1659000168.38165,319524.5921188,47
1659000168.38165,319524.5921222,28
1659000168.38165,319524.5921259,11
1659000168.38165,319524.5921345,-9
1659000168.38165,319524.5921478,-32
1659000168.38165,319524.5921556,-18
1659000168.38165,319524.5921608,25
1659000168.38165,319524.5921667,30
1659000168.38165,319524.592171,16
1659000168.38165,319524.5921772,30
1659000168.38165,319524.5921837,37
1659000168.38165,319524.5921926,32
1659000168.38165,319524.5922,32
1659000168.38165,319524.5922094,23
1659000168.38165,319524.592221,21
1659000168.38165,319524.5922345,56
1659000168.38165,319524.5922466,70
1659000168.38165,319524.5922601,47
1659000168.38165,319524.5922707,42
1659000168.38165,319524.5922742,51
1659000168.38165,319524.592278,40
1659000168.38165,319525.1766645,37
1659000168.38165,319525.1766852,68
1659000168.38165,319525.1766995,82
1659000168.40459,319525.1767104,89
1659000168.40459,319525.1767181,134
1659000168.40459,319525.1767253,155
1659000168.40459,319525.1767384,108
1659000168.40459,319525.1767485,56
1659000168.40459,319525.1767552,14
1659000168.40459,319525.1767656,0
1659000168.40459,319525.1767745,25
1659000168.40459,319525.1767871,40
1659000168.40459,319525.1768012,40
1659000168.40459,319525.1768075,49
1659000168.40459,319525.1768098,37
1659000168.40459,319525.176812,-30
1659000168.40459,319525.1768141,-37
1659000168.40459,319525.1768173,329
1659000168.40459,319525.1768286,1015
1659000168.40459,319525.1768361,1371
1659000168.40459,319525.1768385,949
1659000168.40459,319525.1768406,75
1659000168.40459,319525.1768427,-327
1659000168.40459,319525.1768461,-82
1659000168.40459,319525.1768568,-16
1659000168.40459,319525.1768643,-181
1659000168.40459,319525.1768701,-139
1659000168.9423,319525.1768854,-73
1659000168.9423,319525.176903,-115

1659000168.9423,319525.1769108,-106
1659000168.9423,319525.1769167,-68
1659000168.9423,319525.17692,-65
1659000168.9423,319525.1769231,-47
1659000168.9423,319525.176927,-23
1659000168.9423,319525.1769319,-25
1659000168.9423,319525.1769404,-14
1659000168.9423,319525.1769445,18
1659000168.9423,319525.1769526,40
1659000168.9423,319525.1769593,54
1659000168.9423,319525.1769683,84
1659000168.9423,319525.1769745,108
1659000168.9423,319525.1769825,124
1659000168.9423,319525.1769892,141
1659000168.9423,319525.1769973,153
1659000168.9423,319525.1770046,148
1659000168.9423,319525.1770126,124
1659000168.9423,319525.1770207,91
1659000168.9423,319525.1770273,70
1659000168.9423,319525.1770354,54
1659000168.9423,319525.1770418,21
1659000168.9423,319525.1770484,-9
1659000168.9423,319525.1770568,-9
1659000168.9423,319525.1770644,2
1659000168.9423,319525.1770727,-9
1659000168.9423,319525.1770806,-7
1659000168.9423,319525.1770872,9
1659000168.9423,319525.1770952,11
1659000168.9423,319525.1771015,7
1659000168.9423,319525.1771093,11
1659000168.9423,319525.1771146,16
1659000168.9423,319525.1771231,25
1659000168.9423,319525.1771307,37
1659000168.9423,319525.1771342,37
1659000168.9423,319525.1771409,30
1659000168.9423,319525.1771445,40
1659000168.9423,319525.1771498,49
1659000168.9423,319525.1771568,47
1659000168.9423,319525.1771625,49
1659000168.9423,319525.1771792,51
1659000168.9423,319525.1771936,44
1659000168.9423,319525.1772069,56
1659000168.9423,319525.1772131,84
1659000168.9423,319525.1772208,124
1659000168.9423,319525.7136181,143
1659000168.9423,319525.7136395,120
1659000168.9423,319525.7136533,91
1659000168.9423,319525.7136669,70
1659000168.97033,319525.7136785,56
1659000168.97033,319525.7136829,58
1659000168.97033,319525.7136872,56
1659000168.97033,319525.7136911,44
1659000168.97033,319525.7136951,61
1659000168.97033,319525.7136992,82
1659000168.97033,319525.7137036,35
1659000168.97033,319525.7137081,2
1659000168.97033,319525.7137125,329
1659000168.97033,319525.7137168,1008
1659000168.97033,319525.7137242,1382
1659000168.97033,319525.7137337,973
1659000168.97033,319525.7137468,80
1659000168.97033,319525.7137604,-362
1659000168.97033,319525.7138149,-131
1659000168.97033,319525.7138282,-37
1659000168.97033,319525.7138415,-183
1659000168.97033,319525.7138558,-146
1659000168.97033,319525.7138699,-75
1659000168.97033,319525.7138832,-110
1659000168.97033,319525.7138965,-113
1659000168.97033,319525.7139109,-75
1659000168.97033,319525.7139241,-73
1659000168.97033,319525.7139375,-63
1659000169.5179,319525.713951,-21
1659000169.5179,319525.7139588,-2
1659000169.5179,319525.7139651,-4
1659000169.5179,319525.7139746,7
1659000169.5179,319525.7139878,30
1659000169.5179,319525.7139969,61
1659000169.5179,319525.714003,89
1659000169.5179,319525.7140085,113
1659000169.5179,319525.7140121,134
1659000169.5179,319525.7140178,148
1659000169.5179,319525.714023,157
1659000169.5179,319525.7140309,155
1659000169.5179,319525.7140359,129
1659000169.5179,319525.714046,94
1659000169.5179,319525.7140561,61
1659000169.5179,319525.7140669,42
1659000169.5179,319525.7140754,25
1659000169.5179,319525.714085,0
1659000169.5179,319525.7140956,-16
1659000169.5179,319525.714103,-14
1659000169.5179,319525.7141088,-11
1659000169.5179,319525.7141142,-16
1659000169.5179,319525.7141187,-11
1659000169.5179,319525.7141261,4
1659000169.5179,319525.7141316,9
1659000169.5179,319525.7141383,7
1659000169.5179,319525.7141422,11
1659000169.5179,319525.7141461,21
1659000169.5179,319525.7141498,35
1659000169.5179,319525.7141559,44
1659000169.5179,319525.7141598,44
1659000169.5179,319525.7141632,44
1659000169.5179,319525.7141677,49
1659000169.5179,319525.7141741,51
1659000169.5179,319525.7141779,40
1659000169.5179,319525.7141815,30
1659000169.5179,319525.7141855,42
1659000169.5179,319525.7141893,73
1659000169.5179,319525.7141931,117
1659000169.5179,319525.7141979,136
1659000169.5179,319525.7142038,106
1659000169.5179,319525.7142075,75
1659000169.5179,319525.7142132,68
1659000169.5179,319525.714217,58
1659000169.5179,319525.7142208,51
1659000169.5179,319526.3010013,49
1659000169.5179,319526.3010204,47
1659000169.5179,319526.301031,58
1659000169.5179,319526.3010402,70
1659000169.5179,319526.3010519,21
1659000169.53884,319526.3010653,4
1659000169.53884,319526.3010737,372
1659000169.53884,319526.3010801,1055
1659000169.53884,319526.30109,1373
1659000169.53884,319526.3011013,897
1659000169.53884,319526.3011107,2
1659000169.53884,319526.3011211,-360
1659000169.53884,319526.3011326,-77
1659000169.53884,319526.3011457,-28
1659000169.53884,319526.3011595,-219
1659000169.53884,319526.3011726,-167
1659000169.53884,319526.301184,-75
1659000169.53884,319526.3011975,-113
1659000169.53884,319526.3012099,-120
1659000169.53884,319526.3012222,-75
1659000169.53884,319526.3012308,-63
1659000169.53884,319526.3012444,-54
1659000169.53884,319526.3012577,-25
1659000169.53884,319526.3012705,-7
1659000169.53884,319526.3012849,4
1659000169.53884,319526.3012972,28
1659000169.53884,319526.3013054,44
1659000169.53884,319526.3013114,65
1659000169.53884,319526.3013206,113
1659000170.1423,319526.3013296,146
1659000170.1423,319526.3013344,148
1659000170.1423,319526.3013431,148
1659000170.1423,319526.301352,148
1659000170.1423,319526.3013571,143
1659000170.1423,319526.3013629,124
1659000170.1423,319526.3013684,84
1659000170.1423,319526.3013745,47
1659000170.1423,319526.3013801,23
1659000170.1423,319526.3013859,-2
1659000170.1423,319526.3013924,-25
1659000170.1423,319526.3013963,-28
1659000170.1423,319526.3013996,-23
1659000170.1423,319526.3014029,-28
1659000170.1423,319526.3014165,-30
1659000170.1423,319526.3014282,-23
1659000170.1423,319526.3014398,-9
1659000170.1423,319526.3014474,7
1659000170.1423,319526.301452,18
1659000170.1423,319526.3014558,16
1659000170.1423,319526.3014604,9
1659000170.1423,319526.301465,28
1659000170.1423,319526.3014695,51
1659000170.1423,319526.3014737,44
1659000170.1423,319526.3014782,30
1659000170.1423,319526.3014825,47
1659000170.1423,319526.3014869,61
1659000170.1423,319526.3014913,54
1659000170.1423,319526.3014957,54
1659000170.1423,319526.3015042,75
1659000170.1423,319526.3015131,113
1659000170.1423,319526.3015205,122
1659000170.1423,319526.3015285,98
1659000170.1423,319526.3015348,73
1659000170.1423,319526.3015405,51
1659000170.1423,319526.3015608,35
1659000170.1423,319526.301568,37
1659000170.1423,319526.3015741,49
1659000170.1423,319526.3015777,40
1659000170.1423,319526.3015832,40
1659000170.1423,319526.3015889,65
1659000170.1423,319526.3015958,23
1659000170.1423,319526.3016097,56
1659000170.1423,319526.3016245,525
1659000170.1423,319526.9334653,1180
1659000170.1423,319526.9334855,1333
1659000170.1423,319526.9334965,735
1659000170.1423,319526.9335057,-96
1659000170.1423,319526.9335146,-275
1659000170.1423,319526.9335237,28
1659000170.16201,319526.9335296,-4
1659000170.16201,319526.9335435,-162
1659000170.16201,319526.9335513,-70
1659000170.16201,319526.9335539,11
1659000170.16201,319526.9335561,-28
1659000170.16201,319526.9335582,-51
1659000170.16201,319526.9335602,-51
1659000170.16201,319526.9335623,-56
1659000170.16201,319526.9335651,-25
1659000170.16201,319526.9335672,18
1659000170.16201,319526.9335692,25
1659000170.16201,319526.9335712,21
1659000170.16201,319526.9335735,35
1659000170.16201,319526.9335806,58
1659000170.16201,319526.9335912,106
1659000170.16201,319526.9336,162
1659000170.16201,319526.9336045,174
1659000170.16201,319526.9336104,160
1659000170.16201,319526.933617,141
1659000170.16201,319526.9336249,108
1659000170.16201,319526.933637,68
1659000170.16201,319526.9336477,51
1659000170.16201,319526.9336569,68
1659000170.16201,319526.9336672,56
1659000170.63432,319526.9336777,4
1659000170.63432,319526.9336838,-16
1659000170.63432,319526.9336953,-14
1659000170.63432,319526.933702,-25
1659000170.63432,319526.9337133,-30
1659000170.63432,319526.9337237,-14
1659000170.63432,319526.9337343,-16
1659000170.63432,319526.9337471,-35
1659000170.63432,319526.9337524,-21
1659000170.63432,319526.9337554,30
1659000170.63432,319526.9337577,47
1659000170.63432,319526.9337597,9
1659000170.63432,319526.933762,-4
1659000170.63432,319526.9337684,51
1659000170.63432,319526.9337814,94
1659000170.63432,319526.9337904,70
1659000170.63432,319526.9337972,51
1659000170.63432,319526.9338017,54
1659000170.63432,319526.9338093,47
1659000170.63432,319526.9338142,54
1659000170.63432,319526.9338232,98
1659000170.63432,319526.9338321,141
1659000170.63432,319526.9338438,136
1659000170.63432,319526.9338588,101
1659000170.63432,319526.9338713,70
1659000170.63432,319526.9338804,35
1659000170.63432,319526.9338849,21
1659000170.63432,319526.9338884,44
1659000170.63432,319526.933898,61
1659000170.63432,319526.9339101,49
1659000170.63432,319526.9339237,68
1659000170.63432,319526.9339315,77
1659000170.63432,319526.9339382,-7
1659000170.63432,319526.933942,87
1659000170.63432,319526.9339474,664
1659000170.63432,319526.9339511,1279
1659000170.63432,319526.9339568,1298
1659000170.63432,319526.9339604,614
1659000170.63432,319526.9339643,-148
1659000170.63432,319526.93397,-190
1659000170.63432,319526.9339741,77
1659000170.63432,319526.93398,-16
1659000170.63432,319526.9339838,-127
1659000170.63432,319527.419612,-49
1659000170.63432,319527.4196293,-30
1659000170.63432,319527.4196354,-49
1659000170.63432,319527.4196419,-4
1659000170.63432,319527.4196467,18
1659000170.63432,319527.4196517,-4
1659000170.63432,319527.4196582,-2
1659000170.66548,319527.419663,14
1659000170.66548,319527.4196692,2
1659000170.66548,319527.4197394,4
1659000170.66548,319527.4197511,25
1659000170.66548,319527.4197569,25
1659000170.66548,319527.4197636,47
1659000170.66548,319527.4197682,117
1659000170.66548,319527.4197729,157
1659000170.66548,319527.4197788,127
1659000170.66548,319527.4197833,115
1659000170.66548,319527.4197892,139
1659000170.66548,319527.4197942,120
1659000170.66548,319527.4198003,73
1659000170.66548,319527.4198049,40
1659000170.66548,319527.4198111,14
1659000170.66548,319527.4198154,-4
1659000170.66548,319527.4198214,-2
1659000170.66548,319527.4198276,2
1659000170.66548,319527.4198322,-7
1659000170.66548,319527.4198381,-21
1659000170.66548,319527.4198425,-25
1659000170.66548,319527.4198484,-18
1659000170.66548,319527.4198525,-7
1659000170.66548,319527.4198581,-7
1659000171.23167,319527.4198632,-9
1659000171.23167,319527.4198675,0
1659000171.23167,319527.4198717,14
1659000171.23167,319527.4198759,-7
1659000171.23167,319527.4198802,-18
1659000171.23167,319527.4198844,30
1659000171.23167,319527.4198904,68
1659000171.23167,319527.4198948,40
1659000171.23167,319527.4199007,30
1659000171.23167,319527.419906,42
1659000171.23167,319527.4199121,32
1659000171.23167,319527.419917,58
1659000171.23167,319527.4199212,127
1659000171.23167,319527.4199271,153
1659000171.23167,319527.4199316,120
1659000171.23167,319527.419936,49
1659000171.23167,319527.4199419,14
1659000171.23167,319527.4199467,58
1659000171.23167,319527.4199509,82
1659000171.23167,319527.4199568,44
1659000171.23167,319527.4199609,42
1659000171.23167,319527.4199674,84
1659000171.23167,319527.4199714,63
1659000171.23167,319527.4199755,-28
1659000171.23167,319527.4199796,98
1659000171.23167,319527.4199853,709
1659000171.23167,319527.4199896,1335
1659000171.23167,319527.4199951,1300
1659000171.23167,319527.4199996,565
1659000171.23167,319527.4200036,-171
1659000171.23167,319527.4200076,-193
1659000171.23167,319527.4200132,63
1659000171.23167,319527.4200172,-18
1659000171.23167,319527.4200227,-117
1659000171.23167,319527.4200266,-49
1659000171.23167,319527.4200304,-35
1659000171.23167,319527.420035,-37
1659000171.23167,319527.4200406,0
1659000171.23167,319527.4200447,0
1659000171.23167,319527.4200506,-11
1659000171.23167,319527.4200547,9
1659000171.23167,319527.4200622,14
1659000171.23167,319528.0047388,-9
1659000171.23167,319528.0047599,18
1659000171.23167,319528.0047756,94
1659000171.23167,319528.0047906,124
1659000171.23167,319528.0048001,108
1659000171.23167,319528.0048027,108
1659000171.23167,319528.0048049,124
1659000171.23167,319528.004807,124
1659000171.26259,319528.004809,131
1659000171.26259,319528.0048125,148
1659000171.26259,319528.0048257,143
1659000171.26259,319528.0048331,117
1659000171.26259,319528.0048355,75
1659000171.26259,319528.0048377,37
1659000171.26259,319528.0048397,32
1659000171.26259,319528.0048418,28
1659000171.26259,319528.0048438,2
1659000171.26259,319528.0048473,-28
1659000171.26259,319528.0048603,-35
1659000171.26259,319528.0048659,-28
1659000171.26259,319528.0048682,-35
1659000171.26259,319528.0048702,-44
1659000171.26259,319528.0048723,-30
1659000171.26259,319528.0048743,-7
1659000171.26259,319528.0048766,9
1659000171.26259,319528.004884,21
1659000171.26259,319528.0048949,21
1659000171.26259,319528.0048996,21
1659000171.26259,319528.0049017,30
1659000171.26259,319528.0049037,32
1659000171.26259,319528.0049057,21
1659000171.26259,319528.0049077,2
1659000171.74574,319528.0049099,-11
1659000171.74574,319528.0049119,9
1659000171.74574,319528.0049138,63
1659000171.74574,319528.0049158,108
1659000171.74574,319528.004918,117
1659000171.74574,319528.0049239,89
1659000171.74574,319528.0049285,61
1659000171.74574,319528.004936,35
1659000171.74574,319528.0049439,18
1659000171.74574,319528.0049504,11
1659000171.74574,319528.0049563,0
1659000171.74574,319528.0049609,-7
1659000171.74574,319528.0049655,11
1659000171.74574,319528.00497,32
1659000171.74574,319528.0049764,-7
1659000171.74574,319528.0049816,-11
1659000171.74574,319528.0049871,379
1659000171.74574,319528.0049913,1074
1659000171.74574,319528.0049955,1371
1659000171.74574,319528.0050086,895
1659000171.74574,319528.0050207,44
1659000171.74574,319528.0050316,-296
1659000171.74574,319528.0050393,-32
1659000171.74574,319528.0050465,16
1659000171.74574,319528.0050563,-148
1659000171.74574,319528.0050681,-103
1659000171.74574,319528.0050813,-32
1659000171.74574,319528.0050951,-63
1659000171.74574,319528.0051083,-51
1659000171.74574,319528.0051224,-18
1659000171.74574,319528.0051342,-35
1659000171.74574,319528.0051472,-44
1659000171.74574,319528.0051567,-28
1659000171.74574,319528.0051656,4
1659000171.74574,319528.0051733,54
1659000171.74574,319528.00518,70
1659000171.74574,319528.0051927,54
1659000171.74574,319528.0052056,73
1659000171.74574,319528.0052138,117
1659000171.74574,319528.005227,155
1659000171.74574,319528.00524,190
1659000171.74574,319528.5409664,197
1659000171.74574,319528.5409821,157
1659000171.74574,319528.5409869,113
1659000171.74574,319528.5409954,82
1659000171.74574,319528.5409994,65
1659000171.74574,319528.541006,77
1659000171.74574,319528.5410136,87
1659000171.74574,319528.5410189,63
1659000171.74574,319528.5410239,35
1659000171.7607,319528.5410303,16
1659000171.7607,319528.5410336,-7
1659000171.7607,319528.5410398,-16
1659000171.7607,319528.5410432,-11
1659000171.7607,319528.5410516,-18
1659000171.7607,319528.5410575,-42
1659000171.7607,319528.5410704,-49
1659000171.7607,319528.5410791,-28
1659000171.7607,319528.5410857,-9
1659000171.7607,319528.5410924,-23
1659000171.7607,319528.5411049,-40
1659000171.7607,319528.5411081,-30
1659000171.7607,319528.5411109,-25
1659000171.7607,319528.5411139,-18
1659000171.7607,319528.541117,0
1659000171.7607,319528.54112,-11
1659000171.7607,319528.5411228,-37
1659000171.7607,319528.5411259,-21
1659000171.7607,319528.5411305,11
1659000171.7607,319528.5411341,32
1659000171.7607,319528.5411384,61
1659000171.7607,319528.5411445,80
1659000171.7607,319528.5411502,63
1659000171.7607,319528.5411537,21
1659000172.33656,319528.5411573,-7
1659000172.33656,319528.5411609,-2
1659000172.33656,319528.5411645,-2
1659000172.33656,319528.5411679,-7
1659000172.33656,319528.541171,-4
1659000172.33656,319528.5411753,-11
1659000172.33656,319528.5411788,-58
1659000172.33656,319528.5411822,-35
1659000172.33656,319528.5411863,362
1659000172.33656,319528.5411899,1062
1659000172.33656,319528.5411942,1394
1659000172.33656,319528.541198,940
1659000172.33656,319528.5412026,51
1659000172.33656,319528.5412063,-343
1659000172.33656,319528.5412106,-75
1659000172.33656,319528.5412144,16
1659000172.33656,319528.541219,-148
1659000172.33656,319528.541223,-120
1659000172.33656,319528.5412272,-47
1659000172.33656,319528.5412316,-70
1659000172.33656,319528.5412356,-51
1659000172.33656,319528.5412404,-11
1659000172.33656,319528.5412468,-23
1659000172.33656,319528.541251,-18
1659000172.33656,319528.5412554,9
1659000172.33656,319528.5412594,9
1659000172.33656,319528.5412634,18
1659000172.33656,319528.54127,63
1659000172.33656,319528.5412763,91
1659000172.33656,319528.54128,103
1659000172.33656,319528.5412844,143
1659000172.33656,319528.5412906,188
1659000172.33656,319528.5412944,202
1659000172.33656,319528.5412989,197
1659000172.33656,319528.5413055,179
1659000172.33656,319528.5413093,157
1659000172.33656,319528.5413137,141
1659000172.33656,319528.541319,110
1659000172.33656,319528.5413236,75
1659000172.33656,319528.5413282,63
1659000172.33656,319529.1254464,61
1659000172.33656,319529.125465,42
1659000172.33656,319529.1254734,25
1659000172.33656,319529.1254853,25
1659000172.33656,319529.1254899,14
1659000172.33656,319529.125493,9
1659000172.33656,319529.1254961,21
1659000172.33656,319529.125501,25
1659000172.33656,319529.1255064,16
1659000172.33656,319529.125511,11
1659000172.36249,319529.1255149,9
1659000172.36249,319529.1255221,-11
1659000172.36249,319529.1255342,-18
1659000172.36249,319529.1255385,16
1659000172.36249,319529.1255444,37
1659000172.36249,319529.1255511,23
1659000172.36249,319529.1255564,16
1659000172.36249,319529.1255616,11
1659000172.36249,319529.1255661,-7
1659000172.36249,319529.1255722,-2
1659000172.36249,319529.1255756,30
1659000172.36249,319529.1255787,54
1659000172.36249,319529.1255826,56
1659000172.36249,319529.1255889,40
1659000172.36249,319529.1255945,18
1659000172.36249,319529.1255976,7
1659000172.36249,319529.1256009,7
1659000172.36249,319529.1256063,2
1659000172.36249,319529.1256101,2
1659000172.36249,319529.1256157,14
1659000172.36249,319529.1256209,18
1659000172.36249,319529.1256239,-4
1659000172.36249,319529.1256268,-44
1659000172.36249,319529.1256302,150
1659000172.86828,319529.125643,763
1659000172.86828,319529.1256503,1319
1659000172.86828,319529.1256554,1187
1659000172.86828,319529.12566,343
1659000172.86828,319529.1256647,-346
1659000172.86828,319529.1256697,-202
1659000172.86828,319529.1256743,23
1659000172.86828,319529.1256786,-141
1659000172.86828,319529.125683,-155
1659000172.86828,319529.1256874,-16
1659000172.86828,319529.1256921,-44
1659000172.86828,319529.1256976,-91
1659000172.86828,319529.1257032,-44
1659000172.86828,319529.1257076,-14
1659000172.86828,319529.1257128,-7
1659000172.86828,319529.1257204,32
1659000172.86828,319529.1257305,63
1659000172.86828,319529.1257392,47
1659000172.86828,319529.1257433,30
1659000172.86828,319529.1257485,63
1659000172.86828,319529.1257521,106
1659000172.86828,319529.1257555,141
1659000172.86828,319529.1257606,174
1659000172.86828,319529.1257661,195
1659000172.86828,319529.125771,212
1659000172.86828,319529.125776,233
1659000172.86828,319529.1257804,216
1659000172.86828,319529.1257856,155
1659000172.86828,319529.125791,96
1659000172.86828,319529.1257947,73
1659000172.86828,319529.1257997,56
1659000172.86828,319529.1258045,28
1659000172.86828,319529.1258087,11
1659000172.86828,319529.1258146,2
1659000172.86828,319529.1258272,-11
1659000172.86828,319529.1258415,-14
1659000172.86828,319529.1258545,0
1659000172.86828,319529.125873,0
1659000172.86828,319529.125886,-4
1659000172.86828,319529.6617441,16
1659000172.86828,319529.6617592,44
1659000172.86828,319529.661762,40
1659000172.86828,319529.6617643,7
1659000172.86828,319529.6617666,-4
1659000172.86828,319529.6617687,14
1659000172.86828,319529.6617708,32
1659000172.86828,319529.6617729,28
1659000172.86828,319529.6617749,2
1659000172.86828,319529.661777,-14
1659000172.86828,319529.661779,-23
1659000172.88939,319529.661781,-30
1659000172.88939,319529.6617831,11
1659000172.88939,319529.6617863,65
1659000172.88939,319529.6617995,40
1659000172.88939,319529.6618064,-9
1659000172.88939,319529.6618098,-23
1659000172.88939,319529.6618119,-49
1659000172.88939,319529.6618141,-68
1659000172.88939,319529.6618161,-58
1659000172.88939,319529.6618182,-56
1659000172.88939,319529.6618202,-63
1659000172.88939,319529.6618222,-44
1659000172.88939,319529.6618242,-54
1659000172.88939,319529.6618261,-106
1659000172.88939,319529.6618282,94
1659000172.88939,319529.6618303,730
1659000172.88939,319529.6618323,1265
1659000172.88939,319529.6618344,1074
1659000172.88939,319529.6618365,226
1659000172.88939,319529.6618385,-391
1659000172.88939,319529.6618406,-207
1659000172.88939,319529.6618427,16
1659000172.88939,319529.6618447,-157
1659000172.88939,319529.6618468,-219
1659000173.41335,319529.6618488,-110
1659000173.41335,319529.6618509,-89
1659000173.41335,319529.6618528,-98
1659000173.41335,319529.6618547,-75
1659000173.41335,319529.6618565,-70
1659000173.41335,319529.6618586,-75
1659000173.41335,319529.6618605,-51
1659000173.41335,319529.6618624,-25
1659000173.41335,319529.6618643,-21
1659000173.41335,319529.6618677,-11
1659000173.41335,319529.6618759,25
1659000173.41335,319529.6618815,73
1659000173.41335,319529.6618863,98
1659000173.41335,319529.6618916,110
1659000173.41335,319529.6618964,122
1659000173.41335,319529.6619015,143
1659000173.41335,319529.6619064,157
1659000173.41335,319529.6619158,139
1659000173.41335,319529.661923,101
1659000173.41335,319529.6619322,73
1659000173.41335,319529.6619401,25
1659000173.41335,319529.6619436,-25
1659000173.41335,319529.6619491,-42
1659000173.41335,319529.6619571,-40
1659000173.41335,319529.6619637,-51
1659000173.41335,319529.6619743,-56
1659000173.41335,319529.661982,-40
1659000173.41335,319529.6619905,-51
1659000173.41335,319529.6620031,-63
1659000173.41335,319529.6620141,-44
1659000173.41335,319529.6620241,-25
1659000173.41335,319529.6620327,-16
1659000173.41335,319529.6620417,-4
1659000173.41335,319529.6620494,7
1659000173.41335,319529.6620539,21
1659000173.41335,319529.6620584,9
1659000173.41335,319529.6620629,-11
1659000173.41335,319529.6620671,-2
1659000173.41335,319530.1985451,11
1659000173.41335,319530.1985655,4
1659000173.41335,319530.1985716,-9
1659000173.41335,319530.1985763,-7
1659000173.41335,319530.1985806,23
1659000173.41335,319530.1985855,63
1659000173.41335,319530.1985899,54
1659000173.41335,319530.1985944,28
1659000173.41335,319530.1985988,37
1659000173.41335,319530.1986052,23
1659000173.41335,319530.1986094,-28
1659000173.41335,319530.1986153,-54
1659000173.44327,319530.1986211,-56
1659000173.44327,319530.1986276,-58
1659000173.44327,319530.1986319,-47
1659000173.44327,319530.198636,-44
1659000173.44327,319530.1986404,-106
1659000173.44327,319530.1986449,-35
1659000173.44327,319530.198649,466
1659000173.44327,319530.1986537,1112
1659000173.44327,319530.1986578,1225
1659000173.44327,319530.1986619,565
1659000173.44327,319530.1986662,-240
1659000173.44327,319530.1986703,-336
1659000173.44327,319530.1986744,-63
1659000173.44327,319530.1986785,-131
1659000173.44327,319530.1986824,-219
1659000173.44327,319530.1986871,-87
1659000173.44327,319530.1986914,-61
1659000173.44327,319530.1986958,-129
1659000173.44327,319530.1987022,-117
1659000173.44327,319530.1987066,-84
1659000173.44327,319530.1987126,-73
1659000173.44327,319530.1987168,-40
1659000173.44327,319530.1987235,-23
1659000173.44327,319530.198728,-40
1659000173.95438,319530.1987323,-35
1659000173.95438,319530.1987364,9
1659000173.95438,319530.1987406,73
1659000173.95438,319530.1987447,113
1659000173.95438,319530.1987488,120
1659000173.95438,319530.1987531,136
1659000173.95438,319530.1987573,157
1659000173.95438,319530.1987614,157
1659000173.95438,319530.1987655,136
1659000173.95438,319530.1987699,124
1659000173.95438,319530.1987741,113
1659000173.95438,319530.1987782,75
1659000173.95438,319530.1987821,42
1659000173.95438,319530.198787,44
1659000173.95438,319530.1987934,28
1659000173.95438,319530.1987985,-7
1659000173.95438,319530.1988044,-18
1659000173.95438,319530.19881,-32
1659000173.95438,319530.1988162,-23
1659000173.95438,319530.1988211,14
1659000173.95438,319530.1988254,21
1659000173.95438,319530.198831,18
1659000173.95438,319530.198837,28
1659000173.95438,319530.1988414,11
1659000173.95438,319530.1988457,2
1659000173.95438,319530.1988521,47
1659000173.95438,319530.1988564,75
1659000173.95438,319530.1988605,32
1659000173.95438,319530.1988651,7
1659000173.95438,319530.1988711,35
1659000173.95438,319530.1988752,49
1659000173.95438,319530.1988793,40
1659000173.95438,319530.1988838,37
1659000173.95438,319530.1988903,37
1659000173.95438,319530.1988946,54
1659000173.95438,319530.1988989,106
1659000173.95438,319530.1989034,134
1659000173.95438,319530.7360367,101
1659000173.95438,319530.7360517,49
1659000173.95438,319530.7360553,18
1659000173.95438,319530.7360595,16
1659000173.95438,319530.7360627,21
1659000173.95438,319530.7360657,25
1659000173.95438,319530.7360687,30
1659000173.95438,319530.7360717,30
1659000173.95438,319530.7360747,-30
1659000173.95438,319530.7360774,-91
1659000173.95438,319530.7360803,139
1659000173.95438,319530.736083,786
1659000173.95438,319530.7360859,1338
1659000173.97432,319530.7360889,1168
1659000173.97432,319530.7360918,282
1659000173.97432,319530.7360948,-388
1659000173.97432,319530.7360977,-223
1659000173.97432,319530.7361006,21
1659000173.97432,319530.7361035,-98
1659000173.97432,319530.7361063,-134
1659000173.97432,319530.7361119,-65
1659000173.97432,319530.736126,-89
1659000173.97432,319530.7361366,-113
1659000173.97432,319530.7361452,-87
1659000173.97432,319530.7361498,-63
1659000173.97432,319530.7361549,-28
1659000173.97432,319530.7361607,14
1659000173.97432,319530.7361669,18
1659000173.97432,319530.736173,21
1659000173.97432,319530.736179,51
1659000173.97432,319530.7361858,77
1659000173.97432,319530.7361901,91
1659000173.97432,319530.736195,115
1659000173.97432,319530.7361986,150
1659000173.97432,319530.7362032,188
1659000173.97432,319530.7362069,209
1659000173.97432,319530.7362113,209
1659000174.68972,319530.7362153,202
1659000174.68972,319530.7362192,195
1659000174.68972,319530.7362226,169
1659000174.68972,319530.7362262,122
1659000174.68972,319530.7362297,87
1659000174.68972,319530.7362355,70
1659000174.68972,319530.7362408,51
1659000174.68972,319530.7362462,37
1659000174.68972,319530.7362509,25
1659000174.68972,319530.7362554,18
1659000174.68972,319530.7362591,18
1659000174.68972,319530.7362632,25
1659000174.68972,319530.7362671,44
1659000174.68972,319530.7362711,73
1659000174.68972,319530.7362771,84
1659000174.68972,319530.7362827,70
1659000174.68972,319530.7362887,65
1659000174.68972,319530.7362931,68
1659000174.68972,319530.7362977,68
1659000174.68972,319530.7363028,63
1659000174.68972,319530.7363063,63
1659000174.68972,319530.7363101,68
1659000174.68972,319530.7363137,84
1659000174.68972,319530.7363177,98
1659000174.68972,319530.7363232,89
1659000174.68972,319530.7363269,98
1659000174.68972,319530.7363299,141
1659000174.68972,319530.7363328,148
1659000174.68972,319530.7363358,115
1659000174.68972,319530.7363388,84
1659000174.68972,319530.7363418,56
1659000174.68972,319530.7363449,47
1659000174.68972,319530.7363479,56
1659000174.68972,319530.7363511,58
1659000174.68972,319530.7363541,56
1659000174.68972,319530.736357,58
1659000174.68972,319531.4655012,32
1659000174.68972,319531.4655218,-44
1659000174.68972,319531.4655373,-4
1659000174.68972,319531.4655522,468
1659000174.68972,319531.4655616,1180
1659000174.68972,319531.4655642,1430
1659000174.68972,319531.4655663,845
1659000174.68972,319531.4655685,-89
1659000174.68972,319531.4655713,-329
1659000174.68972,319531.4655741,49
1659000174.68972,319531.4655811,42
1659000174.68972,319531.4655954,-179
1659000174.68972,319531.4656062,-101
1659000174.68972,319531.4656135,-23
1659000174.71066,319531.4656196,-68
1659000174.71066,319531.4656255,-47
1659000174.71066,319531.4656433,-2
1659000174.71066,319531.4656583,-11
1659000174.71066,319531.4656642,-16
1659000174.71066,319531.4656684,11
1659000174.71066,319531.4656748,25
1659000174.71066,319531.4656785,35
1659000174.71066,319531.4656849,61
1659000174.71066,319531.4656889,87
1659000174.71066,319531.4656946,113
1659000174.71066,319531.4656985,153
1659000174.71066,319531.4657041,197
1659000174.71066,319531.4657082,226
1659000174.71066,319531.4657119,237
1659000174.71066,319531.4657158,228
1659000174.71066,319531.4657195,200
1659000174.71066,319531.4657257,167
1659000174.71066,319531.4657293,129
1659000174.71066,319531.4657331,80
1659000174.71066,319531.4657385,47
1659000174.71066,319531.4657423,49
1659000174.71066,319531.4657461,51
1659000174.71066,319531.4657521,35
1659000175.1131,319531.4657559,14
1659000175.1131,319531.4657599,7
1659000175.1131,319531.4657638,23
1659000175.1131,319531.4657674,56
1659000175.1131,319531.4657711,80
1659000175.1131,319531.4657748,70
1659000175.1131,319531.4657787,65
1659000175.1131,319531.4657825,65
1659000175.1131,319531.4657864,54
1659000175.1131,319531.4657902,49
1659000175.1131,319531.4657938,65
1659000175.1131,319531.4657974,70
1659000175.1131,319531.4658011,63
1659000175.1131,319531.4658064,61
1659000175.1131,319531.4658117,51
1659000175.1131,319531.4658154,42
1659000175.1131,319531.4658206,58
1659000175.1131,319531.4658245,91
1659000175.1131,319531.4658295,108
1659000175.1131,319531.4658327,87
1659000175.1131,319531.4658374,54
1659000175.1131,319531.4658419,32
1659000175.1131,319531.4658466,28
1659000175.1131,319531.4658516,30
1659000175.1131,319531.4658568,25
1659000175.1131,319531.4658607,23
1659000175.1131,319531.4658659,32
1659000175.1131,319531.4658695,40
1659000175.1131,319531.4658731,-30
1659000175.1131,319531.4658768,-87
1659000175.1131,319531.4658812,268
1659000175.1131,319531.4658865,1036
1659000175.1131,319531.465891,1505
1659000175.1131,319531.4658948,1159
1659000175.1131,319531.4659005,247
1659000175.1131,319531.9046049,-287
1659000175.1131,319531.9046175,-70
1659000175.1131,319531.9046208,61
1659000175.1131,319531.9046237,-103
1659000175.1131,319531.9046262,-80
1659000175.1131,319531.9046286,2
1659000175.1131,319531.904631,-37
1659000175.1131,319531.9046334,-47
1659000175.1131,319531.9046357,-7
1659000175.1131,319531.904638,4
1659000175.1131,319531.9046404,9
1659000175.1131,319531.9046446,28
1659000175.1131,319531.9046584,44
1659000175.1131,319531.9046629,56
1659000175.1131,319531.9046671,73
1659000175.13105,319531.9046691,89
1659000175.13105,319531.9046711,108
1659000175.13105,319531.9047079,124
1659000175.13105,319531.9047151,143
1659000175.13105,319531.9047264,176
1659000175.13105,319531.904734,223
1659000175.13105,319531.9047366,233
1659000175.13105,319531.9047387,181
1659000175.13105,319531.9047407,141
1659000175.13105,319531.9047436,150
1659000175.13105,319531.9047457,143
1659000175.13105,319531.9047535,87
1659000175.13105,319531.9047643,23
1659000175.13105,319531.9047677,2
1659000175.13105,319531.9047707,30
1659000175.13105,319531.9047736,63
1659000175.13105,319531.9047773,54
1659000175.13105,319531.9047903,18
1659000175.13105,319531.9047964,-4
1659000175.13105,319531.9047998,-2
1659000175.13105,319531.9048019,7
1659000175.13105,319531.9048042,4
1659000175.13105,319531.9048141,-4
1659000175.13105,319531.9048247,-7
1659000175.6687,319531.9048279,-11
1659000175.6687,319531.9048359,-21
1659000175.6687,319531.904843,-21
1659000175.6687,319531.9048486,-11
1659000175.6687,319531.9048539,-7
1659000175.6687,319531.9048578,-2
1659000175.6687,319531.9048616,-9
1659000175.6687,319531.9048654,-25
1659000175.6687,319531.9048694,-14
1659000175.6687,319531.9048735,42
1659000175.6687,319531.9048782,84
1659000175.6687,319531.9048823,56
1659000175.6687,319531.9048862,7
1659000175.6687,319531.9048901,-9
1659000175.6687,319531.9048943,-21
1659000175.6687,319531.9048982,-14
1659000175.6687,319531.9049025,9
1659000175.6687,319531.9049069,11
1659000175.6687,319531.9049115,-2
1659000175.6687,319531.9049183,-7
1659000175.6687,319531.9049224,-21
1659000175.6687,319531.9049267,-113
1659000175.6687,319531.9049308,-84
1659000175.6687,319531.9049364,435
1659000175.6687,319531.9049402,1192
1659000175.6687,319531.9049457,1441
1659000175.6687,319531.9049496,848
1659000175.6687,319531.9049546,-84
1659000175.6687,319531.90496,-372
1659000175.6687,319531.9049806,-58
1659000175.6687,319531.9049882,-21
1659000175.6687,319531.904993,-181
1659000175.6687,319531.9049983,-139
1659000175.6687,319531.9050053,-84
1659000175.6687,319532.4405937,-113
1659000175.6687,319532.4406071,-96
1659000175.6687,319532.440612,-61
1659000175.6687,319532.4406142,-54
1659000175.6687,319532.440617,-51
1659000175.6687,319532.4406191,-49
1659000175.6687,319532.4406212,-49
1659000175.6687,319532.4406233,-30
1659000175.6687,319532.4406255,7
1659000175.6687,319532.4406276,35
1659000175.6687,319532.4406296,54
1659000175.6687,319532.4406317,89
1659000175.6687,319532.4406338,129
1659000175.6687,319532.4406359,129
1659000175.6687,319532.4406379,113
1659000175.6687,319532.44064,124
1659000175.69363,319532.4406421,129
1659000175.69363,319532.4406442,87
1659000175.69363,319532.4406463,37
1659000175.69363,319532.4406484,7
1659000175.69363,319532.4406506,-23
1659000175.69363,319532.4406527,-44
1659000175.69363,319532.4406548,-56
1659000175.69363,319532.4406569,-56
1659000175.69363,319532.4406589,-40
1659000175.69363,319532.4406611,-54
1659000175.69363,319532.4406631,-87
1659000175.69363,319532.4406652,-82
1659000175.69363,319532.4406673,-65
1659000175.69363,319532.4406694,-47
1659000175.69363,319532.4406715,-4
1659000175.69363,319532.4406735,14
1659000175.69363,319532.4406756,-11
1659000175.69363,319532.4406777,-25
1659000175.69363,319532.4406798,-14
1659000175.69363,319532.4406819,-4
1659000175.69363,319532.440684,-9
1659000175.69363,319532.4406861,-21
1659000175.69363,319532.4406881,-28
1659000175.69363,319532.4406902,-49
1659000176.23144,319532.4406923,-70
1659000176.23144,319532.4406943,-61
1659000176.23144,319532.4406963,-44
1659000176.23144,319532.4406983,-44
1659000176.23144,319532.4407002,-14
1659000176.23144,319532.4407023,61
1659000176.23144,319532.4407097,82
1659000176.23144,319532.4407169,37
1659000176.23144,319532.4407209,-4
1659000176.23144,319532.4407247,-30
1659000176.23144,319532.4407292,-16
1659000176.23144,319532.4407343,9
1659000176.23144,319532.4407386,-32
1659000176.23144,319532.440748,-75
1659000176.23144,319532.4407587,-16
1659000176.23144,319532.4407668,32
1659000176.23144,319532.4407777,-58
1659000176.23144,319532.4407826,-73
1659000176.23144,319532.4407848,435
1659000176.23144,319532.4407916,1215
1659000176.23144,319532.4407982,1444
1659000176.23144,319532.4408041,843
1659000176.23144,319532.4408175,-42
1659000176.23144,319532.4408304,-322
1659000176.23144,319532.4408347,-42
1659000176.23144,319532.4408394,-14
1659000176.23144,319532.4408448,-160
1659000176.23144,319532.4408481,-84
1659000176.23144,319532.4408513,-16
1659000176.23144,319532.440855,-82
1659000176.23144,319532.4408584,-84
1659000176.23144,319532.4408618,-37
1659000176.23144,319532.4408652,-44
1659000176.23144,319533.0257249,-25
1659000176.23144,319533.0257457,18
1659000176.23144,319533.0257608,9
1659000176.23144,319533.0257743,4
1659000176.23144,319533.0257846,42
1659000176.23144,319533.025792,56
1659000176.23144,319533.0257995,61

1659000176.23144,319533.0258072,89
1659000176.23144,319533.0258136,108
1659000176.23144,319533.0258158,134
1659000176.23144,319533.025818,164
1659000176.23144,319533.02582,162
1659000176.23144,319533.025822,136
1659000176.23144,319533.025824,101
1659000176.23144,319533.025826,54
1659000176.23144,319533.0258281,9
1659000176.23144,319533.0258301,0
1659000176.24839,319533.0258322,-9
1659000176.24839,319533.0258343,-47
1659000176.24839,319533.0258364,-68
1659000176.24839,319533.0258383,-68
1659000176.24839,319533.0258403,-56
1659000176.24839,319533.0258423,-54
1659000176.24839,319533.0258453,-94
1659000176.24839,319533.0258473,-117
1659000176.24839,319533.0258493,-91
1659000176.24839,319533.0258513,-84
1659000176.24839,319533.0258534,-101
1659000176.24839,319533.0258554,-82
1659000176.24839,319533.0258575,-47
1659000176.24839,319533.0258596,-51
1659000176.24839,319533.0258666,-65
1659000176.24839,319533.0258775,-51
1659000176.24839,319533.0258879,-44
1659000176.24839,319533.025899,-63
1659000176.24839,319533.0259029,-61
1659000176.24839,319533.0259148,-56
1659000176.24839,319533.0259255,-73
1659000176.24839,319533.0259334,-44
1659000176.24839,319533.0259398,-25
1659000176.24839,319533.0259479,-68
1659000176.76852,319533.0259543,-80
1659000176.76852,319533.0259604,-18
1659000176.76852,319533.0259659,51
1659000176.76852,319533.0259708,56
1659000176.76852,319533.0259772,4
1659000176.76852,319533.0259856,-18
1659000176.76852,319533.0259919,11
1659000176.76852,319533.026,-4
1659000176.76852,319533.0260063,-65
1659000176.76852,319533.0260147,-68
1659000176.76852,319533.0260207,-14
1659000176.76852,319533.0260289,7
1659000176.76852,319533.0260351,-7
1659000176.76852,319533.0260435,-49
1659000176.76852,319533.0260499,-129
1659000176.76852,319533.0260584,16
1659000176.76852,319533.0260646,636
1659000176.76852,319533.0260729,1298
1659000176.76852,319533.0260792,1345
1659000176.76852,319533.0260879,610
1659000176.76852,319533.0260924,-259
1659000176.76852,319533.0260992,-379
1659000176.76852,319533.026111,-77
1659000176.76852,319533.0261241,-120
1659000176.76852,319533.026139,-221
1659000176.76852,319533.0261483,-124
1659000176.76852,319533.0261849,-94
1659000176.76852,319533.026193,-134
1659000176.76852,319533.0261962,-103
1659000176.76852,319533.0262005,-75
1659000176.76852,319533.026205,-82
1659000176.76852,319533.0262157,-73
1659000176.76852,319533.5622982,-56
1659000176.76852,319533.5623184,-56
1659000176.76852,319533.5623242,-30
1659000176.76852,319533.5623287,21
1659000176.76852,319533.5623331,28
1659000176.76852,319533.5623372,4
1659000176.76852,319533.5623413,47
1659000176.76852,319533.5623452,120
1659000176.76852,319533.5623494,136
1659000176.76852,319533.5623533,139
1659000176.76852,319533.5623572,148
1659000176.76852,319533.5623612,117
1659000176.76852,319533.5623651,77
1659000176.76852,319533.5623689,68
1659000176.76852,319533.5623726,32
1659000176.76852,319533.5623763,-25
1659000176.76852,319533.56238,-68
1659000176.76852,319533.5623837,-87
1659000176.79246,319533.5623875,-70
1659000176.79246,319533.5623911,-61
1659000176.79246,319533.5623947,-117
1659000176.79246,319533.5623983,-136
1659000176.79246,319533.5624021,-82
1659000176.79246,319533.5624056,-58
1659000176.79246,319533.5624092,-94
1659000176.79246,319533.5624126,-127
1659000176.79246,319533.5624161,-94
1659000176.79246,319533.5624207,-30
1659000176.79246,319533.5624241,-18
1659000176.79246,319533.5624278,-58
1659000176.79246,319533.5624312,-65
1659000176.79246,319533.5624346,-35
1659000176.79246,319533.5624383,-35
1659000176.79246,319533.5624417,-35
1659000176.79246,319533.5624453,-18
1659000176.79246,319533.5624488,-30
1659000176.79246,319533.5624525,-40
1659000176.79246,319533.5624562,-30
1659000176.79246,319533.5624598,-35
1659000176.79246,319533.5624652,-37
1659000176.79246,319533.5624691,-23
1659000176.79246,319533.5624728,-4
1659000177.31448,319533.5624783,14
1659000177.31448,319533.5624819,54
1659000177.31448,319533.5624853,82
1659000177.31448,319533.5624888,56
1659000177.31448,319533.5624925,21
1659000177.31448,319533.5624965,-2
1659000177.31448,319533.5625005,-32
1659000177.31448,319533.5625066,-47
1659000177.31448,319533.5625188,-35
1659000177.31448,319533.5625276,-18
1659000177.31448,319533.5625325,-18
1659000177.31448,319533.5625376,-32
1659000177.31448,319533.5625423,-44
1659000177.31448,319533.5625457,-56
1659000177.31448,319533.5625495,113
1659000177.31448,319533.5625531,706
1659000177.31448,319533.5625587,1357
1659000177.31448,319533.5625622,1352
1659000177.31448,319533.5625658,548
1659000177.31448,319533.5625709,-268
1659000177.31448,319533.5625746,-280
1659000177.31448,319533.5625796,-4
1659000177.31448,319533.562583,-122
1659000177.31448,319533.5625865,-221
1659000177.31448,319533.5625903,-94
1659000177.31448,319533.5625953,-65
1659000177.31448,319533.5626,-110
1659000177.31448,319533.562605,-77
1659000177.31448,319533.5626085,-47
1659000177.31448,319533.5626121,-51
1659000177.31448,319533.5626171,-44
1659000177.31448,319534.0988608,-21
1659000177.31448,319534.0988782,0
1659000177.31448,319534.0988833,21
1659000177.31448,319534.0988889,37
1659000177.31448,319534.0988932,49
1659000177.31448,319534.0988984,65
1659000177.31448,319534.0989027,103
1659000177.31448,319534.0989079,124
1659000177.31448,319534.0989117,120
1659000177.31448,319534.0989179,124
1659000177.31448,319534.0989233,120
1659000177.31448,319534.0989272,98
1659000177.31448,319534.0989328,91
1659000177.31448,319534.0989377,58
1659000177.31448,319534.0989431,-11
1659000177.31448,319534.0989475,-49
1659000177.31448,319534.0989531,-63
1659000177.31448,319534.0989572,-91
1659000177.31448,319534.0989626,-115
1659000177.33443,319534.0989668,-101
1659000177.33443,319534.0989718,-70
1659000177.33443,319534.0989754,-73
1659000177.33443,319534.098979,-75
1659000177.33443,319534.0989842,-54
1659000177.33443,319534.0989879,-49
1659000177.33443,319534.098993,-49
1659000177.33443,319534.0989985,-40
1659000177.33443,319534.0990021,-35
1659000177.33443,319534.0990058,-23
1659000177.33443,319534.0990096,0
1659000177.33443,319534.0990133,2
1659000177.33443,319534.0990169,-16
1659000177.33443,319534.0990207,-23
1659000177.33443,319534.0990243,-28
1659000177.33443,319534.0990288,-32
1659000177.33443,319534.0990341,-14
1659000177.33443,319534.099038,-4
1659000177.33443,319534.0990434,-28
1659000177.33443,319534.0990477,-16
1659000177.33443,319534.0990527,32
1659000177.33443,319534.0990564,28
1659000177.33443,319534.09906,-11
1659000177.33443,319534.0990655,-7
1659000178.05107,319534.0990691,28
1659000178.05107,319534.0990728,70
1659000178.05107,319534.0990762,77
1659000178.05107,319534.0990797,25
1659000178.05107,319534.0990832,-4
1659000178.05107,319534.0990868,30
1659000178.05107,319534.0990904,37
1659000178.05107,319534.099094,2
1659000178.05107,319534.0990977,7
1659000178.05107,319534.0991011,32
1659000178.05107,319534.0991047,23
1659000178.05107,319534.0991085,14
1659000178.05107,319534.0991119,30
1659000178.05107,319534.0991156,4
1659000178.05107,319534.0991194,94
1659000178.05107,319534.0991231,596
1659000178.05107,319534.0991271,1258
1659000178.05107,319534.099131,1371
1659000178.05107,319534.0991348,687
1659000178.05107,319534.0991402,-139
1659000178.05107,319534.0991443,-261
1659000178.05107,319534.099148,-11
1659000178.05107,319534.0991515,-87
1659000178.05107,319534.0991553,-162
1659000178.05107,319534.099159,-16
1659000178.05107,319534.0991644,-4
1659000178.05107,319534.0991687,-82
1659000178.05107,319534.0991738,-63
1659000178.05107,319534.0991774,-44
1659000178.05107,319534.099182,-42
1659000178.05107,319534.8305495,7
1659000178.05107,319534.8305684,25
1659000178.05107,319534.8305761,-11
1659000178.05107,319534.8305827,-14
1659000178.05107,319534.830587,16
1659000178.05107,319534.8305924,28
1659000178.05107,319534.8305965,40
1659000178.05107,319534.8306092,75
1659000178.05107,319534.8306181,106
1659000178.05107,319534.8306244,110
1659000178.05107,319534.8306289,106
1659000178.05107,319534.8306346,106
1659000178.05107,319534.8306399,103
1659000178.05107,319534.8306439,94
1659000178.05107,319534.8306566,75
1659000178.05107,319534.8306651,44
1659000178.05107,319534.8306696,11
1659000178.05107,319534.8306741,-11
1659000178.05107,319534.83068,-18
1659000178.05107,319534.8306849,-25
1659000178.07692,319534.8306901,-40
1659000178.07692,319534.830694,-56
1659000178.07692,319534.8306976,-73
1659000178.07692,319534.8307032,-56
1659000178.07692,319534.8307077,4
1659000178.07692,319534.8307118,40
1659000178.07692,319534.8307173,30
1659000178.07692,319534.8307222,32
1659000178.07692,319534.830726,44
1659000178.07692,319534.8307298,47
1659000178.07692,319534.8307335,51
1659000178.07692,319534.8307371,70
1659000178.07692,319534.8307421,77
1659000178.07692,319534.8307456,58
1659000178.07692,319534.8307504,32
1659000178.07692,319534.8307539,21
1659000178.07692,319534.8307583,25
1659000178.07692,319534.8307638,40
1659000178.07692,319534.8307676,44
1659000178.07692,319534.8307712,73
1659000178.07692,319534.8307749,103
1659000178.07692,319534.8307801,70
1659000178.07692,319534.8307838,37
1659000178.07692,319534.8307876,63
1659000178.47767,319534.8307925,117
1659000178.47767,319534.8307961,186
1659000178.47767,319534.8307995,212
1659000178.47767,319534.8308027,148
1659000178.47767,319534.830806,58
1659000178.47767,319534.8308094,23
1659000178.47767,319534.8308132,68
1659000178.47767,319534.8308166,122
1659000178.47767,319534.8308202,101
1659000178.47767,319534.8308277,61
1659000178.47767,319534.8308313,58
1659000178.47767,319534.8308387,63
1659000178.47767,319534.8308454,44
1659000178.47767,319534.8308506,70
1659000178.47767,319534.830854,388
1659000178.47767,319534.8308573,1038
1659000178.47767,319534.8308606,1507
1659000178.47767,319534.830864,1206
1659000178.47767,319534.8308706,261
1659000178.47767,319534.8308747,-292
1659000178.47767,319534.8308795,-63
1659000178.47767,319534.8308826,77
1659000178.47767,319534.8308857,-108
1659000178.47767,319534.8308886,-155
1659000178.47767,319534.8308916,-101
1659000178.47767,319534.8308944,-37
1659000178.47767,319534.8308974,47
1659000178.47767,319534.8309004,14
1659000178.47767,319534.8309034,-56
1659000178.47767,319535.2684964,-23
1659000178.47767,319535.2685131,21
1659000178.47767,319535.2685187,0
1659000178.47767,319535.2685256,9
1659000178.47767,319535.2685306,98
1659000178.47767,319535.2685369,150
1659000178.47767,319535.2685412,113
1659000178.47767,319535.2685475,115
1659000178.47767,319535.2685524,179
1659000178.47767,319535.2685587,209
1659000178.47767,319535.2685647,195
1659000178.47767,319535.2685713,190
1659000178.47767,319535.2685774,228
1659000178.47767,319535.2685835,252
1659000178.47767,319535.2685881,186
1659000178.47767,319535.2685942,115
1659000178.47767,319535.2685982,110
1659000178.47767,319535.2686041,103
1659000178.47767,319535.2686093,58
1659000178.47767,319535.2686153,16
1659000178.47767,319535.2686197,2
1659000178.49462,319535.2686254,32
1659000178.49462,319535.2686301,68
1659000178.49462,319535.2686358,65
1659000178.49462,319535.2686401,56
1659000178.49462,319535.2686447,49
1659000178.49462,319535.2686492,18
1659000178.49462,319535.2686552,14
1659000178.49462,319535.2686592,68
1659000178.49462,319535.2686652,89
1659000178.49462,319535.2686694,65
1659000178.49462,319535.2686729,80
1659000178.49462,319535.2686763,94
1659000178.49462,319535.26868,51
1659000178.49462,319535.268685,40
1659000178.49462,319535.2686894,65
1659000178.49462,319535.2686945,68
1659000178.49462,319535.2687009,63
1659000178.49462,319535.2687094,70
1659000178.49462,319535.2687159,73
1659000178.49462,319535.268719,63
1659000178.49462,319535.2687222,51
1659000178.49462,319535.2687255,70
1659000178.49462,319535.2687305,113
1659000178.49462,319535.2687356,143
1659000179.02276,319535.2687395,160
1659000179.02276,319535.2687427,155
1659000179.02276,319535.2687466,113
1659000179.02276,319535.2687504,70
1659000179.02276,319535.2687598,54
1659000179.02276,319535.2687667,65
1659000179.02276,319535.2687748,87
1659000179.02276,319535.2687824,77
1659000179.02276,319535.2687921,58
1659000179.02276,319535.2687977,75
1659000179.02276,319535.2688097,73
1659000179.02276,319535.2688207,-4
1659000179.02276,319535.2688291,28
1659000179.02276,319535.2688372,513
1659000179.02276,319535.2688478,1248
1659000179.02276,319535.2688566,1505
1659000179.02276,319535.2688661,899
1659000179.02276,319535.268877,-68
1659000179.02276,319535.2688844,-374
1659000179.02276,319535.2688956,-47
1659000179.02276,319535.2689058,-9
1659000179.02276,319535.2689149,-181
1659000179.02276,319535.2689255,-124
1659000179.02276,319535.2689357,-65
1659000179.02276,319535.2689442,-115
1659000179.02276,319535.2689547,-96
1659000179.02276,319535.2689653,-49
1659000179.02276,319535.2689737,-42
1659000179.02276,319535.8066977,-30
1659000179.02276,319535.8067167,-14
1659000179.02276,319535.8067257,-11
1659000179.02276,319535.8067339,-11
1659000179.02276,319535.8067409,14
1659000179.02276,319535.8067469,65
1659000179.02276,319535.8067532,98
1659000179.02276,319535.8067587,98
1659000179.02276,319535.8067659,110
1659000179.02276,319535.8067726,195
1659000179.02276,319535.8067831,252
1659000179.02276,319535.8067969,181
1659000179.02276,319535.8068086,122
1659000179.02276,319535.8068234,136
1659000179.02276,319535.8068366,103
1659000179.02276,319535.8068488,37
1659000179.02276,319535.8068563,-11
1659000179.02276,319535.8068655,-40
1659000179.02276,319535.8068727,-47
1659000179.02276,319535.8068788,-63
1659000179.02276,319535.8068917,-80
1659000179.02276,319535.8069054,-77
1659000179.04271,319535.806919,-82
1659000179.04271,319535.8069322,-87
1659000179.04271,319535.8069471,-80
1659000179.04271,319535.8069757,-65
1659000179.04271,319535.8069847,-32
1659000179.04271,319535.8069887,-14
1659000179.04271,319535.8069921,-23
1659000179.04271,319535.8069954,-23
1659000179.04271,319535.8070017,0
1659000179.04271,319535.807007,0
1659000179.04271,319535.8070122,-7
1659000179.04271,319535.8070188,18
1659000179.04271,319535.8070242,28
1659000179.04271,319535.8070324,4
1659000179.04271,319535.8070372,-7
1659000179.04271,319535.8070413,-16
