Time,TimeLsl,Value
1659001404.75693,320760.1489826,77
1659001404.75693,320760.1490031,63
1659001404.75693,320760.1490109,80
1659001404.75693,320760.1490202,103
1659001404.75693,320760.1490262,110
1659001404.75693,320760.1490296,122
1659001404.75693,320760.149033,153
1659001404.75693,320760.1490381,164
1659001404.75693,320760.1490422,139
1659001404.75693,320760.1490488,115
1659001404.75693,320760.1490558,108
1659001404.75693,320760.14906,94
1659001404.75693,320760.1490631,80
1659001404.75693,320760.1490662,73
1659001404.75693,320760.1490692,70
1659001404.75693,320760.1490721,63
1659001404.75693,320760.1490751,58
1659001404.75693,320760.1490781,70
1659001404.75693,320760.149081,49
1659001404.75693,320760.149084,157
1659001404.75693,320760.1490872,706
1659001404.75693,320760.1490903,1415
1659001404.75693,320760.1490932,1566
1659001404.75693,320760.1490962,904
1659001404.75693,320760.1490992,-9
1659001404.75693,320760.1491022,-273
1659001404.75693,320760.1491051,0
1659001404.75693,320760.1491081,-4
1659001404.75693,320760.149111,-153
1659001404.75693,320760.149114,-77
1659001404.75693,320760.1491172,-30
1659001404.75693,320760.1491211,-77
1659001404.75693,320760.1491377,-58
1659001404.75693,320760.1491486,-37
1659001404.75693,320760.1491583,-54
1659001404.75693,320760.1491662,-42
1659001404.75693,320760.1491722,-14
1659001404.75693,320760.1491806,-7
1659001404.75693,320760.1491861,-4
1659001404.75693,320760.1491925,9
1659001404.75693,320760.1492001,21
1659001404.75693,320760.1492056,35
1659001404.75693,320760.1492094,70
1659001404.75693,320760.1492138,101
1659001404.75693,320760.1492192,110
1659001404.75693,320760.1492243,129
1659001404.75693,320760.1492279,146
1659001404.75693,320760.1492314,146
1659001404.75693,320760.1492352,157
1659001404.75693,320760.1492417,162
1659001404.87564,320760.1492448,134
1659001404.87564,320760.1492478,103
1659001404.87564,320760.1492507,94
1659001404.87564,320760.1492537,70
1659001404.87564,320760.1492566,32
1659001404.87564,320760.1492595,21
1659001404.87564,320760.1492626,16
1659001404.87564,320760.1492726,-2
1659001404.87564,320760.1492843,7
1659001404.87564,320760.1492967,32
1659001404.87564,320760.1493084,25
1659001404.87564,320760.1493225,7
1659001404.87564,320760.1493337,25
1659001404.87564,320760.1493428,54
1659001404.87564,320760.1493568,54
1659001404.87564,320760.1493687,51
1659001404.87564,320760.1493767,65
1659001404.87564,320760.1493848,80
1659001404.87564,320760.1493992,77
1659001404.87564,320760.1494117,65
1659001404.87564,320760.1494243,65
1659001404.87564,320760.1494366,77
1659001404.87564,320760.1494448,70
1659001404.87564,320760.6857529,58
1659001405.01907,320760.6857741,56
1659001405.01907,320760.6857799,61
1659001405.01907,320760.6857844,89
1659001405.01907,320760.6857884,117
1659001405.01907,320760.6857924,113
1659001405.01907,320760.6857965,108
1659001405.01907,320760.6858004,106
1659001405.01907,320760.6858044,91
1659001405.01907,320760.6858083,80
1659001405.01907,320760.6858122,82
1659001405.01907,320760.6858159,68
1659001405.01907,320760.6858196,40
1659001405.01907,320760.6858234,40
1659001405.01907,320760.6858276,75
1659001405.01907,320760.6858331,103
1659001405.01907,320760.6858397,106
1659001405.01907,320760.6858439,91
1659001405.01907,320760.6858497,75
1659001405.01907,320760.6858542,89
1659001405.01907,320760.6858599,136
1659001405.01907,320760.685867,155
1659001405.01907,320760.6858714,122
1659001405.01907,320760.6858754,94
1659001405.01907,320760.6858794,77
1659001405.01907,320760.6858831,58
1659001405.01907,320760.6858871,75
1659001405.01907,320760.6858911,82
1659001405.01907,320760.6858949,54
1659001405.01907,320760.6858988,58
1659001405.01907,320760.6859062,75
1659001405.01907,320760.685912,30
1659001405.01907,320760.6859158,-9
1659001405.01907,320760.6859198,226
1659001405.01907,320760.6859259,876
1659001405.01907,320760.6859299,1529
1659001405.01907,320760.6859338,1585
1659001405.01907,320760.6859396,819
1659001405.01907,320760.6859436,-127
1659001405.01907,320760.6859492,-259
1659001405.01907,320760.6859545,65
1659001405.01907,320760.6859591,0
1659001405.01907,320760.6859643,-131
1659001405.01907,320760.6859678,-32
1659001405.01907,320760.6859723,-4
1659001405.01907,320760.685979,-54
1659001405.01907,320760.6859836,-28
1659001405.01907,320760.6859889,21
1659001405.01907,320760.6859924,35
1659001405.01907,320760.6859959,35
1659001405.01907,320760.6860008,32
1659001405.2364,320760.6860042,51
1659001405.2364,320760.6860075,84
1659001405.2364,320760.6860107,106
1659001405.2364,320760.6860159,113
1659001405.2364,320760.6860206,122
1659001405.2364,320760.6860239,143
1659001405.2364,320760.6860271,162
1659001405.2364,320760.6860305,169
1659001405.2364,320760.6860338,188
1659001405.2364,320760.686039,226
1659001405.2364,320760.6860432,242
1659001405.2364,320760.6860467,216
1659001405.2364,320760.6860517,200
1659001405.2364,320760.6860558,195
1659001405.2364,320760.6860607,164
1659001405.2364,320760.686065,120
1659001405.2364,320760.6860686,84
1659001405.2364,320760.6860741,54
1659001405.2364,320760.6860786,32
1659001405.2364,320760.6860841,18
1659001405.2364,320760.686088,23
1659001405.2364,320760.6860934,42
1659001405.2364,320761.221983,56
1659001405.2364,320761.2220022,51
1659001405.2364,320761.2220105,37
1659001405.2364,320761.2220155,30
1659001405.2364,320761.2220212,35
1659001405.2364,320761.2220251,37
1659001405.2364,320761.222029,37
1659001405.2364,320761.222033,40
1659001405.2364,320761.2220395,35
1659001405.2364,320761.2220437,28
1659001405.2364,320761.2220483,35
1659001405.2364,320761.2220514,42
1659001405.2364,320761.2220582,37
1659001405.2364,320761.2220687,42
1659001405.2364,320761.2220753,44
1659001405.2364,320761.2220811,30
1659001405.2364,320761.2220957,23
1659001405.2364,320761.2221056,30
1659001405.2364,320761.2221153,30
1659001405.2364,320761.2221275,23
1659001405.2364,320761.2221326,18
1659001405.2364,320761.2221401,4
1659001405.2364,320761.2221551,-2
1659001405.2364,320761.2221646,25
1659001405.2364,320761.2221705,49
1659001405.2364,320761.2221836,32
1659001405.2364,320761.2221932,16
1659001405.2364,320761.2221983,23
1659001405.29576,320761.2222037,37
1659001405.29576,320761.2222112,44
1659001405.29576,320761.2222156,58
1659001405.29576,320761.222221,94
1659001405.29576,320761.222227,127
1659001405.29576,320761.222236,117
1659001405.29576,320761.2222488,84
1659001405.29576,320761.222262,63
1659001405.29576,320761.2222724,44
1659001405.29576,320761.2222797,30
1659001405.29576,320761.2222876,28
1659001405.29576,320761.2222964,32
1659001405.29576,320761.2223044,61
1659001405.29576,320761.2223172,87
1659001405.29576,320761.2223243,37
1659001405.29576,320761.2223328,-4
1659001405.29576,320761.2223437,285
1659001405.29576,320761.2223527,1003
1659001405.29576,320761.2223619,1613
1659001405.29576,320761.2223658,1521
1659001405.29576,320761.2223747,673
1659001405.29576,320761.2223832,-176
1659001405.29576,320761.2223887,-216
1659001405.29576,320761.2223925,54
1659001405.29576,320761.2223988,-42
1659001405.29576,320761.222403,-122
1659001405.29576,320761.2224074,-25
1659001405.29576,320761.2224112,-23
1659001405.29576,320761.2224171,-56
1659001405.29576,320761.2224207,-28
1659001405.29576,320761.2224253,-11
1659001405.29576,320761.2224302,-18
1659001405.29576,320761.2224367,-4
1659001405.29576,320761.2224406,16
1659001405.29576,320761.2224533,37
1659001405.29576,320761.2224597,56
1659001405.29576,320761.2224701,65
1659001405.29576,320761.2224801,75
1659001405.29576,320761.2224867,91
1659001405.29576,320761.2224978,101
1659001405.29576,320761.2225015,96
1659001405.29576,320761.2225108,115
1659001405.29576,320761.2225206,150
1659001405.29576,320761.2225325,164
1659001405.29576,320761.2225467,160
1659001405.29576,320761.8065699,162
1659001405.29576,320761.8066079,157
1659001405.29576,320761.8066175,124
1659001405.55156,320761.8066225,87
1659001405.55156,320761.8066272,49
1659001405.55156,320761.8066319,14
1659001405.55156,320761.8066364,-14
1659001405.55156,320761.806641,-28
1659001405.55156,320761.8066482,-25
1659001405.55156,320761.8066564,-28
1659001405.55156,320761.806663,-40
1659001405.55156,320761.8066718,-44
1659001405.55156,320761.8066767,-54
1659001405.55156,320761.8066807,-58
1659001405.55156,320761.8066849,-42
1659001405.55156,320761.8066891,-28
1659001405.55156,320761.8066937,-28
1659001405.55156,320761.8066978,-25
1659001405.55156,320761.8067019,-9
1659001405.55156,320761.8067059,0
1659001405.55156,320761.8067098,-7
1659001405.55156,320761.806714,-9
1659001405.55156,320761.806718,-16
1659001405.55156,320761.806722,-18
1659001405.55156,320761.806726,14
1659001405.55156,320761.8067302,37
1659001405.55156,320761.806735,14
1659001405.55156,320761.8067438,11
1659001405.55156,320761.8067506,37
1659001405.55156,320761.8067566,37
1659001405.55156,320761.806763,21
1659001405.55156,320761.8067698,25
1659001405.55156,320761.806775,40
1659001405.55156,320761.806779,49
1659001405.55156,320761.8067831,49
1659001405.55156,320761.8067872,42
1659001405.55156,320761.8067921,49
1659001405.55156,320761.8067968,68
1659001405.55156,320761.8068012,73
1659001405.55156,320761.8068055,73
1659001405.55156,320761.8068099,87
1659001405.55156,320761.8068142,94
1659001405.55156,320761.8068184,77
1659001405.55156,320761.8068227,63
1659001405.55156,320761.8068269,70
1659001405.55156,320761.8068312,101
1659001405.55156,320761.8068355,143
1659001405.55156,320761.8068398,167
1659001405.55156,320761.8068441,157
1659001405.55156,320761.8068484,139
1659001405.55156,320761.8068527,108
1659001405.55156,320761.8068571,77
1659001405.55156,320761.8068615,75
1659001405.56851,320761.8068658,77
1659001405.56851,320761.8068701,80
1659001405.56851,320761.8068743,98
1659001405.56851,320761.8068786,110
1659001405.56851,320761.8068828,84
1659001405.56851,320761.8068871,63
1659001405.56851,320761.8068913,325
1659001405.56851,320761.806896,1003
1659001405.56851,320761.8069002,1604
1659001405.56851,320761.8069047,1512
1659001405.56851,320761.8069089,662
1659001405.56851,320761.8069129,-183
1659001405.56851,320761.8069186,-207
1659001405.56851,320761.8069229,61
1659001405.56851,320761.8069271,-51
1659001405.56851,320761.8069312,-136
1659001405.56851,320761.8069353,-28
1659001405.56851,320761.8069394,-18
1659001405.56851,320761.8069437,-47
1659001405.56851,320761.8069479,-2
1659001405.56851,320762.3433715,4
1659001405.56851,320762.3433922,-16
1659001405.56851,320762.3433998,-7
1659001405.56851,320762.3434048,4
1659001406.19359,320762.3434114,4
1659001406.19359,320762.343416,9
1659001406.19359,320762.3434207,23
1659001406.19359,320762.3434251,42
1659001406.19359,320762.3434297,51
1659001406.19359,320762.3434342,47
1659001406.19359,320762.3434385,58
1659001406.19359,320762.3434426,84
1659001406.19359,320762.343447,98
1659001406.19359,320762.3434517,106
1659001406.19359,320762.3434558,103
1659001406.19359,320762.34346,87
1659001406.19359,320762.3434644,63
1659001406.19359,320762.3434705,56
1659001406.19359,320762.3434747,42
1659001406.19359,320762.3434816,21
1659001406.19359,320762.343486,9
1659001406.19359,320762.343494,-14
1659001406.19359,320762.343499,-42
1659001406.19359,320762.3435045,-40
1659001406.19359,320762.3435084,-23
1659001406.19359,320762.3435134,-23
1659001406.19359,320762.3435171,-23
1659001406.19359,320762.3435217,-23
1659001406.19359,320762.3435254,-30
1659001406.19359,320762.3435307,-28
1659001406.19359,320762.3435344,2
1659001406.19359,320762.3435394,42
1659001406.19359,320762.343544,54
1659001406.19359,320762.3435488,40
1659001406.19359,320762.3435525,30
1659001406.19359,320762.3435574,35
1659001406.19359,320762.3435611,35
1659001406.19359,320762.3435661,37
1659001406.19359,320762.3435706,44
1659001406.19359,320762.3435758,44
1659001406.19359,320762.3435795,30
1659001406.19359,320762.3435831,14
1659001406.19359,320762.3435868,25
1659001406.19359,320762.3435904,61
1659001406.19359,320762.3435941,75
1659001406.19359,320762.3435977,68
1659001406.19359,320762.3436012,70
1659001406.19359,320762.3436068,70
1659001406.19359,320762.3436103,68
1659001406.19359,320762.3436138,73
1659001406.19359,320762.3436194,77
1659001406.19359,320762.343623,77
1659001406.19359,320762.3436267,65
1659001406.19359,320762.3436318,44
1659001406.20556,320762.3436353,30
1659001406.20556,320762.3436387,51
1659001406.20556,320762.3436424,89
1659001406.20556,320762.343646,96
1659001406.20556,320762.343651,73
1659001406.20556,320762.3436547,56
1659001406.20556,320762.3436585,70
1659001406.20556,320762.3436622,103
1659001406.20556,320762.3436658,141
1659001406.20556,320762.3436694,153
1659001406.20556,320762.3436747,127
1659001406.20556,320762.3436782,96
1659001406.20556,320762.3436816,70
1659001406.20556,320762.3436857,56
1659001406.20556,320762.3436924,58
1659001406.20556,320762.3436967,61
1659001406.20556,320762.3437034,68
1659001406.20556,320762.3437106,91
1659001406.20556,320762.3437197,94
1659001406.20556,320762.9769382,63
1659001406.20556,320762.9769595,16
1659001406.20556,320762.9769691,120
1659001406.20556,320762.9769752,643
1659001406.20556,320762.9769819,1352
1659001406.72167,320762.9769865,1554
1659001406.72167,320762.976991,925
1659001406.72167,320762.9769954,-11
1659001406.72167,320762.9769997,-310
1659001406.72167,320762.9770043,-40
1659001406.72167,320762.9770087,-30
1659001406.72167,320762.9770129,-183
1659001406.72167,320762.9770172,-106
1659001406.72167,320762.9770216,-44
1659001406.72167,320762.977026,-98
1659001406.72167,320762.9770305,-89
1659001406.72167,320762.977041,-47
1659001406.72167,320762.9770453,-56
1659001406.72167,320762.9770497,-68
1659001406.72167,320762.9770558,-44
1659001406.72167,320762.9770601,-16
1659001406.72167,320762.9770659,-4
1659001406.72167,320762.97707,4
1659001406.72167,320762.9770763,25
1659001406.72167,320762.9770829,44
1659001406.72167,320762.9770894,58
1659001406.72167,320762.9770935,75
1659001406.72167,320762.9770976,91
1659001406.72167,320762.9771017,98
1659001406.72167,320762.9771058,108
1659001406.72167,320762.9771099,117
1659001406.72167,320762.9771139,120
1659001406.72167,320762.9771179,120
1659001406.72167,320762.9771219,115
1659001406.72167,320762.9771261,98
1659001406.72167,320762.9771297,73
1659001406.72167,320762.9771331,51
1659001406.72167,320762.9771368,25
1659001406.72167,320762.9771409,-2
1659001406.72167,320762.977145,0
1659001406.72167,320762.977149,18
1659001406.72167,320762.9771534,14
1659001406.72167,320762.9771577,7
1659001406.72167,320762.9771618,25
1659001406.72167,320762.9771658,28
1659001406.72167,320762.9771698,11
1659001406.72167,320762.9771737,14
1659001406.72167,320762.9771779,25
1659001406.72167,320762.9771821,37
1659001406.72167,320762.9771865,56
1659001406.72167,320762.9771905,61
1659001406.72167,320762.9771946,51
1659001406.72167,320762.9771986,47
1659001406.72167,320762.9772027,44
1659001406.72167,320762.9772069,51
1659001406.73264,320762.9772109,61
1659001406.73264,320762.9772149,44
1659001406.73264,320762.9772182,25
1659001406.73264,320762.9772213,49
1659001406.73264,320762.9772245,84
1659001406.73264,320762.9772289,75
1659001406.73264,320762.9772322,65
1659001406.73264,320762.9772352,68
1659001406.73264,320762.9772385,58
1659001406.73264,320762.9772419,56
1659001406.73264,320762.9772458,65
1659001406.73264,320762.9772497,70
1659001406.73264,320762.9772536,75
1659001406.73264,320762.9772575,94
1659001406.73264,320762.9772613,110
1659001406.73264,320762.9772651,106
1659001406.73264,320762.9772691,89
1659001406.73264,320762.9772731,89
1659001406.73264,320763.5151057,87
1659001406.73264,320763.515129,77
1659001406.73264,320763.5151505,73
1659001406.73264,320763.5151594,73
1659001406.73264,320763.5151666,82
1659001406.73264,320763.5151728,103
1659001407.27132,320763.5151791,129
1659001407.27132,320763.5151825,164
1659001407.27132,320763.515187,157
1659001407.27132,320763.5151935,101
1659001407.27132,320763.5151998,70
1659001407.27132,320763.5152059,70
1659001407.27132,320763.5152104,54
1659001407.27132,320763.5152164,49
1659001407.27132,320763.5152199,68
1659001407.27132,320763.5152248,68
1659001407.27132,320763.5152301,56
1659001407.27132,320763.5152339,65
1659001407.27132,320763.5152375,56
1659001407.27132,320763.5152409,25
1659001407.27132,320763.5152444,197
1659001407.27132,320763.5152474,786
1659001407.27132,320763.515253,1441
1659001407.27132,320763.5152576,1512
1659001407.27132,320763.5152628,779
1659001407.27132,320763.5152694,-124
1659001407.27132,320763.5152748,-275
1659001407.27132,320763.5152786,21
1659001407.27132,320763.5152864,-25
1659001407.27132,320763.5152929,-155
1659001407.27132,320763.5153011,-68
1659001407.27132,320763.5153068,-35
1659001407.27132,320763.5153126,-68
1659001407.27132,320763.5153212,-30
1659001407.27132,320763.5153282,4
1659001407.27132,320763.5153372,-9
1659001407.27132,320763.5153443,-7
1659001407.27132,320763.5153531,16
1659001407.27132,320763.5153599,16
1659001407.27132,320763.5153683,14
1659001407.27132,320763.5153751,30
1659001407.27132,320763.5153827,47
1659001407.27132,320763.5153894,68
1659001407.27132,320763.5153976,96
1659001407.27132,320763.515404,110
1659001407.27132,320763.515412,129
1659001407.27132,320763.5154184,164
1659001407.27132,320763.5154266,167
1659001407.27132,320763.515432,136
1659001407.27132,320763.5154386,139
1659001407.27132,320763.5154426,157
1659001407.27132,320763.5154481,146
1659001407.27132,320763.5154531,106
1659001407.27132,320763.5154569,84
1659001407.27132,320763.5154629,89
1659001407.27132,320763.5154668,73
1659001407.28528,320763.5154721,37
1659001407.28528,320763.5154759,30
1659001407.28528,320763.5154816,32
1659001407.28528,320763.5154859,23
1659001407.28528,320763.5154903,21
1659001407.28528,320763.5154935,30
1659001407.28528,320763.5154982,44
1659001407.28528,320763.5155016,63
1659001407.28528,320763.5155047,70
1659001407.28528,320763.5155099,73
1659001407.28528,320763.5155146,82
1659001407.28528,320763.5155182,82
1659001407.28528,320763.5155215,73
1659001407.28528,320763.5155252,65
1659001407.28528,320763.515529,65
1659001407.28528,320763.5155328,65
1659001407.28528,320763.515538,65
1659001407.28528,320764.049101,65
1659001407.28528,320764.0491213,63
1659001407.28528,320764.0491314,65
1659001407.28528,320764.0491383,77
1659001407.28528,320764.0491464,89
1659001407.28528,320764.0491529,73
1659001407.28528,320764.0491594,63
1659001407.80549,320764.0491635,75
1659001407.80549,320764.0491698,73
1659001407.80549,320764.0491762,63
1659001407.80549,320764.0491821,61
1659001407.80549,320764.0491893,58
1659001407.80549,320764.049196,54
1659001407.80549,320764.0492028,56
1659001407.80549,320764.0492097,54
1659001407.80549,320764.0492169,49
1659001407.80549,320764.0492242,54
1659001407.80549,320764.049231,56
1659001407.80549,320764.0492371,56
1659001407.80549,320764.0492412,75
1659001407.80549,320764.0492456,106
1659001407.80549,320764.0492512,108
1659001407.80549,320764.0492573,101
1659001407.80549,320764.0492643,98
1659001407.80549,320764.0492765,49
1659001407.80549,320764.0492835,-9
1659001407.80549,320764.0492874,-2
1659001407.80549,320764.049291,16
1659001407.80549,320764.0492946,16
1659001407.80549,320764.0492998,21
1659001407.80549,320764.0493047,14
1659001407.80549,320764.0493111,0
1659001407.80549,320764.0493154,-21
1659001407.80549,320764.0493232,70
1659001407.80549,320764.0493296,570
1659001407.80549,320764.0493327,1283
1659001407.80549,320764.0493452,1557
1659001407.80549,320764.0493518,1041
1659001407.80549,320764.0493581,77
1659001407.80549,320764.0493666,-362
1659001407.80549,320764.0493747,-80
1659001407.80549,320764.0493808,18
1659001407.80549,320764.0493866,-150
1659001407.80549,320764.0493919,-113
1659001407.80549,320764.0493982,-37
1659001407.80549,320764.0494036,-84
1659001407.80549,320764.0494173,-87
1659001407.80549,320764.049426,-25
1659001407.80549,320764.049431,0
1659001407.80549,320764.0494392,-4
1659001407.80549,320764.0494458,7
1659001407.80549,320764.0494492,32
1659001407.80549,320764.0494551,37
1659001407.80549,320764.0494585,42
1659001407.80549,320764.0494654,63
1659001407.80549,320764.0494718,80
1659001407.80549,320764.0494781,84
1659001407.81867,320764.0494815,98
1659001407.81867,320764.0494874,131
1659001407.81867,320764.0494907,176
1659001407.81867,320764.0494964,188
1659001407.81867,320764.0494996,169
1659001407.81867,320764.0495049,157
1659001407.81867,320764.0495088,153
1659001407.81867,320764.0495139,141
1659001407.81867,320764.0495221,122
1659001407.81867,320764.04953,91
1659001407.81867,320764.0495375,61
1659001407.81867,320764.0495429,44
1659001407.81867,320764.0495487,40
1659001407.81867,320764.0495567,25
1659001407.81867,320764.0495646,0
1659001407.81867,320764.0495698,-2
1659001407.81867,320764.5860545,21
1659001407.81867,320764.5860793,35
1659001407.81867,320764.5860877,25
1659001407.81867,320764.5860953,25
1659001407.81867,320764.5861014,44
1659001407.81867,320764.5861049,51
1659001407.81867,320764.586108,47
1659001407.81867,320764.5861111,42
1659001408.37884,320764.5861144,32
1659001408.37884,320764.5861178,28
1659001408.37884,320764.586121,37
1659001408.37884,320764.5861266,40
1659001408.37884,320764.5861337,28
1659001408.37884,320764.5861407,25
1659001408.37884,320764.5861452,21
1659001408.37884,320764.5861486,2
1659001408.37884,320764.5861519,-7
1659001408.37884,320764.5861576,7
1659001408.37884,320764.5861637,21
1659001408.37884,320764.5861697,28
1659001408.37884,320764.5861761,28
1659001408.37884,320764.5861798,25
1659001408.37884,320764.5861832,21
1659001408.37884,320764.5861865,7
1659001408.37884,320764.5861898,0
1659001408.37884,320764.5861937,7
1659001408.37884,320764.5861986,11
1659001408.37884,320764.5862023,7
1659001408.37884,320764.5862064,9
1659001408.37884,320764.5862123,16
1659001408.37884,320764.5862183,25
1659001408.37884,320764.5862235,56
1659001408.37884,320764.5862304,84
1659001408.37884,320764.5862373,70
1659001408.37884,320764.5862414,44
1659001408.37884,320764.5862444,47
1659001408.37884,320764.5862476,28
1659001408.37884,320764.5862508,-4
1659001408.37884,320764.5862549,-2
1659001408.37884,320764.5862581,23
1659001408.37884,320764.5862613,35
1659001408.37884,320764.5862645,40
1659001408.37884,320764.5862677,42
1659001408.37884,320764.5862718,18
1659001408.37884,320764.5862762,18
1659001408.37884,320764.5862806,270
1659001408.37884,320764.5862845,911
1659001408.37884,320764.5862884,1493
1659001408.37884,320764.5862923,1420
1659001408.37884,320764.5862964,617
1659001408.37884,320764.5863004,-195
1659001408.37884,320764.5863047,-235
1659001408.37884,320764.5863081,35
1659001408.37884,320764.5863113,-42
1659001408.37884,320764.5863157,-127
1659001408.37884,320764.5863191,-44
1659001408.37884,320764.5863223,-35
1659001408.37884,320764.5863256,-51
1659001408.39081,320764.5863297,-14
1659001408.39081,320764.5863328,-7
1659001408.39081,320764.586338,-25
1659001408.39081,320764.5863414,-9
1659001408.39081,320764.5863446,18
1659001408.39081,320764.5863482,28
1659001408.39081,320764.5863515,30
1659001408.39081,320764.5863549,44
1659001408.39081,320764.5863588,63
1659001408.39081,320764.5863624,80
1659001408.39081,320764.5863659,89
1659001408.39081,320764.5863693,101
1659001408.39081,320764.5863727,127
1659001408.39081,320764.5863758,143
1659001408.39081,320764.5863791,129
1659001408.39081,320765.1707472,120
1659001408.39081,320765.1707667,136
1659001408.39081,320765.1707715,150
1659001408.39081,320765.1707752,139
1659001408.39081,320765.1707819,113
1659001408.39081,320765.1707854,75
1659001408.39081,320765.1707889,30
1659001408.39081,320765.1707927,0
1659001408.39081,320765.1708006,-16
1659001408.92018,320765.1708049,-14
1659001408.92018,320765.1708085,7
1659001408.92018,320765.1708117,7
1659001408.92018,320765.1708168,-14
1659001408.92018,320765.1708225,-14
1659001408.92018,320765.1708314,-4
1659001408.92018,320765.1708414,-4
1659001408.92018,320765.170848,-2
1659001408.92018,320765.1708537,4
1659001408.92018,320765.1708605,2
1659001408.92018,320765.1708658,0
1659001408.92018,320765.1708763,7
1659001408.92018,320765.1708922,4
1659001408.92018,320765.1709002,-14
1659001408.92018,320765.1709045,-16
1659001408.92018,320765.1709172,2
1659001408.92018,320765.1709285,16
1659001408.92018,320765.1709425,7
1659001408.92018,320765.1709582,2
1659001408.92018,320765.1709704,21
1659001408.92018,320765.1709854,30
1659001408.92018,320765.170997,18
1659001408.92018,320765.171009,16
1659001408.92018,320765.1710174,23
1659001408.92018,320765.1710288,25
1659001408.92018,320765.1710414,40
1659001408.92018,320765.1710511,56
1659001408.92018,320765.1710573,44
1659001408.92018,320765.1710677,21
1659001408.92018,320765.1710757,16
1659001408.92018,320765.1710783,18
1659001408.92018,320765.1710805,30
1659001408.92018,320765.1710826,65
1659001408.92018,320765.1710847,108
1659001408.92018,320765.1710939,127
1659001408.92018,320765.171105,110
1659001408.92018,320765.1711187,84
1659001408.92018,320765.1711304,56
1659001408.92018,320765.1711418,16
1659001408.92018,320765.1711569,0
1659001408.92018,320765.1711715,32
1659001408.92018,320765.1711812,49
1659001408.92018,320765.1711877,44
1659001408.92018,320765.1712005,56
1659001408.92018,320765.171211,54
1659001408.92018,320765.1712149,18
1659001408.92018,320765.17122,21
1659001408.92018,320765.1712255,303
1659001408.92018,320765.1712307,954
1659001408.92018,320765.1712342,1472
1659001408.93315,320765.1712382,1279
1659001408.93315,320765.1712449,426
1659001408.93315,320765.1712481,-249
1659001408.93315,320765.1712525,-160
1659001408.93315,320765.1712575,51
1659001408.93315,320765.1712704,-73
1659001408.93315,320765.1712835,-120
1659001408.93315,320765.1712975,-30
1659001408.93315,320765.1713128,-35
1659001408.93315,320765.171374,-47
1659001408.93315,320765.1713865,-4
1659001408.93315,320765.1713927,2
1659001408.93315,320765.1713972,-11
1659001408.93315,320765.1714006,11
1659001408.93315,320765.7065374,40
1659001408.93315,320765.7065557,44
1659001408.93315,320765.7065627,54
1659001408.93315,320765.7065709,65
1659001408.93315,320765.7065763,73
1659001408.93315,320765.7065856,82
1659001408.93315,320765.7065934,106
1659001408.93315,320765.7066002,131
1659001408.93315,320765.7066114,134
1659001408.93315,320765.7066171,127
1659001409.49897,320765.7066192,129
1659001409.49897,320765.7066213,124
1659001409.49897,320765.7066232,113
1659001409.49897,320765.7066291,108
1659001409.49897,320765.7066408,89
1659001409.49897,320765.7066481,49
1659001409.49897,320765.7066526,18
1659001409.49897,320765.7066566,16
1659001409.49897,320765.7066606,7
1659001409.49897,320765.7066648,-7
1659001409.49897,320765.7066712,-4
1659001409.49897,320765.7066748,-4
1659001409.49897,320765.7066783,-11
1659001409.49897,320765.7066817,-4
1659001409.49897,320765.7066855,7
1659001409.49897,320765.7066892,18
1659001409.49897,320765.7066925,28
1659001409.49897,320765.7066958,30
1659001409.49897,320765.706699,23
1659001409.49897,320765.7067032,28
1659001409.49897,320765.7067067,49
1659001409.49897,320765.706714,58
1659001409.49897,320765.7067198,51
1659001409.49897,320765.7067259,51
1659001409.49897,320765.7067347,58
1659001409.49897,320765.706742,47
1659001409.49897,320765.706749,32
1659001409.49897,320765.7067526,42
1659001409.49897,320765.7067562,58
1659001409.49897,320765.70676,56
1659001409.49897,320765.7067664,44
1659001409.49897,320765.7067709,49
1659001409.49897,320765.7067775,65
1659001409.49897,320765.7067847,75
1659001409.49897,320765.7067936,63
1659001409.49897,320765.7068002,54
1659001409.49897,320765.7068055,58
1659001409.49897,320765.7068147,54
1659001409.49897,320765.7068215,49
1659001409.49897,320765.7068256,77
1659001409.49897,320765.7068307,124
1659001409.49897,320765.7068345,150
1659001409.49897,320765.7068381,136
1659001409.49897,320765.7068432,108
1659001409.49897,320765.7068466,89
1659001409.49897,320765.7068526,61
1659001409.49897,320765.7068618,28
1659001409.49897,320765.7068688,21
1659001409.49897,320765.706878,30
1659001409.49897,320765.7068867,54
1659001409.51094,320765.7068938,80
1659001409.51094,320765.7069014,82
1659001409.51094,320765.7069093,56
1659001409.51094,320765.7069158,28
1659001409.51094,320765.7069201,209
1659001409.51094,320765.7069231,803
1659001409.51094,320765.7069263,1415
1659001409.51094,320765.7069384,1446
1659001409.51094,320765.7069459,737
1659001409.51094,320765.7069502,-129
1659001409.51094,320765.7069558,-273
1659001409.51094,320765.7069598,44
1659001409.51094,320765.706965,18
1659001409.51094,320766.2920176,-120
1659001409.51094,320766.2920424,-56
1659001409.51094,320766.2920588,-35
1659001409.51094,320766.2920762,-80
1659001409.51094,320766.2920906,-73
1659001409.51094,320766.2921045,-54
1659001409.51094,320766.2921191,-47
1659001409.51094,320766.2921278,-25
1659001409.51094,320766.2921308,-21
1659001409.51094,320766.292133,-4
1659001409.51094,320766.2921352,30
1659001410.14162,320766.2921373,35
1659001410.14162,320766.2921393,21
1659001410.14162,320766.2921418,42
1659001410.14162,320766.2921497,65
1659001410.14162,320766.2921614,87
1659001410.14162,320766.2921679,127
1659001410.14162,320766.2921723,146
1659001410.14162,320766.2921794,127
1659001410.14162,320766.2921856,122
1659001410.14162,320766.2921953,129
1659001410.14162,320766.2922074,124
1659001410.14162,320766.2922179,117
1659001410.14162,320766.2922213,108
1659001410.14162,320766.292225,84
1659001410.14162,320766.292227,58
1659001410.14162,320766.2922292,44
1659001410.14162,320766.2922327,32
1659001410.14162,320766.2922461,21
1659001410.14162,320766.2922519,23
1659001410.14162,320766.2922542,30
1659001410.14162,320766.2922562,35
1659001410.14162,320766.2922582,37
1659001410.14162,320766.2922605,35
1659001410.14162,320766.2922684,42
1659001410.14162,320766.2922791,65
1659001410.14162,320766.2922833,77
1659001410.14162,320766.2922855,73
1659001410.14162,320766.292288,87
1659001410.14162,320766.2922956,96
1659001410.14162,320766.2923064,82
1659001410.14162,320766.2923098,77
1659001410.14162,320766.2923135,80
1659001410.14162,320766.2923161,75
1659001410.14162,320766.2923263,73
1659001410.14162,320766.2923351,82
1659001410.14162,320766.2923375,91
1659001410.14162,320766.2923396,94
1659001410.14162,320766.2923417,87
1659001410.14162,320766.292347,94
1659001410.14162,320766.292359,108
1659001410.14162,320766.2923725,91
1659001410.14162,320766.2923866,58
1659001410.14162,320766.2923997,80
1659001410.14162,320766.2924099,129
1659001410.14162,320766.2924215,160
1659001410.14162,320766.2924325,181
1659001410.14162,320766.2924409,167
1659001410.14162,320766.2924455,134
1659001410.14162,320766.2924517,113
1659001410.14162,320766.2924595,84
1659001410.15957,320766.292467,63
1659001410.15957,320766.2924758,68
1659001410.15957,320766.2924832,73
1659001410.15957,320766.2924899,73
1659001410.15957,320766.2924956,89
1659001410.15957,320766.2924998,87
1659001410.15957,320766.2925072,14
1659001410.15957,320766.2925121,49
1659001410.15957,320766.2925155,523
1659001410.15957,320766.29252,1229
1659001410.15957,320766.2925264,1531
1659001410.15957,320766.2925324,1097
1659001410.15957,320766.9252997,167
1659001410.15957,320766.9253273,-343
1659001410.15957,320766.9253329,-101
1659001410.15957,320766.9253374,21
1659001410.15957,320766.9253416,-148
1659001410.15957,320766.9253458,-129
1659001410.15957,320766.9253501,-56
1659001410.15957,320766.9253542,-98
1659001410.15957,320766.9253581,-101
1659001410.15957,320766.9253619,-56
1659001410.15957,320766.9253659,-42
1659001410.15957,320766.9253699,-49
1659001410.68064,320766.9253738,-47
1659001410.68064,320766.9253778,-37
1659001410.68064,320766.9253818,-32
1659001410.68064,320766.9253856,-32
1659001410.68064,320766.9253895,-14
1659001410.68064,320766.9254021,2
1659001410.68064,320766.9254071,7
1659001410.68064,320766.925411,18
1659001410.68064,320766.9254141,51
1659001410.68064,320766.9254184,75
1659001410.68064,320766.9254238,68
1659001410.68064,320766.9254295,58
1659001410.68064,320766.9254336,51
1659001410.68064,320766.9254383,42
1659001410.68064,320766.9254421,25
1659001410.68064,320766.9254452,4
1659001410.68064,320766.9254486,-18
1659001410.68064,320766.9254523,-23
1659001410.68064,320766.9254577,-21
1659001410.68064,320766.9254614,-28
1659001410.68064,320766.9254674,-32
1659001410.68064,320766.9254729,-21
1659001410.68064,320766.9254787,-14
1659001410.68064,320766.9254827,-16
1659001410.68064,320766.9254869,-11
1659001410.68064,320766.9254901,2
1659001410.68064,320766.9254966,18
1659001410.68064,320766.9255016,28
1659001410.68064,320766.9255078,30
1659001410.68064,320766.9255111,30
1659001410.68064,320766.9255142,35
1659001410.68064,320766.9255171,32
1659001410.68064,320766.92552,35
1659001410.68064,320766.9255245,44
1659001410.68064,320766.9255297,42
1659001410.68064,320766.925534,35
1659001410.68064,320766.9255379,40
1659001410.68064,320766.9255451,49
1659001410.68064,320766.9255511,56
1659001410.68064,320766.9255554,68
1659001410.68064,320766.9255597,73
1659001410.68064,320766.9255648,65
1659001410.68064,320766.9255695,54
1659001410.68064,320766.9255727,56
1659001410.68064,320766.9255757,75
1659001410.68064,320766.9255786,115
1659001410.68064,320766.9255827,141
1659001410.68064,320766.9255879,115
1659001410.68064,320766.9255927,82
1659001410.68064,320766.9255959,82
1659001410.69261,320766.9255993,65
1659001410.69261,320766.9256066,44
1659001410.69261,320766.9256121,56
1659001410.69261,320766.9256154,54
1659001410.69261,320766.9256231,42
1659001410.69261,320766.9256285,49
1659001410.69261,320766.9256317,44
1659001410.69261,320766.9256385,-2
1659001410.69261,320766.9256445,122
1659001410.69261,320766.9256478,695
1659001410.69261,320766.9256546,1364
1659001410.69261,320767.4621228,1493
1659001410.69261,320767.4621359,874
1659001410.69261,320767.4621388,-25
1659001410.69261,320767.4621432,-285
1659001410.69261,320767.4621462,7
1659001410.69261,320767.4621538,4
1659001410.69261,320767.4621617,-150
1659001410.69261,320767.4621691,-75
1659001410.69261,320767.4621735,-25
1659001410.69261,320767.4621774,-70
1659001410.69261,320767.4621821,-54
1659001410.69261,320767.462186,-32
1659001410.69261,320767.46219,-58
1659001411.16606,320767.4621936,-63
1659001411.16606,320767.4621977,-47
1659001411.16606,320767.4622017,-40
1659001411.16606,320767.4622058,-30
1659001411.16606,320767.4622097,-18
1659001411.16606,320767.4622135,-14
1659001411.16606,320767.4622172,0
1659001411.16606,320767.4622209,11
1659001411.16606,320767.4622245,14
1659001411.16606,320767.4622283,25
1659001411.16606,320767.4622322,42
1659001411.16606,320767.4622361,32
1659001411.16606,320767.46224,9
1659001411.16606,320767.4622438,16
1659001411.16606,320767.4622478,28
1659001411.16606,320767.4622515,18
1659001411.16606,320767.4622556,4
1659001411.16606,320767.4622595,-16
1659001411.16606,320767.4622632,-47
1659001411.16606,320767.4622672,-56
1659001411.16606,320767.4622708,-47
1659001411.16606,320767.4622745,-37
1659001411.16606,320767.4622785,-32
1659001411.16606,320767.4622829,-35
1659001411.16606,320767.4622868,-35
1659001411.16606,320767.4622908,-21
1659001411.16606,320767.4622944,-2
1659001411.16606,320767.4622979,0
1659001411.16606,320767.4623017,-4
1659001411.16606,320767.4623063,-7
1659001411.16606,320767.4623099,-7
1659001411.16606,320767.4623134,7
1659001411.16606,320767.4623168,23
1659001411.16606,320767.4623218,25
1659001411.16606,320767.4623257,30
1659001411.16606,320767.4623297,35
1659001411.16606,320767.4623347,23
1659001411.16606,320767.4623388,14

1659001411.16606,320767.4623428,14
1659001411.16606,320767.4623493,2
1659001411.16606,320767.4623534,-7
1659001411.16606,320767.4623599,2
1659001411.16606,320767.4623643,18
1659001411.16606,320767.46237,35
1659001411.16606,320767.4623743,63
1659001411.16606,320767.4623799,106
1659001411.16606,320767.4623833,117
1659001411.16606,320767.4623886,87
1659001411.16606,320767.4623918,54
1659001411.16606,320767.4623968,30
1659001411.18601,320767.4624005,9
1659001411.18601,320767.4624055,14
1659001411.18601,320767.4624091,35
1659001411.18601,320767.4624126,44
1659001411.18601,320767.4624182,47
1659001411.18601,320767.4624215,44
1659001411.18601,320767.462425,4
1659001411.18601,320767.4624282,16
1659001411.18601,320767.4624324,381
1659001411.18601,320767.4624373,1020
1659001411.18601,320767.9503945,1331
1659001411.18601,320767.9504191,951
1659001411.18601,320767.9504303,141
1659001411.18601,320767.9504376,-266
1659001411.18601,320767.9504415,-30
1659001411.18601,320767.9504495,68
1659001411.18601,320767.9504546,-77
1659001411.18601,320767.9504617,-40
1659001411.18601,320767.9504651,18
1659001411.18601,320767.9504714,-30
1659001411.18601,320767.9504746,-30
1659001411.18601,320767.9504819,7
1659001411.18601,320767.9504867,2
1659001411.18601,320767.9504901,4
1659001411.74095,320767.9504962,16
1659001411.74095,320767.9505028,9
1659001411.74095,320767.9505101,14
1659001411.74095,320767.9505169,40
1659001411.74095,320767.9505242,63
1659001411.74095,320767.9505315,77
1659001411.74095,320767.9505363,96
1659001411.74095,320767.9505401,101
1659001411.74095,320767.9505463,94
1659001411.74095,320767.9506304,110
1659001411.74095,320767.9506421,127
1659001411.74095,320767.9506485,117
1659001411.74095,320767.9506544,106
1659001411.74095,320767.9506601,101
1659001411.74095,320767.9506658,89
1659001411.74095,320767.9506713,58
1659001411.74095,320767.9506881,18
1659001411.74095,320767.9507012,-11
1659001411.74095,320767.9507062,-21
1659001411.74095,320767.9507094,-30
1659001411.74095,320767.9507139,-44
1659001411.74095,320767.9507178,-51
1659001411.74095,320767.950723,-54
1659001411.74095,320767.9507265,-37
1659001411.74095,320767.9507298,-16
1659001411.74095,320767.950733,-16
1659001411.74095,320767.9507365,-28
1659001411.74095,320767.9507398,-23
1659001411.74095,320767.9507431,-2
1659001411.74095,320767.950749,0
1659001411.74095,320767.9507557,-21
1659001411.74095,320767.9507594,-25
1659001411.74095,320767.9507624,-9
1659001411.74095,320767.9507655,0
1659001411.74095,320767.9507686,-14
1659001411.74095,320767.9507716,-18
1659001411.74095,320767.9507746,-9
1659001411.74095,320767.9507776,-2
1659001411.74095,320767.9507806,0
1659001411.74095,320767.9507834,2
1659001411.74095,320767.9507863,4
1659001411.74095,320767.9507893,2
1659001411.74095,320767.9507922,21
1659001411.74095,320767.9507951,61
1659001411.74095,320767.950798,94
1659001411.74095,320767.950801,103
1659001411.74095,320767.9508039,84
1659001411.74095,320767.9508069,54
1659001411.74095,320767.9508098,32
1659001411.74095,320767.9508127,30
1659001411.75292,320767.9508156,35
1659001411.75292,320767.9508185,30
1659001411.75292,320767.9508214,32
1659001411.75292,320767.9508249,47
1659001411.75292,320767.9508314,42
1659001411.75292,320767.9508356,-7
1659001411.75292,320767.9508397,56
1659001411.75292,320767.9508449,534
1659001411.75292,320767.9508498,1222
1659001411.75292,320768.5351119,1455
1659001411.75292,320768.5351253,918
1659001411.75292,320768.53513,32
1659001411.75292,320768.5351343,-292
1659001411.75292,320768.5351371,-18
1659001411.75292,320768.5351402,9
1659001411.75292,320768.535143,-157
1659001411.75292,320768.5351456,-82
1659001411.75292,320768.5351482,-9
1659001411.75292,320768.5351506,-63
1659001411.75292,320768.5351532,-68
1659001411.75292,320768.5351557,-37
1659001411.75292,320768.5351582,-40
1659001411.75292,320768.5351608,-30
1659001411.75292,320768.5351633,-7
1659001412.37843,320768.5351658,4
1659001412.37843,320768.5351683,9
1659001412.37843,320768.5351711,18
1659001412.37843,320768.5351736,40
1659001412.37843,320768.5351761,49
1659001412.37843,320768.5351784,42
1659001412.37843,320768.5351808,49
1659001412.37843,320768.5351831,91
1659001412.37843,320768.5351854,110
1659001412.37843,320768.5351877,80
1659001412.37843,320768.5351901,58
1659001412.37843,320768.5351932,89
1659001412.37843,320768.5351956,115
1659001412.37843,320768.5351979,103
1659001412.37843,320768.5352002,82
1659001412.37843,320768.5352044,63
1659001412.37843,320768.5352089,30
1659001412.37843,320768.5352139,9
1659001412.37843,320768.5352208,9
1659001412.37843,320768.5352261,0
1659001412.37843,320768.5352302,-9
1659001412.37843,320768.535234,2
1659001412.37843,320768.535236,2
1659001412.37843,320768.5352382,-16
1659001412.37843,320768.5352402,-18
1659001412.37843,320768.5352423,-14
1659001412.37843,320768.5352443,-14
1659001412.37843,320768.5352463,-11
1659001412.37843,320768.5352484,-2
1659001412.37843,320768.5352511,7
1659001412.37843,320768.5352534,9
1659001412.37843,320768.5352555,9
1659001412.37843,320768.5352576,11
1659001412.37843,320768.5352597,4
1659001412.37843,320768.5352618,0
1659001412.37843,320768.5352639,4
1659001412.37843,320768.5352659,14
1659001412.37843,320768.5352679,11
1659001412.37843,320768.53527,0
1659001412.37843,320768.535272,9
1659001412.37843,320768.5352742,47
1659001412.37843,320768.5352762,84
1659001412.37843,320768.5352782,108
1659001412.37843,320768.5352802,106
1659001412.37843,320768.5352823,80
1659001412.37843,320768.5352844,56
1659001412.37843,320768.5352865,32
1659001412.37843,320768.5352885,23
1659001412.37843,320768.5352906,30
1659001412.37843,320768.5352926,32
1659001412.39539,320768.5352946,30
1659001412.39539,320768.5352967,35
1659001412.39539,320768.5352987,25
1659001412.39539,320768.5353007,-21
1659001412.39539,320768.5353027,87
1659001412.39539,320768.5353047,581
1659001412.39539,320768.5353067,1156
1659001412.39539,320768.5353088,1267
1659001412.39539,320769.1686305,711
1659001412.39539,320769.1686428,-68
1659001412.39539,320769.1686466,-228
1659001412.39539,320769.1686488,65
1659001412.39539,320769.1686509,44
1659001412.39539,320769.168653,-87
1659001412.39539,320769.1686551,-7
1659001412.39539,320769.1686571,37
1659001412.39539,320769.1686591,-14
1659001412.39539,320769.1686619,-21
1659001412.39539,320769.1686689,2
1659001412.39539,320769.1687074,18
1659001412.39539,320769.1687144,42
1659001412.39539,320769.1687168,58
1659001412.39539,320769.168719,54
1659001412.39539,320769.168721,51
1659001412.86657,320769.168723,68
1659001412.86657,320769.168725,87
1659001412.86657,320769.1687271,103
1659001412.86657,320769.1687291,129
1659001412.86657,320769.168731,150
1659001412.86657,320769.1687329,162
1659001412.86657,320769.1687348,162
1659001412.86657,320769.1687367,150
1659001412.86657,320769.1687386,143
1659001412.86657,320769.1687415,160
1659001412.86657,320769.1687488,167
1659001412.86657,320769.1687554,141
1659001412.86657,320769.1687599,101
1659001412.86657,320769.1687768,58
1659001412.86657,320769.1687953,18
1659001412.86657,320769.1688048,2
1659001412.86657,320769.1688161,7
1659001412.86657,320769.1688205,-4
1659001412.86657,320769.1688227,-21
1659001412.86657,320769.1688249,-16
1659001412.86657,320769.168827,-7
1659001412.86657,320769.1688291,9
1659001412.86657,320769.1688311,32
1659001412.86657,320769.1688365,32
1659001412.86657,320769.168848,11
1659001412.86657,320769.1688533,9
1659001412.86657,320769.1688555,35
1659001412.86657,320769.1688576,56
1659001412.86657,320769.1688603,56
1659001412.86657,320769.1688704,51
1659001412.86657,320769.1688783,42
1659001412.86657,320769.1688807,32
1659001412.86657,320769.1688827,40
1659001412.86657,320769.1688849,49
1659001412.86657,320769.1688869,42
1659001412.86657,320769.1688889,35
1659001412.86657,320769.1688909,37
1659001412.86657,320769.168893,65
1659001412.86657,320769.1688951,113
1659001412.86657,320769.168897,127
1659001412.86657,320769.1688999,82
1659001412.86657,320769.168902,42
1659001412.86657,320769.1689041,23
1659001412.86657,320769.1689078,14
1659001412.86657,320769.1689101,21
1659001412.86657,320769.1689136,40
1659001412.86657,320769.1689237,51
1659001412.86657,320769.1689301,51
1659001412.86657,320769.1689357,42
1659001412.86657,320769.1689496,-4
1659001412.87754,320769.1689625,32
1659001412.87754,320769.1689725,428
1659001412.87754,320769.1689855,1017
1659001412.87754,320769.1689987,1265
1659001412.87754,320769.1690122,878
1659001412.87754,320769.1690253,73
1659001412.87754,320769.169034,-299
1659001412.87754,320769.655742,4
1659001412.87754,320769.655756,117
1659001412.87754,320769.6557592,-56
1659001412.87754,320769.6557621,-30
1659001412.87754,320769.6557646,35
1659001412.87754,320769.655767,-14
1659001412.87754,320769.6557694,-25
1659001412.87754,320769.6557719,16
1659001412.87754,320769.6557744,21
1659001412.87754,320769.6557767,11
1659001412.87754,320769.655779,25
1659001412.87754,320769.6557814,49
1659001412.87754,320769.6557837,73
1659001412.87754,320769.655786,87
1659001412.87754,320769.6557884,106
1659001412.87754,320769.655792,129
1659001412.87754,320769.6558055,143
1659001413.45437,320769.6558123,153
1659001413.45437,320769.6558146,164
1659001413.45437,320769.6558167,171
1659001413.45437,320769.6558187,164
1659001413.45437,320769.6558206,146
1659001413.45437,320769.6558225,148
1659001413.45437,320769.6558288,153
1659001413.45437,320769.6558385,117
1659001413.45437,320769.6558422,80
1659001413.45437,320769.6558442,65
1659001413.45437,320769.6558478,54
1659001413.45437,320769.6558576,35
1659001413.45437,320769.6558669,9
1659001413.45437,320769.6558748,-9
1659001413.45437,320769.6558787,-7
1659001413.45437,320769.6558809,-4
1659001413.45437,320769.6558829,-4
1659001413.45437,320769.655885,7
1659001413.45437,320769.655887,21
1659001413.45437,320769.6558891,23
1659001413.45437,320769.6558911,37
1659001413.45437,320769.6558932,54
1659001413.45437,320769.6558951,42
1659001413.45437,320769.6558972,47
1659001413.45437,320769.6558992,65
1659001413.45437,320769.6559011,56
1659001413.45437,320769.6559031,40
1659001413.45437,320769.6559052,54
1659001413.45437,320769.6559072,63
1659001413.45437,320769.6559092,44
1659001413.45437,320769.6559112,28
1659001413.45437,320769.6559132,51
1659001413.45437,320769.6559152,108
1659001413.45437,320769.6559171,143
1659001413.45437,320769.6559192,117
1659001413.45437,320769.6559212,77
1659001413.45437,320769.6559232,54
1659001413.45437,320769.6559252,44
1659001413.45437,320769.6559272,42
1659001413.45437,320769.6559292,35
1659001413.45437,320769.6559312,25
1659001413.45437,320769.6559332,23
1659001413.45437,320769.6559351,25
1659001413.45437,320769.6559371,14
1659001413.45437,320769.6559391,-2
1659001413.45437,320769.6559411,188
1659001413.45437,320769.6559432,671
1659001413.45437,320769.6559451,1076
1659001413.45437,320769.6559472,1057
1659001413.45437,320769.6559492,464
1659001413.46833,320769.6559512,-233
1659001413.46833,320769.6559532,-209
1659001413.46833,320769.6559552,96
1659001413.46833,320769.6559571,-18
1659001413.46833,320769.6559591,-117
1659001413.46833,320769.6559612,-4
1659001413.46833,320770.2423367,28
1659001413.46833,320770.2423575,-2
1659001413.46833,320770.2423665,9
1659001413.46833,320770.2423703,25
1659001413.46833,320770.2423751,40
1659001413.46833,320770.2423784,49
1659001413.46833,320770.2423832,58
1659001413.46833,320770.2423863,73
1659001413.46833,320770.2423896,68
1659001413.46833,320770.2423943,65
1659001413.46833,320770.2423985,96
1659001413.46833,320770.2424038,129
1659001413.46833,320770.2424077,148
1659001413.46833,320770.2424126,164
1659001413.46833,320770.2424158,167
1659001413.46833,320770.2424193,148
1659001413.46833,320770.2424241,141
1659001413.46833,320770.2424278,136
1659001413.99694,320770.2424315,122
1659001413.99694,320770.242435,108
1659001413.99694,320770.2424384,77
1659001413.99694,320770.2424416,35
1659001413.99694,320770.2424449,11
1659001413.99694,320770.2424484,-7
1659001413.99694,320770.2424518,-32
1659001413.99694,320770.2424556,-37
1659001413.99694,320770.242463,-28
1659001413.99694,320770.2424674,-30
1659001413.99694,320770.2424727,-23
1659001413.99694,320770.2424764,0
1659001413.99694,320770.2424815,14
1659001413.99694,320770.2424853,14
1659001413.99694,320770.2424904,11
1659001413.99694,320770.242494,23
1659001413.99694,320770.2424989,37
1659001413.99694,320770.242503,37
1659001413.99694,320770.2425083,25
1659001413.99694,320770.2425117,11
1659001413.99694,320770.2425164,30
1659001413.99694,320770.2425198,68
1659001413.99694,320770.242525,77
1659001413.99694,320770.2425289,73
1659001413.99694,320770.2425364,68
1659001413.99694,320770.2425403,80
1659001413.99694,320770.2425455,103
1659001413.99694,320770.2425488,96
1659001413.99694,320770.2425526,73
1659001413.99694,320770.2425562,56
1659001413.99694,320770.2425612,37
1659001413.99694,320770.2425658,28
1659001413.99694,320770.2425711,25
1659001413.99694,320770.2425746,42
1659001413.99694,320770.2425795,91
1659001413.99694,320770.242583,103
1659001413.99694,320770.2425882,68
1659001413.99694,320770.2425925,23
1659001413.99694,320770.2425997,68
1659001413.99694,320770.2426035,435
1659001413.99694,320770.2426089,949
1659001413.99694,320770.2426128,1079
1659001413.99694,320770.242618,654
1659001413.99694,320770.2426217,-25
1659001413.99694,320770.2426271,-273
1659001413.99694,320770.2426304,25
1659001413.99694,320770.2426353,91
1659001413.99694,320770.2426388,-91
1659001413.99694,320770.2426424,-44
1659001413.99694,320770.2426458,42
1659001414.00791,320770.2426493,-9
1659001414.00791,320770.2426542,-23
1659001414.00791,320770.2426577,9
1659001414.00791,320770.2426625,14
1659001414.00791,320770.242666,18
1659001414.00791,320770.776636,40
1659001414.00791,320770.7766499,80
1659001414.00791,320770.7766527,113
1659001414.00791,320770.7766566,106
1659001414.00791,320770.7766676,108
1659001414.00791,320770.7766756,143
1659001414.00791,320770.7766779,167
1659001414.00791,320770.77668,183
1659001414.00791,320770.7766823,212
1659001414.00791,320770.7766894,200
1659001414.00791,320770.7767015,169
1659001414.00791,320770.7767092,153
1659001414.00791,320770.7767137,131
1659001414.00791,320770.77672,106
1659001414.00791,320770.7767284,91
1659001414.00791,320770.7767368,77
1659001414.00791,320770.7767414,56
1659001414.00791,320770.7767476,23
1659001414.00791,320770.7767602,-2
1659001414.57951,320770.7767637,-2
1659001414.57951,320770.7767671,16
1659001414.57951,320770.7767708,21
1659001414.57951,320770.7767746,-2
1659001414.57951,320770.7767781,-21
1659001414.57951,320770.7767816,-16
1659001414.57951,320770.776785,2
1659001414.57951,320770.7767881,32
1659001414.57951,320770.7767918,44
1659001414.57951,320770.7767956,32
1659001414.57951,320770.7768015,25
1659001414.57951,320770.7768054,30
1659001414.57951,320770.7768107,35
1659001414.57951,320770.7768165,28
1659001414.57951,320770.7768216,37
1659001414.57951,320770.7768252,87
1659001414.57951,320770.7768287,103
1659001414.57951,320770.7768339,80
1659001414.57951,320770.7768382,96
1659001414.57951,320770.7768419,129
1659001414.57951,320770.7768481,122
1659001414.57951,320770.7768519,89
1659001414.57951,320770.7768576,49
1659001414.57951,320770.7768615,40
1659001414.57951,320770.7768651,54
1659001414.57951,320770.7768687,44
1659001414.57951,320770.7768724,18
1659001414.57951,320770.7768776,28
1659001414.57951,320770.7768811,94
1659001414.57951,320770.7768869,131
1659001414.57951,320770.7768906,113
1659001414.57951,320770.7768961,308
1659001414.57951,320770.7768997,822
1659001414.57951,320770.7769048,1140
1659001414.57951,320770.7769096,890
1659001414.57951,320770.7769151,209
1659001414.57951,320770.7769184,-273
1659001414.57951,320770.7769233,-77
1659001414.57951,320770.7769269,148
1659001414.57951,320770.7769324,-11
1659001414.57951,320770.776937,-77
1659001414.57951,320770.7769422,11
1659001414.57951,320770.776946,7
1659001414.57951,320770.7769512,-16
1659001414.57951,320770.7769551,11
1659001414.57951,320770.7769603,14
1659001414.57951,320770.7769639,4
1659001414.57951,320770.7769703,25
1659001414.57951,320770.7769738,42
1659001414.57951,320770.7769771,37
1659001414.59048,320770.7769802,51
1659001414.59048,320770.7769856,89
1659001414.59048,320770.7769911,115
1659001414.59048,320770.7769964,120
1659001414.59048,320771.3635603,129
1659001414.59048,320771.3635801,134
1659001414.59048,320771.3635958,113
1659001414.59048,320771.3636109,84
1659001414.59048,320771.3636203,94
1659001414.59048,320771.3636236,120
1659001414.59048,320771.363634,110
1659001414.59048,320771.3636426,58
1659001414.59048,320771.3636497,16
1659001414.59048,320771.3636605,14
1659001414.59048,320771.3636726,18
1659001414.59048,320771.3636847,-11
1659001414.59048,320771.3636917,-40
1659001414.59048,320771.3636964,-28
1659001414.59048,320771.3637082,-14
1659001414.59048,320771.3637196,-16
1659001414.59048,320771.3637232,-11
1659001414.59048,320771.3637261,-9
1659001414.59048,320771.3637291,-7
1659001414.59048,320771.3637355,4
1659001415.10945,320771.3637487,11
1659001415.10945,320771.3637557,7
1659001415.10945,320771.3637581,9
1659001415.10945,320771.3637602,21
1659001415.10945,320771.3637621,28
1659001415.10945,320771.3637641,37
1659001415.10945,320771.363766,54
1659001415.10945,320771.3637679,47
1659001415.10945,320771.3637698,44
1659001415.10945,320771.3637717,73
1659001415.10945,320771.363774,108
1659001415.10945,320771.3637811,129
1659001415.10945,320771.3637902,115
1659001415.10945,320771.3637969,77
1659001415.10945,320771.3638082,54
1659001415.10945,320771.3638216,56
1659001415.10945,320771.3638317,49
1659001415.10945,320771.3638421,28
1659001415.10945,320771.3638482,42
1659001415.10945,320771.3638512,84
1659001415.10945,320771.3638534,82
1659001415.10945,320771.3638554,35
1659001415.10945,320771.3638618,-4
1659001415.10945,320771.3638731,153
1659001415.10945,320771.3638792,598
1659001415.10945,320771.3638879,954
1659001415.10945,320771.3638993,892
1659001415.10945,320771.3639113,409
1659001415.10945,320771.3639251,-101
1659001415.10945,320771.3639384,-84
1659001415.10945,320771.3639474,110
1659001415.10945,320771.3639522,18
1659001415.10945,320771.3639586,-37
1659001415.10945,320771.3639632,32
1659001415.10945,320771.3639697,21
1659001415.10945,320771.3639787,2
1659001415.10945,320771.3639944,37
1659001415.10945,320771.3640311,35
1659001415.10945,320771.364044,28
1659001415.10945,320771.3640543,58
1659001415.10945,320771.3640583,75
1659001415.10945,320771.3640617,75
1659001415.10945,320771.3640656,94
1659001415.10945,320771.3640687,108
1659001415.10945,320771.3640734,106
1659001415.10945,320771.3640774,113
1659001415.10945,320771.364084,129
1659001415.10945,320771.3640893,129
1659001415.10945,320771.364096,115
1659001415.10945,320771.3641047,117
1659001415.11943,320771.3641121,117
1659001415.11943,320771.3641192,87
1659001415.11943,320771.3641255,51
1659001415.11943,320771.8985085,37
1659001415.11943,320771.8985219,23
1659001415.11943,320771.8985255,4
1659001415.11943,320771.898528,-4
1659001415.11943,320771.8985301,-16
1659001415.11943,320771.8985321,-44
1659001415.11943,320771.8985341,-70
1659001415.11943,320771.8985362,-58
1659001415.11943,320771.8985381,-25
1659001415.11943,320771.8985402,-14
1659001415.11943,320771.8985422,-28
1659001415.11943,320771.8985442,-47
1659001415.11943,320771.8985476,-32
1659001415.11943,320771.8985587,-14
1659001415.11943,320771.8985664,-21
1659001415.11943,320771.8985727,-18
1659001415.11943,320771.8985833,0
1659001415.11943,320771.8985923,7
1659001415.11943,320771.8986061,4
1659001415.11943,320771.8986127,7
1659001415.11943,320771.898615,2
1659001415.74352,320771.8986171,9
1659001415.74352,320771.898624,32
1659001415.74352,320771.8986352,44
1659001415.74352,320771.8986452,54
1659001415.74352,320771.8986526,63
1659001415.74352,320771.8986573,54
1659001415.74352,320771.8986617,28
1659001415.74352,320771.898666,7
1659001415.74352,320771.8986726,7
1659001415.74352,320771.8986794,16
1659001415.74352,320771.898684,11
1659001415.74352,320771.8986862,14
1659001415.74352,320771.8986897,25
1659001415.74352,320771.8986919,-23
1659001415.74352,320771.8986945,-103
1659001415.74352,320771.8987044,96
1659001415.74352,320771.8987114,662
1659001415.74352,320771.898714,1116
1659001415.74352,320771.8987161,1081
1659001415.74352,320771.8987182,492
1659001415.74352,320771.8987202,-148
1659001415.74352,320771.8987222,-117
1659001415.74352,320771.8987311,106
1659001415.74352,320771.8987392,-21
1659001415.74352,320771.8987417,-84
1659001415.74352,320771.8987439,9
1659001415.74352,320771.898746,9
1659001415.74352,320771.8987482,-18
1659001415.74352,320771.8987549,7
1659001415.74352,320771.8987681,16
1659001415.74352,320771.8987758,14
1659001415.74352,320771.8987782,32
1659001415.74352,320771.8987803,51
1659001415.74352,320771.8987863,63
1659001415.74352,320771.8988009,82
1659001415.74352,320771.8988142,94
1659001415.74352,320771.8988277,106
1659001415.74352,320771.8988335,127
1659001415.74352,320771.8988356,136
1659001415.74352,320771.8988377,127
1659001415.74352,320771.8988398,110
1659001415.74352,320771.8988476,98
1659001415.74352,320771.8988626,91
1659001415.74352,320771.898876,75
1659001415.74352,320771.8988891,56
1659001415.74352,320771.8988986,44
1659001415.74352,320771.8989071,25
1659001415.74352,320771.8989151,2
1659001415.74352,320771.8989224,-9
1659001415.74352,320771.8989266,-21
1659001415.75449,320771.8989311,-32
1659001415.75449,320771.8989349,-35
1659001415.75449,320772.5329761,-21
1659001415.75449,320772.5330148,-16
1659001415.75449,320772.5330218,-18
1659001415.75449,320772.5330255,-23
1659001415.75449,320772.5330288,-23
1659001415.75449,320772.5330319,-4
1659001415.75449,320772.5330351,18
1659001415.75449,320772.5330383,9
1659001415.75449,320772.5330416,-23
1659001415.75449,320772.5330448,-28
1659001415.75449,320772.5330841,-2
1659001415.75449,320772.5330914,4
1659001415.75449,320772.533095,-9
1659001415.75449,320772.5330984,-4
1659001415.75449,320772.5331016,-9
1659001415.75449,320772.5331048,-30
1659001415.75449,320772.5331081,-14
1659001415.75449,320772.5331112,35
1659001415.75449,320772.5331146,56
1659001415.75449,320772.533122,35
1659001415.75449,320772.5331268,14
1659001415.75449,320772.5331311,4
1659001416.22833,320772.5331349,-21
1659001416.22833,320772.5331413,-30
1659001416.22833,320772.5331466,-14
1659001416.22833,320772.5331514,2
1659001416.22833,320772.5331549,4
1659001416.22833,320772.5331584,0
1659001416.22833,320772.5331641,-63
1659001416.22833,320772.5331672,-106
1659001416.22833,320772.5331708,186
1659001416.22833,320772.5331757,801
1659001416.22833,320772.5331813,1203
1659001416.22833,320772.5331876,982
1659001416.22833,320772.5331917,209
1659001416.22833,320772.5331955,-313
1659001416.22833,320772.5331989,-96
1659001416.22833,320772.5332022,84
1659001416.22833,320772.5332081,-82
1659001416.22833,320772.5332136,-94
1659001416.22833,320772.5332189,-9
1659001416.22833,320772.5332244,-35
1659001416.22833,320772.5332292,-40
1659001416.22833,320772.5332329,0
1659001416.22833,320772.5332365,-4
1659001416.22833,320772.5332409,-11
1659001416.22833,320772.5332449,16
1659001416.22833,320772.5332479,32
1659001416.22833,320772.5332514,37
1659001416.22833,320772.5332546,63
1659001416.22833,320772.5332599,84
1659001416.22833,320772.533264,87
1659001416.22833,320772.5332692,103
1659001416.22833,320772.5332741,122
1659001416.22833,320772.5332782,120
1659001416.22833,320772.5332826,124
1659001416.22833,320772.533286,134
1659001416.22833,320772.5332896,117
1659001416.22833,320772.5332933,98
1659001416.22833,320772.533297,103
1659001416.22833,320772.5333707,87
1659001416.22833,320772.5333786,40
1659001416.22833,320772.5333837,14
1659001416.22833,320772.533392,-4
1659001416.22833,320772.533398,-35
1659001416.22833,320772.533411,-49
1659001416.22833,320772.5334239,-49
1659001416.22833,320772.5334314,-54
1659001416.22833,320772.533435,-49
1659001416.22833,320772.5334481,-37
1659001416.22833,320772.5334613,-32
1659001416.22833,320772.5334752,-37
1659001416.2403,320772.5334852,-35
1659001416.2403,320773.0201695,-28
1659001416.2403,320773.0201908,-18
1659001416.2403,320773.0202002,-11
1659001416.2403,320773.0202085,0
1659001416.2403,320773.0202145,0
1659001416.2403,320773.0202205,-14
1659001416.2403,320773.0202264,-18
1659001416.2403,320773.0202332,0
1659001416.2403,320773.0202398,4
1659001416.2403,320773.0202459,-23
1659001416.2403,320773.0202526,-40
1659001416.2403,320773.0202578,-14
1659001416.2403,320773.020263,37
1659001416.2403,320773.0202671,68
1659001416.2403,320773.0202713,51
1659001416.2403,320773.0202753,25
1659001416.2403,320773.0202794,0
1659001416.2403,320773.0202838,-37
1659001416.2403,320773.0202891,-40
1659001416.2403,320773.0202934,-11
1659001416.2403,320773.0202977,-2
1659001416.2403,320773.0203018,-9
1659001416.2403,320773.020306,-11
1659001416.81553,320773.0203101,-54
1659001416.81553,320773.0203147,-113
1659001416.81553,320773.020319,87
1659001416.81553,320773.0203233,657
1659001416.81553,320773.0203273,1152
1659001416.81553,320773.0203316,1093
1659001416.81553,320773.0203361,407
1659001416.81553,320773.0203407,-254
1659001416.81553,320773.0203453,-197
1659001416.81553,320773.0203504,37
1659001416.81553,320773.0203547,-84
1659001416.81553,320773.0203586,-143
1659001416.81553,320773.0203629,-44
1659001416.81553,320773.020367,-49
1659001416.81553,320773.0203712,-80
1659001416.81553,320773.0203756,-47
1659001416.81553,320773.0203801,-32
1659001416.81553,320773.0203852,-37
1659001416.81553,320773.020392,-16
1659001416.81553,320773.0203962,2
1659001416.81553,320773.0204006,18
1659001416.81553,320773.0204056,35
1659001416.81553,320773.0204122,44
1659001416.81553,320773.0204184,58
1659001416.81553,320773.0204243,77
1659001416.81553,320773.0204305,82
1659001416.81553,320773.0204346,91
1659001416.81553,320773.0204384,96
1659001416.81553,320773.0204424,89
1659001416.81553,320773.0204463,91
1659001416.81553,320773.0204506,106
1659001416.81553,320773.0204549,108
1659001416.81553,320773.0204608,96
1659001416.81553,320773.0204669,68
1659001416.81553,320773.0204729,21
1659001416.81553,320773.0204785,-14
1659001416.81553,320773.0204852,-25
1659001416.81553,320773.0204926,-40
1659001416.81553,320773.0205065,-54
1659001416.81553,320773.0205165,-58
1659001416.81553,320773.0205241,-58
1659001416.81553,320773.0205314,-47
1659001416.81553,320773.0205398,-25
1659001416.81553,320773.0205442,-18
1659001416.81553,320773.0205504,-21
1659001416.81553,320773.0205533,-16
1659001416.81553,320773.0205562,-14
1659001416.81553,320773.0205592,-16
1659001416.81553,320773.0205625,-18
1659001416.81553,320773.0205654,-18
1659001416.8265,320773.6053444,-7
1659001416.8265,320773.6053662,9
1659001416.8265,320773.6053744,2
1659001416.8265,320773.6053804,-9
1659001416.8265,320773.6053845,4
1659001416.8265,320773.6053944,18
1659001416.8265,320773.6054014,4
1659001416.8265,320773.6054066,-9
1659001416.8265,320773.6054143,0
1659001416.8265,320773.6054224,23
1659001416.8265,320773.605428,56
1659001416.8265,320773.6054356,73
1659001416.8265,320773.60544,47
1659001416.8265,320773.6054434,16
1659001416.8265,320773.6054538,-11
1659001416.8265,320773.6054596,-37
1659001416.8265,320773.6054672,-28
1659001416.8265,320773.6054758,-14
1659001416.8265,320773.6054861,-21
1659001416.8265,320773.6054899,-16
1659001416.8265,320773.6055023,-23
1659001416.8265,320773.6055168,-96
1659001416.8265,320773.6055283,-21
1659001416.8265,320773.6055383,520
1659001417.35207,320773.6055451,1222
1659001417.35207,320773.6055519,1413
1659001417.35207,320773.6055591,843
1659001417.35207,320773.6055659,-44
1659001417.35207,320773.6055726,-332
1659001417.35207,320773.6055792,-30
1659001417.35207,320773.605586,2
1659001417.35207,320773.6055927,-160
1659001417.35207,320773.6055991,-91
1659001417.35207,320773.6056033,-25
1659001417.35207,320773.6056066,-73
1659001417.35207,320773.60561,-61
1659001417.35207,320773.6056136,-25
1659001417.35207,320773.6056173,-37
1659001417.35207,320773.605623,-37
1659001417.35207,320773.6056271,-16
1659001417.35207,320773.6056374,-7
1659001417.35207,320773.6056493,9
1659001417.35207,320773.6056597,28
1659001417.35207,320773.6056632,32
1659001417.35207,320773.6056716,42
1659001417.35207,320773.6057448,56
1659001417.35207,320773.6057562,56
1659001417.35207,320773.6057702,51
1659001417.35207,320773.6057832,63
1659001417.35207,320773.6057956,73
1659001417.35207,320773.605809,63
1659001417.35207,320773.6058221,65
1659001417.35207,320773.605836,80
1659001417.35207,320773.605849,65
1659001417.35207,320773.6058627,40
1659001417.35207,320773.6058764,23
1659001417.35207,320773.6058901,4
1659001417.35207,320773.6059036,-11
1659001417.35207,320773.6059173,-14
1659001417.35207,320773.6059308,-21
1659001417.35207,320773.6059401,-23
1659001417.35207,320773.6059426,-7
1659001417.35207,320773.6059449,2
1659001417.35207,320773.605947,-4
1659001417.35207,320773.6059491,7
1659001417.35207,320773.6059511,28
1659001417.35207,320773.6059539,28
1659001417.35207,320773.6059636,16
1659001417.35207,320773.6059775,14
1659001417.35207,320773.6059916,25
1659001417.35207,320773.6060078,32
1659001417.35207,320773.6060246,30
1659001417.35207,320773.606031,21
1659001417.35207,320774.1410012,21
1659001417.37301,320774.14102,35
1659001417.37301,320774.1410271,49
1659001417.37301,320774.1410313,51
1659001417.37301,320774.1410363,42
1659001417.37301,320774.1410408,35
1659001417.37301,320774.1410445,54
1659001417.37301,320774.14105,94
1659001417.37301,320774.1410565,115
1659001417.37301,320774.1410603,113
1659001417.37301,320774.1410661,98
1659001417.37301,320774.1410703,61
1659001417.37301,320774.1410768,14
1659001417.37301,320774.1410818,11
1659001417.37301,320774.1410877,35
1659001417.37301,320774.1410916,35
1659001417.37301,320774.1410976,32
1659001417.37301,320774.1411012,42
1659001417.37301,320774.1411069,16
1659001417.37301,320774.1411123,-63
1659001417.37301,320774.1411155,75
1659001417.37301,320774.14112,676
1659001417.37301,320774.1411275,1333
1659001417.37301,320774.1411322,1394
1659001417.37301,320774.1411387,702
1659001417.99686,320774.1411443,-127
1659001417.99686,320774.1411557,-256
1659001417.99686,320774.1411631,23
1659001417.99686,320774.1411694,-14
1659001417.99686,320774.1411802,-129
1659001417.99686,320774.1411851,-47
1659001417.99686,320774.1411894,-25
1659001417.99686,320774.141195,-84
1659001417.99686,320774.1411997,-73
1659001417.99686,320774.1412034,-40
1659001417.99686,320774.1412074,-35
1659001417.99686,320774.1412111,-23
1659001417.99686,320774.1412169,-7
1659001417.99686,320774.1412204,-2
1659001417.99686,320774.1412245,4
1659001417.99686,320774.1412293,21
1659001417.99686,320774.1412328,40
1659001417.99686,320774.1412362,51
1659001417.99686,320774.1412421,65
1659001417.99686,320774.1412469,77
1659001417.99686,320774.1412521,77
1659001417.99686,320774.1412563,87
1659001417.99686,320774.1412599,98
1659001417.99686,320774.1412637,91
1659001417.99686,320774.1412687,77
1659001417.99686,320774.1412722,63
1659001417.99686,320774.1412771,54
1659001417.99686,320774.1412805,56
1659001417.99686,320774.1412891,54
1659001417.99686,320774.1413009,28
1659001417.99686,320774.1413073,-2
1659001417.99686,320774.141311,-9
1659001417.99686,320774.1413146,-2
1659001417.99686,320774.1413181,0
1659001417.99686,320774.1413216,2
1659001417.99686,320774.1413341,14
1659001417.99686,320774.1413415,23
1659001417.99686,320774.1413453,18
1659001417.99686,320774.1413488,18
1659001417.99686,320774.1413523,32
1659001417.99686,320774.1413573,44
1659001417.99686,320774.1413617,47
1659001417.99686,320774.1413672,47
1659001417.99686,320774.1413707,40
1659001417.99686,320774.1413741,44
1659001417.99686,320774.1413779,61
1659001417.99686,320774.1413832,54
1659001417.99686,320774.1413867,44
1659001417.99686,320774.7742246,54
1659001417.99686,320774.7742385,61
1659001418.01581,320774.7742431,44
1659001418.01581,320774.774249,40
1659001418.01581,320774.7742531,54
1659001418.01581,320774.7742557,80
1659001418.01581,320774.7742587,124
1659001418.01581,320774.7742611,146
1659001418.01581,320774.7742641,106
1659001418.01581,320774.774267,61
1659001418.01581,320774.7742702,47
1659001418.01581,320774.7742772,42
1659001418.01581,320774.7742863,42
1659001418.01581,320774.7742964,47
1659001418.01581,320774.774302,40
1659001418.01581,320774.7743097,32
1659001418.01581,320774.7743199,25
1659001418.01581,320774.7743295,-23
1659001418.01581,320774.7743351,4
1659001418.01581,320774.774352,457
1659001418.01581,320774.7743566,1168
1659001418.01581,320774.7743605,1448
1659001418.01581,320774.774366,965
1659001418.01581,320774.7743727,89
1659001418.01581,320774.7743786,-322
1659001418.01581,320774.7743823,-89
1659001418.47332,320774.774387,9
1659001418.47332,320774.7743913,-134
1659001418.47332,320774.774395,-108
1659001418.47332,320774.7743984,-37
1659001418.47332,320774.7744018,-75
1659001418.47332,320774.7744053,-73
1659001418.47332,320774.7744089,-23
1659001418.47332,320774.7744126,-21
1659001418.47332,320774.7744156,-28
1659001418.47332,320774.7744187,-2
1659001418.47332,320774.7744217,25
1659001418.47332,320774.7744252,37
1659001418.47332,320774.7744285,47
1659001418.47332,320774.7744317,61
1659001418.47332,320774.7744365,80
1659001418.47332,320774.7744403,91
1659001418.47332,320774.7744437,98
1659001418.47332,320774.7744469,103
1659001418.47332,320774.77445,103
1659001418.47332,320774.7744533,106
1659001418.47332,320774.774457,101
1659001418.47332,320774.7744602,96
1659001418.47332,320774.7744635,98
1659001418.47332,320774.7744668,89
1659001418.47332,320774.77447,68
1659001418.47332,320774.7744734,51
1659001418.47332,320774.7744793,37
1659001418.47332,320774.7744826,23
1659001418.47332,320774.7744871,14
1659001418.47332,320774.7744911,2
1659001418.47332,320774.7744963,2
1659001418.47332,320774.7744997,25
1659001418.47332,320774.7745048,40
1659001418.47332,320774.7745081,37
1659001418.47332,320774.7745116,44
1659001418.47332,320774.7745179,56
1659001418.47332,320774.7745232,49
1659001418.47332,320774.7745285,37
1659001418.47332,320774.7745319,47
1659001418.47332,320774.7745351,61
1659001418.47332,320774.7745385,56
1659001418.47332,320774.7745418,44
1659001418.47332,320774.7745456,47
1659001418.47332,320774.7745492,56
1659001418.47332,320774.7745553,73
1659001418.47332,320774.7745587,84
1659001418.47332,320774.7745624,82
1659001418.47332,320775.2623132,80
1659001418.47332,320775.2623303,80
1659001418.47332,320775.2623363,80
1659001418.48529,320775.26234,94
1659001418.48529,320775.262344,124
1659001418.48529,320775.2623476,162
1659001418.48529,320775.2623511,171
1659001418.48529,320775.2623546,143
1659001418.48529,320775.2623581,110
1659001418.48529,320775.262362,91
1659001418.48529,320775.2623685,80
1659001418.48529,320775.2623749,58
1659001418.48529,320775.2623812,56
1659001418.48529,320775.2623875,84
1659001418.48529,320775.2623939,94
1659001418.48529,320775.2624025,58
1659001418.48529,320775.2624103,4
1659001418.48529,320775.2624192,117
1659001418.48529,320775.2624321,662
1659001418.48529,320775.2624406,1340
1659001418.48529,320775.262444,1477
1659001418.48529,320775.2624499,803
1659001418.48529,320775.2624552,-103
1659001418.48529,320775.2624582,-322
1659001418.48529,320775.2624611,-37
1659001418.48529,320775.262464,-44
1659001418.48529,320775.262467,-164
1659001419.01288,320775.2624707,-80
1659001419.01288,320775.2624775,-40

1659001419.01288,320775.2624844,-82
1659001419.01288,320775.2624914,-63
1659001419.01288,320775.2624986,-35
1659001419.01288,320775.2625057,-35
1659001419.01288,320775.2625109,-28
1659001419.01288,320775.262514,-16
1659001419.01288,320775.2625174,-9
1659001419.01288,320775.2625206,2
1659001419.01288,320775.262525,18
1659001419.01288,320775.2625317,28
1659001419.01288,320775.2625436,42
1659001419.01288,320775.2625569,65
1659001419.01288,320775.2625659,84
1659001419.01288,320775.2625746,89
1659001419.01288,320775.2625867,94
1659001419.01288,320775.2625925,96
1659001419.01288,320775.2626008,98
1659001419.01288,320775.2626131,108
1659001419.01288,320775.2626201,103
1659001419.01288,320775.2626296,82
1659001419.01288,320775.2626413,63
1659001419.01288,320775.2626509,44
1659001419.01288,320775.2627886,25
1659001419.01288,320775.262799,16
1659001419.01288,320775.2628234,7
1659001419.01288,320775.2628365,-4
1659001419.01288,320775.2628417,9
1659001419.01288,320775.2628555,32
1659001419.01288,320775.2628686,25
1659001419.01288,320775.2628749,21
1659001419.01288,320775.2628831,37
1659001419.01288,320775.2628875,44
1659001419.01288,320775.2628917,44
1659001419.01288,320775.2628963,42
1659001419.01288,320775.2629013,49
1659001419.01288,320775.2629048,61
1659001419.01288,320775.262908,75
1659001419.01288,320775.2629112,82
1659001419.01288,320775.2629173,77
1659001419.01288,320775.2629238,70
1659001419.01288,320775.2629304,73
1659001419.01288,320775.2629367,80
1659001419.01288,320775.262944,75
1659001419.01288,320775.2629473,63
1659001419.01288,320775.7985775,73
1659001419.01288,320775.7985969,108
1659001419.01288,320775.798604,150
1659001419.01288,320775.7986091,169
1659001419.02684,320775.7986155,150
1659001419.02684,320775.7986195,117
1659001419.02684,320775.7986249,91
1659001419.02684,320775.7986297,73
1659001419.02684,320775.7986351,63
1659001419.02684,320775.7986386,47
1659001419.02684,320775.7986421,40
1659001419.02684,320775.7986461,49
1659001419.02684,320775.7986519,47
1659001419.02684,320775.7986556,-14
1659001419.02684,320775.7986595,-68
1659001419.02684,320775.7986654,181
1659001419.02684,320775.7986701,848
1659001419.02684,320775.7986751,1406
1659001419.02684,320775.7986786,1283
1659001419.02684,320775.7986821,447
1659001419.02684,320775.7986872,-313
1659001419.02684,320775.7986917,-256
1659001419.02684,320775.7986968,21
1659001419.02684,320775.7987,-87
1659001419.02684,320775.7987049,-153
1659001419.02684,320775.79871,-47
1659001419.02684,320775.7987135,-47
1659001419.02684,320775.7987182,-82
1659001419.73878,320775.7987222,-49
1659001419.73878,320775.7987257,-37
1659001419.73878,320775.7987291,-42
1659001419.73878,320775.7987328,-16
1659001419.73878,320775.7987364,0
1659001419.73878,320775.7987397,-2
1659001419.73878,320775.7987433,9
1659001419.73878,320775.7987469,35
1659001419.73878,320775.7987505,61
1659001419.73878,320775.7987541,84
1659001419.73878,320775.7987579,96
1659001419.73878,320775.7987615,106
1659001419.73878,320775.7987654,122
1659001419.73878,320775.7987721,122
1659001419.73878,320775.7987757,108
1659001419.73878,320775.7987796,108
1659001419.73878,320775.7987855,110
1659001419.73878,320775.7987893,82
1659001419.73878,320775.798793,51
1659001419.73878,320775.7987981,30
1659001419.73878,320775.7988024,9
1659001419.73878,320775.7988075,4
1659001419.73878,320775.7988109,16
1659001419.73878,320775.7988157,7
1659001419.73878,320775.7988192,-9
1659001419.73878,320775.7988234,-2
1659001419.73878,320775.7988287,11
1659001419.73878,320775.7988331,18
1659001419.73878,320775.7988383,18
1659001419.73878,320775.7988424,23
1659001419.73878,320775.7988476,32
1659001419.73878,320775.7988514,32
1659001419.73878,320775.7988563,30
1659001419.73878,320775.7988608,47
1659001419.73878,320775.7988659,73
1659001419.73878,320775.7988695,77
1659001419.73878,320775.7988744,56
1659001419.73878,320775.798891,54
1659001419.73878,320775.7988965,70
1659001419.73878,320775.7989136,70
1659001419.73878,320775.7989171,65
1659001419.73878,320775.7989204,68
1659001419.73878,320775.798924,56
1659001419.73878,320775.7989275,47
1659001419.73878,320775.7989311,70
1659001419.73878,320776.5294432,129
1659001419.73878,320776.5294681,167
1659001419.73878,320776.5294767,136
1659001419.73878,320776.5294824,84
1659001419.73878,320776.5294875,47
1659001419.75074,320776.5294936,7
1659001419.75074,320776.5295003,-2
1659001419.75074,320776.5295096,11
1659001419.75074,320776.5295149,11
1659001419.75074,320776.5295193,9
1659001419.75074,320776.5295235,11
1659001419.75074,320776.5295281,-58
1659001419.75074,320776.5295322,-108
1659001419.75074,320776.5295368,242
1659001419.75074,320776.5295425,982
1659001419.75074,320776.5295471,1467
1659001419.75074,320776.5295517,1232
1659001419.75074,320776.5295565,391
1659001419.75074,320776.5295651,-287
1659001419.75074,320776.5296669,-195
1659001419.75074,320776.5296828,14
1659001419.75074,320776.5297881,-122
1659001419.75074,320776.5298341,-167
1659001419.75074,320776.5298428,-80
1659001419.75074,320776.5298465,-98
1659001419.75074,320776.5298486,-113
1659001419.75074,320776.5298506,-68
1659001419.75074,320776.5298527,-65
1659001419.75074,320776.5298555,-75
1659001420.2327,320776.5298638,-40
1659001420.2327,320776.5298716,-21
1659001420.2327,320776.5298771,-23
1659001420.2327,320776.5298826,-2
1659001420.2327,320776.529887,30
1659001420.2327,320776.5298923,42
1659001420.2327,320776.5298983,51
1659001420.2327,320776.5299031,58
1659001420.2327,320776.5299087,70
1659001420.2327,320776.5299126,87
1659001420.2327,320776.5299161,84
1659001420.2327,320776.5299218,68
1659001420.2327,320776.5299296,68
1659001420.2327,320776.5299345,82
1659001420.2327,320776.5299409,70
1659001420.2327,320776.5299493,44
1659001420.2327,320776.5299587,32
1659001420.2327,320776.5299661,21
1659001420.2327,320776.5300153,4
1659001420.2327,320776.5300251,-2
1659001420.2327,320776.5300381,-4
1659001420.2327,320776.5300486,-11
1659001420.2327,320776.5300593,-11
1659001420.2327,320776.5300665,0
1659001420.2327,320776.5300792,14
1659001420.2327,320776.5300898,23
1659001420.2327,320776.5301018,25
1659001420.2327,320776.5301157,28
1659001420.2327,320776.5301282,37
1659001420.2327,320776.5301336,44
1659001420.2327,320776.5301444,44
1659001420.2327,320776.5301566,47
1659001420.2327,320776.5301633,44
1659001420.2327,320776.5301759,37
1659001420.2327,320776.5301837,42
1659001420.2327,320776.5301928,51
1659001420.2327,320776.5301982,49
1659001420.2327,320776.5302113,49
1659001420.2327,320776.5302192,61
1659001420.2327,320776.5302319,47
1659001420.2327,320776.530245,25
1659001420.2327,320776.5302629,49
1659001420.2327,320776.530268,110
1659001420.2327,320776.5302714,141
1659001420.2327,320777.0170822,110
1659001420.2327,320777.0171019,68
1659001420.2327,320777.0171086,44
1659001420.2327,320777.0171146,32
1659001420.2327,320777.0171181,35
1659001420.2327,320777.0171217,35
1659001420.24465,320777.0171251,32
1659001420.24465,320777.0171297,51
1659001420.24465,320777.0171341,65
1659001420.24465,320777.017138,25
1659001420.24465,320777.0171416,-47
1659001420.24465,320777.0171451,143
1659001420.24465,320777.0171485,789
1659001420.24465,320777.0171529,1430
1659001420.24465,320777.0171559,1434
1659001420.24465,320777.017159,683
1659001420.24465,320777.0171625,-164
1659001420.24465,320777.017166,-268
1659001420.24465,320777.0171714,-2
1659001420.24465,320777.0171745,-68
1659001420.24465,320777.0171779,-176
1659001420.24465,320777.0171811,-94
1659001420.24465,320777.017184,-61
1659001420.24465,320777.0171873,-87
1659001420.24465,320777.0171936,-68
1659001420.24465,320777.0171971,-56
1659001420.24465,320777.0172024,-63
1659001420.24465,320777.0172075,-44
1659001420.24465,320777.017211,-23
1659001420.24465,320777.0172142,-11
1659001420.76369,320777.0172177,2
1659001420.76369,320777.0172213,21
1659001420.76369,320777.0172248,40
1659001420.76369,320777.0172283,47
1659001420.76369,320777.0172318,49
1659001420.76369,320777.017236,68
1659001420.76369,320777.0172404,82
1659001420.76369,320777.0172505,84
1659001420.76369,320777.0172593,94
1659001420.76369,320777.0172667,96
1659001420.76369,320777.0172737,80
1659001420.76369,320777.0172804,70
1659001420.76369,320777.0172903,58
1659001420.76369,320777.0173012,30
1659001420.76369,320777.0173082,11
1659001420.76369,320777.0173174,14
1659001420.76369,320777.0173228,9
1659001420.76369,320777.0173338,-4
1659001420.76369,320777.0173382,-4
1659001420.76369,320777.0173424,4
1659001420.76369,320777.0173444,14
1659001420.76369,320777.0173465,14
1659001420.76369,320777.0173485,16
1659001420.76369,320777.0173553,25
1659001420.76369,320777.017364,32
1659001420.76369,320777.017368,42
1659001420.76369,320777.0173735,56
1659001420.76369,320777.0173771,61
1659001420.76369,320777.0173806,44
1659001420.76369,320777.0173866,44
1659001420.76369,320777.0173903,63
1659001420.76369,320777.0173945,54
1659001420.76369,320777.0174003,28
1659001420.76369,320777.0174046,32
1659001420.76369,320777.0174097,44
1659001420.76369,320777.0174132,32
1659001420.76369,320777.0174163,40
1659001420.76369,320777.0174198,65
1659001420.76369,320777.0174253,63
1659001420.76369,320777.0174298,49
1659001420.76369,320777.0174347,61
1659001420.76369,320777.017438,96
1659001420.76369,320777.0174417,129
1659001420.76369,320777.5540241,124
1659001420.76369,320777.554042,98
1659001420.76369,320777.5540493,75
1659001420.76369,320777.554054,54
1659001420.76369,320777.5540605,47
1659001420.76369,320777.5540647,49
1659001420.76369,320777.5540702,47
1659001420.77565,320777.5540753,58
1659001420.77565,320777.5540813,70
1659001420.77565,320777.5540851,44
1659001420.77565,320777.5540909,-16
1659001420.77565,320777.5540948,122
1659001420.77565,320777.5540987,718
1659001420.77565,320777.5541044,1394
1659001420.77565,320777.5541097,1465
1659001420.77565,320777.5541153,751
1659001420.77565,320777.5541194,-117
1659001420.77565,320777.5541251,-282
1659001420.77565,320777.5541302,-4
1659001420.77565,320777.5541341,-47
1659001420.77565,320777.5541396,-174
1659001420.77565,320777.5541438,-91
1659001420.77565,320777.5541492,-49
1659001420.77565,320777.554153,-89
1659001420.77565,320777.5541569,-91
1659001420.77565,320777.5541644,-70
1659001420.77565,320777.5541944,-61
1659001420.77565,320777.5542003,-56
1659001420.77565,320777.5542068,-35
1659001420.77565,320777.5542114,-7
1659001420.77565,320777.5542145,-2
1659001421.29671,320777.5542183,-2
1659001421.29671,320777.5542254,25
1659001421.29671,320777.5542324,54
1659001421.29671,320777.5542393,68
1659001421.29671,320777.5542463,91
1659001421.29671,320777.5542506,106
1659001421.29671,320777.5542537,98
1659001421.29671,320777.5542569,89
1659001421.29671,320777.5542603,91
1659001421.29671,320777.5542651,106
1659001421.29671,320777.5542697,120
1659001421.29671,320777.5542735,101
1659001421.29671,320777.5542816,56
1659001421.29671,320777.5542873,37
1659001421.29671,320777.5542908,47
1659001421.29671,320777.5542944,32
1659001421.29671,320777.5542982,14
1659001421.29671,320777.5543036,18
1659001421.29671,320777.5543074,21
1659001421.29671,320777.5543129,11
1659001421.29671,320777.5543224,25
1659001421.29671,320777.5543292,51
1659001421.29671,320777.5543336,56
1659001421.29671,320777.5543356,42
1659001421.29671,320777.5543375,35
1659001421.29671,320777.5543396,35
1659001421.29671,320777.5543419,37
1659001421.29671,320777.5543481,51
1659001421.29671,320777.5543575,63
1659001421.29671,320777.5543653,58
1659001421.29671,320777.5543721,49
1659001421.29671,320777.5543809,56
1659001421.29671,320777.554385,58
1659001421.29671,320777.5543908,54
1659001421.29671,320777.5543943,65
1659001421.29671,320777.5544009,80
1659001421.29671,320777.5544089,70
1659001421.29671,320777.5544149,61
1659001421.29671,320777.5544226,65
1659001421.29671,320777.5544294,68
1659001421.29671,320777.5544353,75
1659001421.29671,320777.5544419,115
1659001421.29671,320778.0915088,162
1659001421.29671,320778.0915276,155
1659001421.29671,320778.0915385,113
1659001421.29671,320778.0915452,91
1659001421.29671,320778.0915516,68
1659001421.29671,320778.0915572,49
1659001421.29671,320778.0915652,70
1659001421.29671,320778.0915716,89
1659001421.30868,320778.091575,77
1659001421.30868,320778.0915781,73
1659001421.30868,320778.0915811,70
1659001421.30868,320778.0915891,16
1659001421.30868,320778.0915978,32
1659001421.30868,320778.0916034,440
1659001421.30868,320778.0916091,1142
1659001421.30868,320778.0916136,1510
1659001421.30868,320778.0916181,1114
1659001421.30868,320778.091624,195
1659001421.30868,320778.0916297,-334
1659001421.30868,320778.0916353,-120
1659001421.30868,320778.0916394,18
1659001421.30868,320778.0916449,-153
1659001421.30868,320778.091649,-143
1659001421.30868,320778.0916544,-51
1659001421.30868,320778.0916597,-84
1659001421.30868,320778.0916682,-96
1659001421.30868,320778.0916812,-51
1659001421.30868,320778.0916953,-47
1659001421.30868,320778.0917074,-51
1659001421.30868,320778.0917146,-30
1659001421.30868,320778.0917222,-7
1659001421.30868,320778.0917295,14
1659001421.83418,320778.0917343,42
1659001421.83418,320778.0917418,54
1659001421.83418,320778.0917491,61
1659001421.83418,320778.0917563,80
1659001421.83418,320778.0917637,101
1659001421.83418,320778.0917708,110
1659001421.83418,320778.0917762,117
1659001421.83418,320778.0917799,124
1659001421.83418,320778.0917834,120
1659001421.83418,320778.0917871,113
1659001421.83418,320778.0917908,106
1659001421.83418,320778.0917964,96
1659001421.83418,320778.0918004,89
1659001421.83418,320778.0918064,75
1659001421.83418,320778.0918178,49
1659001421.83418,320778.0918264,23
1659001421.83418,320778.0918363,9
1659001421.83418,320778.0918416,0
1659001421.83418,320778.0918477,0
1659001421.83418,320778.0918556,7
1659001421.83418,320778.0918639,14
1659001421.83418,320778.0918726,18
1659001421.83418,320778.0918863,25
1659001421.83418,320778.0918949,30
1659001421.83418,320778.0918977,35
1659001421.83418,320778.091905,40
1659001421.83418,320778.0919174,54
1659001421.83418,320778.0919265,68
1659001421.83418,320778.0919369,68
1659001421.83418,320778.0919519,70
1659001421.83418,320778.0919651,75
1659001421.83418,320778.091979,75
1659001421.83418,320778.0919914,73
1659001421.83418,320778.0920033,70
1659001421.83418,320778.0920091,63
1659001421.83418,320778.0920167,56
1659001421.83418,320778.0920219,54
1659001421.83418,320778.0920321,56
1659001421.83418,320778.09204,73
1659001421.83418,320778.0920439,82
1659001421.83418,320778.0920512,75
1659001421.83418,320778.6257645,73
1659001421.83418,320778.6257816,80
1659001421.83418,320778.6257864,101
1659001421.83418,320778.6257922,139
1659001421.83418,320778.6257962,150
1659001421.83418,320778.6258017,115
1659001421.83418,320778.6258282,96
1659001421.83418,320778.6258405,96
1659001421.83418,320778.6258504,77
1659001421.84615,320778.6258568,61
1659001421.84615,320778.625862,47
1659001421.84615,320778.625869,28
1659001421.84615,320778.6258823,37
1659001421.84615,320778.6258962,54
1659001421.84615,320778.6259083,21
1659001421.84615,320778.6259248,-21
1659001421.84615,320778.6259389,162
1659001421.84615,320778.6259655,744
1659001421.84615,320778.6259941,1373
1659001421.84615,320778.6260076,1441
1659001421.84615,320778.6260233,758
1659001421.84615,320778.6260258,-101
1659001421.84615,320778.6260409,-270
1659001421.84615,320778.6260464,2
1659001421.84615,320778.6260718,-51
1659001421.84615,320778.626076,-186
1659001421.84615,320778.6260781,-108
1659001421.84615,320778.62608,-82
1659001421.84615,320778.6260819,-106
1659001421.84615,320778.6260838,-47
1659001421.84615,320778.6260858,-16
1659001421.84615,320778.6260892,-49
1659001421.84615,320778.6261007,-51
1659001422.37192,320778.6261054,-21
1659001422.37192,320778.6261076,-9
1659001422.37192,320778.6261096,-4
1659001422.37192,320778.6261115,16
1659001422.37192,320778.6261146,40
1659001422.37192,320778.6261193,54
1659001422.37192,320778.6261235,70
1659001422.37192,320778.626128,84
1659001422.37192,320778.6261324,82
1659001422.37192,320778.6261347,84
1659001422.37192,320778.6261366,96
1659001422.37192,320778.6261385,103
1659001422.37192,320778.6261405,96
1659001422.37192,320778.6261423,89
1659001422.37192,320778.6261485,70
1659001422.37192,320778.6261591,40
1659001422.37192,320778.6261657,14
1659001422.37192,320778.6261706,9
1659001422.37192,320778.6261759,9
1659001422.37192,320778.6261806,2
1659001422.37192,320778.6261856,-7
1659001422.37192,320778.6261906,-2
1659001422.37192,320778.6261952,0
1659001422.37192,320778.6262005,0
1659001422.37192,320778.6262057,18
1659001422.37192,320778.6262089,32
1659001422.37192,320778.626211,21
1659001422.37192,320778.6262132,21
1659001422.37192,320778.626215,37
1659001422.37192,320778.626217,49
1659001422.37192,320778.6262189,42
1659001422.37192,320778.6262214,35
1659001422.37192,320778.6262288,37
1659001422.37192,320778.6262376,37
1659001422.37192,320778.6262517,32
1659001422.37192,320778.6262621,30
1659001422.37192,320778.6262654,21
1659001422.37192,320778.6262691,21
1659001422.37192,320778.6262711,23
1659001422.37192,320778.6262738,28
1659001422.37192,320779.1621473,28
1659001422.37192,320779.1621659,25
1659001422.37192,320779.1621764,42
1659001422.37192,320779.1621856,61
1659001422.37192,320779.162191,42
1659001422.37192,320779.1622032,25
1659001422.37192,320779.1622128,54
1659001422.37192,320779.1622217,91
1659001422.37192,320779.1622244,98
1659001422.37192,320779.1622328,73
1659001422.38489,320779.1622436,49
1659001422.38489,320779.1622479,30
1659001422.38489,320779.1622501,2
1659001422.38489,320779.1622551,-21
1659001422.38489,320779.1622653,-18
1659001422.38489,320779.1622738,-21
1659001422.38489,320779.1622803,-30
1659001422.38489,320779.1622889,-9
1659001422.38489,320779.1622952,7
1659001422.38489,320779.1622995,-44
1659001422.38489,320779.1623028,-25
1659001422.38489,320779.162308,402
1659001422.38489,320779.1623203,1144
1659001422.38489,320779.1623291,1519
1659001422.38489,320779.162342,1081
1659001422.38489,320779.1623518,136
1659001422.38489,320779.1623629,-367
1659001422.38489,320779.1623702,-129
1659001422.38489,320779.1623727,-2
1659001422.38489,320779.1623748,-171
1659001422.38489,320779.1623768,-153
1659001422.38489,320779.1623825,-63
1659001422.38489,320779.1623948,-101
1659001422.38489,320779.1624273,-122
1659001423.09969,320779.1624777,-94
1659001423.09969,320779.1624849,-80
1659001423.09969,320779.1624886,-56
1659001423.09969,320779.162492,-28
1659001423.09969,320779.1624966,-25
1659001423.09969,320779.1624999,-18
1659001423.09969,320779.1625033,9
1659001423.09969,320779.1625064,28
1659001423.09969,320779.1625095,40
1659001423.09969,320779.162513,65
1659001423.09969,320779.1625247,84
1659001423.09969,320779.1625287,91
1659001423.09969,320779.1625348,98
1659001423.09969,320779.1625392,110
1659001423.09969,320779.1625438,127
1659001423.09969,320779.1625502,127
1659001423.09969,320779.1625556,106
1659001423.09969,320779.162559,84
1659001423.09969,320779.1625624,56
1659001423.09969,320779.1625658,30
1659001423.09969,320779.1625694,23
1659001423.09969,320779.1625729,9
1659001423.09969,320779.1625765,-4
1659001423.09969,320779.1625811,-2
1659001423.09969,320779.1625859,-2
1659001423.09969,320779.1625896,-2
1659001423.09969,320779.1625947,11
1659001423.09969,320779.1625989,14
1659001423.09969,320779.162605,23
1659001423.09969,320779.1626109,44
1659001423.09969,320779.1626175,54
1659001423.09969,320779.1626226,44
1659001423.09969,320779.1626276,42
1659001423.09969,320779.162631,37
1659001423.09969,320779.162634,37
1659001423.09969,320779.1626369,58
1659001423.09969,320779.1626399,73
1659001423.09969,320779.1626428,63
1659001423.09969,320779.1626463,49
1659001423.09969,320779.8939637,49
1659001423.09969,320779.8939854,68
1659001423.09969,320779.8940009,75
1659001423.09969,320779.894018,63
1659001423.09969,320779.8940345,44
1659001423.09969,320779.8940471,23
1659001423.09969,320779.8940523,21
1659001423.09969,320779.8940544,47
1659001423.09969,320779.8940573,56
1659001423.09969,320779.8940595,35
1659001423.09969,320779.8940615,16
1659001423.11665,320779.8940635,16
1659001423.11665,320779.8940656,40
1659001423.11665,320779.8940676,77
1659001423.11665,320779.8940696,91
1659001423.11665,320779.8940716,63
1659001423.11665,320779.8940737,32
1659001423.11665,320779.8940761,2
1659001423.11665,320779.8940786,-23
1659001423.11665,320779.894082,-4
1659001423.11665,320779.8940934,21
1659001423.11665,320779.8940992,11
1659001423.11665,320779.894103,7
1659001423.11665,320779.8941085,21
1659001423.11665,320779.8941189,21
1659001423.11665,320779.8941231,-18
1659001423.11665,320779.894136,54
1659001423.11665,320779.8941425,534
1659001423.11665,320779.8941459,1243
1659001423.11665,320779.8941523,1507
1659001423.11665,320779.8941582,954
1659001423.11665,320779.8941626,14
1659001423.11665,320779.8942082,-348
1659001423.11665,320779.8942149,-82
1659001423.11665,320779.8942211,-35
1659001423.53812,320779.8942255,-181
1659001423.53812,320779.894231,-113
1659001423.53812,320779.8942352,-35
1659001423.53812,320779.8942421,-56
1659001423.53812,320779.8942479,-44
1659001423.53812,320779.8942511,-16
1659001423.53812,320779.8942543,-11
1659001423.53812,320779.8942575,-2
1659001423.53812,320779.8942604,9
1659001423.53812,320779.8942636,18
1659001423.53812,320779.8942668,23
1659001423.53812,320779.89427,30
1659001423.53812,320779.8942731,61
1659001423.53812,320779.8942764,101
1659001423.53812,320779.8942797,115
1659001423.53812,320779.8942854,110
1659001423.53812,320779.8942902,113
1659001423.53812,320779.8942953,134
1659001423.53812,320779.8942993,153
1659001423.53812,320779.8943031,148
1659001423.53812,320779.8943111,129
1659001423.53812,320779.894316,110
1659001423.53812,320779.8943209,98
1659001423.53812,320779.8943245,91
1659001423.53812,320779.8943275,77
1659001423.53812,320779.8943307,44
1659001423.53812,320779.8943341,23
1659001423.53812,320779.8943401,14
1659001423.53812,320779.8943471,9
1659001423.53812,320779.8943532,2
1659001423.53812,320779.894357,4
1659001423.53812,320779.8943605,18
1659001423.53812,320779.894364,32
1659001423.53812,320779.8943685,35
1659001423.53812,320779.8943719,23
1659001423.53812,320779.8943751,14
1659001423.53812,320779.8943783,16
1659001423.53812,320779.8943813,23
1659001423.53812,320780.332514,44
1659001423.53812,320780.332537,65
1659001423.53812,320780.3325518,54
1659001423.53812,320780.3325656,28
1659001423.53812,320780.3325797,30
1659001423.53812,320780.3325917,61
1659001423.53812,320780.3326374,54
1659001423.53812,320780.3326461,23
1659001423.53812,320780.3326504,16
1659001423.53812,320780.3326542,9
1659001423.53812,320780.3326579,-4
1659001423.53812,320780.3326614,-16
1659001423.55009,320780.3326649,-2
1659001423.55009,320780.3326684,51
1659001423.55009,320780.3326719,63
1659001423.55009,320780.332681,14
1659001423.55009,320780.3326901,11
1659001423.55009,320780.3326966,42
1659001423.55009,320780.3327045,49
1659001423.55009,320780.3327085,56
1659001423.55009,320780.3327121,58
1659001423.55009,320780.3327156,47
1659001423.55009,320780.3327192,28
1659001423.55009,320780.3327242,-11
1659001423.55009,320780.3327278,-28
1659001423.55009,320780.3327313,-16
1659001423.55009,320780.3327349,-16
1659001423.55009,320780.3327383,-28
1659001423.55009,320780.3327419,-25
1659001423.55009,320780.3327454,0
1659001423.55009,320780.3327505,9
1659001423.55009,320780.332754,-25
1659001423.55009,320780.332759,96
1659001423.55009,320780.3327633,619
1659001423.55009,320780.3327669,1234
1659001423.55009,320780.3327702,1345
1659001424.08199,320780.3327737,723
1659001424.08199,320780.3327776,-129
1659001424.08199,320780.3327811,-365
1659001424.08199,320780.3327846,-82
1659001424.08199,320780.332788,-47
1659001424.08199,320780.3327919,-162
1659001424.08199,320780.3327953,-73
1659001424.08199,320780.3327987,-9
1659001424.08199,320780.3328022,-58
1659001424.08199,320780.3328058,-49
1659001424.08199,320780.3328106,-2
1659001424.08199,320780.3328139,7
1659001424.08199,320780.3328174,4
1659001424.08199,320780.3328223,21
1659001424.08199,320780.3328259,42
1659001424.08199,320780.332831,54
1659001424.08199,320780.3328344,73
1659001424.08199,320780.3328378,106
1659001424.08199,320780.3328412,120
1659001424.08199,320780.3328446,122
1659001424.08199,320780.3328481,155
1659001424.08199,320780.3328516,188
1659001424.08199,320780.3328551,188
1659001424.08199,320780.3328586,176
1659001424.08199,320780.3328636,162
1659001424.08199,320780.332867,146
1659001424.08199,320780.3328718,143
1659001424.08199,320780.332876,146
1659001424.08199,320780.3328796,122
1659001424.08199,320780.3328831,87
1659001424.08199,320780.3328867,77
1659001424.08199,320780.3328915,68
1659001424.08199,320780.3328949,49
1659001424.08199,320780.3328996,44
1659001424.08199,320780.3329052,49
1659001424.08199,320780.3329087,51
1659001424.08199,320780.3329121,56
1659001424.08199,320780.8694319,63
1659001424.08199,320780.8694537,73
1659001424.08199,320780.8694644,80
1659001424.08199,320780.8694766,77
1659001424.08199,320780.8694822,70
1659001424.08199,320780.8694877,84
1659001424.08199,320780.8694923,110
1659001424.08199,320780.8694962,106
1659001424.08199,320780.8694999,87
1659001424.08199,320780.8695036,101
1659001424.08199,320780.869509,103
1659001424.08199,320780.8695128,58
1659001424.08199,320780.8695161,23
1659001424.09396,320780.8695199,42
1659001424.09396,320780.8695233,61
1659001424.09396,320780.8695265,68
1659001424.09396,320780.8695297,75
1659001424.09396,320780.8695329,65
1659001424.09396,320780.8695403,47
1659001424.09396,320780.8695498,47
1659001424.09396,320780.8695575,65
1659001424.09396,320780.8695613,73
1659001424.09396,320780.8695663,63
1659001424.09396,320780.8695696,61
1659001424.09396,320780.869573,94
1659001424.09396,320780.8695809,160
1659001424.09396,320780.8695864,183
1659001424.09396,320780.8695947,134
1659001424.09396,320780.8695989,94
1659001424.09396,320780.869611,70
1659001424.09396,320780.869621,51
1659001424.09396,320780.8696253,63
1659001424.09396,320780.8696307,80
1659001424.09396,320780.869634,63
1659001424.09396,320780.8696373,61
1659001424.09396,320780.8696407,89
1659001424.09396,320780.8696438,87
1659001424.76138,320780.8696474,47
1659001424.76138,320780.8696507,167
1659001424.76138,320780.869654,709
1659001424.76138,320780.8696641,1401
1659001424.76138,320780.8696708,1578
1659001424.76138,320780.8696751,923
1659001424.76138,320780.8696784,-18
1659001424.76138,320780.8696848,-278
1659001424.76138,320780.8696891,23
1659001424.76138,320780.8696946,25
1659001424.76138,320780.8697003,-120
1659001424.76138,320780.8697089,-35
1659001424.76138,320780.8697162,30
1659001424.76138,320780.8697259,-9
1659001424.76138,320780.8697367,14
1659001424.76138,320780.8697447,47
1659001424.76138,320780.8697563,32
1659001424.76138,320780.8697672,40
1659001424.76138,320780.8697747,63
1659001424.76138,320780.8697863,68
1659001424.76138,320780.8697967,70
1659001424.76138,320780.8698041,77
1659001424.76138,320780.8698165,110
1659001424.76138,320780.8698268,160
1659001424.76138,320780.8698332,176
1659001424.76138,320780.869845,169
1659001424.76138,320780.8698553,164
1659001424.76138,320780.8698618,167
1659001424.76138,320780.8698737,181
1659001424.76138,320780.8698841,186
1659001424.76138,320780.8698906,162
1659001424.76138,320780.8699026,131
1659001424.76138,320780.8699128,113
1659001424.76138,320780.8699207,103
1659001424.76138,320780.8699317,91
1659001424.76138,320780.8699401,70
1659001424.76138,320781.5528264,47
1659001424.76138,320781.5528403,35
1659001424.76138,320781.5528434,30
1659001424.76138,320781.5528489,25
1659001424.76138,320781.5528514,14
1659001424.76138,320781.5528539,-7
1659001424.76138,320781.5528598,-14
1659001424.76138,320781.552866,-4
1659001424.76138,320781.5528701,-2
1659001424.76138,320781.5528738,11
1659001424.76138,320781.5528771,32
1659001424.76138,320781.5528804,23
1659001424.76138,320781.5528837,23
1659001424.76138,320781.5528885,42
1659001424.77335,320781.552893,25
1659001424.77335,320781.552897,-14
1659001424.77335,320781.5529003,-14
1659001424.77335,320781.552908,0
1659001424.77335,320781.5529118,0
1659001424.77335,320781.5529153,2
1659001424.77335,320781.5529185,9
1659001424.77335,320781.5529228,4
1659001424.77335,320781.5529277,0
1659001424.77335,320781.5529311,-2
1659001424.77335,320781.5529343,7
1659001424.77335,320781.5529373,37
1659001424.77335,320781.5529404,32
1659001424.77335,320781.5529436,-4
1659001424.77335,320781.5529467,11
1659001424.77335,320781.5529498,77
1659001424.77335,320781.5529549,117
1659001424.77335,320781.5529589,129
1659001424.77335,320781.5529621,122
1659001424.77335,320781.5529653,96
1659001424.77335,320781.5529684,63
1659001424.77335,320781.5529715,40
1659001424.77335,320781.5529743,35
1659001424.77335,320781.5529783,47
1659001425.2039,320781.5529836,65
1659001425.2039,320781.5529879,80
1659001425.2039,320781.5529924,77
1659001425.2039,320781.5529963,70
1659001425.2039,320781.5529996,44
1659001425.2039,320781.553003,25
1659001425.2039,320781.553006,266
1659001425.2039,320781.5530089,897
1659001425.2039,320781.5530119,1491
1659001425.2039,320781.5530153,1484
1659001425.2039,320781.5530195,716
1659001425.2039,320781.5530234,-143
1659001425.2039,320781.5530282,-212
1659001425.2039,320781.553032,91
1659001425.2039,320781.553035,16
1659001425.2039,320781.5530384,-108
1659001425.2039,320781.5530415,-11
1659001425.2039,320781.5530458,28
1659001425.2039,320781.5530511,-11
1659001425.2039,320781.5530554,2
1659001425.2039,320781.553062,28
1659001425.2039,320781.5530669,21
1659001425.2039,320781.5530714,35
1659001425.2039,320781.5530763,56
1659001425.2039,320781.5530851,49
1659001425.2039,320781.5530908,65
1659001425.2039,320781.5530929,110
1659001425.2039,320781.5530957,122
1659001425.2039,320781.5531038,115
1659001425.2039,320781.553115,143
1659001425.2039,320781.5531243,176
1659001425.2039,320781.5531268,174
1659001425.2039,320781.5531293,169
1659001425.2039,320781.5531372,160
1659001425.2039,320781.5531497,139
1659001425.2039,320781.9907305,127
1659001425.2039,320781.9907453,127
1659001425.2039,320781.99075,103
1659001425.2039,320781.9907544,63
1659001425.2039,320781.9907571,40
1659001425.2039,320781.9907598,25
1659001425.2039,320781.9907625,2
1659001425.2039,320781.9907652,-18
1659001425.2039,320781.9907682,-18
1659001425.2039,320781.9907787,-11
1659001425.2039,320781.9907861,-14
1659001425.2039,320781.9907924,-21
1659001425.2039,320781.990803,-16
1659001425.2039,320781.9908097,-2
1659001425.2039,320781.990812,7
1659001425.21686,320781.9908141,9
1659001425.21686,320781.9908162,11
1659001425.21686,320781.9908181,32
1659001425.21686,320781.9908202,47
1659001425.21686,320781.9908222,25
1659001425.21686,320781.9908243,11
1659001425.21686,320781.990827,30
1659001425.21686,320781.9908291,30
1659001425.21686,320781.9908311,4
1659001425.21686,320781.990833,-14
1659001425.21686,320781.9908351,-9
1659001425.21686,320781.9908371,4
1659001425.21686,320781.9908391,35
1659001425.21686,320781.990841,56
1659001425.21686,320781.9908431,47
1659001425.21686,320781.9908451,28
1659001425.21686,320781.9908471,23
1659001425.21686,320781.990849,28
1659001425.21686,320781.990851,37
1659001425.21686,320781.9908531,51
1659001425.21686,320781.9908552,80
1659001425.21686,320781.9908572,106
1659001425.21686,320781.9908593,94
1659001425.21686,320781.9908612,58
1659001425.74345,320781.9908632,42
1659001425.74345,320781.9908651,56
1659001425.74345,320781.990867,65
1659001425.74345,320781.9908689,49
1659001425.74345,320781.9908708,30
1659001425.74345,320781.9908727,23
1659001425.74345,320781.9908746,30
1659001425.74345,320781.9908765,47
1659001425.74345,320781.9908788,54
1659001425.74345,320781.9908871,18
1659001425.74345,320781.9908954,164
1659001425.74345,320781.9909032,753
1659001425.74345,320781.9909097,1411
1659001425.74345,320781.9909205,1474
1659001425.74345,320781.9909253,770
1659001425.74345,320781.9909275,-89
1659001425.74345,320781.9909296,-242
1659001425.74345,320781.9909316,44
1659001425.74345,320781.9909337,4
1659001425.74345,320781.9909358,-136
1659001425.74345,320781.9909378,-56
1659001425.74345,320781.9909398,7
1659001425.74345,320781.9909418,-21
1659001425.74345,320781.9909438,-16
1659001425.74345,320781.9909458,9
1659001425.74345,320781.9909478,0
1659001425.74345,320781.9909498,0
1659001425.74345,320781.9909518,28
1659001425.74345,320781.9909538,51
1659001425.74345,320781.9909558,56
1659001425.74345,320781.9909578,63
1659001425.74345,320781.9909599,75
1659001425.74345,320781.9909618,96
1659001425.74345,320781.9909638,131
1659001425.74345,320782.5283182,155
1659001425.74345,320782.5283389,157
1659001425.74345,320782.5283435,162
1659001425.74345,320782.5283473,164
1659001425.74345,320782.528351,155
1659001425.74345,320782.5283549,150
1659001425.74345,320782.5283588,129
1659001425.74345,320782.5283626,80
1659001425.74345,320782.5283666,30
1659001425.74345,320782.5283704,16
1659001425.74345,320782.5283743,0
1659001425.74345,320782.5283801,-23
1659001425.74345,320782.5283839,-37
1659001425.74345,320782.5283877,-42
1659001425.74345,320782.5283915,-47
1659001425.74345,320782.5283952,-49
1659001425.7604,320782.528399,-37
1659001425.7604,320782.5284029,-18
1659001425.7604,320782.5284071,-4
1659001425.7604,320782.528411,-4
1659001425.7604,320782.5284161,-4
1659001425.7604,320782.5284251,0
1659001425.7604,320782.5284281,14
1659001425.7604,320782.5284324,28
1659001425.7604,320782.5284377,25
1659001425.7604,320782.528443,14
1659001425.7604,320782.5284477,9
1659001425.7604,320782.5284516,23
1659001425.7604,320782.5284547,37
1659001425.7604,320782.5284578,28
1659001425.7604,320782.5284659,14
1659001425.7604,320782.5284701,32
1659001425.7604,320782.5284761,51
1659001425.7604,320782.5284818,44
1659001425.7604,320782.528488,30
1659001425.7604,320782.528491,32
1659001425.7604,320782.5284939,42
1659001425.7604,320782.5284969,61
1659001425.7604,320782.5284997,58
1659001425.7604,320782.5285026,44
1659001426.36438,320782.5285056,68
1659001426.36438,320782.5285118,129
1659001426.36438,320782.5285185,162
1659001426.36438,320782.5285251,148
1659001426.36438,320782.5285322,113
1659001426.36438,320782.5285377,65
1659001426.36438,320782.5285417,25
1659001426.36438,320782.5285446,37
1659001426.36438,320782.528548,82
1659001426.36438,320782.5285511,103
1659001426.36438,320782.5285556,96
1659001426.36438,320782.5285602,87
1659001426.36438,320782.528564,87
1659001426.36438,320782.5285705,63
1659001426.36438,320782.5285738,42
1659001426.36438,320782.5285791,252
1659001426.36438,320782.5285831,862
1659001426.36438,320782.5285859,1484
1659001426.36438,320782.5285888,1481
1659001426.36438,320782.5285935,695
1659001426.36438,320782.5285966,-148
1659001426.36438,320782.5285999,-209
1659001426.36438,320782.5286029,80
1659001426.36438,320782.528606,18
1659001426.36438,320782.5286089,-91
1659001426.36438,320782.5286121,-16
1659001426.36438,320782.5286149,-4
1659001426.36438,320782.5286176,-49
1659001426.36438,320782.5286208,-16
1659001426.36438,320782.5286252,30
1659001426.36438,320782.5286288,25
1659001426.36438,320782.5286325,21
1659001426.36438,320782.5286356,49
1659001426.36438,320783.1600798,70
1659001426.36438,320783.160101,82
1659001426.36438,320783.1601163,96
1659001426.36438,320783.1601254,120
1659001426.36438,320783.1601282,139
1659001426.36438,320783.1601305,148
1659001426.36438,320783.1601325,171

1659001426.36438,320783.1601346,190
1659001426.36438,320783.1601366,188
1659001426.36438,320783.1601386,179
1659001426.36438,320783.1601406,162
1659001426.36438,320783.1601426,129
1659001426.36438,320783.1601445,115
1659001426.36438,320783.1601466,106
1659001426.36438,320783.1601486,61
1659001426.36438,320783.1601506,16
1659001426.36438,320783.1601528,-2
1659001426.3812,320783.1601548,-35
1659001426.3812,320783.1601569,-73
1659001426.3812,320783.1601589,-61
1659001426.3812,320783.160161,-25
1659001426.3812,320783.1601636,-25
1659001426.3812,320783.1601729,-40
1659001426.3812,320783.1601843,-32
1659001426.3812,320783.160194,-21
1659001426.3812,320783.1602014,-18
1659001426.3812,320783.1602058,-18
1659001426.3812,320783.160208,-11
1659001426.3812,320783.1602101,2
1659001426.3812,320783.1602122,-2
1659001426.3812,320783.1602142,-16
1659001426.3812,320783.1602162,4
1659001426.3812,320783.1602182,37
1659001426.3812,320783.1602202,32
1659001426.3812,320783.1602222,25
1659001426.3812,320783.1602242,40
1659001426.3812,320783.1602262,37
1659001426.3812,320783.1602318,25
1659001426.3812,320783.160243,28
1659001426.3812,320783.1602525,44
1659001426.3812,320783.1602624,61
1659001426.90264,320783.1602663,73
1659001426.90264,320783.1602685,70
1659001426.90264,320783.1602705,65
1659001426.90264,320783.1602724,87
1659001426.90264,320783.1602743,131
1659001426.90264,320783.1602761,169
1659001426.90264,320783.160278,157
1659001426.90264,320783.1602799,113
1659001426.90264,320783.1602818,87
1659001426.90264,320783.1602837,73
1659001426.90264,320783.1602855,70
1659001426.90264,320783.1602874,75
1659001426.90264,320783.1602894,75
1659001426.90264,320783.1602913,77
1659001426.90264,320783.1602933,87
1659001426.90264,320783.1602953,84
1659001426.90264,320783.1602973,51
1659001426.90264,320783.1602993,11
1659001426.90264,320783.1603012,221
1659001426.90264,320783.1603033,874
1659001426.90264,320783.1603053,1550
1659001426.90264,320783.1603073,1573
1659001426.90264,320783.1603095,756
1659001426.90264,320783.1603115,-150
1659001426.90264,320783.1603136,-240
1659001426.90264,320783.1603155,51
1659001426.90264,320783.1603175,-21
1659001426.90264,320783.1603195,-131
1659001426.90264,320783.1603216,-37
1659001426.90264,320783.1603236,-7
1659001426.90264,320783.1603256,-44
1659001426.90264,320783.1603276,-21
1659001426.90264,320783.6966849,4
1659001426.90264,320783.696707,-4
1659001426.90264,320783.6967167,4
1659001426.90264,320783.696724,30
1659001426.90264,320783.6967286,47
1659001426.90264,320783.6967352,61
1659001426.90264,320783.6967398,80
1659001426.90264,320783.6967463,101
1659001426.90264,320783.6967525,124
1659001426.90264,320783.6967586,150
1659001426.90264,320783.6967626,176
1659001426.90264,320783.6967706,197
1659001426.90264,320783.6967758,207
1659001426.90264,320783.6967809,190
1659001426.90264,320783.6967871,162
1659001426.90264,320783.6967958,143
1659001426.90264,320783.6968004,127
1659001426.90264,320783.6968057,91
1659001426.91262,320783.6968106,47
1659001426.91262,320783.6968187,11
1659001426.91262,320783.696826,-16
1659001426.91262,320783.6968342,-35
1659001426.91262,320783.6968421,-47
1659001426.91262,320783.6968487,-63
1659001426.91262,320783.6968571,-75
1659001426.91262,320783.6968654,-73
1659001426.91262,320783.6968721,-73
1659001426.91262,320783.6968801,-77
1659001426.91262,320783.6968867,-65
1659001426.91262,320783.6968949,-65
1659001426.91262,320783.6969015,-80
1659001426.91262,320783.6969098,-61
1659001426.91262,320783.696917,-37
1659001426.91262,320783.6969243,-51
1659001426.91262,320783.696928,-56
1659001426.91262,320783.696933,-23
1659001426.91262,320783.6969371,-16
1659001426.91262,320783.6969422,-35
1659001426.91262,320783.6969454,-42
1659001426.91262,320783.6969487,-40
1659001426.91262,320783.6970103,-47
1659001426.91262,320783.697018,-54
1659001427.46248,320783.6970224,-44
1659001427.46248,320783.6970255,-40
1659001427.46248,320783.6970286,-49
1659001427.46248,320783.6970317,-47
1659001427.46248,320783.6970347,-28
1659001427.46248,320783.6970376,-16
1659001427.46248,320783.6970406,4
1659001427.46248,320783.6970436,58
1659001427.46248,320783.6970467,96
1659001427.46248,320783.6970497,73
1659001427.46248,320783.6970531,35
1659001427.46248,320783.6970564,14
1659001427.46248,320783.69706,-2
1659001427.46248,320783.6970635,0
1659001427.46248,320783.6970672,9
1659001427.46248,320783.6970704,-4
1659001427.46248,320783.6970735,-25
1659001427.46248,320783.6970768,-21
1659001427.46248,320783.6970821,4
1659001427.46248,320783.6970849,11
1659001427.46248,320783.6970876,-14
1659001427.46248,320783.6970905,143
1659001427.46248,320783.6970934,706
1659001427.46248,320783.6970961,1364
1659001427.46248,320783.6970989,1481
1659001427.46248,320783.6971016,784
1659001427.46248,320783.6971044,-157
1659001427.46248,320783.6971095,-360
1659001427.46248,320783.6971139,-37
1659001427.46248,320783.6971168,-47
1659001427.46248,320783.6971535,-193
1659001427.46248,320784.2327008,-98
1659001427.46248,320784.2327189,-21
1659001427.46248,320784.2327233,-51
1659001427.46248,320784.23273,-47
1659001427.46248,320784.2327348,-16
1659001427.46248,320784.2327407,-18
1659001427.46248,320784.2327451,-21
1659001427.46248,320784.2327568,-7
1659001427.46248,320784.2327706,-4
1659001427.46248,320784.2327776,9
1659001427.46248,320784.2327881,40
1659001427.46248,320784.2327921,51
1659001427.46248,320784.2328042,63
1659001427.46248,320784.232816,98
1659001427.46248,320784.2328245,127
1659001427.46248,320784.2328294,139
1659001427.46248,320784.2328345,139
1659001427.46248,320784.2328382,124
1659001427.46248,320784.232843,101
1659001427.47744,320784.2328468,87
1659001427.47744,320784.2328503,77
1659001427.47744,320784.2328553,58
1659001427.47744,320784.2328589,21
1659001427.47744,320784.2328609,-16
1659001427.47744,320784.232863,-49
1659001427.47744,320784.2328651,-77
1659001427.47744,320784.2328685,-91
1659001427.47744,320784.2328821,-80
1659001427.47744,320784.2328922,-61
1659001427.47744,320784.2328948,-61
1659001427.47744,320784.2328986,-68
1659001427.47744,320784.232911,-65
1659001427.47744,320784.2329222,-63
1659001427.47744,320784.2329259,-65
1659001427.47744,320784.2329366,-58
1659001427.47744,320784.2329491,-44
1659001427.47744,320784.2329553,-40
1659001427.47744,320784.2329644,-37
1659001427.47744,320784.2329768,-28
1659001427.47744,320784.2329826,-21
1659001427.47744,320784.2329911,-18
1659001427.47744,320784.2330036,-18
1659001427.47744,320784.23301,-18
1659001428.07831,320784.2330194,-16
1659001428.07831,320784.2330297,-7
1659001428.07831,320784.2330337,4
1659001428.07831,320784.2330359,14
1659001428.07831,320784.2330381,28
1659001428.07831,320784.2330452,44
1659001428.07831,320784.2330558,44
1659001428.07831,320784.2330662,21
1659001428.07831,320784.2330784,7
1659001428.07831,320784.2330899,49
1659001428.07831,320784.233104,141
1659001428.07831,320784.2331155,188
1659001428.07831,320784.2331284,134
1659001428.07831,320784.2331352,87
1659001428.07831,320784.2331429,91
1659001428.07831,320784.2331557,96
1659001428.07831,320784.233162,89
1659001428.07831,320784.2331696,89
1659001428.07831,320784.2331825,94
1659001428.07831,320784.2331893,68
1659001428.07831,320784.2331969,32
1659001428.07831,320784.2332097,70
1659001428.07831,320784.2332164,110
1659001428.07831,320784.2332239,115
1659001428.07831,320784.233237,452
1659001428.07831,320784.2332443,1210
1659001428.07831,320784.2332545,1731
1659001428.07831,320784.2332696,1387
1659001428.07831,320784.2332829,346
1659001428.07831,320784.2332966,-355
1659001428.07831,320784.8669084,-160
1659001428.07831,320784.866928,58
1659001428.07831,320784.8669364,-98
1659001428.07831,320784.8669443,-110
1659001428.07831,320784.8669583,0
1659001428.07831,320784.8669648,-11
1659001428.07831,320784.8669694,-30
1659001428.07831,320784.8669733,-9
1659001428.07831,320784.8669772,-14
1659001428.07831,320784.8669809,-7
1659001428.07831,320784.8669847,16
1659001428.07831,320784.8669883,23
1659001428.07831,320784.8669923,28
1659001428.07831,320784.8669964,35
1659001428.07831,320784.8670026,37
1659001428.07831,320784.8670065,63
1659001428.07831,320784.8670122,108
1659001428.07831,320784.8670163,129
1659001428.07831,320784.8670223,143
1659001428.07831,320784.8670262,167
1659001428.09527,320784.8670318,164
1659001428.09527,320784.8670373,146
1659001428.09527,320784.8670432,146
1659001428.09527,320784.8670477,141
1659001428.09527,320784.8670571,103
1659001428.09527,320784.867061,58
1659001428.09527,320784.8670665,18
1659001428.09527,320784.8670748,-16
1659001428.09527,320784.8670805,-35
1659001428.09527,320784.8670844,-40
1659001428.09527,320784.8670882,-42
1659001428.09527,320784.8670934,-40
1659001428.09527,320784.8670976,-40
1659001428.09527,320784.8671015,-42
1659001428.09527,320784.8671074,-37
1659001428.09527,320784.8671113,-44
1659001428.09527,320784.8671153,-44
1659001428.09527,320784.8671205,-14
1659001428.09527,320784.867125,-2
1659001428.09527,320784.86713,-4
1659001428.09527,320784.8671344,28
1659001428.09527,320784.8671446,37
1659001428.09527,320784.867149,-2
1659001428.09527,320784.8671531,-14
1659001428.61117,320784.867155,16
1659001428.61117,320784.867163,28
1659001428.61117,320784.8671727,28
1659001428.61117,320784.8671762,42
1659001428.61117,320784.8671832,54
1659001428.61117,320784.8671919,51
1659001428.61117,320784.8671994,49
1659001428.61117,320784.8672066,56
1659001428.61117,320784.8672138,58
1659001428.61117,320784.8672222,40
1659001428.61117,320784.8672293,35
1659001428.61117,320784.8672317,54
1659001428.61117,320784.8672338,70
1659001428.61117,320784.8672359,108
1659001428.61117,320784.8672418,134
1659001428.61117,320784.8672531,101
1659001428.61117,320784.8672639,65
1659001428.61117,320784.867268,49
1659001428.61117,320784.8672731,49
1659001428.61117,320784.8672859,68
1659001428.61117,320784.8672952,75
1659001428.61117,320784.8672992,58
1659001428.61117,320784.8673054,61
1659001428.61117,320784.8673182,73
1659001428.61117,320784.867326,58
1659001428.61117,320784.8673285,-7
1659001428.61117,320784.8673313,23
1659001428.61117,320784.8673392,482
1659001428.61117,320784.8673521,1253
1659001428.61117,320785.4029196,1660
1659001428.61117,320785.4029394,1253
1659001428.61117,320785.4029469,273
1659001428.61117,320785.4029514,-315
1659001428.61117,320785.4029546,-101
1659001428.61117,320785.4029577,65
1659001428.61117,320785.4029611,-110
1659001428.61117,320785.4029671,-110
1659001428.61117,320785.4029732,-2
1659001428.61117,320785.4029767,-32
1659001428.61117,320785.40298,-73
1659001428.61117,320785.4029858,-58
1659001428.61117,320785.40299,-73
1659001428.61117,320785.4029934,-68
1659001428.61117,320785.4029964,-2
1659001428.61117,320785.4029994,61
1659001428.61117,320785.4030022,51
1659001428.61117,320785.4030052,4
1659001428.61117,320785.4030098,0
1659001428.61117,320785.4030137,23
1659001428.61117,320785.4030167,73
1659001428.62514,320785.4030197,146
1659001428.62514,320785.403024,157
1659001428.62514,320785.4030297,108
1659001428.62514,320785.4030444,106
1659001428.62514,320785.4030544,141
1659001428.62514,320785.4030629,120
1659001428.62514,320785.403071,61
1659001428.62514,320785.4030795,28
1659001428.62514,320785.4030866,-2
1659001428.62514,320785.4030987,-42
1659001428.62514,320785.4031091,-65
1659001428.62514,320785.4031181,-68
1659001428.62514,320785.4031252,-51
1659001428.62514,320785.4031276,-51
1659001428.62514,320785.4031303,-77
1659001428.62514,320785.4031323,-91
1659001428.62514,320785.4031343,-80
1659001428.62514,320785.4031363,-68
1659001428.62514,320785.4031383,-68
1659001428.62514,320785.4031403,-56
1659001428.62514,320785.4031423,-37
1659001428.62514,320785.4031443,-37
1659001428.62514,320785.4031462,-44
1659001428.62514,320785.4031482,-30
1659001429.10261,320785.4031502,-21
1659001429.10261,320785.4031522,-37
1659001429.10261,320785.4031541,-16
1659001429.10261,320785.403156,40
1659001429.10261,320785.4031579,30
1659001429.10261,320785.4031598,-21
1659001429.10261,320785.4031618,-25
1659001429.10261,320785.4031637,-11
1659001429.10261,320785.4031656,18
1659001429.10261,320785.4031676,68
1659001429.10261,320785.4031695,70
1659001429.10261,320785.4031714,21
1659001429.10261,320785.4031735,-11
1659001429.10261,320785.4031753,-4
1659001429.10261,320785.4031772,32
1659001429.10261,320785.4031831,56
1659001429.10261,320785.4031918,58
1659001429.10261,320785.4031986,73
1659001429.10261,320785.403206,117
1659001429.10261,320785.4032204,141
1659001429.10261,320785.403232,82
1659001429.10261,320785.4032365,28
1659001429.10261,320785.4032392,42
1659001429.10261,320785.4032413,51
1659001429.10261,320785.4032433,47
1659001429.10261,320785.4032453,47
1659001429.10261,320785.4032473,37
1659001429.10261,320785.4032493,28
1659001429.10261,320785.8907528,16
1659001429.10261,320785.8907727,0
1659001429.10261,320785.890787,209
1659001429.10261,320785.8908009,862
1659001429.10261,320785.89081,1547
1659001429.10261,320785.8908125,1592
1659001429.10261,320785.8908147,805
1659001429.10261,320785.8908168,-108
1659001429.10261,320785.8908188,-237
1659001429.10261,320785.890821,58
1659001429.10261,320785.890823,-11
1659001429.10261,320785.890825,-155
1659001429.10261,320785.890827,-77
1659001429.10261,320785.8908297,-54
1659001429.10261,320785.890838,-103
1659001429.10261,320785.8908484,-58
1659001429.10261,320785.8908511,-7
1659001429.10261,320785.8908532,-37
1659001429.10261,320785.8908554,-51
1659001429.10261,320785.8908573,-4
1659001429.10261,320785.8908594,18
1659001429.10261,320785.8908656,-14
1659001429.11158,320785.890877,-11
1659001429.11158,320785.8908822,35
1659001429.11158,320785.8908843,47
1659001429.11158,320785.8908862,40
1659001429.11158,320785.8908882,56
1659001429.11158,320785.8908903,87
1659001429.11158,320785.8908937,136
1659001429.11158,320785.8909065,176
1659001429.11158,320785.890913,176
1659001429.11158,320785.8909152,155
1659001429.11158,320785.8909172,101
1659001429.11158,320785.8909192,35
1659001429.11158,320785.8909212,7
1659001429.11158,320785.8909245,11
1659001429.11158,320785.8909372,-7
1659001429.11158,320785.890943,-47
1659001429.11158,320785.8909453,-61
1659001429.11158,320785.8909474,-35
1659001429.11158,320785.89095,-14
1659001429.11158,320785.8909599,-32
1659001429.11158,320785.8909689,-58
1659001429.11158,320785.8909715,-58
1659001429.11158,320785.8909736,-42
1659001429.11158,320785.8909758,-30
1659001429.8249,320785.8909787,-32
1659001429.8249,320785.8909889,-23
1659001429.8249,320785.8909951,-16
