Time,TimeLsl,Value
1659018228.47521,337584.1485647,-144
1659018228.47521,337584.148581,-120
1659018228.47521,337584.1485869,-142
1659018228.47521,337584.1485921,-151
1659018228.47521,337584.1485968,-139
1659018228.47521,337584.1486053,-153
1659018228.47521,337584.1486116,-172
1659018228.47521,337584.148618,-172
1659018228.47521,337584.1486241,-165
1659018228.47521,337584.1486325,-170
1659018228.47521,337584.148638,-179
1659018228.47521,337584.1486431,-184
1659018228.47521,337584.1486556,-196
1659018228.47521,337584.1486698,-198
1659018228.47521,337584.148679,-187
1659018228.47521,337584.148684,-172
1659018228.47521,337584.1486991,-165
1659018228.47521,337584.1487108,-158
1659018228.47521,337584.1487198,-149
1659018228.47521,337584.1487373,-144
1659018228.47521,337584.1487548,-137
1659018228.47521,337584.1487789,-116
1659018228.47521,337584.1487925,-82
1659018228.47521,337584.1488043,-78
1659018228.47521,337584.1488165,-99
1659018228.47521,337584.1488265,-111
1659018228.47521,337584.1488385,-118
1659018228.47521,337584.1488496,-127
1659018228.47521,337584.1488575,-130
1659018228.47521,337584.1488799,-120
1659018228.47521,337584.1488936,-116
1659018228.47521,337584.1489068,-116
1659018228.47521,337584.1489188,-113
1659018228.47521,337584.1489277,-104
1659018228.47521,337584.1489365,-94
1659018228.47521,337584.148947,-87
1659018228.47521,337584.1489589,-82
1659018228.47521,337584.1489679,-85
1659018228.47521,337584.1489806,-82
1659018228.47521,337584.1489919,-75
1659018228.47521,337584.1490031,-71
1659018228.47521,337584.149008,-73
1659018228.47521,337584.1490472,-71
1659018228.47521,337584.1490573,-66
1659018228.47521,337584.1490639,-71
1659018228.47521,337584.1490681,-61
1659018228.47521,337584.1490722,-42
1659018228.47521,337584.1490763,-26
1659018228.47521,337584.1490803,-16
1659018228.47521,337584.1490842,-23
1659018228.62182,337584.1490881,-42
1659018228.62182,337584.1490921,-52
1659018228.62182,337584.1490979,-52
1659018228.62182,337584.1491019,-47
1659018228.62182,337584.1491074,-49
1659018228.62182,337584.149112,-73
1659018228.62182,337584.1491159,-108
1659018228.62182,337584.1491215,-21
1659018228.62182,337584.1491254,303
1659018228.62182,337584.1491485,547
1659018228.62182,337584.1491569,376
1659018228.62182,337584.1491607,111
1659018228.62182,337584.1491644,11
1659018228.62182,337584.1491708,-68
1659018228.62182,337584.1491755,-106
1659018228.62182,337584.1491808,-75
1659018228.62182,337584.149187,-71
1659018228.62182,337584.1491935,-85
1659018228.62182,337584.1492007,-75
1659018228.62182,337584.1492073,-75
1659018228.62182,337584.1492128,-87
1659018228.62182,337584.1492165,-82
1659018228.62182,337584.1492223,-73
1659018228.62182,337584.7342926,-68
1659018228.62182,337584.7343139,-63
1659018228.62182,337584.7343197,-56
1659018228.62182,337584.7343241,-61
1659018228.62182,337584.7343284,-71
1659018228.62182,337584.7343322,-61
1659018228.62182,337584.7343363,-52
1659018228.62182,337584.734341,-52
1659018228.62182,337584.7343455,-54
1659018228.62182,337584.7343495,-56
1659018228.62182,337584.7343534,-54
1659018228.62182,337584.734357,-30
1659018228.62182,337584.7343606,-11
1659018228.62182,337584.7343642,-2
1659018228.62182,337584.734368,0
1659018228.62182,337584.7343717,-14
1659018228.62182,337584.7343754,-28
1659018228.62182,337584.734379,-26
1659018228.62182,337584.7343828,-23
1659018228.62182,337584.7343866,-23
1659018228.62182,337584.7343902,-16
1659018228.62182,337584.7343939,-18
1659018228.62182,337584.7343977,-21
1659018228.62182,337584.7344018,-7
1659018228.62182,337584.7344051,7
1659018228.62182,337584.73441,11
1659018228.62182,337584.7344199,16
1659018228.67767,337584.7344258,21
1659018228.67767,337584.7344302,21
1659018228.67767,337584.7344349,30
1659018228.67767,337584.7344413,44
1659018228.67767,337584.7344506,52
1659018228.67767,337584.7344545,49
1659018228.67767,337584.7344575,49
1659018228.67767,337584.7344613,56
1659018228.67767,337584.7344659,61
1659018228.67767,337584.7344715,61
1659018228.67767,337584.7344784,73
1659018228.67767,337584.7344849,92
1659018228.67767,337584.7344916,108
1659018228.67767,337584.7344984,118
1659018228.67767,337584.7345069,118
1659018228.67767,337584.7345154,101
1659018228.67767,337584.734522,87
1659018228.67767,337584.7345286,89
1659018228.67767,337584.7345373,87
1659018228.67767,337584.7345453,80
1659018228.67767,337584.7345537,82
1659018228.67767,337584.7345862,54
1659018228.67767,337584.734597,61
1659018228.67767,337584.7346054,288
1659018228.67767,337584.7346135,634
1659018228.67767,337584.7346208,667
1659018228.67767,337584.7346279,400
1659018228.67767,337584.7346454,201
1659018228.67767,337584.7346569,104
1659018228.67767,337584.734663,52
1659018228.67767,337584.7346668,61
1659018228.67767,337584.734672,68
1659018228.67767,337584.7346757,56
1659018228.67767,337584.734681,56
1659018228.67767,337584.7346848,61
1659018228.67767,337584.7346901,56
1659018228.67767,337584.7346939,56
1659018228.67767,337584.7346975,63
1659018228.67767,337584.7347037,66
1659018228.67767,337584.7347074,63
1659018228.67767,337584.7347129,71
1659018228.67767,337584.7347167,80
1659018228.67767,337584.7347221,73
1659018228.67767,337584.7347566,66
1659018228.67767,337584.7347693,73
1659018228.67767,337584.7347756,78
1659018228.67767,337585.2716379,82
1659018228.67767,337585.2716535,101
1659018228.67767,337585.2716575,116
1659018228.67767,337585.2716612,118
1659018228.70161,337585.2716647,132
1659018228.70161,337585.2716681,151
1659018228.70161,337585.2716716,168
1659018228.70161,337585.2716943,177
1659018228.70161,337585.2717073,170
1659018228.70161,337585.2717153,163
1659018228.70161,337585.2717214,163
1659018228.70161,337585.2717287,153
1659018228.70161,337585.2717364,127
1659018228.70161,337585.2717449,111
1659018228.70161,337585.2717515,123
1659018228.70161,337585.2717563,137
1659018228.70161,337585.271762,144
1659018228.70161,337585.2717661,146
1659018228.70161,337585.2717716,137
1659018228.70161,337585.2717766,118
1659018228.70161,337585.2717842,118
1659018228.70161,337585.2717875,134
1659018228.70161,337585.2717973,144
1659018228.70161,337585.2718023,146
1659018228.70161,337585.2718115,146
1659018228.70161,337585.2718238,142
1659018228.70161,337585.2718311,144
1659018228.70161,337585.2718341,151
1659018228.70161,337585.2718429,153
1659018228.70161,337585.2718586,158
1659018228.70161,337585.2718672,165
1659018228.70161,337585.2718698,172
1659018228.70161,337585.271872,187
1659018228.70161,337585.271874,210
1659018228.70161,337585.2718761,210
1659018228.70161,337585.2718782,189
1659018228.70161,337585.2718849,170
1659018228.70161,337585.2718927,165
1659018228.70161,337585.2718961,165
1659018228.70161,337585.2719009,170
1659018228.70161,337585.2719038,175
1659018228.70161,337585.2719066,156
1659018228.70161,337585.2719095,144
1659018228.70161,337585.2719124,312
1659018228.70161,337585.2719153,655
1659018228.70161,337585.2719183,769
1659018228.70161,337585.2719212,535
1659018228.70161,337585.271924,322
1659018228.70161,337585.2719268,217
1659018228.70161,337585.2719296,134
1659018228.70161,337585.2719327,127
1659018228.70161,337585.2719356,139
1659018228.70161,337585.2719384,123
1659018228.70161,337585.2719413,123
1659018228.71159,337585.2719442,130
1659018228.71159,337585.2719472,127
1659018228.71159,337585.2719503,127
1659018228.71159,337585.2719532,130
1659018228.71159,337585.2719562,134
1659018228.71159,337585.2719591,142
1659018228.71159,337585.271962,146
1659018228.71159,337585.2719649,144
1659018228.71159,337585.2719678,127
1659018228.71159,337585.2719706,123
1659018228.71159,337585.2719735,132
1659018228.71159,337585.2719763,144
1659018228.71159,337585.2719791,153
1659018228.71159,337585.2719827,161
1659018228.71159,337585.2719856,161
1659018228.71159,337585.2719885,163
1659018228.71159,337585.2719914,179
1659018228.71159,337585.2719943,201
1659018228.71159,337585.2719972,215
1659018228.71159,337585.9035231,217
1659018228.71159,337585.9035433,217
1659018228.71159,337585.9035494,208
1659018229.03329,337585.9035531,194
1659018229.03329,337585.9035565,189
1659018229.03329,337585.9035601,191
1659018229.03329,337585.9035643,189
1659018229.03329,337585.903568,187
1659018229.03329,337585.9035726,187
1659018229.03329,337585.9035765,187
1659018229.03329,337585.9035797,191
1659018229.03329,337585.9035836,201
1659018229.03329,337585.9035881,203
1659018229.03329,337585.9035943,203
1659018229.03329,337585.9035981,206
1659018229.03329,337585.9036033,194
1659018229.03329,337585.9036086,182
1659018229.03329,337585.9036146,189
1659018229.03329,337585.9036218,191
1659018229.03329,337585.9036253,187
1659018229.03329,337585.9036309,191
1659018229.03329,337585.9036364,184
1659018229.03329,337585.9036404,163
1659018229.03329,337585.9036464,163
1659018229.03329,337585.9036504,179
1659018229.03329,337585.9036557,184
1659018229.03329,337585.9036599,191
1659018229.03329,337585.9036634,206
1659018229.03329,337585.9036686,201
1659018229.03329,337585.9036719,179
1659018229.03329,337585.9036754,177
1659018229.03329,337585.903679,187
1659018229.03329,337585.9036824,189
1659018229.03329,337585.9036876,194
1659018229.03329,337585.9036928,191
1659018229.03329,337585.9036961,158
1659018229.03329,337585.9037008,172
1659018229.03329,337585.9037064,390
1659018229.03329,337585.9037125,712
1659018229.03329,337585.9037207,748
1659018229.03329,337585.9037265,504
1659018229.03329,337585.9037327,312
1659018229.03329,337585.9037379,198
1659018229.03329,337585.9037439,134
1659018229.03329,337585.9037486,142
1659018229.03329,337585.9037536,144
1659018229.03329,337585.9037579,125
1659018229.03329,337585.9037636,127
1659018229.03329,337585.9037676,134
1659018229.03329,337585.9037709,132
1659018229.03329,337585.9037764,137
1659018229.03329,337585.9037799,146
1659018229.03329,337585.9037838,149
1659018229.04426,337585.9037885,151
1659018229.04426,337585.9037918,146
1659018229.04426,337585.903795,139
1659018229.04426,337585.9037983,142
1659018229.04426,337585.9038035,146
1659018229.04426,337585.9038084,151
1659018229.04426,337585.9038118,161
1659018229.04426,337585.9038154,163
1659018229.04426,337585.9038189,172
1659018229.04426,337585.9038259,187
1659018229.04426,337585.9038304,203
1659018229.04426,337585.9038367,220
1659018229.04426,337585.9038416,234
1659018229.04426,337585.9038482,243
1659018229.04426,337585.9038532,251
1659018229.04426,337585.9038611,243
1659018229.04426,337585.9038648,232
1659018229.04426,337585.9038706,224
1659018229.04426,337585.9038767,217
1659018229.04426,337585.9038807,206
1659018229.04426,337586.4406512,201
1659018229.04426,337586.4406764,203
1659018229.04426,337586.4406876,208
1659018229.04426,337586.4406956,213
1659018229.52562,337586.4406994,217
1659018229.52562,337586.4407028,217
1659018229.52562,337586.4407061,217
1659018229.52562,337586.4407095,222
1659018229.52562,337586.4407128,224
1659018229.52562,337586.440716,222
1659018229.52562,337586.4407191,224
1659018229.52562,337586.4407224,220
1659018229.52562,337586.4407255,201
1659018229.52562,337586.4407297,189
1659018229.52562,337586.4407329,194
1659018229.52562,337586.4407359,198
1659018229.52562,337586.4407391,196
1659018229.52562,337586.4407422,196
1659018229.52562,337586.4407454,196
1659018229.52562,337586.4407484,203
1659018229.52562,337586.4407513,220
1659018229.52562,337586.4407543,224
1659018229.52562,337586.4407578,210
1659018229.52562,337586.4407608,196
1659018229.52562,337586.4407638,184
1659018229.52562,337586.4407667,172
1659018229.52562,337586.4407699,170
1659018229.52562,337586.4407729,179
1659018229.52562,337586.4407759,156
1659018229.52562,337586.4407791,132
1659018229.52562,337586.4407822,267
1659018229.52562,337586.4407854,587
1659018229.52562,337586.4407906,741
1659018229.52562,337586.4407939,551
1659018229.52562,337586.4407992,329
1659018229.52562,337586.4408022,208
1659018229.52562,337586.4408052,120
1659018229.52562,337586.4408082,99
1659018229.52562,337586.4408113,106
1659018229.52562,337586.4408147,97
1659018229.52562,337586.440818,99
1659018229.52562,337586.4408229,113
1659018229.52562,337586.4408263,113
1659018229.52562,337586.4408296,108
1659018229.52562,337586.4408328,111
1659018229.52562,337586.440836,120
1659018229.52562,337586.440841,120
1659018229.52562,337586.4408441,108
1659018229.52562,337586.4408475,101
1659018229.52562,337586.4408521,111
1659018229.52562,337586.440857,116
1659018229.52562,337586.4408618,113
1659018229.52562,337586.440866,123
1659018229.52562,337586.4408696,127
1659018229.53759,337586.4408734,127
1659018229.53759,337586.440877,134
1659018229.53759,337586.4408856,139
1659018229.53759,337586.4408922,146
1659018229.53759,337586.4408978,165
1659018229.53759,337586.4409023,182
1659018229.53759,337586.4409054,187
1659018229.53759,337586.4409102,189
1659018229.53759,337586.4409143,184
1659018229.53759,337586.4409179,170
1659018229.53759,337586.4409226,161
1659018229.53759,337586.4409253,158
1659018229.53759,337586.4409287,158
1659018229.53759,337586.4409314,163
1659018229.53759,337586.4409342,163
1659018229.53759,337586.4409369,163
1659018229.53759,337586.4409396,165
1659018229.53759,337586.4409423,172
1659018229.53759,337586.440945,182
1659018229.53759,337586.9272399,189
1659018229.53759,337586.92726,187
1659018229.53759,337586.9272679,179
1659018229.53759,337586.9272719,187
1659018229.53759,337586.9272773,194
1659018230.10375,337586.9272823,194
1659018230.10375,337586.9272857,191
1659018230.10375,337586.927289,198
1659018230.10375,337586.9272922,203
1659018230.10375,337586.9272955,194
1659018230.10375,337586.9272989,179
1659018230.10375,337586.9273022,179
1659018230.10375,337586.9273055,201
1659018230.10375,337586.9273087,210
1659018230.10375,337586.9273119,194
1659018230.10375,337586.9273151,165
1659018230.10375,337586.9273183,144
1659018230.10375,337586.9273215,149
1659018230.10375,337586.9273248,156
1659018230.10375,337586.9273281,161
1659018230.10375,337586.927333,158
1659018230.10375,337586.9273392,116
1659018230.10375,337586.9273455,116
1659018230.10375,337586.9273533,345
1659018230.10375,337586.9273621,632
1659018230.10375,337586.9273732,575
1659018230.10375,337586.9273862,319
1659018230.10375,337586.9273932,210
1659018230.10375,337586.9273961,137
1659018230.10375,337586.9274077,52
1659018230.10375,337586.9274193,59
1659018230.10375,337586.9274288,78
1659018230.10375,337586.9274418,59
1659018230.10375,337586.9274483,59
1659018230.10375,337586.9274557,68
1659018230.10375,337586.9274685,66
1659018230.10375,337586.9274758,68
1659018230.10375,337586.9274852,78
1659018230.10375,337586.9274971,75
1659018230.10375,337586.9275004,68
1659018230.10375,337586.9275026,59
1659018230.10375,337586.9275047,52
1659018230.10375,337586.9275067,47
1659018230.10375,337586.9275087,56
1659018230.10375,337586.927511,66
1659018230.10375,337586.9275207,71
1659018230.10375,337586.9275299,73
1659018230.10375,337586.9275324,80
1659018230.10375,337586.9275346,99
1659018230.10375,337586.9275366,113
1659018230.10375,337586.9275392,123
1659018230.10375,337586.9275494,134
1659018230.10375,337586.9275572,144
1659018230.10375,337586.9275597,134
1659018230.10375,337586.9275618,120
1659018230.11472,337586.9275639,108
1659018230.11472,337586.9275668,92
1659018230.11472,337586.9275778,78
1659018230.11472,337586.9275895,71
1659018230.11472,337586.9276332,71
1659018230.11472,337586.9276506,68
1659018230.11472,337586.9276708,63
1659018230.11472,337586.9276818,71
1659018230.11472,337586.9276866,78
1659018230.11472,337586.9276902,78
1659018230.11472,337586.9276936,73
1659018230.11472,337586.9277142,66
1659018230.11472,337586.9277432,66
1659018230.11472,337586.9277497,73
1659018230.11472,337586.9277542,73
1659018230.11472,337586.9277587,66
1659018230.11472,337586.927762,56
1659018230.11472,337586.9277714,47
1659018230.11472,337587.5123813,40
1659018230.11472,337587.5124,28
1659018230.11472,337587.5124079,18
1659018230.11472,337587.5124134,28
1659018230.11472,337587.5124171,33
1659018230.11472,337587.5124207,26
1659018230.69039,337587.5124269,11
1659018230.69039,337587.5124322,0
1659018230.69039,337587.5124367,-14
1659018230.69039,337587.5124421,-21
1659018230.69039,337587.5124468,-18
1659018230.69039,337587.5124508,-28
1659018230.69039,337587.5124538,-49
1659018230.69039,337587.5124572,-75
1659018230.69039,337587.5124606,-85
1659018230.69039,337587.5124635,56
1659018230.69039,337587.5124695,364
1659018230.69039,337587.5124757,447
1659018230.69039,337587.5124814,194
1659018230.69039,337587.5124944,18
1659018230.69039,337587.5124988,-18
1659018230.69039,337587.5125022,-113
1659018230.69039,337587.5125089,-151
1659018230.69039,337587.5125125,-120
1659018230.69039,337587.5125182,-132
1659018230.69039,337587.5125225,-146
1659018230.69039,337587.5125274,-132
1659018230.69039,337587.5125333,-132
1659018230.69039,337587.5125387,-139
1659018230.69039,337587.5125513,-132
1659018230.69039,337587.5125616,-130
1659018230.69039,337587.5125731,-139
1659018230.69039,337587.5126015,-156
1659018230.69039,337587.5126092,-163
1659018230.69039,337587.5126145,-161
1659018230.69039,337587.5126376,-156
1659018230.69039,337587.5126481,-158
1659018230.69039,337587.5126564,-156
1659018230.69039,337587.5126648,-151
1659018230.69039,337587.5126721,-144
1659018230.69039,337587.5126773,-139
1659018230.69039,337587.5126847,-127
1659018230.69039,337587.5126884,-111
1659018230.69039,337587.5126928,-99
1659018230.69039,337587.5126978,-92
1659018230.69039,337587.5127038,-89
1659018230.69039,337587.5127088,-94
1659018230.69039,337587.5128451,-104
1659018230.69039,337587.5128631,-113
1659018230.69039,337587.5128742,-125
1659018230.69039,337587.5128955,-134
1659018230.69039,337587.5129166,-139
1659018230.69039,337587.5129255,-137
1659018230.69039,337587.5129312,-134
1659018230.69039,337587.5129365,-132
1659018230.69039,337587.5129437,-130
1659018230.70136,337587.5129473,-127
1659018230.70136,337587.5129521,-125
1659018230.70136,337587.5129578,-127
1659018230.70136,337587.5129611,-127
1659018230.70136,337587.5129662,-125
1659018230.70136,337587.5129723,-120
1659018230.70136,337587.5129783,-123
1659018230.70136,337587.5129927,-127
1659018230.70136,337587.5130062,-137
1659018230.70136,337587.5130194,-149
1659018230.70136,337587.5130326,-158
1659018230.70136,337587.5130425,-161
1659018230.70136,337587.513048,-156
1659018230.70136,337587.5130551,-149
1659018230.70136,337587.5130608,-134
1659018230.70136,337587.5130679,-125
1659018230.70136,337587.5130772,-132
1659018230.70136,337588.0975295,-151
1659018230.70136,337588.097555,-149
1659018230.70136,337588.09757,-149
1659018230.70136,337588.0975845,-156
1659018230.70136,337588.0975955,-153
1659018230.70136,337588.0976047,-168
1659018230.70136,337588.097613,-201
1659018231.27709,337588.0976156,-87
1659018231.27709,337588.0976178,251
1659018231.27709,337588.0976198,428
1659018231.27709,337588.097623,215
1659018231.27709,337588.0976306,-26
1659018231.27709,337588.097639,-134
1659018231.27709,337588.0976478,-227
1659018231.27709,337588.0976527,-260
1659018231.27709,337588.0976613,-253
1659018231.27709,337588.0976727,-272
1659018231.27709,337588.097684,-269
1659018231.27709,337588.0976945,-253
1659018231.27709,337588.0977026,-248
1659018231.27709,337588.0977114,-248
1659018231.27709,337588.0977168,-246
1659018231.27709,337588.0977199,-241
1659018231.27709,337588.0977221,-234
1659018231.27709,337588.0977241,-234
1659018231.27709,337588.0977261,-241
1659018231.27709,337588.0977282,-236
1659018231.27709,337588.0977302,-229
1659018231.27709,337588.0977356,-227
1659018231.27709,337588.0977474,-217
1659018231.27709,337588.0977529,-206
1659018231.27709,337588.0977558,-198
1659018231.27709,337588.0977578,-189
1659018231.27709,337588.0977653,-177
1659018231.27709,337588.0977797,-165
1659018231.27709,337588.0977916,-146
1659018231.27709,337588.0978035,-125
1659018231.27709,337588.097809,-108
1659018231.27709,337588.0978156,-106
1659018231.27709,337588.0978212,-108
1659018231.27709,337588.0978258,-111
1659018231.27709,337588.0978288,-113
1659018231.27709,337588.0978417,-111
1659018231.27709,337588.0978474,-106
1659018231.27709,337588.0978501,-104
1659018231.27709,337588.0978523,-101
1659018231.27709,337588.0978547,-97
1659018231.27709,337588.0978635,-92
1659018231.27709,337588.0978753,-85
1659018231.27709,337588.0978816,-78
1659018231.27709,337588.0978839,-75
1659018231.27709,337588.0978859,-71
1659018231.27709,337588.0978881,-63
1659018231.27709,337588.0978951,-66
1659018231.27709,337588.0979027,-66
1659018231.27709,337588.0979132,-59
1659018231.27709,337588.0979167,-66
1659018231.28757,337588.0979197,-75
1659018231.28757,337588.0979227,-71
1659018231.28757,337588.0979256,-71
1659018231.28757,337588.0979286,-73
1659018231.28757,337588.0979315,-63
1659018231.28757,337588.0979343,-47
1659018231.28757,337588.0979372,-33
1659018231.28757,337588.0979403,-18
1659018231.28757,337588.0979432,-23
1659018231.28757,337588.0979461,-44
1659018231.28757,337588.0979491,-49
1659018231.28757,337588.097952,-40
1659018231.28757,337588.097955,-35
1659018231.28757,337588.0979619,-33
1659018231.28757,337588.0979704,-37
1659018231.28757,337588.09798,-68
1659018231.28757,337588.6841857,-37
1659018231.28757,337588.684207,210
1659018231.28757,337588.6842147,516
1659018231.28757,337588.6842197,483
1659018231.28757,337588.6842243,217
1659018231.28757,337588.6842289,49
1659018231.28757,337588.6842334,-54
1659018231.28757,337588.6842396,-108
1659018231.86558,337588.6842441,-89
1659018231.86558,337588.6842485,-87
1659018231.86558,337588.6842529,-99
1659018231.86558,337588.6842574,-97
1659018231.86558,337588.6842614,-111
1659018231.86558,337588.6842674,-120
1659018231.86558,337588.6842738,-111
1659018231.86558,337588.6842776,-108
1659018231.86558,337588.6842819,-111
1659018231.86558,337588.684286,-120
1659018231.86558,337588.6842901,-139
1659018231.86558,337588.6842947,-139
1659018231.86558,337588.6842987,-118
1659018231.86558,337588.6843026,-113
1659018231.86558,337588.6843064,-113
1659018231.86558,337588.6843102,-104
1659018231.86558,337588.684314,-94
1659018231.86558,337588.6843178,-80
1659018231.86558,337588.6843215,-61
1659018231.86558,337588.6843252,-44
1659018231.86558,337588.6843291,-26
1659018231.86558,337588.6843331,-2
1659018231.86558,337588.6843369,9
1659018231.86558,337588.6843404,11
1659018231.86558,337588.684344,9
1659018231.86558,337588.6843482,4
1659018231.86558,337588.6843637,0
1659018231.86558,337588.6843804,0
1659018231.86558,337588.6844164,0
1659018231.86558,337588.684434,0
1659018231.86558,337588.6844396,0
1659018231.86558,337588.6844482,7
1659018231.86558,337588.6844526,16
1659018231.86558,337588.6844591,23
1659018231.86558,337588.6844641,30
1659018231.86558,337588.6844698,33
1659018231.86558,337588.6844736,33
1659018231.86558,337588.6844774,40
1659018231.86558,337588.684483,47
1659018231.86558,337588.6844867,44
1659018231.86558,337588.6844905,42
1659018231.86558,337588.6844943,42
1659018231.86558,337588.6844984,42
1659018231.86558,337588.6845022,47
1659018231.86558,337588.6845081,47
1659018231.86558,337588.684512,37
1659018231.86558,337588.6845156,40
1659018231.86558,337588.6845214,52
1659018231.86558,337588.6845253,56
1659018231.86558,337588.6845305,71
1659018231.87656,337588.6845343,87
1659018231.87656,337588.684538,92
1659018231.87656,337588.6845434,80
1659018231.87656,337588.684547,66
1659018231.87656,337588.6845522,68
1659018231.87656,337588.6845591,68
1659018231.87656,337588.6845644,73
1659018231.87656,337588.6845688,78
1659018231.87656,337588.684574,59
1659018231.87656,337588.6845812,49
1659018231.87656,337588.6845867,220
1659018231.87656,337588.6845904,549
1659018231.87656,337588.6845982,646
1659018231.87656,337588.6846038,414
1659018231.87656,337588.6846077,194
1659018231.87656,337589.2673528,80
1659018231.87656,337589.2673716,9
1659018231.87656,337589.2673868,7
1659018231.87656,337589.2674004,14
1659018231.87656,337589.2674136,7
1659018231.87656,337589.2674269,11
1659018231.87656,337589.2674402,14
1659018231.87656,337589.2674545,9
1659018231.87656,337589.2674676,11
1659018232.35309,337589.2674761,9
1659018232.35309,337589.2674794,7
1659018232.35309,337589.2674815,16
1659018232.35309,337589.2674836,28
1659018232.35309,337589.2674855,28
1659018232.35309,337589.2674875,28
1659018232.35309,337589.2674895,18
1659018232.35309,337589.2674914,14
1659018232.35309,337589.2674934,26
1659018232.35309,337589.267496,35
1659018232.35309,337589.2675054,44
1659018232.35309,337589.2675145,59
1659018232.35309,337589.2675175,71
1659018232.35309,337589.2675196,85
1659018232.35309,337589.2675216,108
1659018232.35309,337589.2675247,125
1659018232.35309,337589.2675379,137
1659018232.35309,337589.2675441,134
1659018232.35309,337589.2675464,113
1659018232.35309,337589.2675484,89
1659018232.35309,337589.2675504,82
1659018232.35309,337589.2675524,82
1659018232.35309,337589.2675544,80
1659018232.35309,337589.2675565,87
1659018232.35309,337589.2675586,94
1659018232.35309,337589.2675606,94
1659018232.35309,337589.2675626,99
1659018232.35309,337589.2675646,106
1659018232.35309,337589.2675689,106
1659018232.35309,337589.2675759,111
1659018232.35309,337589.2675874,113
1659018232.35309,337589.2675958,113
1659018232.35309,337589.2676038,113
1659018232.35309,337589.2676127,118
1659018232.35309,337589.2676189,123
1659018232.35309,337589.267633,127
1659018232.35309,337589.2676466,134
1659018232.35309,337589.2676585,130
1659018232.35309,337589.2676663,118
1659018232.35309,337589.2676707,118
1659018232.35309,337589.2676765,123
1659018232.35309,337589.267682,125
1659018232.35309,337589.2676904,132
1659018232.35309,337589.2677001,146
1659018232.35309,337589.2677049,161
1659018232.35309,337589.267707,172
1659018232.35309,337589.2677175,168
1659018232.35309,337589.2677266,146
1659018232.35309,337589.2677293,142
1659018232.35309,337589.2677315,156
1659018232.36556,337589.2677336,161
1659018232.36556,337589.2677356,156
1659018232.36556,337589.2677378,151
1659018232.36556,337589.2677398,125
1659018232.36556,337589.2677418,161
1659018232.36556,337589.2677438,416
1659018232.36556,337589.2677458,717
1659018232.36556,337589.2677479,670
1659018232.36556,337589.2677499,397
1659018232.36556,337589.267752,229
1659018232.36556,337589.267754,125
1659018232.36556,337589.2677559,63
1659018232.36556,337589.267758,71
1659018232.36556,337589.2677601,71
1659018232.36556,337589.755157,59
1659018232.36556,337589.7551766,71
1659018232.36556,337589.7551866,73
1659018232.36556,337589.7551954,61
1659018232.36556,337589.7552098,66
1659018232.36556,337589.7552294,73
1659018232.36556,337589.755239,68
1659018232.36556,337589.7552491,71
1659018232.36556,337589.7552562,85
1659018232.36556,337589.7552658,92
1659018232.93247,337589.7552739,99
1659018232.93247,337589.7552798,99
1659018232.93247,337589.7552841,85
1659018232.93247,337589.7552883,85
1659018232.93247,337589.7552929,101
1659018232.93247,337589.7552978,113
1659018232.93247,337589.7553024,125
1659018232.93247,337589.7553067,146
1659018232.93247,337589.7553109,158
1659018232.93247,337589.7553171,170
1659018232.93247,337589.7553222,189
1659018232.93247,337589.7553289,196
1659018232.93247,337589.7553342,194
1659018232.93247,337589.7553401,182
1659018232.93247,337589.7553478,151
1659018232.93247,337589.755355,130
1659018232.93247,337589.755362,137
1659018232.93247,337589.7553663,139
1659018232.93247,337589.7553733,134
1659018232.93247,337589.7554095,137
1659018232.93247,337589.755415,132
1659018232.93247,337589.7554183,127
1659018232.93247,337589.7554238,137
1659018232.93247,337589.755428,146
1659018232.93247,337589.7554315,151
1659018232.93247,337589.7554353,153
1659018232.93247,337589.7554391,153
1659018232.93247,337589.7554429,158
1659018232.93247,337589.7554465,165
1659018232.93247,337589.7554506,165
1659018232.93247,337589.7554571,158
1659018232.93247,337589.7554648,163
1659018232.93247,337589.7554717,175
1659018232.93247,337589.7554778,170
1659018232.93247,337589.7554853,161
1659018232.93247,337589.7554889,168
1659018232.93247,337589.7554926,177
1659018232.93247,337589.7554956,187
1659018232.93247,337589.7554989,198
1659018232.93247,337589.755502,215
1659018232.93247,337589.755505,224
1659018232.93247,337589.7555087,215
1659018232.93247,337589.7555123,201
1659018232.93247,337589.7555152,206
1659018232.93247,337589.7555182,213
1659018232.93247,337589.755522,208
1659018232.93247,337589.7555256,208
1659018232.93247,337589.7555305,198
1659018232.93247,337589.7555338,170
1659018232.93247,337589.7555371,258
1659018232.94344,337589.7555402,556
1659018232.94344,337589.7555435,769
1659018232.94344,337589.7555467,610
1659018232.94344,337589.75555,357
1659018232.94344,337589.7555541,234
1659018232.94344,337589.755558,149
1659018232.94344,337589.7555613,118
1659018232.94344,337589.7555651,144
1659018232.94344,337589.7555685,132
1659018232.94344,337589.7555722,106
1659018232.94344,337589.7555754,113
1659018232.94344,337589.7555785,125
1659018232.94344,337589.755582,123
1659018232.94344,337590.3401941,127
1659018232.94344,337590.3402065,142
1659018232.94344,337590.340211,144
1659018232.94344,337590.3402137,144
1659018232.94344,337590.3402163,151
1659018232.94344,337590.3402189,158
1659018232.94344,337590.3402211,165
1659018232.94344,337590.3402235,172
1659018232.94344,337590.340226,170
1659018232.94344,337590.3402284,163
1659018232.94344,337590.3402309,165
1659018233.52028,337590.3402333,175
1659018233.52028,337590.3402357,191
1659018233.52028,337590.340238,210
1659018233.52028,337590.3402403,220
1659018233.52028,337590.3402426,217
1659018233.52028,337590.3402448,220
1659018233.52028,337590.3402472,220
1659018233.52028,337590.3402496,213
1659018233.52028,337590.3402521,203
1659018233.52028,337590.3402545,187
1659018233.52028,337590.3402567,168
1659018233.52028,337590.340259,165
1659018233.52028,337590.3402613,175
1659018233.52028,337590.3402636,177
1659018233.52028,337590.3402659,177
1659018233.52028,337590.3402682,184
1659018233.52028,337590.3402705,191
1659018233.52028,337590.3402727,194
1659018233.52028,337590.3402756,201
1659018233.52028,337590.3402779,210
1659018233.52028,337590.34028,210
1659018233.52028,337590.3402821,203
1659018233.52028,337590.3402843,206
1659018233.52028,337590.3402865,206
1659018233.52028,337590.3402887,206
1659018233.52028,337590.3402909,210
1659018233.52028,337590.3402931,215
1659018233.52028,337590.3402953,215
1659018233.52028,337590.3402975,210
1659018233.52028,337590.3402996,210
1659018233.52028,337590.3403018,215
1659018233.52028,337590.3403039,232
1659018233.52028,337590.340306,251
1659018233.52028,337590.3403081,262
1659018233.52028,337590.3403102,255
1659018233.52028,337590.3403122,232
1659018233.52028,337590.3403143,220
1659018233.52028,337590.3403165,227
1659018233.52028,337590.3403187,234
1659018233.52028,337590.3403208,227
1659018233.52028,337590.3403228,208
1659018233.52028,337590.3403248,175
1659018233.52028,337590.3403269,236
1659018233.52028,337590.340329,518
1659018233.52028,337590.3403311,731
1659018233.52028,337590.3403333,556
1659018233.52028,337590.3403355,317
1659018233.52028,337590.3403375,269
1659018233.52028,337590.3403396,196
1659018233.52028,337590.3403417,113
1659018233.53125,337590.3403438,125
1659018233.53125,337590.3403466,137
1659018233.53125,337590.3403487,120
1659018233.53125,337590.3403509,125
1659018233.53125,337590.3403531,137
1659018233.53125,337590.3403553,137
1659018233.53125,337590.3403574,139
1659018233.53125,337590.3403596,144
1659018233.53125,337590.3403618,149
1659018233.53125,337590.340364,153
1659018233.53125,337590.3403665,158
1659018233.53125,337590.3403687,158
1659018233.53125,337590.9248826,161
1659018233.53125,337590.9248998,163
1659018233.53125,337590.9249069,170
1659018233.53125,337590.9249363,179
1659018233.53125,337590.9249476,187
1659018233.53125,337590.9249522,179
1659018233.53125,337590.9249806,170
1659018233.53125,337590.9249939,196
1659018233.53125,337590.9249979,227
1659018233.53125,337590.9250025,213
1659018233.53125,337590.9250316,220
1659018233.53125,337590.9250395,243
1659018234.05498,337590.9250433,201
1659018234.05498,337590.9250469,158
1659018234.05498,337590.9250502,172
1659018234.05498,337590.9250535,172
1659018234.05498,337590.9250568,163
1659018234.05498,337590.9250603,165
1659018234.05498,337590.9250638,153
1659018234.05498,337590.9250673,144
1659018234.05498,337590.925071,142
1659018234.05498,337590.9250745,146
1659018234.05498,337590.9250779,158
1659018234.05498,337590.9250814,151
1659018234.05498,337590.9250848,134
1659018234.05498,337590.9250892,130
1659018234.05498,337590.9250929,132
1659018234.05498,337590.9250967,127
1659018234.05498,337590.9251002,123
1659018234.05498,337590.9251056,120
1659018234.05498,337590.9251091,113
1659018234.05498,337590.9251144,99
1659018234.05498,337590.9251192,87
1659018234.05498,337590.9251224,82
1659018234.05498,337590.9251254,78
1659018234.05498,337590.9251284,85
1659018234.05498,337590.9251312,92
1659018234.05498,337590.925134,92
1659018234.05498,337590.9251369,94
1659018234.05498,337590.9251397,78
1659018234.05498,337590.9251425,61
1659018234.05498,337590.9251455,71
1659018234.05498,337590.9251483,37
1659018234.05498,337590.9251512,-11
1659018234.05498,337590.9251541,14
1659018234.05498,337590.925157,-7
1659018234.05498,337590.9251599,-54
1659018234.05498,337590.9251627,179
1659018234.05498,337590.9251656,547
1659018234.05498,337590.9251685,554
1659018234.05498,337590.9251714,296
1659018234.05498,337590.9251742,130
1659018234.05498,337590.9251771,4
1659018234.05498,337590.9251799,-94
1659018234.05498,337590.9251827,-82
1659018234.05498,337590.9251857,-66
1659018234.05498,337590.9251886,-89
1659018234.05498,337590.9251915,-89
1659018234.05498,337590.9251943,-75
1659018234.05498,337590.9251972,-78
1659018234.05498,337590.9252001,-78
1659018234.05498,337590.9252029,-71
1659018234.07692,337590.9252059,-73
1659018234.07692,337590.9252088,-73
1659018234.07692,337590.9252116,-68
1659018234.07692,337590.9252145,-61
1659018234.07692,337590.9252174,-54
1659018234.07692,337590.9252203,-54
1659018234.07692,337590.9252232,-59
1659018234.07692,337590.925226,-54
1659018234.07692,337590.9252288,-49
1659018234.07692,337590.9252317,-52
1659018234.07692,337590.9252346,-44
1659018234.07692,337591.4615911,-42
1659018234.07692,337591.4616086,-35
1659018234.07692,337591.4616166,-26
1659018234.07692,337591.4616222,-26
1659018234.07692,337591.4616261,-16
1659018234.07692,337591.4616311,-9
1659018234.07692,337591.4616344,-18
1659018234.07692,337591.4616389,-33
1659018234.07692,337591.4616421,-52
1659018234.07692,337591.4616454,-71
1659018234.07692,337591.4616486,-71
1659018234.07692,337591.4616519,-59
1659018234.07692,337591.4616572,-56
1659018234.59717,337591.4616618,-54
1659018234.59717,337591.4616653,-54
1659018234.59717,337591.4616687,-56
1659018234.59717,337591.4616723,-49
1659018234.59717,337591.4616754,-52
1659018234.59717,337591.4616787,-61
1659018234.59717,337591.4616816,-52
1659018234.59717,337591.461692,-49
1659018234.59717,337591.4616958,-66
1659018234.59717,337591.4616993,-80
1659018234.59717,337591.4617027,-68
1659018234.59717,337591.4617062,-54
1659018234.59717,337591.4617095,-54
1659018234.59717,337591.4617129,-54
1659018234.59717,337591.4617186,-61
1659018234.59717,337591.4617219,-66
1659018234.59717,337591.4617271,-40
1659018234.59717,337591.4617305,-11
1659018234.59717,337591.4617357,0
1659018234.59717,337591.4617392,11
1659018234.59717,337591.4617426,0
1659018234.59717,337591.4617475,-30
1659018234.59717,337591.4617506,-37
1659018234.59717,337591.4617536,-30
1659018234.59717,337591.4617567,-33
1659018234.59717,337591.4617598,-26
1659018234.59717,337591.4617629,-37
1659018234.59717,337591.4617658,-71
1659018234.59717,337591.4617693,37
1659018234.59717,337591.4617747,369
1659018234.59717,337591.4617792,594
1659018234.59717,337591.4617848,440
1659018234.59717,337591.4617884,191
1659018234.59717,337591.4617919,44
1659018234.59717,337591.4617984,-63
1659018234.59717,337591.4618029,-85
1659018234.59717,337591.461808,-54
1659018234.59717,337591.4618127,-63

1659018234.59717,337591.4618178,-66
1659018234.59717,337591.4618223,-47
1659018234.59717,337591.4618281,-44
1659018234.59717,337591.4618315,-40
1659018234.59717,337591.4618368,-28
1659018234.59717,337591.4618416,-23
1659018234.59717,337591.4618468,-16
1659018234.59717,337591.4618506,-2
1659018234.59717,337591.461856,2
1659018234.59717,337591.4618609,2
1659018234.59717,337591.4618664,7
1659018234.59717,337591.46187,16
1659018234.61013,337591.4618736,21
1659018234.61013,337591.4618795,28
1659018234.61013,337591.461883,42
1659018234.61013,337591.4618866,49
1659018234.61013,337591.4618917,47
1659018234.61013,337591.4618953,56
1659018234.61013,337591.4618989,78
1659018234.61013,337591.4619047,94
1659018234.61013,337591.4619082,108
1659018234.61013,337591.4619135,113
1659018234.61013,337591.9979342,106
1659018234.61013,337591.9979526,97
1659018234.61013,337591.9979647,94
1659018234.61013,337591.9979674,89
1659018234.61013,337591.9979696,85
1659018234.61013,337591.9979716,87
1659018234.61013,337591.9979737,92
1659018234.61013,337591.9979757,94
1659018234.61013,337591.9979782,92
1659018234.61013,337591.9979802,92
1659018234.61013,337591.9979822,94
1659018234.61013,337591.9979842,85
1659018234.61013,337591.9979863,71
1659018234.61013,337591.9979882,68
1659018235.23095,337591.9979903,75
1659018235.23095,337591.9979924,75
1659018235.23095,337591.9979943,78
1659018235.23095,337591.9979962,78
1659018235.23095,337591.9979982,61
1659018235.23095,337591.9980001,47
1659018235.23095,337591.998002,56
1659018235.23095,337591.9980047,61
1659018235.23095,337591.9980066,59
1659018235.23095,337591.9980085,68
1659018235.23095,337591.9980104,92
1659018235.23095,337591.9980123,101
1659018235.23095,337591.9980142,99
1659018235.23095,337591.9980161,85
1659018235.23095,337591.998018,66
1659018235.23095,337591.9980199,63
1659018235.23095,337591.9980218,75
1659018235.23095,337591.9980236,73
1659018235.23095,337591.9980255,66
1659018235.23095,337591.9980274,59
1659018235.23095,337591.9980294,37
1659018235.23095,337591.9980314,94
1659018235.23095,337591.9980334,376
1659018235.23095,337591.9980355,648
1659018235.23095,337591.9980375,547
1659018235.23095,337591.9980394,284
1659018235.23095,337591.9980413,149
1659018235.23095,337591.9980431,49
1659018235.23095,337591.9980452,0
1659018235.23095,337591.9980471,28
1659018235.23095,337591.998049,33
1659018235.23095,337591.9980509,23
1659018235.23095,337591.9980528,42
1659018235.23095,337591.9980546,59
1659018235.23095,337591.9980566,59
1659018235.23095,337591.9980584,61
1659018235.23095,337591.9980603,71
1659018235.23095,337591.9980622,78
1659018235.23095,337591.9980641,87
1659018235.23095,337591.998066,104
1659018235.23095,337591.998068,118
1659018235.23095,337591.9980699,116
1659018235.23095,337591.9980719,111
1659018235.23095,337591.9980737,118
1659018235.23095,337591.9980756,134
1659018235.23095,337591.9980775,144
1659018235.23095,337591.9980794,151
1659018235.23095,337591.9980814,161
1659018235.23095,337591.9980832,175
1659018235.23095,337591.998085,189
1659018235.24192,337591.9980875,208
1659018235.24192,337591.9980918,215
1659018235.24192,337591.9980962,213
1659018235.24192,337591.9981009,210
1659018235.24192,337591.9981069,196
1659018235.24192,337591.998111,172
1659018235.24192,337591.9981173,172
1659018235.24192,337591.9981226,182
1659018235.24192,337591.9981291,177
1659018235.24192,337592.6317332,172
1659018235.24192,337592.6317505,177
1659018235.24192,337592.6317648,184
1659018235.24192,337592.631778,187
1659018235.24192,337592.6317913,184
1659018235.24192,337592.6318002,187
1659018235.24192,337592.6318029,187
1659018235.24192,337592.6318051,182
1659018235.24192,337592.6318071,179
1659018235.24192,337592.6318096,170
1659018235.24192,337592.6318116,168
1659018235.24192,337592.6318136,172
1659018235.24192,337592.6318156,172
1659018235.24192,337592.6318177,168
1659018235.24192,337592.6318197,163
1659018235.71074,337592.6318217,144
1659018235.71074,337592.6318236,132
1659018235.71074,337592.6318255,142
1659018235.71074,337592.6318274,158
1659018235.71074,337592.6318293,179
1659018235.71074,337592.6318312,189
1659018235.71074,337592.6318331,158
1659018235.71074,337592.6318349,130
1659018235.71074,337592.6318368,146
1659018235.71074,337592.6318387,158
1659018235.71074,337592.6318406,146
1659018235.71074,337592.6318424,139
1659018235.71074,337592.6318444,118
1659018235.71074,337592.6318464,125
1659018235.71074,337592.6318484,338
1659018235.71074,337592.6318503,632
1659018235.71074,337592.6318524,594
1659018235.71074,337592.6318544,319
1659018235.71074,337592.6318564,201
1659018235.71074,337592.6318584,153
1659018235.71074,337592.6318605,75
1659018235.71074,337592.6318625,75
1659018235.71074,337592.6318645,97
1659018235.71074,337592.6318665,82
1659018235.71074,337592.6318684,89
1659018235.71074,337592.6318704,108
1659018235.71074,337592.6318724,108
1659018235.71074,337592.6318744,108
1659018235.71074,337592.6318764,125
1659018235.71074,337592.6318784,137
1659018235.71074,337592.6318805,139
1659018235.71074,337592.6318824,144
1659018235.71074,337592.6318844,151
1659018235.71074,337592.6318872,151
1659018235.71074,337592.6318893,146
1659018235.71074,337592.6318914,149
1659018235.71074,337592.6318935,170
1659018235.71074,337592.6318955,177
1659018235.71074,337592.6318974,177
1659018235.71074,337592.6318994,189
1659018235.71074,337592.6319014,208
1659018235.71074,337592.6319034,220
1659018235.71074,337592.6319053,232
1659018235.71074,337592.6319074,241
1659018235.71074,337592.6319094,239
1659018235.71074,337592.6319114,224
1659018235.71074,337592.631914,206
1659018235.71074,337592.631916,198
1659018235.71074,337592.6319181,191
1659018235.71074,337592.6319201,187
1659018235.72186,337592.6319221,182
1659018235.72186,337592.6319241,175
1659018235.72186,337592.631926,172
1659018235.72186,337592.631928,182
1659018235.72186,337592.63193,189
1659018235.72186,337592.631932,189
1659018235.72186,337592.6319339,187
1659018235.72186,337592.6319382,184
1659018235.72186,337593.118956,177
1659018235.72186,337593.1189727,175
1659018235.72186,337593.1189789,179
1659018235.72186,337593.1189857,182
1659018235.72186,337593.1189895,177
1659018235.72186,337593.1189946,170
1659018235.72186,337593.1189996,163
1659018235.72186,337593.1190033,158
1659018235.72186,337593.1190083,151
1659018235.72186,337593.1190134,149
1659018235.72186,337593.1190171,163
1659018235.72186,337593.1190222,165
1659018235.72186,337593.1190273,149
1659018235.72186,337593.1190329,137
1659018235.72186,337593.1190366,130
1659018235.72186,337593.1190403,125
1659018236.2529,337593.1190454,127
1659018236.2529,337593.1190491,118
1659018236.2529,337593.1190528,89
1659018236.2529,337593.1190563,56
1659018236.2529,337593.11906,23
1659018236.2529,337593.1190635,113
1659018236.2529,337593.1190671,431
1659018236.2529,337593.1190707,639
1659018236.2529,337593.1190743,445
1659018236.2529,337593.1190779,194
1659018236.2529,337593.1190815,108
1659018236.2529,337593.1190851,30
1659018236.2529,337593.1190889,-9
1659018236.2529,337593.1190926,16
1659018236.2529,337593.119096,9
1659018236.2529,337593.1191001,-9
1659018236.2529,337593.1191056,11
1659018236.2529,337593.1191108,23
1659018236.2529,337593.1191162,23
1659018236.2529,337593.1191198,33
1659018236.2529,337593.1191236,37
1659018236.2529,337593.1191292,33
1659018236.2529,337593.1191328,42
1659018236.2529,337593.1191366,47
1659018236.2529,337593.1191405,42
1659018236.2529,337593.1191442,40
1659018236.2529,337593.1191478,44
1659018236.2529,337593.1191517,52
1659018236.2529,337593.1191569,61
1659018236.2529,337593.1191605,68
1659018236.2529,337593.1191642,78
1659018236.2529,337593.1191693,92
1659018236.2529,337593.1191734,101
1659018236.2529,337593.1191784,113
1659018236.2529,337593.1191821,130
1659018236.2529,337593.1191875,139
1659018236.2529,337593.1191925,137
1659018236.2529,337593.119196,127
1659018236.2529,337593.1192012,116
1659018236.2529,337593.1192063,111
1659018236.2529,337593.1192114,108
1659018236.2529,337593.1192165,104
1659018236.2529,337593.119221,104
1659018236.2529,337593.119226,108
1659018236.2529,337593.1192295,111
1659018236.2529,337593.1192331,111
1659018236.2529,337593.1192379,111
1659018236.2529,337593.1192421,111
1659018236.2529,337593.1192458,116
1659018236.2529,337593.1192512,118
1659018236.26188,337593.119255,120
1659018236.26188,337593.1192604,120
1659018236.26188,337593.1192649,118
1659018236.26188,337593.1192699,113
1659018236.26188,337593.1192741,113
1659018236.26188,337593.1192795,113
1659018236.26188,337593.1192864,97
1659018236.26188,337593.6566143,85
1659018236.26188,337593.6566335,87
1659018236.26188,337593.6566416,92
1659018236.26188,337593.6566458,101
1659018236.26188,337593.6566498,116
1659018236.26188,337593.6566551,125
1659018236.26188,337593.6566596,125
1659018236.26188,337593.6566651,106
1659018236.26188,337593.6566697,78
1659018236.26188,337593.6566736,66
1659018236.26188,337593.6566789,73
1659018236.26188,337593.6566828,78
1659018236.26188,337593.6566883,61
1659018236.26188,337593.6566921,21
1659018236.26188,337593.6566974,42
1659018236.26188,337593.6567011,293
1659018236.26188,337593.6567048,610
1659018236.83942,337593.6567085,558
1659018236.83942,337593.6567122,262
1659018236.83942,337593.6567157,89
1659018236.83942,337593.6567193,-9
1659018236.83942,337593.6567231,-73
1659018236.83942,337593.6567268,-56
1659018236.83942,337593.6567305,-49
1659018236.83942,337593.6567341,-59
1659018236.83942,337593.6567378,-47
1659018236.83942,337593.6567414,-42
1659018236.83942,337593.656745,-42
1659018236.83942,337593.6567485,-35
1659018236.83942,337593.6567521,-30
1659018236.83942,337593.6567555,-30
1659018236.83942,337593.6567589,-28
1659018236.83942,337593.6567625,-26
1659018236.83942,337593.6567659,-23
1659018236.83942,337593.6567695,-18
1659018236.83942,337593.6567729,-14
1659018236.83942,337593.6567764,-9
1659018236.83942,337593.6567798,-2
1659018236.83942,337593.6567833,2
1659018236.83942,337593.656787,11
1659018236.83942,337593.6567907,16
1659018236.83942,337593.6567945,23
1659018236.83942,337593.6567981,35
1659018236.83942,337593.6568017,49
1659018236.83942,337593.6568053,63
1659018236.83942,337593.6568089,75
1659018236.83942,337593.6568125,68
1659018236.83942,337593.6568161,52
1659018236.83942,337593.6568197,52
1659018236.83942,337593.6568233,54
1659018236.83942,337593.6568269,49
1659018236.83942,337593.6568304,42
1659018236.83942,337593.6568339,42
1659018236.83942,337593.6568375,42
1659018236.83942,337593.6568411,42
1659018236.83942,337593.6569121,42
1659018236.83942,337593.6569196,49
1659018236.83942,337593.6569226,56
1659018236.83942,337593.6569253,56
1659018236.83942,337593.6569279,47
1659018236.83942,337593.6569307,42
1659018236.83942,337593.6569334,49
1659018236.83942,337593.6569359,49
1659018236.83942,337593.6569385,37
1659018236.83942,337593.6569412,21
1659018236.83942,337593.6569438,16
1659018236.83942,337593.6569464,16
1659018236.85538,337593.6569491,16
1659018236.85538,337593.6569517,16
1659018236.85538,337593.6569543,18
1659018236.85538,337593.656957,16
1659018236.85538,337593.6569596,14
1659018236.85538,337593.6569623,23
1659018236.85538,337594.2404766,42
1659018236.85538,337594.2404957,52
1659018236.85538,337594.240504,44
1659018236.85538,337594.2405139,21
1659018236.85538,337594.240521,9
1659018236.85538,337594.2405337,2
1659018236.85538,337594.2405448,-16
1659018236.85538,337594.2405531,-23
1659018236.85538,337594.2405629,-33
1659018236.85538,337594.240574,-78
1659018236.85538,337594.2405826,-30
1659018236.85538,337594.2405924,265
1659018236.85538,337594.2406047,539
1659018236.85538,337594.2406133,423
1659018236.85538,337594.2406253,153
1659018236.85538,337594.2406362,0
1659018236.85538,337594.2406438,-113
1659018236.85538,337594.2406552,-163
1659018237.41914,337594.2406658,-146
1659018237.41914,337594.2406718,-151
1659018237.41914,337594.2406815,-161
1659018237.41914,337594.2406885,-149
1659018237.41914,337594.2406927,-146
1659018237.41914,337594.240698,-151
1659018237.41914,337594.2407053,-144
1659018237.41914,337594.2407143,-137
1659018237.41914,337594.2407221,-130
1659018237.41914,337594.2407256,-123
1659018237.41914,337594.2407277,-118
1659018237.41914,337594.240733,-111
1659018237.41914,337594.2407403,-106
1659018237.41914,337594.2407509,-106
1659018237.41914,337594.2407581,-101
1659018237.41914,337594.2407676,-94
1659018237.41914,337594.2407795,-85
1659018237.41914,337594.2407917,-71
1659018237.41914,337594.2408012,-59
1659018237.41914,337594.2408072,-49
1659018237.41914,337594.2408196,-30
1659018237.41914,337594.2408284,-16
1659018237.41914,337594.2408403,-9
1659018237.41914,337594.2408532,-2
1659018237.41914,337594.2408623,-2
1659018237.41914,337594.2408683,-14
1659018237.41914,337594.2408761,-26
1659018237.41914,337594.2408806,-30
1659018237.41914,337594.2408841,-30
1659018237.41914,337594.2408884,-30
1659018237.41914,337594.2408919,-30
1659018237.41914,337594.2408948,-26
1659018237.41914,337594.2408978,-21
1659018237.41914,337594.2409006,-16
1659018237.41914,337594.2409035,-11
1659018237.41914,337594.2409063,-7
1659018237.41914,337594.2409092,-9
1659018237.41914,337594.2409121,-21
1659018237.41914,337594.2409149,-28
1659018237.41914,337594.2409178,-30
1659018237.41914,337594.2409207,-30
1659018237.41914,337594.2409235,-23
1659018237.41914,337594.2409264,-16
1659018237.41914,337594.2409293,-16
1659018237.41914,337594.2409321,-16
1659018237.41914,337594.240935,-14
1659018237.41914,337594.2409379,-11
1659018237.41914,337594.2409406,-14
1659018237.41914,337594.2409435,-16
1659018237.41914,337594.2409464,-9
1659018237.43111,337594.2409493,2
1659018237.43111,337594.2409522,16
1659018237.43111,337594.2409551,33
1659018237.43111,337594.2409579,37
1659018237.43111,337594.2409607,18
1659018237.43111,337594.8270342,-4
1659018237.43111,337594.8270579,-7
1659018237.43111,337594.8270732,-4
1659018237.43111,337594.8270819,-18
1659018237.43111,337594.8270845,-26
1659018237.43111,337594.8270868,-42
1659018237.43111,337594.8270889,-47
1659018237.43111,337594.827091,130
1659018237.43111,337594.8270932,466
1659018237.43111,337594.8270952,551
1659018237.43111,337594.8270998,310
1659018237.43111,337594.8271019,101
1659018237.43111,337594.8271325,-18
1659018237.43111,337594.8271421,-108
1659018237.43111,337594.8271488,-125
1659018237.43111,337594.8271535,-130
1659018237.43111,337594.8271575,-146
1659018237.43111,337594.8271607,-132
1659018237.43111,337594.8271642,-113
1659018237.96322,337594.8271676,-108
1659018237.96322,337594.8271705,-106
1659018237.96322,337594.8271734,-101
1659018237.96322,337594.8271764,-97
1659018237.96322,337594.8271796,-85
1659018237.96322,337594.8271831,-75
1659018237.96322,337594.8271864,-66
1659018237.96322,337594.8271918,-61
1659018237.96322,337594.8271951,-61
1659018237.96322,337594.8271985,-54
1659018237.96322,337594.8272024,-40
1659018237.96322,337594.827206,-30
1659018237.96322,337594.8272094,-18
1659018237.96322,337594.827215,-2
1659018237.96322,337594.8272182,7
1659018237.96322,337594.8272233,16
1659018237.96322,337594.8272357,35
1659018237.96322,337594.8272609,59
1659018237.96322,337594.8272965,68
1659018237.96322,337594.8273099,63
1659018237.96322,337594.8273163,56
1659018237.96322,337594.8273208,52
1659018237.96322,337594.827327,44
1659018237.96322,337594.8273312,35
1659018237.96322,337594.8273369,37
1659018237.96322,337594.8273411,42
1659018237.96322,337594.8273468,40
1659018237.96322,337594.8273521,30
1659018237.96322,337594.8273562,37
1659018237.96322,337594.8273691,47
1659018237.96322,337594.827375,52
1659018237.96322,337594.827381,49
1659018237.96322,337594.8273843,47
1659018237.96322,337594.8273881,47
1659018237.96322,337594.8273922,47
1659018237.96322,337594.8273959,49
1659018237.96322,337594.8273999,56
1659018237.96322,337594.8274039,61
1659018237.96322,337594.8274077,61
1659018237.96322,337594.8274113,59
1659018237.96322,337594.827415,59
1659018237.96322,337594.8274187,59
1659018237.96322,337594.8274227,68
1659018237.96322,337594.8274265,71
1659018237.96322,337594.8274318,63
1659018237.96322,337594.8274356,63
1659018237.96322,337594.8274393,73
1659018237.96322,337594.8274433,87
1659018237.96322,337594.8274489,106
1659018237.96322,337594.8274527,113
1659018237.97619,337594.8274566,92
1659018237.97619,337594.8274623,59
1659018237.97619,337594.8274662,49
1659018237.97619,337594.8274717,61
1659018237.97619,337595.3622081,63
1659018237.97619,337595.3622299,59
1659018237.97619,337595.3622461,59
1659018237.97619,337595.3622569,37
1659018237.97619,337595.362266,68
1659018237.97619,337595.3622703,307
1659018237.97619,337595.3622757,615
1659018237.97619,337595.3622792,592
1659018237.97619,337595.3622831,326
1659018237.97619,337595.3622889,163
1659018237.97619,337595.3622937,63
1659018237.97619,337595.3623007,-2
1659018237.97619,337595.3623116,4
1659018237.97619,337595.3623143,14
1659018237.97619,337595.3623164,7
1659018237.97619,337595.3623185,18
1659018237.97619,337595.3623205,37
1659018237.97619,337595.3623226,30
1659018237.97619,337595.362325,14
1659018237.97619,337595.3623269,18
1659018238.59494,337595.3623324,30
1659018238.59494,337595.362348,33
1659018238.59494,337595.3623555,42
1659018238.59494,337595.3623624,52
1659018238.59494,337595.3623737,42
1659018238.59494,337595.3623845,33
1659018238.59494,337595.3623922,49
1659018238.59494,337595.3623972,68
1659018238.59494,337595.3624055,75
1659018238.59494,337595.3624095,87
1659018238.59494,337595.3624137,104
1659018238.59494,337595.3624169,113
1659018238.59494,337595.3624205,120
1659018238.59494,337595.3624228,137
1659018238.59494,337595.3624269,161
1659018238.59494,337595.3624353,170
1659018238.59494,337595.3624456,161
1659018238.59494,337595.3624526,142
1659018238.59494,337595.3624657,127
1659018238.59494,337595.3624757,120
1659018238.59494,337595.3624855,123
1659018238.59494,337595.362496,127
1659018238.59494,337595.3625038,130
1659018238.59494,337595.3625126,130
1659018238.59494,337595.362523,130
1659018238.59494,337595.3625305,132
1659018238.59494,337595.3625405,134
1659018238.59494,337595.3625508,139
1659018238.59494,337595.3625577,142
1659018238.59494,337595.3625688,146
1659018238.59494,337595.3625788,144
1659018238.59494,337595.3625879,146
1659018238.59494,337595.3625938,153
1659018238.59494,337595.362598,158
1659018238.59494,337595.3626,161
1659018238.59494,337595.362602,163
1659018238.59494,337595.3626041,153
1659018238.59494,337595.3626061,153
1659018238.59494,337595.3626082,158
1659018238.59494,337595.3626102,158
1659018238.59494,337595.3626122,158
1659018238.59494,337595.3626142,161
1659018238.59494,337595.3626166,158
1659018238.59494,337595.3626186,163
1659018238.59494,337595.3626213,170
1659018238.59494,337595.3626233,146
1659018238.59494,337595.3626254,130
1659018238.59494,337595.3626275,142
1659018238.59494,337595.3626294,137
1659018238.59494,337595.3626314,127
1659018238.60591,337595.3626334,137
1659018238.60591,337595.3626354,123
1659018238.60591,337595.3626376,123
1659018238.60591,337595.9956991,317
1659018238.60591,337595.9957189,620
1659018238.60591,337595.9957287,622
1659018238.60591,337595.9957336,355
1659018238.60591,337595.9957414,220
1659018238.60591,337595.9957489,182
1659018238.60591,337595.9957565,101
1659018238.60591,337595.9957607,87
1659018238.60591,337595.9957671,99
1659018238.60591,337595.9957732,75
1659018238.60591,337595.9957806,78
1659018238.60591,337595.9957844,101
1659018238.60591,337595.995789,101
1659018238.60591,337595.9957934,104
1659018238.60591,337595.9957987,104
1659018238.60591,337595.9958058,89
1659018238.60591,337595.9958092,89
1659018238.60591,337595.9958156,111
1659018238.60591,337595.9958213,118
1659018238.60591,337595.9958285,120
1659018238.60591,337595.9958355,132
1659018239.08541,337595.9958415,137
1659018239.08541,337595.9958459,139
1659018239.08541,337595.9958504,149
1659018239.08541,337595.9958537,165
1659018239.08541,337595.9958569,182
1659018239.08541,337595.9958601,194
1659018239.08541,337595.9958633,198
1659018239.08541,337595.9958665,201
1659018239.08541,337595.9958717,215
1659018239.08541,337595.9958766,224
1659018239.08541,337595.9958892,213
1659018239.08541,337595.9958976,194
1659018239.08541,337595.9959031,184
1659018239.08541,337595.995912,177
1659018239.08541,337595.9959282,168
1659018239.08541,337595.9959359,163
1659018239.08541,337595.9959441,165
1659018239.08541,337595.9959537,165
1659018239.08541,337595.9959627,163
1659018239.08541,337595.9959691,165
1659018239.08541,337595.9959727,170
1659018239.08541,337595.9959764,170
1659018239.08541,337595.9959815,175
1659018239.08541,337595.9959863,179
1659018239.08541,337595.9959917,179
1659018239.08541,337595.9959955,179
1659018239.08541,337595.9960035,179
1659018239.08541,337595.9960114,177
1659018239.08541,337595.9960252,179
1659018239.08541,337595.9960387,184
1659018239.08541,337595.9960523,189
1659018239.08541,337595.9960648,182
1659018239.08541,337595.9960779,172
1659018239.08541,337595.9960917,165
1659018239.08541,337595.9961044,153
1659018239.08541,337595.9961181,158
1659018239.08541,337595.9961315,175
1659018239.08541,337595.9961453,177
1659018239.08541,337595.9961588,163
1659018239.08541,337595.9961733,130
1659018239.08541,337595.9961814,118
1659018239.08541,337595.9961838,132
1659018239.08541,337595.9961859,139
1659018239.08541,337595.9961879,137
1659018239.08541,337595.9961907,123
1659018239.08541,337595.9962011,89
1659018239.08541,337595.9962131,156
1659018239.08541,337595.9962266,445
1659018239.08541,337595.9962394,679
1659018239.08541,337595.9962532,520
1659018239.09638,337595.9962663,272
1659018239.09638,337595.9962798,198
1659018239.09638,337596.4830621,120
1659018239.09638,337596.4830745,56
1659018239.09638,337596.4830781,85
1659018239.09638,337596.4830807,99
1659018239.09638,337596.4830832,78
1659018239.09638,337596.4830856,78
1659018239.09638,337596.4830881,85
1659018239.09638,337596.4830904,87
1659018239.09638,337596.4830929,89
1659018239.09638,337596.4830953,92
1659018239.09638,337596.4830976,94
1659018239.09638,337596.4830998,87
1659018239.09638,337596.4831021,73
1659018239.09638,337596.4831042,73
1659018239.09638,337596.4831064,85
1659018239.09638,337596.4831086,92
1659018239.09638,337596.4831108,97
1659018239.09638,337596.483113,101
1659018239.09638,337596.4831154,101
1659018239.09638,337596.4831205,99
1659018239.09638,337596.4831326,111
1659018239.09638,337596.4831386,127
1659018239.60988,337596.4831417,139
1659018239.60988,337596.4831439,144
1659018239.60988,337596.4831458,137
1659018239.60988,337596.4831477,123
1659018239.60988,337596.4831546,116
1659018239.60988,337596.4831628,111
1659018239.60988,337596.4831693,101
1659018239.60988,337596.4831751,92
1659018239.60988,337596.4831841,78
1659018239.60988,337596.4831919,66
1659018239.60988,337596.4832036,71
1659018239.60988,337596.4832265,80
1659018239.60988,337596.4832356,80
1659018239.60988,337596.4832384,82
1659018239.60988,337596.4832406,80
1659018239.60988,337596.4832434,78
1659018239.60988,337596.4832545,85
1659018239.60988,337596.483262,92
1659018239.60988,337596.4832645,89
1659018239.60988,337596.4832666,89
1659018239.60988,337596.4832687,89
1659018239.60988,337596.4832707,87
1659018239.60988,337596.4832726,85
1659018239.60988,337596.4832746,87
1659018239.60988,337596.4832818,87
1659018239.60988,337596.4833085,71
1659018239.60988,337596.4833207,49
1659018239.60988,337596.4833271,47
1659018239.60988,337596.4833294,56
1659018239.60988,337596.4833314,59
1659018239.60988,337596.4833335,61
1659018239.60988,337596.483336,68
1659018239.60988,337596.4833443,54
1659018239.60988,337596.4833553,37
1659018239.60988,337596.4833593,42
1659018239.60988,337596.4833613,49
1659018239.60988,337596.483364,49
1659018239.60988,337596.4833742,49
1659018239.60988,337596.4833827,23
1659018239.60988,337596.4833852,2
1659018239.60988,337596.4833872,172
1659018239.60988,337596.48339,539
1659018239.60988,337596.4834146,672
1659018239.60988,337596.4834283,426
1659018239.60988,337596.4834428,191
1659018239.60988,337596.48345,80
1659018239.60988,337596.4834544,-2
1659018239.60988,337596.4834582,-7
1659018239.60988,337596.4834681,16
1659018239.60988,337596.483477,2
1659018239.61984,337596.4834805,0
1659018239.61984,337597.0187808,16
1659018239.61984,337597.0188014,23
1659018239.61984,337597.018816,21
1659018239.61984,337597.0188302,28
1659018239.61984,337597.0188397,35
1659018239.61984,337597.0188431,35
1659018239.61984,337597.0188461,40
1659018239.61984,337597.0188492,49
1659018239.61984,337597.0188524,40
1659018239.61984,337597.0188556,21
1659018239.61984,337597.0188589,18
1659018239.61984,337597.0188622,23
1659018239.61984,337597.0188652,28
1659018239.61984,337597.0188685,33
1659018239.61984,337597.0188719,28
1659018239.61984,337597.0188793,23
1659018239.61984,337597.0188838,42
1659018239.61984,337597.018887,61
1659018239.61984,337597.01889,68
1659018239.61984,337597.0188928,80
1659018239.61984,337597.0188957,89
1659018239.61984,337597.0188986,82
1659018239.61984,337597.0189014,75
1659018240.19602,337597.0189049,71
1659018240.19602,337597.0189115,63
1659018240.19602,337597.0189182,63
1659018240.19602,337597.018925,68
1659018240.19602,337597.0189315,63
1659018240.19602,337597.0189355,61
1659018240.19602,337597.0189392,71
1659018240.19602,337597.0189421,75
1659018240.19602,337597.0189467,82
1659018240.19602,337597.0189497,89
1659018240.19602,337597.0189529,89
1659018240.19602,337597.0189564,82
1659018240.19602,337597.0189615,85
1659018240.19602,337597.0189671,92
1659018240.19602,337597.0189708,97
1659018240.19602,337597.0189746,99
1659018240.19602,337597.0189801,99
1659018240.19602,337597.0189838,87
1659018240.19602,337597.0189873,68
1659018240.19602,337597.0189925,59
1659018240.19602,337597.018996,56
1659018240.19602,337597.0189998,56
1659018240.19602,337597.0190053,61
1659018240.19602,337597.0190103,71
1659018240.19602,337597.0190149,85
1659018240.19602,337597.0190184,99
1659018240.19602,337597.019022,97
1659018240.19602,337597.0190254,75
1659018240.19602,337597.0190291,73
1659018240.19602,337597.0190344,82
1659018240.19602,337597.0190439,78
1659018240.19602,337597.0190486,80
1659018240.19602,337597.0190538,78
1659018240.19602,337597.0190585,44
1659018240.19602,337597.0190662,89
1659018240.19602,337597.0190714,378
1659018240.19602,337597.019076,679
1659018240.19602,337597.019081,599
1659018240.19602,337597.0190861,329
1659018240.19602,337597.01909,172
1659018240.19602,337597.019095,59
1659018240.19602,337597.0190992,-2
1659018240.19602,337597.0191028,16
1659018240.19602,337597.019108,21
1659018240.19602,337597.0191128,14
1659018240.19602,337597.0191163,26
1659018240.19602,337597.0191199,33
1659018240.19602,337597.0191236,26
1659018240.19602,337597.0191292,26
1659018240.19602,337597.0191343,23
1659018240.20998,337597.6048228,21
1659018240.20998,337597.6048428,23
1659018240.20998,337597.6048515,26
1659018240.20998,337597.6048589,28
1659018240.20998,337597.6048673,21
1659018240.20998,337597.6048752,0
1659018240.20998,337597.6048842,-11
1659018240.20998,337597.6048939,0
1659018240.20998,337597.6049031,9
1659018240.20998,337597.6049085,11
1659018240.20998,337597.6049164,18
1659018240.20998,337597.6049273,16
1659018240.20998,337597.6049395,9
1659018240.20998,337597.6049487,23
1659018240.20998,337597.6049513,40
1659018240.20998,337597.6049535,42
1659018240.20998,337597.6049556,33
1659018240.20998,337597.604958,18
1659018240.20998,337597.6049677,7
1659018240.20998,337597.6050017,-2
1659018240.20998,337597.6050092,-11
1659018240.20998,337597.6050156,-16
1659018240.20998,337597.6050238,-21
1659018240.20998,337597.6050278,-26
1659018240.83841,337597.6050337,-28
1659018240.83841,337597.6050375,-26
1659018240.83841,337597.6050438,-21
1659018240.83841,337597.6050477,-26
1659018240.83841,337597.6050515,-28
1659018240.83841,337597.6050551,-23
1659018240.83841,337597.6050588,-28
1659018240.83841,337597.6050624,-42
1659018240.83841,337597.6050668,-54
1659018240.83841,337597.6050738,-73
1659018240.83841,337597.6050794,-78
1659018240.83841,337597.6052005,-73
1659018240.83841,337597.6052083,-78
1659018240.83841,337597.6052117,-89
1659018240.83841,337597.6052147,-92
1659018240.83841,337597.6052177,-99
1659018240.83841,337597.6052209,-113
1659018240.83841,337597.605224,-113
1659018240.83841,337597.605227,-97
1659018240.83841,337597.6052299,-78
1659018240.83841,337597.6052341,-71
1659018240.83841,337597.6052392,-75
1659018240.83841,337597.6052467,-99
1659018240.83841,337597.6052557,-116
1659018240.83841,337597.6052602,-106
1659018240.83841,337597.6052634,-101
1659018240.83841,337597.6052706,-111
1659018240.83841,337597.6052796,-118
1659018240.83841,337597.6052842,-144
1659018240.83841,337597.6052908,-118
1659018240.83841,337597.605294,139
1659018240.83841,337597.6052969,457
1659018240.83841,337597.6053,421
1659018240.83841,337597.605303,153
1659018240.83841,337597.6053059,-14
1659018240.83841,337597.6053089,-125
1659018240.83841,337597.6053118,-187
1659018240.83841,337597.6053147,-165
1659018240.83841,337597.6053175,-168
1659018240.83841,337597.6053204,-191
1659018240.83841,337597.6053233,-187
1659018240.83841,337597.6053263,-179
1659018240.83841,337597.605338,-182
1659018240.83841,337597.6053461,-179
1659018240.83841,337597.6053511,-175
1659018240.83841,337597.6053558,-172
1659018240.83841,337597.6053605,-172
1659018240.83841,337597.6053678,-172
1659018240.83841,337597.605376,-168
1659018240.83841,337598.2384015,-158
1659018240.85038,337598.2384432,-153
1659018240.85038,337598.2384514,-156
1659018240.85038,337598.238458,-153
1659018240.85038,337598.2384665,-142
1659018240.85038,337598.2384719,-130
1659018240.85038,337598.2384799,-120
1659018240.85038,337598.2384873,-118
1659018240.85038,337598.2384974,-127
1659018240.85038,337598.2385043,-127
1659018240.85038,337598.2385117,-104
1659018240.85038,337598.2385191,-92
1659018240.85038,337598.2385288,-104
1659018240.85038,337598.2385402,-116
1659018240.85038,337598.2385483,-137
1659018240.85038,337598.2385528,-170
1659018240.85038,337598.2385594,-184
1659018240.85038,337598.2385659,-179
1659018240.85038,337598.2385724,-179
1659018240.85038,337598.2385771,-179
1659018240.85038,337598.2385835,-177
1659018240.85038,337598.2385884,-179
1659018240.85038,337598.2385953,-184
1659018240.85038,337598.2386001,-182
1659018240.85038,337598.2386079,-184
1659018241.32104,337598.2386142,-194
1659018241.32104,337598.2386203,-198
1659018241.32104,337598.2386262,-196
1659018241.32104,337598.2386334,-191
1659018241.32104,337598.2386376,-184
1659018241.32104,337598.2386448,-182
1659018241.32104,337598.2386556,-177
1659018241.32104,337598.2386619,-172
1659018241.32104,337598.2386667,-177
1659018241.32104,337598.2386716,-187
1659018241.32104,337598.2386765,-189
1659018241.32104,337598.2386826,-187
1659018241.32104,337598.2386881,-175
1659018241.32104,337598.2386932,-149
1659018241.32104,337598.2386979,-134
1659018241.32104,337598.2387026,-146
1659018241.32104,337598.2387072,-165
1659018241.32104,337598.2387135,-165
1659018241.32104,337598.2387188,-153
1659018241.32104,337598.2387242,-151
1659018241.32104,337598.2387298,-149
1659018241.32104,337598.238734,-156
1659018241.32104,337598.2387382,-184
1659018241.32104,337598.2387423,-137
1659018241.32104,337598.2387466,127
1659018241.32104,337598.238751,416
1659018241.32104,337598.2387555,362
1659018241.32104,337598.2387598,111
1659018241.32104,337598.238764,-37
1659018241.32104,337598.2387681,-134
1659018241.32104,337598.2387723,-187
1659018241.32104,337598.2387768,-172
1659018241.32104,337598.2387837,-170
1659018241.32104,337598.2387936,-177
1659018241.32104,337598.2388005,-168
1659018241.32104,337598.2388051,-158
1659018241.32104,337598.23881,-149
1659018241.32104,337598.2388144,-142
1659018241.32104,337598.2388188,-134
1659018241.32104,337598.2388272,-127
1659018241.32104,337598.238835,-118
1659018241.32104,337598.2388416,-113
1659018241.32104,337598.2388484,-106
1659018241.32104,337598.2388532,-94
1659018241.32104,337598.2388586,-85
1659018241.32104,337598.2388631,-75
1659018241.32104,337598.2388693,-71
1659018241.32104,337598.2388727,-66
1659018241.32104,337598.7258527,-49
1659018241.32104,337598.7258703,-33
1659018241.33365,337598.7258779,-18
1659018241.33365,337598.7258845,0
1659018241.33365,337598.7258893,14
1659018241.33365,337598.7258939,23
1659018241.33365,337598.7258984,28
1659018241.33365,337598.7259026,21
1659018241.33365,337598.7259075,9
1659018241.33365,337598.7259137,0
1659018241.33365,337598.7259182,-7
1659018241.33365,337598.7259225,-23
1659018241.33365,337598.7259264,-40
1659018241.33365,337598.725932,-37
1659018241.33365,337598.7259373,-35
1659018241.33365,337598.7259419,-42
1659018241.33365,337598.7259472,-44
1659018241.33365,337598.725951,-40
1659018241.33365,337598.7259547,-47
1659018241.33365,337598.7259585,-49
1659018241.33365,337598.7259651,-37
1659018241.33365,337598.7259694,-26
1659018241.33365,337598.725975,-21
1659018241.33365,337598.7259793,-23
1659018241.33365,337598.7259856,-40
1659018241.33365,337598.7259899,-49
1659018241.90565,337598.7259978,-42
1659018241.90565,337598.7260022,-35
1659018241.90565,337598.7260064,-28
1659018241.90565,337598.7260106,-26
1659018241.90565,337598.7260147,-33
1659018241.90565,337598.7260188,-28
1659018241.90565,337598.7260229,-7
1659018241.90565,337598.7260271,9
1659018241.90565,337598.7260312,4
1659018241.90565,337598.7260353,-7
1659018241.90565,337598.7260395,-14
1659018241.90565,337598.7260435,-9
1659018241.90565,337598.7260475,-2
1659018241.90565,337598.7260515,0
1659018241.90565,337598.7260556,4
1659018241.90565,337598.7260597,-16
1659018241.90565,337598.7260637,-14
1659018241.90565,337598.726068,175
1659018241.90565,337598.7260723,490
1659018241.90565,337598.7260782,518
1659018241.90565,337598.7260825,260
1659018241.90565,337598.7260882,111
1659018241.90565,337598.7260934,54
1659018241.90565,337598.7260991,-35
1659018241.90565,337598.7261027,-49
1659018241.90565,337598.7261075,-16
1659018241.90565,337598.726113,-14
1659018241.90565,337598.7261171,-14
1659018241.90565,337598.7261213,-2
1659018241.90565,337598.7261274,2
1659018241.90565,337598.7261318,2
1659018241.90565,337598.7261375,14
1659018241.90565,337598.7261427,26
1659018241.90565,337598.7261484,33
1659018241.90565,337598.7261536,40
1659018241.90565,337598.7261592,40
1659018241.90565,337598.7261637,40
1659018241.90565,337598.7261694,52
1659018241.90565,337598.7261746,61
1659018241.90565,337598.7261802,63
1659018241.90565,337598.7261843,78
1659018241.90565,337598.7261885,94
1659018241.90565,337598.7261938,99
1659018241.90565,337598.7261981,106
1659018241.90565,337598.7262037,125
1659018241.90565,337598.7262079,144
1659018241.90565,337598.7262136,151
1659018241.90565,337599.3125316,149
1659018241.90565,337599.3125484,137
1659018241.90565,337599.3125525,118
1659018241.91762,337599.3125574,106
1659018241.91762,337599.3125606,104
1659018241.91762,337599.3125638,97
1659018241.91762,337599.312569,82
1659018241.91762,337599.3125746,63
1659018241.91762,337599.3125781,47
1659018241.91762,337599.3125828,35
1659018241.91762,337599.3125865,28
1659018241.91762,337599.3125918,23
1659018241.91762,337599.3125964,30
1659018241.91762,337599.3126017,37
1659018241.91762,337599.3126108,23
1659018241.91762,337599.3126144,11
1659018241.91762,337599.3126179,21
1659018241.91762,337599.3126226,30
1659018241.91762,337599.3126262,28
1659018241.91762,337599.3126293,33
1659018241.91762,337599.3126334,37
1659018241.91762,337599.3126383,35
1659018241.91762,337599.3126527,33
1659018241.91762,337599.3126568,37
1659018241.91762,337599.3126619,47
1659018241.91762,337599.3126724,63
1659018241.91762,337599.312681,80
1659018242.50072,337599.312688,87
1659018242.50072,337599.3126928,75

1659018242.50072,337599.3126959,56
1659018242.50072,337599.3126991,49
1659018242.50072,337599.3127022,56
1659018242.50072,337599.3127052,63
1659018242.50072,337599.3127082,63
1659018242.50072,337599.3127113,47
1659018242.50072,337599.3127142,26
1659018242.50072,337599.3127171,113
1659018242.50072,337599.3127201,404
1659018242.50072,337599.3127231,594
1659018242.50072,337599.3127261,395
1659018242.50072,337599.312729,163
1659018242.50072,337599.3127319,125
1659018242.50072,337599.3127348,54
1659018242.50072,337599.3127376,-11
1659018242.50072,337599.3127409,23
1659018242.50072,337599.3127444,33
1659018242.50072,337599.31275,11
1659018242.50072,337599.3127542,23
1659018242.50072,337599.3127571,42
1659018242.50072,337599.3127601,37
1659018242.50072,337599.312763,37
1659018242.50072,337599.312767,49
1659018242.50072,337599.3127699,52
1659018242.50072,337599.312773,54
1659018242.50072,337599.3127761,56
1659018242.50072,337599.3127813,61
1659018242.50072,337599.3127844,66
1659018242.50072,337599.3127876,73
1659018242.50072,337599.3127905,78
1659018242.50072,337599.3127936,80
1659018242.50072,337599.3127967,87
1659018242.50072,337599.3128021,94
1659018242.50072,337599.3128066,101
1659018242.50072,337599.3128119,116
1659018242.50072,337599.312815,127
1659018242.50072,337599.3128181,132
1659018242.50072,337599.3128209,130
1659018242.50072,337599.312824,123
1659018242.50072,337599.312827,113
1659018242.50072,337599.31283,99
1659018242.50072,337599.312833,80
1659018242.50072,337599.3128361,63
1659018242.50072,337599.3128416,52
1659018242.50072,337599.8956123,47
1659018242.50072,337599.8956326,49
1659018242.50072,337599.895647,42
1659018242.50072,337599.8956613,26
1659018242.51668,337599.8956747,21
1659018242.51668,337599.8956878,26
1659018242.51668,337599.8957009,26
1659018242.51668,337599.8957114,26
1659018242.51668,337599.8957423,30
1659018242.51668,337599.8957544,33
1659018242.51668,337599.895762,33
1659018242.51668,337599.8957703,26
1659018242.51668,337599.8957746,18
1659018242.51668,337599.8957807,16
1659018242.51668,337599.8957847,21
1659018242.51668,337599.8957905,18
1659018242.51668,337599.8957942,16
1659018242.51668,337599.8957994,11
1659018242.51668,337599.8958031,7
1659018242.51668,337599.8958087,21
1659018242.51668,337599.8958146,33
1659018242.51668,337599.8958181,14
1659018242.51668,337599.8958241,-11
1659018242.51668,337599.8958309,-23
1659018242.51668,337599.8958364,-40
1659018242.51668,337599.8958401,-52
1659018242.51668,337599.8958459,-44
1659018242.51668,337599.8958495,-68
1659018243.02772,337599.895853,-101
1659018243.02772,337599.8958566,33
1659018243.02772,337599.8958599,386
1659018243.02772,337599.8958633,561
1659018243.02772,337599.8958681,333
1659018243.02772,337599.8958714,87
1659018243.02772,337599.8958746,-9
1659018243.02772,337599.8958779,-89
1659018243.02772,337599.8958811,-116
1659018243.02772,337599.8958847,-92
1659018243.02772,337599.8958884,-94
1659018243.02772,337599.8958919,-99
1659018243.02772,337599.8958953,-82
1659018243.02772,337599.8958998,-73
1659018243.02772,337599.8959057,-78
1659018243.02772,337599.8959095,-73
1659018243.02772,337599.895915,-61
1659018243.02772,337599.8959207,-52
1659018243.02772,337599.8959267,-49
1659018243.02772,337599.8959302,-42
1659018243.02772,337599.8959353,-35
1659018243.02772,337599.8959385,-30
1659018243.02772,337599.8959418,-30
1659018243.02772,337599.8959469,-23
1659018243.02772,337599.895952,-14
1659018243.02772,337599.8959571,-9
1659018243.02772,337599.8959605,-4
1659018243.02772,337599.8959639,7
1659018243.02772,337599.8959678,23
1659018243.02772,337599.8959712,35
1659018243.02772,337599.8959766,44
1659018243.02772,337599.8959799,52
1659018243.02772,337599.8959833,54
1659018243.02772,337599.8959889,49
1659018243.02772,337599.8959921,35
1659018243.02772,337599.8959968,28
1659018243.02772,337599.8960109,33
1659018243.02772,337599.896021,30
1659018243.02772,337599.8960236,26
1659018243.02772,337599.8960257,23
1659018243.02772,337599.8960277,18
1659018243.02772,337599.8960297,16
1659018243.02772,337599.8960316,23
1659018243.02772,337599.896035,26
1659018243.02772,337599.8960483,26
1659018243.02772,337600.4320389,26
1659018243.02772,337600.43206,28
1659018243.02772,337600.4320711,30
1659018243.02772,337600.4320764,33
1659018243.02772,337600.4320813,33
1659018243.04567,337600.4320852,30
1659018243.04567,337600.4320887,30
1659018243.04567,337600.4320921,23
1659018243.04567,337600.4320957,4
1659018243.04567,337600.4320993,-4
1659018243.04567,337600.4321031,2
1659018243.04567,337600.4321074,18
1659018243.04567,337600.4321118,37
1659018243.04567,337600.4321162,49
1659018243.04567,337600.4321208,35
1659018243.04567,337600.4321258,-2
1659018243.04567,337600.4321314,-21
1659018243.04567,337600.4321352,-7
1659018243.04567,337600.4321395,-4
1659018243.04567,337600.4321462,-11
1659018243.04567,337600.4321518,-14
1659018243.04567,337600.4321552,-49
1659018243.04567,337600.4321606,-56
1659018243.04567,337600.4321642,156
1659018243.04567,337600.4321687,525
1659018243.04567,337600.4321744,596
1659018243.04567,337600.43218,331
1659018243.04567,337600.4321865,123
1659018243.04567,337600.4321946,11
1659018243.56055,337600.4322081,-68
1659018243.56055,337600.4322141,-63
1659018243.56055,337600.4322198,-44
1659018243.56055,337600.4322252,-54
1659018243.56055,337600.4322305,-49
1659018243.56055,337600.4322366,-40
1659018243.56055,337600.4322414,-35
1659018243.56055,337600.4322461,-28
1659018243.56055,337600.4322534,-18
1659018243.56055,337600.4322616,-9
1659018243.56055,337600.4322672,-2
1659018243.56055,337600.4322735,0
1659018243.56055,337600.4322787,7
1659018243.56055,337600.4322865,18
1659018243.56055,337600.4322976,28
1659018243.56055,337600.4323127,30
1659018243.56055,337600.4323257,35
1659018243.56055,337600.4323383,42
1659018243.56055,337600.4323485,49
1659018243.56055,337600.4323552,59
1659018243.56055,337600.4323632,71
1659018243.56055,337600.4323708,87
1659018243.56055,337600.4324361,101
1659018243.56055,337600.4324479,111
1659018243.56055,337600.432462,111
1659018243.56055,337600.4324751,108
1659018243.56055,337600.4324906,108
1659018243.56055,337600.432501,108
1659018243.56055,337600.4325077,104
1659018243.56055,337600.432512,99
1659018243.56055,337600.4325182,89
1659018243.56055,337600.4325224,82
1659018243.56055,337600.4325277,80
1659018243.56055,337600.432532,80
1659018243.56055,337600.4325368,87
1659018243.56055,337600.4325399,97
1659018243.56055,337600.432543,97
1659018243.56055,337600.4325464,94
1659018243.56055,337600.4325512,94
1659018243.56055,337600.4325544,97
1659018243.56055,337600.4325575,97
1659018243.56055,337600.4325606,97
1659018243.56055,337600.4325637,99
1659018243.56055,337600.4325669,99
1659018243.56055,337600.9676644,101
1659018243.56055,337600.9676884,106
1659018243.56055,337600.9676961,106
1659018243.56055,337600.9676985,104
1659018243.56055,337600.9677008,97
1659018243.56055,337600.9677029,82
1659018243.57154,337600.967705,82
1659018243.57154,337600.9677071,108
1659018243.57154,337600.9677092,127
1659018243.57154,337600.9677117,120
1659018243.57154,337600.967714,99
1659018243.57154,337600.9677212,85
1659018243.57154,337600.9677327,85
1659018243.57154,337600.9677378,87
1659018243.57154,337600.96774,85
1659018243.57154,337600.9677421,78
1659018243.57154,337600.967748,47
1659018243.57154,337600.9677591,42
1659018243.57154,337600.9677655,243
1659018243.57154,337600.9677714,589
1659018243.57154,337600.9677779,644
1659018243.57154,337600.9677821,383
1659018243.57154,337600.9677878,182
1659018243.57154,337600.9677936,71
1659018243.57154,337600.9677979,-7
1659018243.57154,337600.9677999,4
1659018243.57154,337600.9678019,21
1659018243.57154,337600.967804,11
1659018243.57154,337600.967806,16
1659018243.57154,337600.9678081,30
1659018244.15014,337600.96781,33
1659018244.15014,337600.9678162,40
1659018244.15014,337600.9678259,54
1659018244.15014,337600.9678294,61
1659018244.15014,337600.9678315,63
1659018244.15014,337600.9678334,73
1659018244.15014,337600.9678359,82
1659018244.15014,337600.967847,87
1659018244.15014,337600.9678538,94
1659018244.15014,337600.967858,99
1659018244.15014,337600.96786,104
1659018244.15014,337600.967862,113
1659018244.15014,337600.9678654,127
1659018244.15014,337600.9678675,134
1659018244.15014,337600.9678695,137
1659018244.15014,337600.9678715,144
1659018244.15014,337600.9678735,161
1659018244.15014,337600.9678755,177
1659018244.15014,337600.9678775,187
1659018244.15014,337600.9678796,184
1659018244.15014,337600.9678816,170
1659018244.15014,337600.9678836,165
1659018244.15014,337600.9678856,165
1659018244.15014,337600.9678876,156
1659018244.15014,337600.9678896,142
1659018244.15014,337600.9678916,130
1659018244.15014,337600.9678936,134
1659018244.15014,337600.9678956,142
1659018244.15014,337600.9678976,144
1659018244.15014,337600.9678996,149
1659018244.15014,337600.9679017,156
1659018244.15014,337600.9679038,158
1659018244.15014,337600.9679057,156
1659018244.15014,337600.9679078,153
1659018244.15014,337600.9679143,153
1659018244.15014,337600.9679268,156
1659018244.15014,337600.9679331,156
1659018244.15014,337600.9679432,153
1659018244.15014,337600.9679541,153
1659018244.15014,337600.9679581,156
1659018244.15014,337600.9679602,158
1659018244.15014,337600.9679623,158
1659018244.15014,337600.9679644,158
1659018244.15014,337601.5529019,158
1659018244.15014,337601.5529192,158
1659018244.15014,337601.5529294,163
1659018244.15014,337601.5529447,170
1659018244.15014,337601.5529575,179
1659018244.15014,337601.5529712,191
1659018244.15014,337601.5529793,179
1659018244.16111,337601.5529839,151
1659018244.16111,337601.5529877,127
1659018244.16111,337601.5529936,113
1659018244.16111,337601.5529966,108
1659018244.16111,337601.5529995,113
1659018244.16111,337601.5530023,101
1659018244.16111,337601.5530052,71
1659018244.16111,337601.5530081,146
1659018244.16111,337601.5530108,445
1659018244.16111,337601.5530137,689
1659018244.16111,337601.5530167,554
1659018244.16111,337601.5530196,298
1659018244.16111,337601.5530225,163
1659018244.16111,337601.5530253,54
1659018244.16111,337601.5530282,9
1659018244.16111,337601.553031,33
1659018244.16111,337601.5530339,35
1659018244.16111,337601.5530368,30
1659018244.16111,337601.5530396,44
1659018244.16111,337601.5530424,49
1659018244.16111,337601.5530453,44
1659018244.16111,337601.5530481,54
1659018244.16111,337601.553051,63
1659018244.16111,337601.5530538,68
1659018244.68172,337601.5530573,75
1659018244.68172,337601.5530641,82
1659018244.68172,337601.5530688,82
1659018244.68172,337601.5530738,80
1659018244.68172,337601.5530795,80
1659018244.68172,337601.5530829,85
1659018244.68172,337601.5530857,94
1659018244.68172,337601.5530889,106
1659018244.68172,337601.5530918,111
1659018244.68172,337601.553095,120
1659018244.68172,337601.5530984,137
1659018244.68172,337601.5531042,156
1659018244.68172,337601.5531077,172
1659018244.68172,337601.553111,179
1659018244.68172,337601.5531142,179
1659018244.68172,337601.5531175,170
1659018244.68172,337601.5531207,149
1659018244.68172,337601.5531245,132
1659018244.68172,337601.553129,127
1659018244.68172,337601.5531322,127
1659018244.68172,337601.5531353,127
1659018244.68172,337601.5531384,130
1659018244.68172,337601.5531415,132
1659018244.68172,337601.5531447,134
1659018244.68172,337601.5531478,142
1659018244.68172,337601.5531511,151
1659018244.68172,337601.5531542,146
1659018244.68172,337601.5531573,137
1659018244.68172,337601.5531605,132
1659018244.68172,337601.5531637,137
1659018244.68172,337601.5531668,144
1659018244.68172,337601.5531699,144
1659018244.68172,337601.553173,142
1659018244.68172,337601.5531761,142
1659018244.68172,337601.5531793,139
1659018244.68172,337601.5531824,134
1659018244.68172,337601.5531855,132
1659018244.68172,337601.5531902,130
1659018244.68172,337601.5531934,125
1659018244.68172,337601.5531967,123
1659018244.68172,337601.5532003,125
1659018244.68172,337601.553204,137
1659018244.68172,337602.0895849,158
1659018244.68172,337602.0896095,172
1659018244.68172,337602.089625,161
1659018244.68172,337602.0896368,132
1659018244.68172,337602.0896474,120
1659018244.68172,337602.089657,123
1659018244.68172,337602.0896659,123
1659018244.68172,337602.0896949,123
1659018244.69369,337602.0897134,111
1659018244.69369,337602.0897189,85
1659018244.69369,337602.0897238,125
1659018244.69369,337602.0897305,369
1659018244.69369,337602.0897349,644
1659018244.69369,337602.0897402,580
1659018244.69369,337602.0897447,322
1659018244.69369,337602.0897485,184
1659018244.69369,337602.0897514,92
1659018244.69369,337602.0897543,14
1659018244.69369,337602.0897573,14
1659018244.69369,337602.0897602,18
1659018244.69369,337602.0897632,9
1659018244.69369,337602.0897661,18
1659018244.69369,337602.089769,37
1659018244.69369,337602.0897719,42
1659018244.69369,337602.0897747,37
1659018244.69369,337602.0897776,37
1659018244.69369,337602.0897804,42
1659018244.69369,337602.0897833,40
1659018244.69369,337602.0897862,49
1659018244.69369,337602.0897892,61
1659018244.69369,337602.089792,68
1659018244.69369,337602.0897949,80
1659018245.37133,337602.0897989,92
1659018245.37133,337602.089806,97
1659018245.37133,337602.0898129,106
1659018245.37133,337602.0898198,118
1659018245.37133,337602.0898239,127
1659018245.37133,337602.0898349,139
1659018245.37133,337602.0898445,153
1659018245.37133,337602.0898577,161
1659018245.37133,337602.0898673,158
1659018245.37133,337602.0898699,158
1659018245.37133,337602.0898722,156
1659018245.37133,337602.0898742,142
1659018245.37133,337602.0898762,120
1659018245.37133,337602.0898829,113
1659018245.37133,337602.0898938,120
1659018245.37133,337602.0899021,123
1659018245.37133,337602.089912,120
1659018245.37133,337602.0899226,123
1659018245.37133,337602.0899299,125
1659018245.37133,337602.0899417,125
1659018245.37133,337602.0899519,125
1659018245.37133,337602.0899585,127
1659018245.37133,337602.089971,132
1659018245.37133,337602.0899795,130
1659018245.37133,337602.0899892,127
1659018245.37133,337602.0900004,132
1659018245.37133,337602.0900137,127
1659018245.37133,337602.0900244,125
1659018245.37133,337602.090036,132
1659018245.37133,337602.0900517,132
1659018245.37133,337602.0900656,123
1659018245.37133,337602.0900791,125
1659018245.37133,337602.0900925,130
1659018245.37133,337602.0901061,134
1659018245.37133,337602.0901197,137
1659018245.37133,337602.0901331,146
1659018245.37133,337602.0901466,163
1659018245.37133,337602.09016,165
1659018245.37133,337602.0901734,151
1659018245.37133,337602.0901872,134
1659018245.37133,337602.0902006,130
1659018245.37133,337602.7714343,132
1659018245.37133,337602.7714506,132
1659018245.37133,337602.7714556,130
1659018245.37133,337602.7714602,113
1659018245.37133,337602.7714652,97
1659018245.37133,337602.7714716,206
1659018245.37133,337602.7714761,511
1659018245.37133,337602.7714799,665
1659018245.37133,337602.7714846,423
1659018245.3833,337602.7714887,194
1659018245.3833,337602.771493,170
1659018245.3833,337602.7714991,104
1659018245.3833,337602.7715033,40
1659018245.3833,337602.7715093,63
1659018245.3833,337602.7715138,56
1659018245.3833,337602.7715201,30
1659018245.3833,337602.7715511,44
1659018245.3833,337602.7715591,54
1659018245.3833,337602.7715645,44
1659018245.3833,337602.7715713,56
1659018245.3833,337602.7715762,61
1659018245.3833,337602.7715805,59
1659018245.3833,337602.7715868,71
1659018245.3833,337602.7715918,82
1659018245.3833,337602.7715977,87
1659018245.3833,337602.7716027,97
1659018245.3833,337602.771609,104
1659018245.3833,337602.7716137,106
1659018245.3833,337602.7716194,120
1659018245.3833,337602.771623,139
1659018245.3833,337602.7716279,151
1659018245.3833,337602.7716313,158
1659018245.3833,337602.771635,163
1659018245.80417,337602.7716402,165
1659018245.80417,337602.7716438,175
1659018245.80417,337602.7716473,184
1659018245.80417,337602.7716525,177
1659018245.80417,337602.7716599,168
1659018245.80417,337602.7716656,158
1659018245.80417,337602.7716688,146
1659018245.80417,337602.771672,137
1659018245.80417,337602.7716761,134
1659018245.80417,337602.7716815,137
1659018245.80417,337602.7716868,137
1659018245.80417,337602.7716932,139
1659018245.80417,337602.7716982,142
1659018245.80417,337602.7717047,139
1659018245.80417,337602.7717126,139
1659018245.80417,337602.7717181,142
1659018245.80417,337602.7717266,134
1659018245.80417,337602.7717326,130
1659018245.80417,337602.7717404,134
1659018245.80417,337602.771747,134
1659018245.80417,337602.771754,130
1659018245.80417,337602.7717602,132
1659018245.80417,337602.771767,134
1659018245.80417,337602.7717706,134
1659018245.80417,337602.7717739,134
1659018245.80417,337602.7717773,132
1659018245.80417,337602.7717804,132
1659018245.80417,337602.7717835,139
1659018245.80417,337602.7717896,151
1659018245.80417,337602.7717976,165
1659018245.80417,337602.7718055,168
1659018245.80417,337602.7718124,149
1659018245.80417,337602.7718184,120
1659018245.80417,337602.7718228,113
1659018245.80417,337602.7718371,118
1659018245.80417,337602.7718487,118
1659018245.80417,337602.7718609,111
1659018245.80417,337602.7718736,87
1659018245.80417,337602.7718884,63
1659018245.80417,337602.7719025,201
1659018245.80417,337603.2111082,542
1659018245.80417,337603.2111284,686
1659018245.80417,337603.2111386,445
1659018245.80417,337603.2111428,222
1659018245.80417,337603.2111466,149
1659018245.80417,337603.2111503,54
1659018245.80417,337603.2111542,18
1659018245.80417,337603.211158,44
1659018245.80417,337603.2111617,33
1659018245.80417,337603.2111662,18
1659018245.81614,337603.2111699,28
1659018245.81614,337603.2111739,16
1659018245.81614,337603.2111778,-4
1659018245.81614,337603.2111816,7
1659018245.81614,337603.2111866,23
1659018245.81614,337603.2111908,26
1659018245.81614,337603.2111969,28
1659018245.81614,337603.2112009,30
1659018245.81614,337603.211209,26
1659018245.81614,337603.211213,30
1659018245.81614,337603.2112169,42
1659018245.81614,337603.2112207,52
1659018245.81614,337603.2112247,59
1659018245.81614,337603.211236,63
1659018245.81614,337603.2112398,63
1659018245.81614,337603.2112434,68
1659018245.81614,337603.211247,85
1659018245.81614,337603.2112523,99
1659018245.81614,337603.2112561,111
1659018245.81614,337603.2112613,116
1659018245.81614,337603.2112652,94
1659018245.81614,337603.2112704,68
1659018245.81614,337603.2112741,68
1659018245.81614,337603.211278,73
1659018246.34745,337603.2112836,71
1659018246.34745,337603.2112872,66
1659018246.34745,337603.2112908,61
1659018246.34745,337603.2112944,61
1659018246.34745,337603.2112979,68
1659018246.34745,337603.2113013,68
1659018246.34745,337603.2113048,59
1659018246.34745,337603.2113083,56
1659018246.34745,337603.2113124,56
1659018246.34745,337603.2113161,56
1659018246.34745,337603.2113196,61
1659018246.34745,337603.2113232,68
1659018246.34745,337603.2113267,71
1659018246.34745,337603.2113304,71
1659018246.34745,337603.2113342,71
1659018246.34745,337603.2113379,71
1659018246.34745,337603.2113416,73
1659018246.34745,337603.2113492,71
1659018246.34745,337603.2113549,68
1659018246.34745,337603.2113592,68
1659018246.34745,337603.2113628,71
1659018246.34745,337603.2113665,68
1659018246.34745,337603.2113702,75
1659018246.34745,337603.2113748,92
1659018246.34745,337603.211379,101
1659018246.34745,337603.2114274,85
1659018246.34745,337603.2114365,61
1659018246.34745,337603.2114449,54
1659018246.34745,337603.2114582,61
1659018246.34745,337603.2114689,56
1659018246.34745,337603.2114716,59
1659018246.34745,337603.2114737,47
1659018246.34745,337603.2114767,11
1659018246.34745,337603.211486,73
1659018246.34745,337603.2115012,390
1659018246.34745,337603.2115133,696
1659018246.34745,337603.2115186,584
1659018246.34745,337603.2115217,288
1659018246.34745,337603.2115311,118
1659018246.34745,337603.7471322,-2
1659018246.34745,337603.7471469,-54
1659018246.34745,337603.7471517,-26
1659018246.34745,337603.7471541,-30
1659018246.34745,337603.7471562,-47
1659018246.34745,337603.7471583,-35
1659018246.34745,337603.7471603,-23
1659018246.34745,337603.7471624,-33
1659018246.34745,337603.7471645,-52
1659018246.34745,337603.7471666,-56
1659018246.34745,337603.7471686,-47
1659018246.36006,337603.7471707,-44
1659018246.36006,337603.7471743,-44
1659018246.36006,337603.7471791,-44
1659018246.36006,337603.747191,-61
1659018246.36006,337603.7472004,-71
1659018246.36006,337603.7472101,-66
1659018246.36006,337603.7472165,-75
1659018246.36006,337603.7472246,-87
1659018246.36006,337603.7472354,-75
1659018246.36006,337603.747239,-66
1659018246.36006,337603.7472431,-68
1659018246.36006,337603.7472451,-54
1659018246.36006,337603.7472542,-40
1659018246.36006,337603.7472648,-35
1659018246.36006,337603.7472685,-23
1659018246.36006,337603.7472724,-21
1659018246.36006,337603.7472794,-40
1659018246.36006,337603.7472902,-52
1659018246.36006,337603.7472938,-52
1659018246.36006,337603.7472978,-56
1659018246.36006,337603.7473023,-68
1659018246.36006,337603.7473126,-75
1659018246.36006,337603.747319,-82
1659018246.36006,337603.747322,-87
1659018246.98228,337603.7473242,-85
1659018246.98228,337603.7473273,-80
1659018246.98228,337603.7473388,-78
1659018246.98228,337603.7473435,-75
1659018246.98228,337603.7473463,-75
1659018246.98228,337603.747355,-80
1659018246.98228,337603.7473649,-85
1659018246.98228,337603.7473712,-87
1659018246.98228,337603.7473774,-87
1659018246.98228,337603.7474406,-87
1659018246.98228,337603.7474578,-85
1659018246.98228,337603.7474667,-89
1659018246.98228,337603.7474714,-92
1659018246.98228,337603.7474775,-89
1659018246.98228,337603.7474836,-94
1659018246.98228,337603.7474891,-106
1659018246.98228,337603.7474949,-116
1659018246.98228,337603.7474998,-116
1659018246.98228,337603.7475043,-113
1659018246.98228,337603.7475099,-101
1659018246.98228,337603.7475144,-85
1659018246.98228,337603.7475201,-92
1659018246.98228,337603.7475285,-116
1659018246.98228,337603.7475347,-125
1659018246.98228,337603.7475499,-125
1659018246.98228,337603.747563,-123
1659018246.98228,337603.7475761,-118
1659018246.98228,337603.7475836,-127
1659018246.98228,337603.7475894,-168
1659018246.98228,337603.7475955,-142
1659018246.98228,337603.7476066,118
1659018246.98228,337603.7476172,447
1659018246.98228,337603.7476265,412
1659018246.98228,337603.747637,137
1659018246.98228,337603.7476487,-42
1659018246.98228,337603.747662,-163
1659018246.98228,337603.7476673,-234
1659018246.98228,337603.7476761,-213
1659018246.98228,337604.3824107,-201
1659018246.98228,337604.3824238,-217
1659018246.98228,337604.3824272,-213
1659018246.98228,337604.3824295,-203
1659018246.98228,337604.3824316,-215
1659018246.98228,337604.3824336,-232
1659018246.98228,337604.3824357,-227
1659018246.98228,337604.3824377,-215
1659018246.98228,337604.3824397,-210
1659018246.98228,337604.3824417,-210
1659018246.98228,337604.3824438,-227
1659018246.98228,337604.382446,-255
1659018246.99225,337604.3824491,-251
1659018246.99225,337604.3824575,-227
1659018246.99225,337604.3824665,-224
1659018246.99225,337604.3824735,-227
1659018246.99225,337604.3824846,-215
1659018246.99225,337604.3824882,-208
1659018246.99225,337604.3824923,-198
1659018246.99225,337604.3824948,-177
1659018246.99225,337604.382503,-156
1659018246.99225,337604.3825137,-142
1659018246.99225,337604.3825171,-137
1659018246.99225,337604.3825208,-146
1659018246.99225,337604.3825228,-156
1659018246.99225,337604.3825259,-158
1659018246.99225,337604.3825392,-161
1659018246.99225,337604.3825456,-170
1659018246.99225,337604.3825478,-182
1659018246.99225,337604.3825499,-182
1659018246.99225,337604.3825534,-172
1659018246.99225,337604.3825559,-168
1659018246.99225,337604.3825656,-163
1659018246.99225,337604.382575,-158
1659018246.99225,337604.3825776,-156
1659018246.99225,337604.3825796,-151
1659018247.51446,337604.3825816,-144
1659018247.51446,337604.3825835,-139
1659018247.51446,337604.3825857,-139
1659018247.51446,337604.3825933,-142
1659018247.51446,337604.3826025,-134
1659018247.51446,337604.3826054,-125
1659018247.51446,337604.3826075,-123
1659018247.51446,337604.3826094,-125
1659018247.51446,337604.3826114,-127
1659018247.51446,337604.3826134,-125
1659018247.51446,337604.3826154,-125
1659018247.51446,337604.3826174,-130
1659018247.51446,337604.3826195,-137
1659018247.51446,337604.3826216,-137
1659018247.51446,337604.3826239,-130
1659018247.51446,337604.382626,-116
1659018247.51446,337604.3826281,-94
1659018247.51446,337604.3826301,-78
1659018247.51446,337604.3826335,-85
1659018247.51446,337604.3826444,-116
1659018247.51446,337604.3826523,-127
1659018247.51446,337604.3826548,-113
1659018247.51446,337604.3826569,-106
1659018247.51446,337604.382659,-104
1659018247.51446,337604.382661,-104
1659018247.51446,337604.3826638,-125
1659018247.51446,337604.382674,-108
1659018247.51446,337604.3826825,120
1659018247.51446,337604.3826849,447
1659018247.51446,337604.3826884,471
1659018247.51446,337604.3826981,227
1659018247.51446,337604.3827076,49
1659018247.51446,337604.3827118,-66
1659018247.51446,337604.3827139,-144
1659018247.51446,337604.3827181,-127
1659018247.51446,337604.3827314,-108
1659018247.51446,337604.3827376,-123
1659018247.51446,337604.9195524,-116
1659018247.51446,337604.9195708,-101
1659018247.51446,337604.9195837,-111
1659018247.51446,337604.9195962,-118
1659018247.51446,337604.9196004,-111
1659018247.51446,337604.9196024,-97
1659018247.51446,337604.9196046,-89
1659018247.51446,337604.9196067,-85
1659018247.51446,337604.9196088,-82
1659018247.51446,337604.9196171,-80
1659018247.51446,337604.9196261,-68
1659018247.51446,337604.9196286,-52
1659018247.51446,337604.9196346,-44
1659018247.52543,337604.9196453,-42
1659018247.52543,337604.9196492,-47
1659018247.52543,337604.9196514,-40
1659018247.52543,337604.9196535,-18
1659018247.52543,337604.9196556,2
1659018247.52543,337604.9196577,18
1659018247.52543,337604.9196597,35
1659018247.52543,337604.9196623,33
1659018247.52543,337604.9196705,11
1659018247.52543,337604.9196816,0
1659018247.52543,337604.9196912,0
1659018247.52543,337604.9196984,-7
1659018247.52543,337604.9197106,-11
1659018247.52543,337604.9197235,-21
1659018247.52543,337604.9197375,-37
1659018247.52543,337604.9197505,-40
1659018247.52543,337604.9197623,-23
1659018247.52543,337604.9197752,-11
1659018247.52543,337604.9197882,-4
1659018247.52543,337604.9198005,0
1659018247.52543,337604.9198113,2
1659018247.52543,337604.9198144,9
1659018247.52543,337604.9198215,16
1659018247.52543,337604.919834,21
1659018248.04753,337604.9198471,30
1659018248.04753,337604.919855,37
1659018248.04753,337604.9198624,35
1659018248.04753,337604.9198699,40
1659018248.04753,337604.9198754,42
1659018248.04753,337604.9198808,40
1659018248.04753,337604.9198919,40
1659018248.04753,337604.9199077,37
1659018248.04753,337604.91992,33
1659018248.04753,337604.919931,33
1659018248.04753,337604.9199336,47
1659018248.04753,337604.9199358,71
1659018248.04753,337604.9199378,92
1659018248.04753,337604.9199398,97
1659018248.04753,337604.9199418,80
1659018248.04753,337604.9199438,66
1659018248.04753,337604.9199458,75
1659018248.04753,337604.9199478,85
1659018248.04753,337604.9199499,87
1659018248.04753,337604.919952,89
1659018248.04753,337604.919954,73
1659018248.04753,337604.9199568,68
1659018248.04753,337604.9199667,239
1659018248.04753,337604.9199785,568
1659018248.04753,337604.9199889,665
1659018248.04753,337604.9199971,431
1659018248.04753,337604.9200076,239
1659018248.04753,337604.9200113,161
1659018248.04753,337604.9200192,80
1659018248.04753,337604.920028,66
1659018248.04753,337604.920035,89
1659018248.04753,337604.9200375,75
1659018248.04753,337604.9200395,54
1659018248.04753,337604.9200415,63
1659018248.04753,337604.9200435,80
1659018248.04753,337604.9200455,85
1659018248.04753,337605.4531985,94
1659018248.04753,337605.453216,104
1659018248.04753,337605.4532254,108
1659018248.04753,337605.4532296,120
1659018248.04753,337605.4532423,130
1659018248.04753,337605.4532509,123
1659018248.04753,337605.4532551,130
1659018248.04753,337605.453259,151
1659018248.04753,337605.4532646,158
1659018248.04753,337605.4532683,158
1659018248.04753,337605.4532723,165
1659018248.04753,337605.4532777,163
1659018248.04753,337605.4532825,168
1659018248.04753,337605.4532884,194
1659018248.0575,337605.4532928,210
1659018248.0575,337605.4532985,210
1659018248.0575,337605.4533027,222
1659018248.0575,337605.4533086,222
1659018248.0575,337605.4533127,198
1659018248.0575,337605.4533181,179
1659018248.0575,337605.4533223,172
1659018248.0575,337605.4533254,165
1659018248.0575,337605.4533288,163
1659018248.0575,337605.4533323,156
1659018248.0575,337605.453336,137
1659018248.0575,337605.4533414,132
1659018248.0575,337605.4533448,149
1659018248.0575,337605.4533501,158
1659018248.0575,337605.4533548,163
1659018248.0575,337605.4533584,172
1659018248.0575,337605.4533616,172
1659018248.0575,337605.4533648,170
1659018248.0575,337605.4533681,177
1659018248.0575,337605.4533716,184
1659018248.0575,337605.4533749,189
1659018248.0575,337605.4533781,196
1659018248.0575,337605.4533815,194
1659018248.0575,337605.4533848,182
1659018248.63568,337605.4533902,177
1659018248.63568,337605.4533943,182
1659018248.63568,337605.4533977,179
1659018248.63568,337605.4534009,179
1659018248.63568,337605.4534042,189
1659018248.63568,337605.4534076,203
1659018248.63568,337605.4534112,222
1659018248.63568,337605.4534142,222
1659018248.63568,337605.4534174,203
1659018248.63568,337605.4534208,196
1659018248.63568,337605.4534243,208
1659018248.63568,337605.4534273,213
1659018248.63568,337605.4534302,215
1659018248.63568,337605.4534333,215
1659018248.63568,337605.4534364,194
1659018248.63568,337605.4534397,213
1659018248.63568,337605.4534452,435
1659018248.63568,337605.4534494,734
1659018248.63568,337605.4534527,684
1659018248.63568,337605.4534557,402
1659018248.63568,337605.4534588,300
1659018248.63568,337605.4534619,272
1659018248.63568,337605.4534652,179
1659018248.63568,337605.4534682,158
1659018248.63568,337605.4534731,175
1659018248.63568,337605.4534762,165
1659018248.63568,337605.4534791,172
1659018248.63568,337605.4534969,189
1659018248.63568,337605.4535003,194
1659018248.63568,337605.4535192,201
1659018248.63568,337605.4535236,206
1659018248.63568,337605.4535291,198
1659018248.63568,337605.4535343,203
1659018248.63568,337605.4535382,217
1659018248.63568,337605.4535422,220
1659018248.63568,337606.037678,224
1659018248.63568,337606.0376966,232
1659018248.63568,337606.0377099,236
1659018248.63568,337606.0377241,243
1659018248.63568,337606.0377358,255
1659018248.63568,337606.0377443,269
1659018248.63568,337606.0377509,281
1659018248.63568,337606.0377658,281
1659018248.63568,337606.0377737,277
1659018248.63568,337606.0377831,281
1659018248.63568,337606.0377872,293
1659018248.63568,337606.0377919,298
1659018248.63568,337606.0377957,291
1659018248.63568,337606.0377999,272
1659018248.63568,337606.0378076,241
1659018248.64665,337606.0378152,208
1659018248.64665,337606.0378225,198
1659018248.64665,337606.0378265,201
1659018248.64665,337606.0378303,198
1659018248.64665,337606.0378341,198
1659018248.64665,337606.0378392,201
1659018248.64665,337606.0378446,198
1659018248.64665,337606.0378494,203
1659018248.64665,337606.0378545,213
1659018248.64665,337606.037858,208
1659018248.64665,337606.0378706,206
1659018248.64665,337606.0378792,215
1659018248.64665,337606.0378918,217
1659018248.64665,337606.0379009,210
1659018248.64665,337606.0379034,213
1659018248.64665,337606.0379056,215
1659018248.64665,337606.0379076,201
1659018248.64665,337606.0379095,187
1659018248.64665,337606.0379116,187
1659018248.64665,337606.0379136,182
1659018248.64665,337606.0379156,175
1659018248.64665,337606.0379175,187
1659018248.64665,337606.0379197,203
1659018248.64665,337606.0379218,213
1659018249.17769,337606.0379239,206
1659018249.17769,337606.0379258,187
1659018249.17769,337606.0379277,175
1659018249.17769,337606.0379296,179
1659018249.17769,337606.0379316,184
1659018249.17769,337606.0379388,182
1659018249.17769,337606.0379487,168
1659018249.17769,337606.037954,130
1659018249.17769,337606.0379611,172
1659018249.17769,337606.0379718,459
1659018249.17769,337606.0379758,736
1659018249.17769,337606.0379788,606
1659018249.17769,337606.0379897,333
1659018249.17769,337606.0380015,241
1659018249.17769,337606.0380158,158
1659018249.17769,337606.038029,75
1659018249.17769,337606.0380419,92
1659018249.17769,337606.0380513,108
1659018249.17769,337606.0380538,92
1659018249.17769,337606.038056,94
1659018249.17769,337606.0380582,104
1659018249.17769,337606.0380604,97
1659018249.17769,337606.0380624,92
1659018249.17769,337606.0380645,101
1659018249.17769,337606.0380665,111
1659018249.17769,337606.0380685,118
1659018249.17769,337606.0380705,113
1659018249.17769,337606.0380725,111
1659018249.17769,337606.0380745,120
1659018249.17769,337606.0380765,132
1659018249.17769,337606.0380785,139
1659018249.17769,337606.0380805,142
1659018249.17769,337606.0380824,149
1659018249.17769,337606.0380844,153
1659018249.17769,337606.5759016,165
1659018249.17769,337606.5759337,177
1659018249.17769,337606.5759389,189
1659018249.17769,337606.5759439,203
1659018249.17769,337606.5759514,210
1659018249.17769,337606.5759546,208
1659018249.17769,337606.5759575,201
1659018249.17769,337606.5759604,187
1659018249.17769,337606.5759633,177
1659018249.17769,337606.5759661,170
1659018249.17769,337606.575969,158
1659018249.17769,337606.5759718,134
1659018249.17769,337606.5759747,118
1659018249.17769,337606.5759776,132
1659018249.17769,337606.5759804,144
1659018249.17769,337606.5759832,139
1659018249.18766,337606.5759861,132
1659018249.18766,337606.575989,118
1659018249.18766,337606.5759921,99
1659018249.18766,337606.5759949,94
1659018249.18766,337606.5759978,104
1659018249.18766,337606.5760006,108
1659018249.18766,337606.5760035,111
1659018249.18766,337606.5760064,108
1659018249.18766,337606.5760092,104
1659018249.18766,337606.5760121,99
1659018249.18766,337606.5760149,99
1659018249.18766,337606.5760177,99
1659018249.18766,337606.5760206,99
1659018249.18766,337606.5760234,99
1659018249.18766,337606.5760262,108
1659018249.18766,337606.576029,123
1659018249.18766,337606.5760318,127
1659018249.18766,337606.5760347,116
1659018249.18766,337606.5760377,104
1659018249.18766,337606.5760405,108
1659018249.18766,337606.5760434,113
1659018249.18766,337606.5760463,113
1659018249.18766,337606.5760491,111
1659018249.18766,337606.5760519,80
1659018249.70107,337606.5760558,63
1659018249.70107,337606.5760754,253
1659018249.70107,337606.5760822,629
1659018249.70107,337606.576104,734
1659018249.70107,337606.5761086,464
1659018249.70107,337606.5761194,241
1659018249.70107,337606.5761304,142
1659018249.70107,337606.576134,54
1659018249.70107,337606.5761406,33
1659018249.70107,337606.5761497,54
1659018249.70107,337606.5761542,49
1659018249.70107,337606.5761593,44
1659018249.70107,337606.5761639,49
1659018249.70107,337606.5761695,52
1659018249.70107,337606.5761747,54
1659018249.70107,337606.5761796,63
1659018249.70107,337606.5761832,73
1659018249.70107,337606.576189,71
1659018249.70107,337606.5761926,75
1659018249.70107,337606.5761976,85
1659018249.70107,337606.5762012,75
1659018249.70107,337606.5762062,66
1659018249.70107,337606.5762099,82
1659018249.70107,337606.5762151,106
1659018249.70107,337606.5762186,108
1659018249.70107,337606.5762235,106
1659018249.70107,337606.5762277,120
1659018249.70107,337606.5762329,137
1659018249.70107,337606.5762365,149
1659018249.70107,337606.5762424,170
1659018249.70107,337606.5762461,187
1659018249.70107,337606.5762511,175
1659018249.70107,337606.5762568,163
1659018249.70107,337607.1106251,187
1659018249.70107,337607.1106428,201
1659018249.70107,337607.1106597,179
1659018249.70107,337607.1106743,161
1659018249.70107,337607.110688,142
1659018249.70107,337607.1107021,134
1659018249.70107,337607.1107153,151

1659018249.70107,337607.1107249,134
1659018249.70107,337607.1107301,94
1659018249.70107,337607.1107322,104
1659018249.70107,337607.1107343,111
1659018249.70107,337607.1107363,89
1659018249.70107,337607.1107382,113
1659018249.70107,337607.1107402,132
1659018249.70107,337607.1107422,94
1659018249.70107,337607.1107441,66
1659018249.70107,337607.1107461,61
1659018249.71204,337607.1107481,85
1659018249.71204,337607.1107502,130
1659018249.71204,337607.1107522,123
1659018249.71204,337607.1107542,68
1659018249.71204,337607.1107561,59
1659018249.71204,337607.1107581,68
1659018249.71204,337607.1107601,63
1659018249.71204,337607.1107684,59
1659018249.71204,337607.1107704,56
1659018249.71204,337607.1107724,73
1659018249.71204,337607.1107743,71
1659018249.71204,337607.1107764,26
1659018249.71204,337607.1107784,40
1659018249.71204,337607.1107803,104
1659018249.71204,337607.1107833,113
1659018249.71204,337607.1107853,82
1659018249.71204,337607.110788,37
1659018249.71204,337607.11079,44
1659018249.71204,337607.1107921,298
1659018249.71204,337607.1107941,644
1659018249.71204,337607.1107961,615
1659018249.71204,337607.1107981,362
1659018249.71204,337607.1108001,229
1659018249.71204,337607.1108022,82
1659018250.29107,337607.1108042,-47
1659018250.29107,337607.1108061,0
1659018250.29107,337607.110808,71
1659018250.29107,337607.1108099,47
1659018250.29107,337607.1108117,21
1659018250.29107,337607.1108136,54
1659018250.29107,337607.1108154,71
1659018250.29107,337607.1108173,47
1659018250.29107,337607.1108192,54
1659018250.29107,337607.1108211,104
1659018250.29107,337607.110823,113
1659018250.29107,337607.1108249,85
1659018250.29107,337607.1108281,82
1659018250.29107,337607.1108386,118
1659018250.29107,337607.110846,151
1659018250.29107,337607.1108505,139
1659018250.29107,337607.1108526,108
1659018250.29107,337607.1108612,113
1659018250.29107,337607.1108719,156
1659018250.29107,337607.1108753,177
1659018250.29107,337607.1108791,179
1659018250.29107,337607.1108812,208
1659018250.29107,337607.1108833,234
1659018250.29107,337607.1108852,255
1659018250.29107,337607.1108872,258
1659018250.29107,337607.1108892,215
1659018250.29107,337607.1108912,206
1659018250.29107,337607.1108932,236
1659018250.29107,337607.1108959,227
1659018250.29107,337607.110898,210
1659018250.29107,337607.1108999,189
1659018250.29107,337607.1109019,142
1659018250.29107,337607.6967728,163
1659018250.29107,337607.6967909,246
1659018250.29107,337607.6967964,229
1659018250.29107,337607.696803,161
1659018250.29107,337607.6968076,158
1659018250.29107,337607.6968141,153
1659018250.29107,337607.6968188,139
1659018250.29107,337607.6968256,170
1659018250.29107,337607.6968305,196
1659018250.29107,337607.6968369,203
1659018250.29107,337607.6968417,182
1659018250.29107,337607.6968483,101
1659018250.29107,337607.6968531,99
1659018250.29107,337607.6968604,194
1659018250.29107,337607.6968651,184
1659018250.29107,337607.6968717,132
1659018250.29107,337607.6968766,137
1659018250.29107,337607.6968827,134
1659018250.30104,337607.6968876,125
1659018250.30104,337607.6968948,125
1659018250.30104,337607.6968996,137
1659018250.30104,337607.6969068,158
1659018250.30104,337607.6969146,146
1659018250.30104,337607.696921,123
1659018250.30104,337607.6969292,134
1659018250.30104,337607.6969359,144
1659018250.30104,337607.696944,104
1659018250.30104,337607.6969504,52
1659018250.30104,337607.6969585,80
1659018250.30104,337607.6969648,298
1659018250.30104,337607.6969715,606
1659018250.30104,337607.6969778,634
1659018250.30104,337607.6969846,412
1659018250.30104,337607.6969898,272
1659018250.30104,337607.696994,161
1659018250.30104,337607.6969995,16
1659018250.30104,337607.697005,16
1659018250.30104,337607.6970101,94
1659018250.30104,337607.6970438,85
1659018250.30104,337607.6970507,52
1659018250.30104,337607.6970561,75
1659018250.30104,337607.697063,94
1659018250.87793,337607.6970687,75
1659018250.87793,337607.6970729,80
1659018250.87793,337607.6970789,108
1659018250.87793,337607.697089,116
1659018250.87793,337607.6970967,113
1659018250.87793,337607.6971028,127
1659018250.87793,337607.697108,137
1659018250.87793,337607.6971132,134
1659018250.87793,337607.6971194,144
1659018250.87793,337607.6971247,142
1659018250.87793,337607.6971285,161
1659018250.87793,337607.6971323,203
1659018250.87793,337607.6971361,206
1659018250.87793,337607.6971412,194
1659018250.87793,337607.6971491,220
1659018250.87793,337607.6971555,246
1659018250.87793,337607.6971609,239
1659018250.87793,337607.6971678,229
1659018250.87793,337607.6971739,220
1659018250.87793,337607.6971785,246
1659018250.87793,337607.697183,269
1659018250.87793,337607.6971897,222
1659018250.87793,337607.6971963,175
1659018250.87793,337607.6972211,156
1659018250.87793,337607.6972291,158
1659018250.87793,337607.6972345,203
1659018250.87793,337607.6972394,220
1659018250.87793,337607.697244,189
1659018250.87793,337607.6972485,182
1659018250.87793,337607.6972551,194
1659018250.87793,337607.6972625,187
1659018250.87793,337608.2809901,168
1659018250.87793,337608.2810101,172
1659018250.87793,337608.281018,177
1659018250.87793,337608.2810223,175
1659018250.87793,337608.281028,187
1659018250.87793,337608.2810318,194
1659018250.87793,337608.2810372,179
1659018250.87793,337608.2810407,156
1659018250.87793,337608.2810456,153
1659018250.87793,337608.2810513,158
1659018250.87793,337608.2810563,144
1659018250.87793,337608.2810606,142
1659018250.87793,337608.2810662,170
1659018250.87793,337608.2810701,182
1659018250.87793,337608.2810757,153
1659018250.87793,337608.2810795,130
1659018250.87793,337608.2810852,123
1659018250.87793,337608.2810889,104
1659018250.87793,337608.2810925,106
1659018250.8899,337608.2810975,125
1659018250.8899,337608.2811012,99
1659018250.8899,337608.2811051,49
1659018250.8899,337608.281109,78
1659018250.8899,337608.2811129,279
1659018250.8899,337608.2811167,520
1659018250.8899,337608.2811218,502
1659018250.8899,337608.281126,296
1659018250.8899,337608.2811314,168
1659018250.8899,337608.2811351,59
1659018250.8899,337608.2811399,-26
1659018250.8899,337608.2811435,21
1659018250.8899,337608.2811474,59
1659018250.8899,337608.2811526,7
1659018250.8899,337608.2811561,-11
1659018250.8899,337608.2811619,16
1659018250.8899,337608.2811658,16
1659018250.8899,337608.2811696,21
1659018250.8899,337608.2811732,54
1659018250.8899,337608.2811771,66
1659018250.8899,337608.2811825,59
1659018250.8899,337608.2811862,66
1659018250.8899,337608.2811912,71
1659018250.8899,337608.2811949,61
1659018251.41134,337608.2811987,71
1659018251.41134,337608.2812022,99
1659018251.41134,337608.2812058,111
1659018251.41134,337608.2812094,108
1659018251.41134,337608.2812128,120
1659018251.41134,337608.2812164,170
1659018251.41134,337608.2812198,232
1659018251.41134,337608.2812233,224
1659018251.41134,337608.2812274,184
1659018251.41134,337608.2812309,201
1659018251.41134,337608.2812344,215
1659018251.41134,337608.281238,198
1659018251.41134,337608.2812415,208
1659018251.41134,337608.2812459,182
1659018251.41134,337608.2812516,116
1659018251.41134,337608.2812553,113
1659018251.41134,337608.2812591,149
1659018251.41134,337608.2812628,146
1659018251.41134,337608.2812665,111
1659018251.41134,337608.28127,108
1659018251.41134,337608.2812735,130
1659018251.41134,337608.2812772,153
1659018251.41134,337608.2812808,191
1659018251.41134,337608.2812845,182
1659018251.41134,337608.281288,142
1659018251.41134,337608.2812916,151
1659018251.41134,337608.2812953,156
1659018251.41134,337608.281299,130
1659018251.41134,337608.2813025,125
1659018251.41134,337608.2813063,132
1659018251.41134,337608.8174436,123
1659018251.41134,337608.8174653,111
1659018251.41134,337608.8174742,113
1659018251.41134,337608.8174785,120
1659018251.41134,337608.8174826,125
1659018251.41134,337608.8174868,125
1659018251.41134,337608.8174917,132
1659018251.41134,337608.8174958,125
1659018251.41134,337608.8175001,99
1659018251.41134,337608.8175042,92
1659018251.41134,337608.8175089,108
1659018251.41134,337608.8175132,108
1659018251.41134,337608.8175174,78
1659018251.41134,337608.8175223,37
1659018251.41134,337608.8175261,2
1659018251.41134,337608.8175299,85
1659018251.41134,337608.8175339,378
1659018251.41134,337608.8175382,518
1659018251.41134,337608.8175446,229
1659018251.41134,337608.8175488,-28
1659018251.42387,337608.8175551,-14
1659018251.42387,337608.8175589,-49
1659018251.42387,337608.8175633,-125
1659018251.42387,337608.8175677,-87
1659018251.42387,337608.8175734,-68
1659018251.42387,337608.8175771,-85
1659018251.42387,337608.8175812,-37
1659018251.42387,337608.8175868,-16
1659018251.42387,337608.817591,-61
1659018251.42387,337608.817597,-49
1659018251.42387,337608.8176022,4
1659018251.42387,337608.8176062,-2
1659018251.42387,337608.8176109,-30
1659018251.42387,337608.8176145,-21
1659018251.42387,337608.8176202,-11
1659018251.42387,337608.817624,7
1659018251.42387,337608.8176297,54
1659018251.42387,337608.8176343,35
1659018251.42387,337608.8176394,-2
1659018251.42387,337608.817644,54
1659018251.42387,337608.8176496,113
1659018251.42387,337608.8176538,99
1659018251.42387,337608.8176577,92
1659018251.42387,337608.817663,108
1659018251.99936,337608.8176673,118
1659018251.99936,337608.8176712,127
1659018251.99936,337608.8176751,118
1659018251.99936,337608.8176789,99
1659018251.99936,337608.8176823,89
1659018251.99936,337608.8176857,61
1659018251.99936,337608.8176893,18
1659018251.99936,337608.8176927,40
1659018251.99936,337608.8176961,82
1659018251.99936,337608.8177003,59
1659018251.99936,337608.8177042,49
1659018251.99936,337608.8177096,68
1659018251.99936,337608.8177143,49
1659018251.99936,337608.8177188,56
1659018251.99936,337608.817724,116
1659018251.99936,337608.8177286,127
1659018251.99936,337608.8177337,97
1659018251.99936,337608.8177373,87
1659018251.99936,337608.8177426,85
1659018251.99936,337608.8177494,68
1659018251.99936,337608.8177546,52
1659018251.99936,337608.8177591,66
1659018251.99936,337608.8177651,73
1659018251.99936,337608.8177687,47
1659018251.99936,337608.8177721,37
1659018251.99936,337608.8177844,71
1659018251.99936,337608.8177938,92
1659018251.99936,337608.8177983,75
1659018251.99936,337608.8178041,56
1659018251.99936,337609.4018227,54
1659018251.99936,337609.4018407,63
1659018251.99936,337609.4018542,66
1659018251.99936,337609.401868,56
1659018251.99936,337609.4018812,59
1659018251.99936,337609.4018908,49
1659018251.99936,337609.4018934,26
1659018251.99936,337609.4018955,146
1659018251.99936,337609.4018975,445
1659018251.99936,337609.4019001,537
1659018251.99936,337609.4019085,267
1659018251.99936,337609.4019192,63
1659018251.99936,337609.4019226,40
1659018251.99936,337609.4019264,-28
1659018251.99936,337609.4019284,-80
1659018251.99936,337609.4019305,-61
1659018251.99936,337609.4019325,-61
1659018251.99936,337609.4019346,-61
1659018251.99936,337609.4019366,-40
1659018251.99936,337609.4019387,-40
1659018251.99936,337609.4019407,-47
1659018252.01133,337609.4019427,-40
1659018252.01133,337609.4019447,-30
1659018252.01133,337609.4019467,-33
1659018252.01133,337609.4019489,-33
1659018252.01133,337609.4019509,-28
1659018252.01133,337609.4019529,-30
1659018252.01133,337609.401955,-23
1659018252.01133,337609.401957,2
1659018252.01133,337609.401959,7
1659018252.01133,337609.4019611,-2
1659018252.01133,337609.4019631,16
1659018252.01133,337609.4019651,42
1659018252.01133,337609.4019671,56
1659018252.01133,337609.4019691,68
1659018252.01133,337609.4019712,71
1659018252.01133,337609.4019732,82
1659018252.01133,337609.4019752,104
1659018252.01133,337609.4019772,78
1659018252.01133,337609.4019793,37
1659018252.01133,337609.4019813,37
1659018252.01133,337609.4019832,47
1659018252.01133,337609.4019853,26
1659018252.01133,337609.4019874,14
1659018252.01133,337609.4019894,23
1659018252.57782,337609.4019914,33
1659018252.57782,337609.4019933,35
1659018252.57782,337609.4019953,35
1659018252.57782,337609.4019972,35
1659018252.57782,337609.4019991,40
1659018252.57782,337609.402001,47
1659018252.57782,337609.4020029,47
1659018252.57782,337609.4020049,44
1659018252.57782,337609.4020068,54
1659018252.57782,337609.4020087,49
1659018252.57782,337609.4020106,33
1659018252.57782,337609.4020125,33
1659018252.57782,337609.4020144,37
1659018252.57782,337609.4020163,35
1659018252.57782,337609.4020182,40
1659018252.57782,337609.4020201,52
1659018252.57782,337609.4020253,61
1659018252.57782,337609.402033,63
1659018252.57782,337609.4020482,52
1659018252.57782,337609.4020577,40
1659018252.57782,337609.4020603,49
1659018252.57782,337609.4020625,44
1659018252.57782,337609.4020645,21
1659018252.57782,337609.4020665,26
1659018252.57782,337609.4020685,28
1659018252.57782,337609.4020705,-18
1659018252.57782,337609.4020725,23
1659018252.57782,337609.4020745,343
1659018252.57782,337609.9867161,672
1659018252.57782,337609.9867301,568
1659018252.57782,337609.9867336,246
1659018252.57782,337609.986739,75
1659018252.57782,337609.9867416,-30
1659018252.57782,337609.9867444,-97
1659018252.57782,337609.9867469,-73
1659018252.57782,337609.9867499,-73
1659018252.57782,337609.9867523,-108
1659018252.57782,337609.9867565,-99
1659018252.57782,337609.9867591,-71
1659018252.57782,337609.9867616,-89
