Time,TimeLsl,Value
1659022210.29581,341566.1216313,-23
1659022210.29581,341566.1216502,61
1659022210.29581,341566.1216596,360
1659022210.29581,341566.1216678,603
1659022210.29581,341566.121676,449
1659022210.29581,341566.1216835,171
1659022210.29581,341566.1216936,91
1659022210.29581,341566.1217003,47
1659022210.29581,341566.1217085,-14
1659022210.29581,341566.1217164,4
1659022210.29581,341566.1217243,23
1659022210.29581,341566.1217282,4
1659022210.29581,341566.121735,4
1659022210.29581,341566.121742,23
1659022210.29581,341566.1217488,30
1659022210.29581,341566.1217525,37
1659022210.29581,341566.1217597,35
1659022210.29581,341566.121766,25
1659022210.29581,341566.1217728,44
1659022210.29581,341566.1217783,56
1659022210.29581,341566.121783,28
1659022210.29581,341566.1217886,11
1659022210.29581,341566.1217964,28
1659022210.29581,341566.1218001,54
1659022210.29581,341566.1218056,68
1659022210.29581,341566.1218092,75
1659022210.29581,341566.1218153,77
1659022210.29581,341566.1218195,82
1659022210.29581,341566.1218271,91
1659022210.29581,341566.1218338,87
1659022210.29581,341566.1218376,89
1659022210.29581,341566.1218416,101
1659022210.29581,341566.1218492,96
1659022210.29581,341566.1218556,80
1659022210.29581,341566.1218613,75
1659022210.29581,341566.1218699,65
1659022210.29581,341566.1218752,49
1659022210.29581,341566.1218821,35
1659022210.29581,341566.121886,30
1659022210.29581,341566.1218912,32
1659022210.29581,341566.1218958,30
1659022210.29581,341566.1219012,23
1659022210.29581,341566.121907,23
1659022210.29581,341566.1219129,32
1659022210.29581,341566.1219166,30
1659022210.29581,341566.1219229,23
1659022210.29581,341566.121929,28
1659022210.29581,341566.1219372,30
1659022210.29581,341566.1219429,18
1659022210.29581,341566.1219472,16
1659022210.42759,341566.1219545,18
1659022210.42759,341566.1219608,21
1659022210.42759,341566.1219671,28
1659022210.42759,341566.1219709,28
1659022210.42759,341566.121976,21
1659022210.42759,341566.1219816,28
1659022210.42759,341566.1219879,25
1659022210.42759,341566.1219916,14
1659022210.42759,341566.1219972,11
1659022210.42759,341566.1220017,16
1659022210.42759,341566.1220117,30
1659022210.42759,341566.122022,42
1659022210.42759,341566.1220593,37
1659022210.42759,341566.1220694,21
1659022210.42759,341566.1220762,-2
1659022210.42759,341566.1220821,-9
1659022210.42759,341566.1220882,4
1659022210.42759,341566.1220927,7
1659022210.42759,341566.1220989,2
1659022210.42759,341566.1221035,0
1659022210.42759,341566.1221095,-25
1659022210.42759,341566.1221141,-14
1659022210.42759,341566.1221201,207
1659022210.42759,341566.6582112,527
1659022210.42759,341566.6582348,537
1659022210.42759,341566.6582416,259
1659022210.42759,341566.6582489,91
1659022210.42759,341566.6582558,30
1659022210.42759,341566.658262,-35
1659022210.42759,341566.6582681,-35
1659022210.42759,341566.6582742,-18
1659022210.42759,341566.6582834,-42
1659022210.42759,341566.6582908,-44
1659022210.42759,341566.6582957,-28
1659022210.42759,341566.6582997,-37
1659022210.42759,341566.6583049,-56
1659022210.42759,341566.6583113,-47
1659022210.42759,341566.6583161,-25
1659022210.42759,341566.6583229,-23
1659022210.42759,341566.6583307,-32
1659022210.42759,341566.6583399,-35
1659022210.42759,341566.6583441,-35
1659022210.42759,341566.6583474,-37
1659022210.42759,341566.658353,-25
1659022210.42759,341566.6583564,-14
1659022210.42759,341566.6583595,-11
1659022210.42759,341566.6583636,0
1659022210.42759,341566.6583689,11
1659022210.42759,341566.6583746,14
1659022210.42759,341566.6583847,25
1659022210.48196,341566.6584187,47
1659022210.48196,341566.6584298,56
1659022210.48196,341566.658439,58
1659022210.48196,341566.6584463,63
1659022210.48196,341566.6584543,56
1659022210.48196,341566.6584613,42
1659022210.48196,341566.6584698,35
1659022210.48196,341566.6584766,30
1659022210.48196,341566.6584853,21
1659022210.48196,341566.6584922,7
1659022210.48196,341566.6584974,7
1659022210.48196,341566.6585057,14
1659022210.48196,341566.6585126,21
1659022210.48196,341566.6585207,25
1659022210.48196,341566.6585281,28
1659022210.48196,341566.6585363,28
1659022210.48196,341566.6585427,30
1659022210.48196,341566.6585508,37
1659022210.48196,341566.658558,37
1659022210.48196,341566.6585666,37
1659022210.48196,341566.6585736,37
1659022210.48196,341566.6585814,32
1659022210.48196,341566.6585914,30
1659022210.48196,341566.6586217,23
1659022210.48196,341566.6586301,0
1659022210.48196,341566.6586354,-11
1659022210.48196,341566.6586418,0
1659022210.48196,341566.6586471,-2
1659022210.48196,341566.658652,-16
1659022210.48196,341566.6586571,-7
1659022210.48196,341566.6586638,14
1659022210.48196,341566.658668,30
1659022210.48196,341566.6586734,44
1659022210.48196,341566.658679,42
1659022210.48196,341566.6586843,18
1659022210.48196,341566.6586899,11
1659022210.48196,341566.6586958,21
1659022210.48196,341566.6587098,28
1659022210.48196,341566.6587229,35
1659022210.48196,341566.6587334,35
1659022210.48196,341566.6587425,7
1659022210.48196,341566.6588857,-9
1659022210.48196,341566.6588972,108
1659022210.48196,341566.6589016,412
1659022210.48196,341566.6589056,596
1659022210.48196,341566.6589095,428
1659022210.48196,341567.24274,200
1659022210.48196,341567.2427595,101
1659022210.48196,341567.2427721,23
1659022210.48196,341567.242783,-2
1659022210.5049,341567.2427919,28
1659022210.5049,341567.2428009,23
1659022210.5049,341567.2428103,7
1659022210.5049,341567.2428197,9
1659022210.5049,341567.2428294,9
1659022210.5049,341567.2428386,7
1659022210.5049,341567.242847,9
1659022210.5049,341567.2428558,16
1659022210.5049,341567.2428646,18
1659022210.5049,341567.2428733,4
1659022210.5049,341567.2428821,0
1659022210.5049,341567.2428888,14
1659022210.5049,341567.2428962,16
1659022210.5049,341567.2429027,16
1659022210.5049,341567.2429118,28
1659022210.5049,341567.2429206,35
1659022210.5049,341567.2429272,40
1659022210.5049,341567.2429365,47
1659022210.5049,341567.2429429,61
1659022210.5049,341567.2429518,77
1659022210.5049,341567.2429603,84
1659022210.5049,341567.2429669,91
1659022210.5049,341567.2429757,106
1659022210.5049,341567.2430871,110
1659022210.5049,341567.2431012,108
1659022210.5049,341567.2431088,103
1659022210.5049,341567.2431177,91
1659022210.5049,341567.2431241,73
1659022210.5049,341567.2431304,58
1659022210.5049,341567.2431378,54
1659022210.5049,341567.2431443,51
1659022210.5049,341567.2431509,51
1659022210.5049,341567.2431574,54
1659022210.5049,341567.2431652,58
1659022210.5049,341567.2431718,58
1659022210.5049,341567.2431782,58
1659022210.5049,341567.2431853,65
1659022210.5049,341567.2431915,58
1659022210.5049,341567.2431993,44
1659022210.5049,341567.2432061,47
1659022210.5049,341567.2432127,42
1659022210.5049,341567.2432193,30
1659022210.5049,341567.2432258,40
1659022210.5049,341567.2432323,51
1659022210.5049,341567.2432386,40
1659022210.5049,341567.2432459,35
1659022210.5049,341567.2432526,47
1659022210.5049,341567.2432592,42
1659022210.5049,341567.2432659,21
1659022210.5049,341567.2432728,28
1659022210.51587,341567.2432796,54
1659022210.51587,341567.2432868,63
1659022210.51587,341567.2432958,65
1659022210.51587,341567.2433026,77
1659022210.51587,341567.2433094,75
1659022210.51587,341567.2433163,54
1659022210.51587,341567.243323,47
1659022210.51587,341567.24333,51
1659022210.51587,341567.2433366,49
1659022210.51587,341567.243343,47
1659022210.51587,341567.2433492,58
1659022210.51587,341567.2433553,49
1659022210.51587,341567.2433619,14
1659022210.51587,341567.2433656,106
1659022210.51587,341567.2433688,412
1659022210.51587,341567.2433717,629
1659022210.51587,341567.2433768,482
1659022210.51587,341567.2433822,242
1659022210.51587,341567.2433877,131
1659022210.51587,341567.7796082,44
1659022210.51587,341567.7796301,2
1659022210.51587,341567.7796399,23
1659022210.92056,341567.7796449,23
1659022210.92056,341567.7796494,18
1659022210.92056,341567.779654,25
1659022210.92056,341567.7796587,21
1659022210.92056,341567.779664,21
1659022210.92056,341567.7796687,35
1659022210.92056,341567.7796735,35
1659022210.92056,341567.7796784,21
1659022210.92056,341567.7796828,9
1659022210.92056,341567.7796871,18
1659022210.92056,341567.7796912,37
1659022210.92056,341567.7796952,37
1659022210.92056,341567.7796993,28
1659022210.92056,341567.7797039,30
1659022210.92056,341567.7797084,25
1659022210.92056,341567.7797133,25
1659022210.92056,341567.779718,40
1659022210.92056,341567.7797226,49
1659022210.92056,341567.7797271,51
1659022210.92056,341567.7797324,61
1659022210.92056,341567.7797376,65
1659022210.92056,341567.7797423,65
1659022210.92056,341567.7797463,75
1659022210.92056,341567.7797505,87
1659022210.92056,341567.7797548,89
1659022210.92056,341567.7797595,80
1659022210.92056,341567.7797639,58
1659022210.92056,341567.7797683,35
1659022210.92056,341567.7797727,28
1659022210.92056,341567.7797771,32
1659022210.92056,341567.7798104,23
1659022210.92056,341567.7798202,11
1659022210.92056,341567.7798246,18
1659022210.92056,341567.7798282,21
1659022210.92056,341567.7798319,11
1659022210.92056,341567.7798354,21
1659022210.92056,341567.7798405,32
1659022210.92056,341567.779844,30
1659022210.92056,341567.7798474,30
1659022210.92056,341567.7798526,28
1659022210.92056,341567.7798631,32
1659022210.92056,341567.7798891,42
1659022210.92056,341567.7798986,42
1659022210.92056,341567.7799103,35
1659022210.92056,341567.7799179,35
1659022210.92056,341567.7799244,32
1659022210.92056,341567.77993,25
1659022210.92056,341567.7799376,23
1659022210.92056,341567.7799448,25
1659022210.92056,341567.7799504,28
1659022210.94177,341567.7799535,42
1659022210.94177,341567.7799566,61
1659022210.94177,341567.7799614,68
1659022210.94177,341567.7799647,63
1659022210.94177,341567.7799701,51
1659022210.94177,341567.7799735,40
1659022210.94177,341567.7799787,44
1659022210.94177,341567.7799828,47
1659022210.94177,341567.7799921,40
1659022210.94177,341567.78,47
1659022210.94177,341567.7800087,40
1659022210.94177,341567.7800163,7
1659022210.94177,341567.7800235,87
1659022210.94177,341567.7800309,381
1659022210.94177,341567.7800368,605
1659022210.94177,341567.7800443,466
1659022210.94177,341567.7800518,223
1659022210.94177,341567.7800595,115
1659022210.94177,341567.7800674,32
1659022210.94177,341567.7800752,-9
1659022210.94177,341568.3160899,11
1659022210.94177,341568.3161084,11
1659022210.94177,341568.3161174,0
1659022210.94177,341568.3161258,11
1659022211.59658,341568.3161373,16
1659022211.59658,341568.3161417,14
1659022211.59658,341568.3161476,23
1659022211.59658,341568.3161527,18
1659022211.59658,341568.3161571,7
1659022211.59658,341568.3161619,9
1659022211.59658,341568.3161687,16
1659022211.59658,341568.316176,23
1659022211.59658,341568.3161812,30
1659022211.59658,341568.3161864,21
1659022211.59658,341568.316193,14
1659022211.59658,341568.3161997,25
1659022211.59658,341568.3162084,30
1659022211.59658,341568.3162165,32
1659022211.59658,341568.316225,49
1659022211.59658,341568.3162332,61
1659022211.59658,341568.3162414,58
1659022211.59658,341568.3162497,70
1659022211.59658,341568.3162579,89
1659022211.59658,341568.316266,91
1659022211.59658,341568.3162748,89
1659022211.59658,341568.3162829,91
1659022211.59658,341568.3162911,80
1659022211.59658,341568.3162996,54
1659022211.59658,341568.3163077,40
1659022211.59658,341568.3163159,28
1659022211.59658,341568.3163241,25
1659022211.59658,341568.3163322,32
1659022211.59658,341568.3163403,40
1659022211.59658,341568.3163486,44
1659022211.59658,341568.3163569,49
1659022211.59658,341568.3163649,49
1659022211.59658,341568.3163732,56
1659022211.59658,341568.3163813,70
1659022211.59658,341568.3163894,75
1659022211.59658,341568.3164002,65
1659022211.59658,341568.3164082,68
1659022211.59658,341568.3164161,73
1659022211.59658,341568.3164244,77
1659022211.59658,341568.3164326,82
1659022211.59658,341568.3164407,77
1659022211.59658,341568.3164486,73
1659022211.59658,341568.3164567,68
1659022211.59658,341568.3164646,65
1659022211.59658,341568.3164729,65
1659022211.59658,341568.316481,61
1659022211.59658,341568.3164891,56
1659022211.59658,341568.3164972,70
1659022211.59658,341568.3165056,82
1659022211.59658,341568.3165139,91
1659022211.60855,341568.316522,113
1659022211.60855,341568.3165303,108
1659022211.60855,341568.3165385,68
1659022211.60855,341568.3165476,51
1659022211.60855,341568.3165557,68
1659022211.60855,341568.3165636,70
1659022211.60855,341568.3165717,73
1659022211.60855,341568.3165812,80
1659022211.60855,341568.3165877,61
1659022211.60855,341568.3165959,47
1659022211.60855,341568.3166041,176
1659022211.60855,341568.3166123,475
1659022211.60855,341568.3166202,629
1659022211.60855,341568.3166283,447
1659022211.60855,341568.3166363,233
1659022211.60855,341568.3166441,143
1659022211.60855,341568.316652,56
1659022211.60855,341568.3166597,18
1659022211.60855,341568.3166672,51
1659022211.60855,341568.9983385,51
1659022211.60855,341568.9983566,47
1659022211.60855,341568.9983614,65
1659022211.60855,341568.9983693,54
1659022211.60855,341568.9983757,28
1659022212.08037,341568.9983792,37
1659022212.08037,341568.9983827,61
1659022212.08037,341568.9983859,58
1659022212.08037,341568.9983893,47
1659022212.08037,341568.9983923,49
1659022212.08037,341568.9983956,49
1659022212.08037,341568.9983993,51
1659022212.08037,341568.9984031,56
1659022212.08037,341568.9984156,49
1659022212.08037,341568.9984194,58
1659022212.08037,341568.9984226,70
1659022212.08037,341568.9984432,63
1659022212.08037,341568.9984653,70
1659022212.08037,341568.9984777,87
1659022212.08037,341568.9984825,98
1659022212.08037,341568.998487,101
1659022212.08037,341568.9984913,98
1659022212.08037,341568.9984953,106
1659022212.08037,341568.9985019,106
1659022212.08037,341568.9985058,89
1659022212.08037,341568.9985095,73
1659022212.08037,341568.9985135,65
1659022212.08037,341568.9985175,51
1659022212.08037,341568.9985216,37
1659022212.08037,341568.9985257,35
1659022212.08037,341568.9985295,42
1659022212.08037,341568.998534,51
1659022212.08037,341568.9985379,58
1659022212.08037,341568.998542,61
1659022212.08037,341568.998546,56
1659022212.08037,341568.99855,51
1659022212.08037,341568.9985539,61
1659022212.08037,341568.9985576,75
1659022212.08037,341568.9985616,80
1659022212.08037,341568.9985661,73
1659022212.08037,341568.9985706,70
1659022212.08037,341568.9985743,70
1659022212.08037,341568.9985784,68
1659022212.08037,341568.9985852,63
1659022212.08037,341568.9985912,63
1659022212.08037,341568.9985953,65
1659022212.08037,341568.9985995,58
1659022212.08037,341568.9986037,42
1659022212.08037,341568.9986077,37
1659022212.08037,341568.9986118,49
1659022212.08037,341568.998616,51
1659022212.08037,341568.9986202,61
1659022212.08037,341568.9986242,87
1659022212.08037,341568.9986282,106
1659022212.08037,341568.9986322,87
1659022212.09185,341568.9986363,58
1659022212.09185,341568.9986405,56
1659022212.09185,341568.9986462,68
1659022212.09185,341568.9986504,65
1659022212.09185,341568.9986561,80
1659022212.09185,341568.9986619,80
1659022212.09185,341568.9986659,42
1659022212.09185,341568.9986722,54
1659022212.09185,341568.9986785,252
1659022212.09185,341568.9986826,548
1659022212.09185,341568.9986881,598
1659022212.09185,341568.9986922,372
1659022212.09185,341568.998698,197
1659022212.09185,341568.9987025,113
1659022212.09185,341568.99874,30
1659022212.09185,341568.9987543,28
1659022212.09185,341568.9987612,61
1659022212.09185,341568.9987668,44
1659022212.09185,341569.4855993,28
1659022212.09185,341569.4856229,42
1659022212.09185,341569.4856391,58
1659022212.09185,341569.4856456,63
1659022212.09185,341569.4856517,61
1659022212.09185,341569.4856584,58
1659022212.6628,341569.4856639,61
1659022212.6628,341569.4856686,56
1659022212.6628,341569.4856722,56
1659022212.6628,341569.4856764,61
1659022212.6628,341569.48568,75
1659022212.6628,341569.4856843,80
1659022212.6628,341569.4856886,82
1659022212.6628,341569.4856925,84
1659022212.6628,341569.4856961,82
1659022212.6628,341569.4856997,82
1659022212.6628,341569.4857035,89
1659022212.6628,341569.4857086,98
1659022212.6628,341569.4857126,110
1659022212.6628,341569.4857159,117
1659022212.6628,341569.4857194,108
1659022212.6628,341569.4857232,96
1659022212.6628,341569.4857277,98
1659022212.6628,341569.4857312,98
1659022212.6628,341569.4857357,73
1659022212.6628,341569.4857399,42
1659022212.6628,341569.4857433,21
1659022212.6628,341569.4857465,11
1659022212.6628,341569.4857498,14
1659022212.6628,341569.485753,23
1659022212.6628,341569.4857562,28
1659022212.6628,341569.4857595,32
1659022212.6628,341569.4857639,30
1659022212.6628,341569.4857681,30
1659022212.6628,341569.4857715,35
1659022212.6628,341569.4857749,42
1659022212.6628,341569.4857783,47
1659022212.6628,341569.4857816,44
1659022212.6628,341569.4857849,35
1659022212.6628,341569.4857883,30
1659022212.6628,341569.4857916,37
1659022212.6628,341569.485795,42
1659022212.6628,341569.4857984,44
1659022212.6628,341569.4858017,44
1659022212.6628,341569.4858052,40
1659022212.6628,341569.4858087,37
1659022212.6628,341569.4858121,32
1659022212.6628,341569.4858154,28
1659022212.6628,341569.4858188,47
1659022212.6628,341569.4858221,73
1659022212.6628,341569.4858254,82
1659022212.6628,341569.4858287,84
1659022212.6628,341569.485832,87
1659022212.6628,341569.4858353,77
1659022212.6628,341569.4858386,65
1659022212.6628,341569.485842,70
1659022212.67676,341569.4858477,73
1659022212.67676,341569.4858511,73
1659022212.67676,341569.485856,80
1659022212.67676,341569.4858594,70
1659022212.67676,341569.4858647,51
1659022212.67676,341569.485868,146
1659022212.67676,341569.4858734,421
1659022212.67676,341569.4858768,614
1659022212.67676,341569.4858802,480
1659022212.67676,341569.485885,261
1659022212.67676,341569.4858883,167
1659022212.67676,341569.4858916,82
1659022212.67676,341569.4858949,25
1659022212.67676,341569.4858999,40
1659022212.67676,341569.4859033,42
1659022212.67676,341569.4859087,32
1659022212.67676,341569.4859121,42
1659022212.67676,341570.0702976,47
1659022212.67676,341570.0703142,51
1659022212.67676,341570.0703198,63
1659022212.67676,341570.0703261,68
1659022212.67676,341570.0703322,68
1659022212.67676,341570.0703389,70
1659022212.67676,341570.0703435,70
1659022213.25571,341570.0703498,63
1659022213.25571,341570.0703541,70
1659022213.25571,341570.0703581,80
1659022213.25571,341570.070363,70
1659022213.25571,341570.0703673,63
1659022213.25571,341570.070372,75
1659022213.25571,341570.0703766,87
1659022213.25571,341570.0703896,96
1659022213.25571,341570.0704624,103
1659022213.25571,341570.0704763,103
1659022213.25571,341570.0704891,98
1659022213.25571,341570.0705039,101
1659022213.25571,341570.0705148,113
1659022213.25571,341570.0705213,122
1659022213.25571,341570.0705252,120
1659022213.25571,341570.0705305,98
1659022213.25571,341570.0705341,73
1659022213.25571,341570.0705404,58
1659022213.25571,341570.0705451,54
1659022213.25571,341570.0705502,49
1659022213.25571,341570.0705538,56
1659022213.25571,341570.0705581,63
1659022213.25571,341570.0705638,58
1659022213.25571,341570.0705671,56
1659022213.25571,341570.07057,65
1659022213.25571,341570.0705733,70
1659022213.25571,341570.0705782,73
1659022213.25571,341570.070591,77
1659022213.25571,341570.0706028,77
1659022213.25571,341570.0706138,80
1659022213.25571,341570.0706266,82
1659022213.25571,341570.0706351,73
1659022213.25571,341570.0706412,70
1659022213.25571,341570.0706491,80
1659022213.25571,341570.0706551,82
1659022213.25571,341570.0706628,77
1659022213.25571,341570.0706687,80
1659022213.25571,341570.0706764,80
1659022213.25571,341570.0706826,75
1659022213.25571,341570.0706903,82
1659022213.25571,341570.070697,94
1659022213.25571,341570.07071,101
1659022213.25571,341570.0707223,113
1659022213.25571,341570.0707351,127
1659022213.25571,341570.0707519,124
1659022213.25571,341570.0707631,108
1659022213.25571,341570.0707694,103
1659022213.25571,341570.0707777,106
1659022213.25571,341570.0707844,103
1659022213.25571,341570.0707938,110
1659022213.2797,341570.0707999,115
1659022213.2797,341570.0708079,91
1659022213.2797,341570.0708135,117
1659022213.2797,341570.0708212,329
1659022213.2797,341570.0708273,598
1659022213.2797,341570.0708333,574
1659022213.2797,341570.0708365,327
1659022213.2797,341570.0708394,195
1659022213.2797,341570.0708423,150
1659022213.2797,341570.0708453,80
1659022213.2797,341570.0708482,68
1659022213.2797,341570.0708511,94
1659022213.2797,341570.070854,84
1659022213.2797,341570.070857,77
1659022213.2797,341570.0708598,89
1659022213.2797,341570.0708627,84
1659022213.2797,341570.6557819,70
1659022213.2797,341570.6558027,77
1659022213.2797,341570.6558128,89
1659022213.2797,341570.6558212,94
1659022213.2797,341570.6558261,101
1659022213.2797,341570.6558322,113
1659022213.2797,341570.6558369,110
1659022213.2797,341570.6558426,94
1659022213.74562,341570.6558491,91
1659022213.74562,341570.6558533,110
1659022213.74562,341570.6558574,122
1659022213.74562,341570.6558614,124
1659022213.74562,341570.6559123,124
1659022213.74562,341570.6559282,117
1659022213.74562,341570.6559344,117
1659022213.74562,341570.6559392,131
1659022213.74562,341570.6559454,139
1659022213.74562,341570.6559508,143
1659022213.74562,341570.6559558,160
1659022213.74562,341570.6559599,157
1659022213.74562,341570.6559651,124
1659022213.74562,341570.655969,98
1659022213.74562,341570.655973,96
1659022213.74562,341570.655977,91
1659022213.74562,341570.6559807,73
1659022213.74562,341570.6559851,65
1659022213.74562,341570.6559888,73
1659022213.74562,341570.6559924,84
1659022213.74562,341570.6559967,89
1659022213.74562,341570.6560007,94
1659022213.74562,341570.6560075,101
1659022213.74562,341570.6560131,98
1659022213.74562,341570.6560178,94
1659022213.74562,341570.6560242,98
1659022213.74562,341570.656029,106
1659022213.74562,341570.656035,98
1659022213.74562,341570.6560394,91
1659022213.74562,341570.6560457,96
1659022213.74562,341570.6560502,103
1659022213.74562,341570.6560563,101
1659022213.74562,341570.6560625,96
1659022213.74562,341570.6560671,91
1659022213.74562,341570.6560717,91
1659022213.74562,341570.6560777,91
1659022213.74562,341570.6560823,96
1659022213.74562,341570.656088,110
1659022213.74562,341570.6560921,124
1659022213.74562,341570.6560984,136
1659022213.74562,341570.656103,129
1659022213.74562,341570.6561085,106
1659022213.74562,341570.6561128,96
1659022213.74562,341570.6561188,108
1659022213.74562,341570.656124,110
1659022213.74562,341570.65613,101
1659022213.74562,341570.6561339,103
1659022213.74562,341570.6561398,87
1659022213.74562,341570.6561445,80
1659022213.74562,341570.6561507,226
1659022213.75659,341570.6561553,513
1659022213.75659,341570.6561603,593
1659022213.75659,341570.656164,358
1659022213.75659,341570.6561693,176
1659022213.75659,341570.6561744,153
1659022213.75659,341570.6561779,91
1659022213.75659,341570.6561823,49
1659022213.75659,341570.6561903,68
1659022213.75659,341570.6561972,63
1659022213.75659,341570.6562037,51
1659022213.75659,341570.6562106,68
1659022213.75659,341570.6562145,73
1659022213.75659,341570.6562196,65
1659022213.75659,341570.6562229,73
1659022213.75659,341570.6562261,80
1659022213.75659,341571.1435692,82
1659022213.75659,341571.1435892,87
1659022213.75659,341571.1435936,94
1659022213.75659,341571.143598,98
1659022213.75659,341571.1436,98
1659022213.75659,341571.1436021,94
1659022213.75659,341571.1436103,96
1659022213.75659,341571.1436241,113
1659022213.75659,341571.1436375,120
1659022214.32491,341571.1436499,122
1659022214.32491,341571.1436557,131
1659022214.32491,341571.1436599,129
1659022214.32491,341571.1436639,129
1659022214.32491,341571.1436678,150
1659022214.32491,341571.1436716,160
1659022214.32491,341571.1436845,146
1659022214.32491,341571.1436901,134
1659022214.32491,341571.1436936,110
1659022214.32491,341571.1436999,82
1659022214.32491,341571.1437038,73
1659022214.32491,341571.1437094,65
1659022214.32491,341571.1437183,54
1659022214.32491,341571.1437295,49
1659022214.32491,341571.143752,37
1659022214.32491,341571.1437676,32
1659022214.32491,341571.143779,42
1659022214.32491,341571.1437854,49
1659022214.32491,341571.1437933,49
1659022214.32491,341571.1437981,51
1659022214.32491,341571.1438044,54
1659022214.32491,341571.1438077,56
1659022214.32491,341571.1438134,56
1659022214.32491,341571.1438192,58
1659022214.32491,341571.1438225,58
1659022214.32491,341571.1438282,51
1659022214.32491,341571.1438319,49
1659022214.32491,341571.143835,44
1659022214.32491,341571.1438403,42
1659022214.32491,341571.1438434,47
1659022214.32491,341571.1438463,49
1659022214.32491,341571.1438497,49
1659022214.32491,341571.1438561,51
1659022214.32491,341571.1438616,65
1659022214.32491,341571.1438668,80
1659022214.32491,341571.1438704,82
1659022214.32491,341571.143874,70
1659022214.32491,341571.1438775,49
1659022214.32491,341571.1438811,42
1659022214.32491,341571.1438852,51
1659022214.32491,341571.1438913,61
1659022214.32491,341571.1438984,65
1659022214.32491,341571.1439054,56
1659022214.32491,341571.1439154,30
1659022214.32491,341571.14392,49
1659022214.32491,341571.1439241,268
1659022214.32491,341571.1439275,574
1659022214.32491,341571.1439363,572
1659022214.32491,341571.1439439,303
1659022214.32491,341571.1439488,141
1659022214.34087,341571.1439528,73
1659022214.34087,341571.1439558,9
1659022214.34087,341571.1439587,9
1659022214.34087,341571.1439616,28
1659022214.34087,341571.1439646,18
1659022214.34087,341571.1439675,23
1659022214.34087,341571.1439704,32
1659022214.34087,341571.1439736,35
1659022214.34087,341571.1439876,37
1659022214.34087,341571.1440004,44
1659022214.34087,341571.1440133,56
1659022214.34087,341571.1440262,63
1659022214.34087,341571.144039,61
1659022214.34087,341571.1440519,65
1659022214.34087,341571.7282656,75
1659022214.34087,341571.7282801,75
1659022214.34087,341571.7282849,65
1659022214.34087,341571.7282907,65
1659022214.34087,341571.7282948,75
1659022214.34087,341571.7283004,84
1659022214.34087,341571.7283046,82
1659022214.34087,341571.72831,80
1659022214.34087,341571.7283141,87
1659022214.34087,341571.7283195,94
1659022214.90572,341571.7283236,106
1659022214.90572,341571.7283276,113
1659022214.90572,341571.7283317,108
1659022214.90572,341571.7283357,91
1659022214.90572,341571.7283397,77
1659022214.90572,341571.7283437,65
1659022214.90572,341571.7283476,56
1659022214.90572,341571.7283516,49
1659022214.90572,341571.7283556,49
1659022214.90572,341571.7283594,47
1659022214.90572,341571.728372,49
1659022214.90572,341571.7283785,58
1659022214.90572,341571.7283824,58
1659022214.90572,341571.7283862,58
1659022214.90572,341571.7283914,73
1659022214.90572,341571.7283989,80
1659022214.90572,341571.728407,77
1659022214.90572,341571.7284136,80
1659022214.90572,341571.7284218,84
1659022214.90572,341571.728429,89
1659022214.90572,341571.7284346,82
1659022214.90572,341571.7284382,75
1659022214.90572,341571.7284418,75
1659022214.90572,341571.7284454,77
1659022214.90572,341571.728449,75
1659022214.90572,341571.7284537,70
1659022214.90572,341571.7284572,70
1659022214.90572,341571.7284607,73
1659022214.90572,341571.7284655,75
1659022214.90572,341571.7284691,84
1659022214.90572,341571.7284728,94
1659022214.90572,341571.7284762,108
1659022214.90572,341571.7284798,120
1659022214.90572,341571.7284832,108
1659022214.90572,341571.7284868,89
1659022214.90572,341571.7284919,89
1659022214.90572,341571.7284953,98
1659022214.90572,341571.7284999,106
1659022214.90572,341571.7285046,108
1659022214.90572,341571.7285087,89
1659022214.90572,341571.7285123,51
1659022214.90572,341571.7285156,98
1659022214.90572,341571.7285191,360
1659022214.90572,341571.7285224,631
1659022214.90572,341571.7285257,558
1659022214.90572,341571.728529,303
1659022214.90572,341571.7285334,188
1659022214.90572,341571.7285369,115
1659022214.90572,341571.7285402,49
1659022214.90572,341571.7285448,63
1659022214.91869,341571.7285482,84
1659022214.91869,341571.7285515,68
1659022214.91869,341571.7285548,70
1659022214.91869,341571.7285581,87
1659022214.91869,341571.7285614,87
1659022214.91869,341571.7285647,87
1659022214.91869,341571.7285694,89
1659022214.91869,341571.7285737,87
1659022214.91869,341571.7285771,98
1659022214.91869,341571.7285804,103
1659022214.91869,341571.7285838,98
1659022214.91869,341571.7285871,103
1659022214.91869,341571.7285905,113
1659022214.91869,341572.3125794,122
1659022214.91869,341572.3125999,129
1659022214.91869,341572.3126146,131
1659022214.91869,341572.3126283,134
1659022214.91869,341572.3126371,141
1659022214.91869,341572.3126397,150
1659022214.91869,341572.3126418,164
1659022214.91869,341572.3126438,179
1659022214.91869,341572.3126459,186
1659022214.91869,341572.3126479,183
1659022214.91869,341572.31265,164
1659022215.45074,341572.312652,148
1659022215.45074,341572.312654,141
1659022215.45074,341572.3126558,129
1659022215.45074,341572.3126577,113
1659022215.45074,341572.3126596,96
1659022215.45074,341572.3126615,77
1659022215.45074,341572.3126634,63
1659022215.45074,341572.3126653,75
1659022215.45074,341572.3126672,87
1659022215.45074,341572.3126705,89
1659022215.45074,341572.3126794,91
1659022215.45074,341572.3126847,91
1659022215.45074,341572.3126884,91
1659022215.45074,341572.3126932,94
1659022215.45074,341572.3126989,96
1659022215.45074,341572.3127042,91
1659022215.45074,341572.312717,87
1659022215.45074,341572.3127305,87
1659022215.45074,341572.3127363,89
1659022215.45074,341572.3127385,87
1659022215.45074,341572.3127406,82
1659022215.45074,341572.3127426,82
1659022215.45074,341572.3127447,89
1659022215.45074,341572.3127524,87
1659022215.45074,341572.3127629,77
1659022215.45074,341572.3127664,82
1659022215.45074,341572.3127699,91
1659022215.45074,341572.312772,94
1659022215.45074,341572.3127817,108
1659022215.45074,341572.3127908,131
1659022215.45074,341572.3127933,131
1659022215.45074,341572.3127954,101
1659022215.45074,341572.3127975,77
1659022215.45074,341572.3127995,91
1659022215.45074,341572.3128065,103
1659022215.45074,341572.3128207,96
1659022215.45074,341572.3128338,94
1659022215.45074,341572.3128447,89
1659022215.45074,341572.312855,68
1659022215.45074,341572.3128624,122
1659022215.45074,341572.3128671,372
1659022215.45074,341572.3128922,621
1659022215.45074,341572.3128994,558
1659022215.45074,341572.3129066,325
1659022215.45074,341572.3129159,197
1659022215.45074,341572.3129231,115
1659022215.45074,341572.3129276,56
1659022215.45074,341572.3129316,68
1659022215.45074,341572.3129381,75
1659022215.45074,341572.3129416,63
1659022215.46171,341572.3129485,65
1659022215.46171,341572.3129557,70
1659022215.46171,341572.3129643,70
1659022215.46171,341572.3129705,77
1659022215.46171,341572.3129769,91
1659022215.46171,341572.3129866,94
1659022215.46171,341572.3129928,98
1659022215.46171,341572.3129998,103
1659022215.46171,341572.3130075,101
1659022215.46171,341572.313016,103
1659022215.46171,341572.3130221,117
1659022215.46171,341572.3130282,122
1659022215.46171,341572.8491421,122
1659022215.46171,341572.8491622,131
1659022215.46171,341572.8491685,134
1659022215.46171,341572.8491738,139
1659022215.46171,341572.8491775,155
1659022215.46171,341572.849181,167
1659022215.46171,341572.8491846,169
1659022215.46171,341572.8491881,181
1659022215.46171,341572.8491917,197
1659022215.46171,341572.8491951,195
1659022215.46171,341572.8491986,176
1659022215.46171,341572.8492021,160
1659022216.02959,341572.8492056,143
1659022216.02959,341572.8492091,110
1659022216.02959,341572.8492126,84
1659022216.02959,341572.8492161,84
1659022216.02959,341572.8492198,84
1659022216.02959,341572.8492233,77
1659022216.02959,341572.8492268,82
1659022216.02959,341572.8492303,80
1659022216.02959,341572.8492338,58
1659022216.02959,341572.8492373,56
1659022216.02959,341572.8492408,70
1659022216.02959,341572.8492459,80
1659022216.02959,341572.8492503,82
1659022216.02959,341572.8492557,80
1659022216.02959,341572.8492603,70
1659022216.02959,341572.8492651,73
1659022216.02959,341572.8492721,80
1659022216.02959,341572.8492803,75
1659022216.02959,341572.8492876,68
1659022216.02959,341572.8492928,65
1659022216.02959,341572.849301,65
1659022216.02959,341572.8493122,68
1659022216.02959,341572.849323,63
1659022216.02959,341572.8493307,58
1659022216.02959,341572.8493374,58
1659022216.02959,341572.8493508,51
1659022216.02959,341572.8493574,54
1659022216.02959,341572.8493661,73
1659022216.02959,341572.8493725,91
1659022216.02959,341572.8493808,103
1659022216.02959,341572.8493874,103
1659022216.02959,341572.8493988,82
1659022216.02959,341572.849407,65
1659022216.02959,341572.8494136,75
1659022216.02959,341572.8494216,89
1659022216.02959,341572.8494305,89
1659022216.02959,341572.8494424,82
1659022216.02959,341572.8494555,61
1659022216.02959,341572.8494647,56
1659022216.02959,341572.8494718,200
1659022216.02959,341572.8494813,492
1659022216.02959,341572.849486,621
1659022216.02959,341572.8494937,435
1659022216.02959,341572.8495657,233
1659022216.02959,341572.8495754,148
1659022216.02959,341572.84958,70
1659022216.02959,341572.8495919,42
1659022216.02959,341572.8496035,65
1659022216.02959,341572.8496169,65
1659022216.02959,341572.8496311,63
1659022216.04155,341572.8496451,68
1659022216.04155,341572.8496567,73
1659022216.04155,341572.8496716,77
1659022216.04155,341572.8496832,77
1659022216.04155,341572.8496978,80
1659022216.04155,341572.8497095,89
1659022216.04155,341572.8497225,98
1659022216.04155,341572.8497363,108
1659022216.04155,341572.8497492,108
1659022216.04155,341572.8497627,103
1659022216.04155,341572.8497751,110
1659022216.04155,341573.4345227,122
1659022216.04155,341573.434542,120
1659022216.04155,341573.4345467,122
1659022216.04155,341573.4345489,141
1659022216.04155,341573.434551,146
1659022216.04155,341573.4345531,148
1659022216.04155,341573.4345551,164
1659022216.04155,341573.4345571,174
1659022216.04155,341573.4345592,171
1659022216.04155,341573.4345612,169
1659022216.04155,341573.4345654,157
1659022216.04155,341573.4345768,136
1659022216.04155,341573.4345814,124
1659022216.5685,341573.4345892,113
1659022216.5685,341573.4345969,96
1659022216.5685,341573.4346048,82
1659022216.5685,341573.4346323,75
1659022216.5685,341573.4346417,63
1659022216.5685,341573.4346465,63
1659022216.5685,341573.4346529,73
1659022216.5685,341573.4346562,80
1659022216.5685,341573.4346592,84
1659022216.5685,341573.4346627,89
1659022216.5685,341573.4346658,91
1659022216.5685,341573.4346702,89
1659022216.5685,341573.4346736,84
1659022216.5685,341573.4346772,82
1659022216.5685,341573.4346811,73
1659022216.5685,341573.4346847,65
1659022216.5685,341573.4346885,68
1659022216.5685,341573.4346925,70
1659022216.5685,341573.4346957,73
1659022216.5685,341573.4346992,73
1659022216.5685,341573.4347027,75
1659022216.5685,341573.4347062,82
1659022216.5685,341573.4347096,77
1659022216.5685,341573.4347131,68
1659022216.5685,341573.4347168,73
1659022216.5685,341573.4347203,89
1659022216.5685,341573.4347238,101
1659022216.5685,341573.4347276,110
1659022216.5685,341573.4347313,124
1659022216.5685,341573.4347381,115
1659022216.5685,341573.4347418,87
1659022216.5685,341573.4347454,87
1659022216.5685,341573.4347491,108
1659022216.5685,341573.4347543,108
1659022216.5685,341573.434761,101
1659022216.5685,341573.4347662,101
1659022216.5685,341573.4347716,91
1659022216.5685,341573.4347754,87

1659022216.5685,341573.4347809,228
1659022216.5685,341573.4347848,527
1659022216.5685,341573.4347906,650
1659022216.5685,341573.4347945,449
1659022216.5685,341573.4347996,249
1659022216.5685,341573.4348033,167
1659022216.5685,341573.4348084,91
1659022216.5685,341573.4348122,73
1659022216.5685,341573.4348173,101
1659022216.5685,341573.434821,87
1659022216.5685,341573.4348245,68
1659022216.5685,341573.4348281,87
1659022216.58147,341573.4348317,101
1659022216.58147,341573.434837,101
1659022216.58147,341573.4348415,101
1659022216.58147,341573.4348476,108
1659022216.58147,341573.4348528,113
1659022216.58147,341573.4348573,115
1659022216.58147,341573.434863,117
1659022216.58147,341573.4348666,127
1659022216.58147,341573.4348718,131
1659022216.58147,341573.4348756,129
1659022216.58147,341573.9709647,127
1659022216.58147,341573.9709832,124
1659022216.58147,341573.9709929,131
1659022216.58147,341573.9710003,143
1659022216.58147,341573.971007,153
1659022216.58147,341573.9710133,160
1659022216.58147,341573.9710169,153
1659022216.58147,341573.9710202,146
1659022216.58147,341573.9710234,153
1659022216.58147,341573.9710304,164
1659022216.58147,341573.9710372,162
1659022216.58147,341573.9710439,146
1659022216.58147,341573.9710509,127
1659022216.58147,341573.9710595,96
1659022217.16163,341573.971064,65
1659022217.16163,341573.9710674,58
1659022217.16163,341573.9710708,73
1659022217.16163,341573.9710764,75
1659022217.16163,341573.9710819,73
1659022217.16163,341573.9710864,75
1659022217.16163,341573.9710908,73
1659022217.16163,341573.9710959,68
1659022217.16163,341573.9711012,75
1659022217.16163,341573.9711104,75
1659022217.16163,341573.9711186,70
1659022217.16163,341573.9711247,70
1659022217.16163,341573.9711336,68
1659022217.16163,341573.9711399,65
1659022217.16163,341573.9711422,70
1659022217.16163,341573.9711443,77
1659022217.16163,341573.971147,75
1659022217.16163,341573.9711559,65
1659022217.16163,341573.9711685,63
1659022217.16163,341573.9711828,65
1659022217.16163,341573.9711888,65
1659022217.16163,341573.971198,68
1659022217.16163,341573.9712058,70
1659022217.16163,341573.9712136,65
1659022217.16163,341573.971217,70
1659022217.16163,341573.9712201,80
1659022217.16163,341573.9712231,96
1659022217.16163,341573.971226,115
1659022217.16163,341573.971229,120
1659022217.16163,341573.9712319,110
1659022217.16163,341573.9712349,94
1659022217.16163,341573.9712378,89
1659022217.16163,341573.9712406,96
1659022217.16163,341573.9712435,103
1659022217.16163,341573.9712464,101
1659022217.16163,341573.9712492,96
1659022217.16163,341573.9712523,80
1659022217.16163,341573.9712552,106
1659022217.16163,341573.9712581,313
1659022217.16163,341573.971261,593
1659022217.16163,341573.9712639,596
1659022217.16163,341573.9712668,358
1659022217.16163,341573.9712697,207
1659022217.16163,341573.9712727,136
1659022217.16163,341573.9712756,70
1659022217.16163,341573.9712784,68
1659022217.16163,341573.9712814,82
1659022217.16163,341573.9712843,73
1659022217.16163,341573.9712872,75
1659022217.16163,341573.9712902,80
1659022217.17958,341573.9712932,75
1659022217.17958,341573.971296,77
1659022217.17958,341573.971299,82
1659022217.17958,341573.971302,87
1659022217.17958,341573.9713048,94
1659022217.17958,341573.9713078,98
1659022217.17958,341573.9713107,101
1659022217.17958,341573.9713136,106
1659022217.17958,341573.9713165,108
1659022217.17958,341574.5559266,113
1659022217.17958,341574.5559467,124
1659022217.17958,341574.555958,131
1659022217.17958,341574.5559633,131
1659022217.17958,341574.5559705,131
1659022217.17958,341574.5559753,139
1659022217.17958,341574.5559809,146
1659022217.17958,341574.5559892,155
1659022217.17958,341574.5560058,167
1659022217.17958,341574.5560162,167
1659022217.17958,341574.5560231,153
1659022217.17958,341574.5560287,139
1659022217.17958,341574.556035,117
1659022217.17958,341574.5560395,89
1659022217.17958,341574.5560457,80
1659022217.68756,341574.5560497,65
1659022217.68756,341574.5560534,40
1659022217.68756,341574.5560572,28
1659022217.68756,341574.556061,35
1659022217.68756,341574.5560647,37
1659022217.68756,341574.5560682,37
1659022217.68756,341574.5560718,37
1659022217.68756,341574.5560754,35
1659022217.68756,341574.5560789,28
1659022217.68756,341574.5560826,23
1659022217.68756,341574.5560861,25
1659022217.68756,341574.5560901,32
1659022217.68756,341574.5560936,35
1659022217.68756,341574.5560973,32
1659022217.68756,341574.5561027,37
1659022217.68756,341574.5561061,47
1659022217.68756,341574.5561097,51
1659022217.68756,341574.5561134,51
1659022217.68756,341574.5561188,54
1659022217.68756,341574.5561235,58
1659022217.68756,341574.5561272,61
1659022217.68756,341574.5561308,63
1659022217.68756,341574.5561345,61
1659022217.68756,341574.5561398,58
1659022217.68756,341574.5561437,63
1659022217.68756,341574.5561492,91
1659022217.68756,341574.5561528,106
1659022217.68756,341574.5561563,91
1659022217.68756,341574.5561597,94
1659022217.68756,341574.556163,103
1659022217.68756,341574.5561677,117
1659022217.68756,341574.5561709,120
1659022217.68756,341574.5561742,84
1659022217.68756,341574.5561776,73
1659022217.68756,341574.5561828,134
1659022217.68756,341574.5561864,179
1659022217.68756,341574.5561923,143
1659022217.68756,341574.5561968,155
1659022217.68756,341574.5562034,376
1659022217.68756,341574.5562075,624
1659022217.68756,341574.5562129,537
1659022217.68756,341574.5562175,278
1659022217.68756,341574.556221,200
1659022217.68756,341574.5562246,169
1659022217.68756,341574.5562302,96
1659022217.68756,341574.5562351,96
1659022217.68756,341574.556241,122
1659022217.68756,341574.5562463,117
1659022217.68756,341574.5562499,110
1659022217.68756,341574.5562532,110
1659022217.69953,341574.5562565,122
1659022217.69953,341574.5562601,127
1659022217.69953,341574.5562641,115
1659022217.69953,341574.5562696,113
1659022217.69953,341574.5562734,124
1659022217.69953,341574.5562772,127
1659022217.69953,341574.5562827,131
1659022217.69953,341574.5562865,129
1659022217.69953,341575.0934231,110
1659022217.69953,341575.0934378,108
1659022217.69953,341575.0934439,115
1659022217.69953,341575.0934503,117
1659022217.69953,341575.0934565,110
1659022217.69953,341575.0934627,106
1659022217.69953,341575.0934673,98
1659022217.69953,341575.0934731,77
1659022217.69953,341575.0934777,75
1659022217.69953,341575.0934834,96
1659022217.69953,341575.0934889,101
1659022217.69953,341575.093495,96
1659022217.69953,341575.0935007,91
1659022217.69953,341575.0935066,61
1659022217.69953,341575.0935111,28
1659022217.69953,341575.0935168,16
1659022218.27323,341575.093522,2
1659022218.27323,341575.0935265,-16
1659022218.27323,341575.0935312,-25
1659022218.27323,341575.0935356,-40
1659022218.27323,341575.09354,-58
1659022218.27323,341575.0935445,-58
1659022218.27323,341575.0935503,-47
1659022218.27323,341575.0935553,-40
1659022218.27323,341575.0935616,-42
1659022218.27323,341575.0935681,-42
1659022218.27323,341575.0935728,-37
1659022218.27323,341575.0935788,-47
1659022218.27323,341575.0935834,-56
1659022218.27323,341575.0935892,-47
1659022218.27323,341575.0935936,-25
1659022218.27323,341575.0935995,-23
1659022218.27323,341575.0936048,-30
1659022218.27323,341575.0936106,-30
1659022218.27323,341575.0936162,-30
1659022218.27323,341575.093622,-25
1659022218.27323,341575.0936267,-9
1659022218.27323,341575.0936326,-9
1659022218.27323,341575.0936378,-16
1659022218.27323,341575.0936436,-16
1659022218.27323,341575.093649,-11
1659022218.27323,341575.0936552,-4
1659022218.27323,341575.0936599,14
1659022218.27323,341575.0936658,37
1659022218.27323,341575.0936704,47
1659022218.27323,341575.093702,32
1659022218.27323,341575.0937172,7
1659022218.27323,341575.0937232,7
1659022218.27323,341575.0937277,23
1659022218.27323,341575.093732,25
1659022218.27323,341575.0937361,21
1659022218.27323,341575.0937401,18
1659022218.27323,341575.0937442,0
1659022218.27323,341575.0937482,11
1659022218.27323,341575.0937523,171
1659022218.27323,341575.0937564,447
1659022218.27323,341575.0937625,546
1659022218.27323,341575.0937664,351
1659022218.27323,341575.0937704,153
1659022218.27323,341575.0937746,73
1659022218.27323,341575.0937798,2
1659022218.27323,341575.0937838,-21
1659022218.27323,341575.093789,0
1659022218.27323,341575.0937931,-2
1659022218.27323,341575.0937986,-9
1659022218.27323,341575.0938027,2
1659022218.28619,341575.0938079,14
1659022218.28619,341575.0938123,7
1659022218.28619,341575.0938179,14
1659022218.28619,341575.0938218,30
1659022218.28619,341575.0938254,23
1659022218.28619,341575.0938291,11
1659022218.28619,341575.0938328,21
1659022218.28619,341575.6770301,32
1659022218.28619,341575.6770508,40
1659022218.28619,341575.6770655,47
1659022218.28619,341575.6770787,49
1659022218.28619,341575.677088,40
1659022218.28619,341575.6770928,47
1659022218.28619,341575.6770983,70
1659022218.28619,341575.6771025,82
1659022218.28619,341575.6771059,84
1659022218.28619,341575.6771117,84
1659022218.28619,341575.6771195,84
1659022218.28619,341575.67713,89
1659022218.28619,341575.6771354,98
1659022218.28619,341575.6771434,103
1659022218.28619,341575.6771543,98
1659022218.28619,341575.6771586,75
1659022218.28619,341575.6771607,47
1659022218.81786,341575.6771638,32
1659022218.81786,341575.6771659,30
1659022218.81786,341575.6771704,28
1659022218.81786,341575.6771804,32
1659022218.81786,341575.6771852,30
1659022218.81786,341575.6771874,16
1659022218.81786,341575.6771904,14
1659022218.81786,341575.6772003,23
1659022218.81786,341575.6772081,28
1659022218.81786,341575.6772154,30
1659022218.81786,341575.6772223,37
1659022218.81786,341575.6772292,40
1659022218.81786,341575.6772326,35
1659022218.81786,341575.677246,42
1659022218.81786,341575.6772575,54
1659022218.81786,341575.6772687,54
1659022218.81786,341575.6772725,54
1659022218.81786,341575.6772747,68
1659022218.81786,341575.6772781,77
1659022218.81786,341575.6772904,70
1659022218.81786,341575.6772997,73
1659022218.81786,341575.6773049,75
1659022218.81786,341575.6773071,73
1659022218.81786,341575.6773147,77
1659022218.81786,341575.6773245,75
1659022218.81786,341575.6773282,68
1659022218.81786,341575.6773388,80
1659022218.81786,341575.6773656,106
1659022218.81786,341575.6773754,117
1659022218.81786,341575.6773829,127
1659022218.81786,341575.6773875,129
1659022218.81786,341575.6774013,115
1659022218.81786,341575.6774091,101
1659022218.81786,341575.6774141,106
1659022218.81786,341575.6774183,113
1659022218.81786,341575.6774213,115
1659022218.81786,341575.6774241,115
1659022218.81786,341575.677427,103
1659022218.81786,341575.6774302,89
1659022218.81786,341575.6774332,179
1659022218.81786,341575.6774365,447
1659022218.81786,341575.6774413,662
1659022218.81786,341575.6774453,551
1659022218.81786,341575.677452,313
1659022218.81786,341575.6774557,193
1659022218.81786,341575.6774592,110
1659022218.81786,341575.6774626,54
1659022218.81786,341575.6774661,61
1659022218.81786,341575.6774698,70
1659022218.81786,341575.6774755,63
1659022218.83083,341575.6774805,61
1659022218.83083,341575.677484,58
1659022218.83083,341575.6774872,56
1659022218.83083,341575.6774906,58
1659022218.83083,341575.6774953,63
1659022218.83083,341575.6775007,61
1659022218.83083,341576.2146538,61
1659022218.83083,341576.2146715,68
1659022218.83083,341576.2146811,73
1659022218.83083,341576.2146877,75
1659022218.83083,341576.2146944,87
1659022218.83083,341576.2147011,96
1659022218.83083,341576.2147094,91
1659022218.83083,341576.2147164,96
1659022218.83083,341576.2147295,106
1659022218.83083,341576.2147402,110
1659022218.83083,341576.2147444,122
1659022218.83083,341576.2147575,134
1659022218.83083,341576.214764,136
1659022218.83083,341576.2147664,131
1659022218.83083,341576.2147685,124
1659022218.83083,341576.2147705,122
1659022218.83083,341576.2147725,115
1659022218.83083,341576.2147751,96
1659022219.35435,341576.2147858,80
1659022219.35435,341576.2147918,54
1659022219.35435,341576.2147941,25
1659022219.35435,341576.2147969,18
1659022219.35435,341576.2148045,25
1659022219.35435,341576.2148102,32
1659022219.35435,341576.2148304,40
1659022219.35435,341576.2148369,42
1659022219.35435,341576.2148404,42
1659022219.35435,341576.2148511,42
1659022219.35435,341576.2148598,40
1659022219.35435,341576.2148697,47
1659022219.35435,341576.2148777,61
1659022219.35435,341576.2148885,58
1659022219.35435,341576.2148978,47
1659022219.35435,341576.2149065,58
1659022219.35435,341576.2149173,75
1659022219.35435,341576.2149261,80
1659022219.35435,341576.2149347,84
1659022219.35435,341576.2149456,80
1659022219.35435,341576.2149535,70
1659022219.35435,341576.2149657,80
1659022219.35435,341576.214976,94
1659022219.35435,341576.2149815,91
1659022219.35435,341576.2149951,89
1659022219.35435,341576.2150059,98
1659022219.35435,341576.2150107,96
1659022219.35435,341576.2150141,89
1659022219.35435,341576.2150173,96
1659022219.35435,341576.2150203,101
1659022219.35435,341576.2150236,108
1659022219.35435,341576.2150267,127
1659022219.35435,341576.21503,146
1659022219.35435,341576.2150333,150
1659022219.35435,341576.2150366,143
1659022219.35435,341576.2150399,131
1659022219.35435,341576.2150435,124
1659022219.35435,341576.215051,120
1659022219.35435,341576.2150541,110
1659022219.35435,341576.2150571,108
1659022219.35435,341576.2150601,110
1659022219.35435,341576.2150629,96
1659022219.35435,341576.2150659,98
1659022219.35435,341576.2150689,256
1659022219.35435,341576.2150717,546
1659022219.35435,341576.2150747,633
1659022219.35435,341576.2150775,409
1659022219.35435,341576.2150804,216
1659022219.35435,341576.2150833,164
1659022219.35435,341576.2150862,101
1659022219.36631,341576.2150892,70
1659022219.36631,341576.2150921,89
1659022219.36631,341576.2150954,84
1659022219.36631,341576.2151014,73
1659022219.36631,341576.2151061,87
1659022219.36631,341576.7491679,94
1659022219.36631,341576.7491834,87
1659022219.36631,341576.7491888,91
1659022219.36631,341576.7491932,108
1659022219.36631,341576.7491975,113
1659022219.36631,341576.7492018,113
1659022219.36631,341576.749206,120
1659022219.36631,341576.7492101,122
1659022219.36631,341576.7492142,127
1659022219.36631,341576.7492183,127
1659022219.36631,341576.7492226,110
1659022219.36631,341576.7492267,115
1659022219.36631,341576.7492308,134
1659022219.36631,341576.7492581,134
1659022219.36631,341576.7492696,134
1659022219.36631,341576.7492769,148
1659022219.36631,341576.7492804,155
1659022219.36631,341576.7492973,155
1659022219.36631,341576.7493081,155
1659022219.93602,341576.7493153,148
1659022219.93602,341576.7493191,143
1659022219.93602,341576.7493226,136
1659022219.93602,341576.7493261,106
1659022219.93602,341576.7493296,70
1659022219.93602,341576.7493331,65
1659022219.93602,341576.7493367,68
1659022219.93602,341576.7493401,56
1659022219.93602,341576.7493435,54
1659022219.93602,341576.7493467,61
1659022219.93602,341576.7493523,63
1659022219.93602,341576.7493586,63
1659022219.93602,341576.7493649,70
1659022219.93602,341576.7493713,82
1659022219.93602,341576.7493777,87
1659022219.93602,341576.7493843,91
1659022219.93602,341576.7493909,94
1659022219.93602,341576.7493967,91
1659022219.93602,341576.7494024,98
1659022219.93602,341576.7494087,101
1659022219.93602,341576.7494151,103
1659022219.93602,341576.7494216,110
1659022219.93602,341576.749428,115
1659022219.93602,341576.7494345,106
1659022219.93602,341576.749441,106
1659022219.93602,341576.7494472,115
1659022219.93602,341576.7494527,120
1659022219.93602,341576.7494582,120
1659022219.93602,341576.7494651,122
1659022219.93602,341576.7494715,110
1659022219.93602,341576.7494793,94
1659022219.93602,341576.7494868,101
1659022219.93602,341576.7495392,120
1659022219.93602,341576.7495447,134
1659022219.93602,341576.7495482,134
1659022219.93602,341576.7495519,113
1659022219.93602,341576.7495558,98
1659022219.93602,341576.7496035,110
1659022219.93602,341576.7496115,113
1659022219.93602,341576.7496152,108
1659022219.93602,341576.7496191,120
1659022219.93602,341576.7496249,110
1659022219.93602,341576.7496285,80
1659022219.93602,341576.7496322,157
1659022219.93602,341576.749681,419
1659022219.93602,341576.749688,629
1659022219.93602,341576.749723,506
1659022219.93602,341576.7497334,263
1659022219.93602,341576.7497379,171
1659022219.93602,341576.749742,122
1659022219.94899,341576.7497601,73
1659022219.94899,341576.7497654,77
1659022219.94899,341576.7497689,82
1659022219.94899,341576.7497724,70
1659022219.94899,341577.3350865,75
1659022219.94899,341577.3351044,77
1659022219.94899,341577.3351093,75
1659022219.94899,341577.3351135,82
1659022219.94899,341577.3351171,89
1659022219.94899,341577.3351207,94
1659022219.94899,341577.3351242,80
1659022219.94899,341577.3351277,68
1659022219.94899,341577.3351312,73
1659022219.94899,341577.3351347,77
1659022219.94899,341577.3351381,73
1659022219.94899,341577.3351416,75
1659022219.94899,341577.3351453,77
1659022219.94899,341577.335149,65
1659022219.94899,341577.3351526,61
1659022219.94899,341577.3351587,73
1659022219.94899,341577.3351626,84
1659022219.94899,341577.3351664,94
1659022219.94899,341577.33517,96
1659022219.94899,341577.3351779,96
1659022220.46625,341577.335182,101
1659022220.46625,341577.3351853,103
1659022220.46625,341577.3351896,101
1659022220.46625,341577.3351934,87
1659022220.46625,341577.3351967,68
1659022220.46625,341577.3352004,56
1659022220.46625,341577.335204,42
1659022220.46625,341577.3352076,37
1659022220.46625,341577.3352115,44
1659022220.46625,341577.3352154,47
1659022220.46625,341577.3352191,47
1659022220.46625,341577.3352227,49
1659022220.46625,341577.3352262,51
1659022220.46625,341577.3352297,56
1659022220.46625,341577.3352336,65
1659022220.46625,341577.3352373,70
1659022220.46625,341577.3352412,68
1659022220.46625,341577.3352451,73
1659022220.46625,341577.3352489,77
1659022220.46625,341577.3352527,80
1659022220.46625,341577.3352564,82
1659022220.46625,341577.33526,84
1659022220.46625,341577.3352635,70
1659022220.46625,341577.335267,58
1659022220.46625,341577.3352701,65
1659022220.46625,341577.3352735,77
1659022220.46625,341577.3352772,75
1659022220.46625,341577.3352808,68
1659022220.46625,341577.3352842,70
1659022220.46625,341577.3352878,77
1659022220.46625,341577.3352918,75
1659022220.46625,341577.3352958,73
1659022220.46625,341577.3352997,82
1659022220.46625,341577.3353034,98
1659022220.46625,341577.3353071,115
1659022220.46625,341577.3353108,127
1659022220.46625,341577.3353146,115
1659022220.46625,341577.3353181,87
1659022220.46625,341577.3353218,89
1659022220.46625,341577.3353254,103
1659022220.46625,341577.3353302,101
1659022220.46625,341577.3353335,94
1659022220.46625,341577.3353371,98
1659022220.46625,341577.3353407,80
1659022220.46625,341577.3353442,89
1659022220.46625,341577.335348,287
1659022220.46625,341577.3353517,605
1659022220.46625,341577.3353555,662
1659022220.46625,341577.3353599,412
1659022220.46625,341577.3353637,214
1659022220.47921,341577.3353677,129
1659022220.47921,341577.3353713,51
1659022220.47921,341577.3353756,37
1659022220.47921,341577.870587,49
1659022220.47921,341577.8706075,37
1659022220.47921,341577.8706182,32
1659022220.47921,341577.8706227,44
1659022220.47921,341577.8706267,47
1659022220.47921,341577.8706318,47
1659022220.47921,341577.8706388,51
1659022220.47921,341577.8706424,56
1659022220.47921,341577.8706484,61
1659022220.47921,341577.8706572,58
1659022220.47921,341577.8706658,42
1659022220.47921,341577.870673,42
1659022220.47921,341577.8706813,61
1659022220.47921,341577.8706851,63
1659022220.47921,341577.8706904,58
1659022220.47921,341577.8706945,61
1659022220.47921,341577.8706988,51
1659022220.47921,341577.8707033,42
1659022220.47921,341577.8707109,54
1659022220.47921,341577.8707202,65
1659022220.47921,341577.8707273,73
1659022221.00312,341577.8707351,84
1659022221.00312,341577.870742,87
1659022221.00312,341577.8707467,89
1659022221.00312,341577.8707499,94
1659022221.00312,341577.870753,82
1659022221.00312,341577.870756,68
1659022221.00312,341577.870759,58
1659022221.00312,341577.8707622,42
1659022221.00312,341577.8707652,30
1659022221.00312,341577.8707685,35
1659022221.00312,341577.8707714,40
1659022221.00312,341577.8707743,37
1659022221.00312,341577.8707786,35
1659022221.00312,341577.8707818,28
1659022221.00312,341577.8707863,18
1659022221.00312,341577.8707897,28
1659022221.00312,341577.8707929,40
1659022221.00312,341577.8707961,40
1659022221.00312,341577.8707994,47
1659022221.00312,341577.8708028,58
1659022221.00312,341577.8708062,56
1659022221.00312,341577.8708108,51
1659022221.00312,341577.8708164,58
1659022221.00312,341577.8708206,70
1659022221.00312,341577.8708239,75
1659022221.00312,341577.870827,77
1659022221.00312,341577.8708304,73
1659022221.00312,341577.8708337,73
1659022221.00312,341577.8708391,80
1659022221.00312,341577.8708426,89
1659022221.00312,341577.8708465,91
1659022221.00312,341577.8708498,89
1659022221.00312,341577.8708546,82
1659022221.00312,341577.8708599,82
1659022221.00312,341577.8708646,89
1659022221.00312,341577.8708679,91
1659022221.00312,341577.8708712,101
1659022221.00312,341577.8708746,124
1659022221.00312,341577.870878,134
1659022221.00312,341577.8708827,124
1659022221.00312,341577.8708865,110
1659022221.00312,341577.8708915,98
1659022221.00312,341577.8708966,103
1659022221.00312,341577.8709008,103
1659022221.00312,341577.8709045,96
1659022221.00312,341577.8709099,98
1659022221.00312,341577.8709142,89
1659022221.00312,341577.8709192,68
1659022221.00312,341577.8709226,160
1659022221.00312,341577.8709264,447
1659022221.01608,341577.8709297,673
1659022221.01608,341577.8709331,539
1659022221.01608,341578.4071729,275
1659022221.01608,341578.4071866,157
1659022221.01608,341578.4071891,84
1659022221.01608,341578.4071923,35
1659022221.01608,341578.4071944,49
1659022221.01608,341578.4071966,49
1659022221.01608,341578.4071986,25
1659022221.01608,341578.4072006,16
1659022221.01608,341578.4072027,30
1659022221.01608,341578.4072047,42
1659022221.01608,341578.4072067,40
1659022221.01608,341578.4072087,42
1659022221.01608,341578.4072107,47
1659022221.01608,341578.4072127,35
1659022221.01608,341578.4072157,30
1659022221.01608,341578.4072341,42
1659022221.01608,341578.4072579,47
1659022221.01608,341578.4072667,40
1659022221.01608,341578.407271,44
1659022221.01608,341578.4072748,47
1659022221.01608,341578.407278,47
1659022221.01608,341578.4072826,56
1659022221.68441,341578.4072864,73
1659022221.68441,341578.4072915,73
1659022221.68441,341578.4072954,70
1659022221.68441,341578.4072989,82
1659022221.68441,341578.4073024,94
1659022221.68441,341578.4073058,94
1659022221.68441,341578.4073092,87
1659022221.68441,341578.4073128,77
1659022221.68441,341578.4073164,65
1659022221.68441,341578.407333,54
1659022221.68441,341578.4073417,44
1659022221.68441,341578.4073456,37
1659022221.68441,341578.4073489,32
1659022221.68441,341578.4073521,32
1659022221.68441,341578.4073552,35
1659022221.68441,341578.4073583,44
1659022221.68441,341578.4073617,49
1659022221.68441,341578.4073651,44
1659022221.68441,341578.4073682,51
1659022221.68441,341578.4073725,63
1659022221.68441,341578.4073759,65
1659022221.68441,341578.4073793,68
1659022221.68441,341578.4073825,77
1659022221.68441,341578.407388,77
1659022221.68441,341578.4073912,70
1659022221.68441,341578.4073999,73
1659022221.68441,341578.4074084,87
1659022221.68441,341578.4074145,91
1659022221.68441,341578.4074229,89
1659022221.68441,341578.4074275,87
1659022221.68441,341578.4074324,89
1659022221.68441,341578.4074356,89
1659022221.68441,341578.4074389,91
1659022221.68441,341578.4074422,98
1659022221.68441,341578.4074469,96
1659022221.68441,341578.4074524,82
1659022221.68441,341578.4074561,80
1659022221.68441,341578.4074606,94
1659022221.68441,341578.4074667,98
1659022221.68441,341578.4074735,91
1659022221.68441,341578.4074845,91
1659022221.68441,341578.4074971,103
1659022221.68441,341578.4075108,117
1659022221.68441,341578.4075185,139
1659022221.68441,341578.4075256,146
1659022221.68441,341578.407529,129
1659022221.68441,341578.4075413,115
1659022221.68441,341578.4075488,115
1659022221.68441,341578.4075595,113
1659022221.68441,341578.4075707,110
1659022221.70436,341578.4075787,117
1659022221.70436,341579.0897403,115
1659022221.70436,341579.0897576,91
1659022221.70436,341579.0897682,124
1659022221.70436,341579.0897839,332
1659022221.70436,341579.0897961,593
1659022221.70436,341579.0898139,579
1659022221.70436,341579.0898262,336
1659022221.70436,341579.0898331,174
1659022221.70436,341579.0898419,96
1659022221.70436,341579.0898475,25
1659022221.70436,341579.089855,11
1659022221.70436,341579.0898602,25
1659022221.70436,341579.0898675,23
1659022221.70436,341579.0898722,23
1659022221.70436,341579.0898777,28
1659022221.70436,341579.0898848,28
1659022221.70436,341579.0898898,25
1659022221.70436,341579.0898955,32
1659022221.70436,341579.0899027,32
1659022221.70436,341579.0899081,28
1659022221.70436,341579.0899151,23
1659022221.70436,341579.0899206,16
1659022221.70436,341579.0899276,14
1659022222.18267,341579.0899329,28
1659022222.18267,341579.0899379,32
1659022222.18267,341579.0899421,35
1659022222.18267,341579.0899471,47
1659022222.18267,341579.0899529,56
1659022222.18267,341579.0899567,63
1659022222.18267,341579.0899605,68
1659022222.18267,341579.0899662,80
1659022222.18267,341579.0899703,96
1659022222.18267,341579.0899743,110
1659022222.18267,341579.0899782,115
1659022222.18267,341579.0899828,122
1659022222.18267,341579.0899915,129
1659022222.18267,341579.0900021,113
1659022222.18267,341579.0900066,94
1659022222.18267,341579.090012,82
1659022222.18267,341579.0900157,70
1659022222.18267,341579.0900205,65
1659022222.18267,341579.0900239,65
1659022222.18267,341579.0900293,63
1659022222.18267,341579.0900328,65
1659022222.18267,341579.0900363,77
1659022222.18267,341579.0900397,77
1659022222.18267,341579.0900428,73
1659022222.18267,341579.0900458,73
1659022222.18267,341579.0900491,75
1659022222.18267,341579.0900524,82
1659022222.18267,341579.0900555,87
1659022222.18267,341579.0900586,82
1659022222.18267,341579.0900617,89
1659022222.18267,341579.0900649,94
1659022222.18267,341579.090068,91
1659022222.18267,341579.0900712,94
1659022222.18267,341579.0900744,101
1659022222.18267,341579.0900801,101
1659022222.18267,341579.0900836,101
1659022222.18267,341579.090087,108
1659022222.18267,341579.0900904,113
1659022222.18267,341579.0900937,110
1659022222.18267,341579.090097,113
1659022222.18267,341579.0901014,113
1659022222.18267,341579.0901071,113
1659022222.18267,341579.0901111,120
1659022222.18267,341579.0901167,113
1659022222.18267,341579.0901207,106
1659022222.18267,341579.0901247,117
1659022222.18267,341579.0901285,127
1659022222.18267,341579.0901342,134
1659022222.18267,341579.0901395,150
1659022222.18267,341579.0901426,164
1659022222.19962,341579.5771068,155
1659022222.19962,341579.5771192,131
1659022222.19962,341579.5771229,124
1659022222.19962,341579.5771252,124
1659022222.19962,341579.5771272,122
1659022222.19962,341579.5771292,127
1659022222.19962,341579.5771313,127
1659022222.19962,341579.5771333,101
1659022222.19962,341579.5771353,94
1659022222.19962,341579.5771374,223
1659022222.19962,341579.5771407,501
1659022222.19962,341579.5771523,654
1659022222.19962,341579.5771592,485
1659022222.19962,341579.5771663,249
1659022222.19962,341579.5771769,146
1659022222.19962,341579.577181,73
1659022222.19962,341579.577192,44
1659022222.19962,341579.5772338,68
1659022222.19962,341579.577246,63
1659022222.19962,341579.5772521,32
1659022222.19962,341579.5772598,25
1659022222.19962,341579.5772646,40
1659022222.19962,341579.5772745,40
1659022222.19962,341579.5772897,32
1659022222.70603,341579.577295,32
1659022222.70603,341579.5773002,28
1659022222.70603,341579.5773062,16
1659022222.70603,341579.5773099,21
1659022222.70603,341579.5773155,35
1659022222.70603,341579.5773202,40
1659022222.70603,341579.5773271,42
1659022222.70603,341579.5773342,51
1659022222.70603,341579.577341,56
1659022222.70603,341579.577346,63
1659022222.70603,341579.5773508,77
1659022222.70603,341579.5773545,87
1659022222.70603,341579.5773582,91
1659022222.70603,341579.5773615,101
1659022222.70603,341579.5773648,108
1659022222.70603,341579.5773695,115
1659022222.70603,341579.5773747,131
1659022222.70603,341579.5773799,141
1659022222.70603,341579.5773871,129
1659022222.70603,341579.577396,110
1659022222.70603,341579.5774043,96
1659022222.70603,341579.5774101,75
1659022222.70603,341579.577419,70
1659022222.70603,341579.5774251,77
1659022222.70603,341579.5774325,68
1659022222.70603,341579.5774545,65
1659022222.70603,341579.5774634,80
1659022222.70603,341579.5774718,77
1659022222.70603,341579.5774792,77
1659022222.70603,341579.5774849,89
1659022222.70603,341579.5774938,96
1659022222.70603,341579.5774989,98
1659022222.70603,341579.5775058,101
1659022222.70603,341579.5775091,101
1659022222.70603,341579.5775197,98
1659022222.70603,341579.5775319,106
1659022222.70603,341579.577541,113
1659022222.70603,341579.5775456,108
1659022222.70603,341579.5775593,103
1659022222.70603,341579.5775673,108
1659022222.70603,341579.5775721,110
1659022222.70603,341579.5775763,110
1659022222.70603,341579.5775879,115
1659022222.70603,341579.5775952,117
1659022222.70603,341579.5775999,120
1659022222.70603,341579.5776073,120
1659022222.70603,341579.5776215,115
1659022222.70603,341579.5776342,113
1659022222.70603,341579.5776491,115
1659022222.70603,341580.1130088,113
1659022222.719,341580.1130259,113
1659022222.719,341580.113035,117
1659022222.719,341580.1130421,136
1659022222.719,341580.1130478,155
1659022222.719,341580.1130565,148
1659022222.719,341580.1130637,120
1659022222.719,341580.1130768,96
1659022222.719,341580.1130909,96
1659022222.719,341580.1131038,91
1659022222.719,341580.1131199,73
1659022222.719,341580.1131351,70
1659022222.719,341580.1131499,75
1659022222.719,341580.1131642,51
1659022222.719,341580.1131701,73
1659022222.719,341580.1131741,273
1659022222.719,341580.1131773,541
1659022222.719,341580.1131837,556
1659022222.719,341580.1131876,327
1659022222.719,341580.1131942,157
1659022222.719,341580.1131973,75
1659022222.719,341580.1132037,9
1659022222.719,341580.1132107,7
1659022222.719,341580.113218,18
1659022222.719,341580.1132242,4
1659022223.29831,341580.1132284,4
1659022223.29831,341580.1132331,11
1659022223.29831,341580.1132387,11
1659022223.29831,341580.1132439,7
1659022223.29831,341580.1132487,11
1659022223.29831,341580.1132545,16
1659022223.29831,341580.1132617,18
1659022223.29831,341580.1132663,21
1659022223.29831,341580.1132698,25
1659022223.29831,341580.1132746,32
1659022223.29831,341580.1132816,37
1659022223.29831,341580.1132872,42
1659022223.29831,341580.1132922,51
1659022223.29831,341580.1132976,58
1659022223.29831,341580.1133012,70
1659022223.29831,341580.1133065,77
1659022223.29831,341580.1133129,82
1659022223.29831,341580.1133162,89
1659022223.29831,341580.1133213,101
1659022223.29831,341580.1133351,113
1659022223.29831,341580.113345,127
1659022223.29831,341580.1133504,136
1659022223.29831,341580.113363,131
1659022223.29831,341580.1133771,115
1659022223.29831,341580.1133927,94
1659022223.29831,341580.1134015,80
1659022223.29831,341580.1134079,73
1659022223.29831,341580.1134147,68
1659022223.29831,341580.1134181,65
1659022223.29831,341580.1134315,61
1659022223.29831,341580.1134396,58
1659022223.29831,341580.1134421,65
1659022223.29831,341580.1134442,75
1659022223.29831,341580.1134463,77
1659022223.29831,341580.1134483,82
1659022223.29831,341580.1134504,89
1659022223.29831,341580.1134566,84
1659022223.29831,341580.1134674,75
1659022223.29831,341580.1134755,80
1659022223.29831,341580.1134853,89
1659022223.29831,341580.1134958,91
1659022223.29831,341580.1135018,87
1659022223.29831,341580.1135148,84
1659022223.29831,341580.1135254,87
1659022223.29831,341580.1135312,91
1659022223.29831,341580.1135358,94
1659022223.29831,341580.1135393,91
1659022223.29831,341580.1135528,77
1659022223.29831,341580.6986057,68
1659022223.29831,341580.6986245,75
1659022223.31028,341580.6986343,77
1659022223.31028,341580.6986406,75
1659022223.31028,341580.6986494,77
1659022223.31028,341580.6986564,77
1659022223.31028,341580.6986669,65
1659022223.31028,341580.6986814,63
1659022223.31028,341580.6986931,84
1659022223.31028,341580.6987011,96
1659022223.31028,341580.6987061,82
1659022223.31028,341580.6987122,58
1659022223.31028,341580.6987165,49
1659022223.31028,341580.6987208,42
1659022223.31028,341580.6987295,35
1659022223.31028,341580.6987355,37
1659022223.31028,341580.6987455,44
1659022223.31028,341580.6987536,37
1659022223.31028,341580.698767,25
1659022223.31028,341580.6987755,131
1659022223.31028,341580.6987783,405
1659022223.31028,341580.6987862,558
1659022223.31028,341580.6987967,376
1659022223.31028,341580.6988002,160
1659022223.31028,341580.6988083,101
1659022223.31028,341580.6988177,30
1659022223.82761,341580.6988305,-25
1659022223.82761,341580.6988386,0
1659022223.82761,341580.698846,9
1659022223.82761,341580.6988571,-14
1659022223.82761,341580.6988707,-14
1659022223.82761,341580.6988839,-2
1659022223.82761,341580.6988971,0
1659022223.82761,341580.6989104,0
1659022223.82761,341580.6989237,4
1659022223.82761,341580.6989321,11
1659022223.82761,341580.6989345,18
1659022223.82761,341580.6989366,23
1659022223.82761,341580.6989386,30
1659022223.82761,341580.6989407,40
1659022223.82761,341580.6989427,47
1659022223.82761,341580.6989447,54
1659022223.82761,341580.6989468,58
1659022223.82761,341580.6989488,63
1659022223.82761,341580.6989515,75
1659022223.82761,341580.6989537,87
1659022223.82761,341580.6989557,96
1659022223.82761,341580.6989577,103
1659022223.82761,341580.6989597,113
1659022223.82761,341580.6989617,124
1659022223.82761,341580.6989637,129
1659022223.82761,341580.6989656,127
1659022223.82761,341580.6989676,113
1659022223.82761,341580.6989696,87
1659022223.82761,341580.6989716,65
1659022223.82761,341580.6989736,58
1659022223.82761,341580.6989756,54
1659022223.82761,341580.6989777,44
1659022223.82761,341580.6989797,44
1659022223.82761,341580.6989817,49
1659022223.82761,341580.6989837,47
1659022223.82761,341580.6989857,51
1659022223.82761,341580.6989876,63
1659022223.82761,341580.6989895,63
1659022223.82761,341580.6989915,56
1659022223.82761,341580.6989987,56
1659022223.82761,341580.699011,61
1659022223.82761,341580.6990183,63
1659022223.82761,341580.6990211,65
1659022223.82761,341580.6990311,68
1659022223.82761,341580.6990394,68
1659022223.82761,341580.699042,70
1659022223.82761,341580.6990441,75
1659022223.82761,341581.2342894,77
1659022223.82761,341581.2343065,82
1659022223.82761,341581.2343118,80
1659022223.84124,341581.2343198,80
1659022223.84124,341581.2343425,82
1659022223.84124,341581.2343543,82
1659022223.84124,341581.2343639,77
1659022223.84124,341581.2343721,77
1659022223.84124,341581.2343807,80
1659022223.84124,341581.2343885,80
1659022223.84124,341581.2344576,77
1659022223.84124,341581.234467,89
1659022223.84124,341581.2344725,82
1659022223.84124,341581.2344803,63
1659022223.84124,341581.234485,56
1659022223.84124,341581.2344914,51
1659022223.84124,341581.2344963,40
1659022223.84124,341581.2345027,32
1659022223.84124,341581.2345084,37
1659022223.84124,341581.2345146,37
1659022223.84124,341581.2345377,23
1659022223.84124,341581.2345498,58
1659022223.84124,341581.2345543,254
1659022223.84124,341581.2345578,513
1659022223.84124,341581.2345677,501
1659022223.84124,341581.2345762,252
1659022223.84124,341581.2345787,110
1659022224.3851,341581.2345808,77
1659022224.3851,341581.2345864,11

1659022224.3851,341581.2345962,-18
1659022224.3851,341581.2346033,-2
1659022224.3851,341581.2346118,0
1659022224.3851,341581.2346178,-7
1659022224.3851,341581.2346249,-2
1659022224.3851,341581.2346338,2
1659022224.3851,341581.2346484,2
1659022224.3851,341581.2346578,7
1659022224.3851,341581.2346609,16
1659022224.3851,341581.234664,21
1659022224.3851,341581.2346746,25
1659022224.3851,341581.2346867,28
1659022224.3851,341581.2346986,28
1659022224.3851,341581.2347106,28
1659022224.3851,341581.2347235,35
1659022224.3851,341581.23476,40
1659022224.3851,341581.2347709,42
1659022224.3851,341581.2347792,56
1659022224.3851,341581.2347915,63
1659022224.3851,341581.2347952,63
1659022224.3851,341581.2348005,70
1659022224.3851,341581.2348054,87
1659022224.3851,341581.2348093,101
1659022224.3851,341581.2348178,110
1659022224.3851,341581.2348326,106
1659022224.3851,341581.2348406,96
1659022224.3851,341581.2348432,87
1659022224.3851,341581.2348453,70
1659022224.3851,341581.2348473,47
1659022224.3851,341581.2348494,28
1659022224.3851,341581.2348521,21
1659022224.3851,341581.2348626,18
1659022224.3851,341581.2348702,16
1659022224.3851,341581.2348727,23
1659022224.3851,341581.2348748,35
1659022224.3851,341581.2348767,37
1659022224.3851,341581.2348812,35
1659022224.3851,341581.2348926,32
1659022224.3851,341581.2348981,37
1659022224.3851,341581.2349009,47
1659022224.3851,341581.2349029,56
1659022224.3851,341581.2349081,56
1659022224.3851,341581.2349193,56
1659022224.3851,341581.2349247,58
1659022224.3851,341581.7726144,58
1659022224.3851,341581.7726264,63
1659022224.3851,341581.7726291,65
1659022224.3851,341581.7726329,56
1659022224.40405,341581.7726351,54
1659022224.40405,341581.7726371,51
1659022224.40405,341581.7726393,40
1659022224.40405,341581.7726412,32
1659022224.40405,341581.7726431,37
1659022224.40405,341581.7726451,40
1659022224.40405,341581.772647,35
1659022224.40405,341581.7726491,42
1659022224.40405,341581.7726511,49
1659022224.40405,341581.7726531,49
1659022224.40405,341581.7726551,61
1659022224.40405,341581.772657,65
1659022224.40405,341581.772659,44
1659022224.40405,341581.772661,25
1659022224.40405,341581.772663,30
1659022224.40405,341581.772665,37
1659022224.40405,341581.772667,37
1659022224.40405,341581.772669,42
1659022224.40405,341581.772671,37
1659022224.40405,341581.7726729,11
1659022224.40405,341581.7726749,63
1659022224.40405,341581.772677,315
1659022224.40405,341581.772679,591
1659022224.40405,341581.772681,541
1659022225.00505,341581.772683,280
1659022225.00505,341581.772685,136
1659022225.00505,341581.7726869,63
1659022225.00505,341581.7726889,2
1659022225.00505,341581.7726907,2
1659022225.00505,341581.7726926,9
1659022225.00505,341581.7726947,-9
1659022225.00505,341581.7726967,-11
1659022225.00505,341581.7726985,-4
1659022225.00505,341581.7727004,-2
1659022225.00505,341581.7727023,-4
1659022225.00505,341581.7727042,-2
1659022225.00505,341581.7727061,2
1659022225.00505,341581.772708,11
1659022225.00505,341581.7727104,21
1659022225.00505,341581.772717,28
1659022225.00505,341581.7727256,30
1659022225.00505,341581.7727327,32
1659022225.00505,341581.7727415,35
1659022225.00505,341581.7727473,42
1659022225.00505,341581.7727495,51
1659022225.00505,341581.7727523,58
1659022225.00505,341581.7727544,56
1659022225.00505,341581.7727564,54
1659022225.00505,341581.7727584,65
1659022225.00505,341581.7727604,82
1659022225.00505,341581.7727624,87
1659022225.00505,341581.7727644,96
1659022225.00505,341581.7727664,108
1659022225.00505,341581.7727683,98
1659022225.00505,341581.7727703,80
1659022225.00505,341581.7727723,68
1659022225.00505,341581.7727744,68
1659022225.00505,341581.7727763,68
1659022225.00505,341581.7727783,61
1659022225.00505,341581.7727803,51
1659022225.00505,341581.7727823,42
1659022225.00505,341581.7727844,47
1659022225.00505,341581.7727864,65
1659022225.00505,341581.7727883,70
1659022225.00505,341581.7728325,61
1659022225.00505,341581.7728382,61
1659022225.00505,341581.7728403,65
1659022225.00505,341581.7728443,65
1659022225.00505,341581.7728526,70
1659022225.00505,341582.404423,77
1659022225.00505,341582.4044453,82
1659022225.00505,341582.4044552,82
1659022225.00505,341582.4044615,77
1659022225.00505,341582.404468,77
1659022225.02599,341582.4044745,80
1659022225.02599,341582.4044808,77
1659022225.02599,341582.4044858,77
1659022225.02599,341582.4044921,80
1659022225.02599,341582.4044962,73
1659022225.02599,341582.4045001,63
1659022225.02599,341582.4045037,61
1659022225.02599,341582.4045072,63
1659022225.02599,341582.4045131,65
1659022225.02599,341582.4045209,65
1659022225.02599,341582.4045253,65
1659022225.02599,341582.4045342,61
1659022225.02599,341582.4045405,70
1659022225.02599,341582.4045477,91
1659022225.02599,341582.4045514,89
1659022225.02599,341582.4045575,68
1659022225.02599,341582.4045659,58
1659022225.02599,341582.4045758,63
1659022225.02599,341582.404589,58
1659022225.02599,341582.4046004,56
1659022225.02599,341582.4046121,65
1659022225.02599,341582.404628,58
1659022225.02599,341582.4046395,35
1659022225.02599,341582.4046522,110
1659022225.53801,341582.404665,376
1659022225.53801,341582.4046769,605
1659022225.53801,341582.4046876,499
1659022225.53801,341582.4046945,247
1659022225.53801,341582.4047015,129
1659022225.53801,341582.4047048,63
1659022225.53801,341582.4047077,14
1659022225.53801,341582.404711,21
1659022225.53801,341582.4047194,30
1659022225.53801,341582.4047315,21
1659022225.53801,341582.4047436,14
1659022225.53801,341582.4047556,25
1659022225.53801,341582.4047605,30
1659022225.53801,341582.4047629,14
1659022225.53801,341582.404765,7
1659022225.53801,341582.4047681,16
1659022225.53801,341582.4047797,18
1659022225.53801,341582.4047936,21
1659022225.53801,341582.4048068,30
1659022225.53801,341582.4048136,32
1659022225.53801,341582.404816,30
1659022225.53801,341582.4048186,40
1659022225.53801,341582.4048266,51
1659022225.53801,341582.4048389,51
1659022225.53801,341582.4048506,61
1659022225.53801,341582.4048644,75
1659022225.53801,341582.4048782,84
1659022225.53801,341582.4048913,87
1659022225.53801,341582.4049048,91
1659022225.53801,341582.4049178,103
1659022225.53801,341582.4049294,110
1659022225.53801,341582.4049427,108
1659022225.53801,341582.404951,103
1659022225.53801,341582.4049639,94
1659022225.53801,341582.4049733,80
1659022225.53801,341582.404976,68
1659022225.53801,341582.4049834,58
1659022225.53801,341582.4049941,49
1659022225.53801,341582.4049986,51
1659022225.53801,341582.4050028,63
1659022225.53801,341582.4050049,63
1659022225.53801,341582.405007,63
1659022225.53801,341582.4050099,70
1659022225.53801,341582.4050199,65
1659022225.53801,341582.9408677,63
1659022225.53801,341582.9408803,77
1659022225.53801,341582.940884,84
1659022225.53801,341582.9408862,84
1659022225.53801,341582.9408881,94
1659022225.53801,341582.94089,94
1659022225.55297,341582.940892,84
1659022225.55297,341582.9408939,84
1659022225.55297,341582.9408958,87
1659022225.55297,341582.9408978,89
1659022225.55297,341582.9408997,91
1659022225.55297,341582.9409016,89
1659022225.55297,341582.9409043,84
1659022225.55297,341582.9409103,75
1659022225.55297,341582.940917,63
1659022225.55297,341582.9409222,61
1659022225.55297,341582.9409299,63
1659022225.55297,341582.9409353,61
1659022225.55297,341582.9409454,56
1659022225.55297,341582.9409512,56
1659022225.55297,341582.9409546,63
1659022225.55297,341582.9409626,80
1659022225.55297,341582.9409752,82
1659022225.55297,341582.9409867,61
1659022225.55297,341582.9409997,49
1659022225.55297,341582.9410101,58
1659022225.55297,341582.9410145,68
1659022225.55297,341582.9410167,63
1659022225.55297,341582.9410188,58
1659022225.55297,341582.9410209,51
1659022226.07272,341582.9410229,44
1659022226.07272,341582.9410249,136
1659022226.07272,341582.9410269,405
1659022226.07272,341582.9410288,598
1659022226.07272,341582.9410308,454
1659022226.07272,341582.9410327,219
1659022226.07272,341582.9410348,122
1659022226.07272,341582.9410374,40
1659022226.07272,341582.9410454,-2
1659022226.07272,341582.9410515,23
1659022226.07272,341582.9410559,14
1659022226.07272,341582.9410608,0
1659022226.07272,341582.9410648,25
1659022226.07272,341582.941071,35
1659022226.07272,341582.9410748,25
1659022226.07272,341582.9410805,28
1659022226.07272,341582.9410846,40
1659022226.07272,341582.9410887,37
1659022226.07272,341582.941093,35
1659022226.07272,341582.9410984,37
1659022226.07272,341582.9411027,30
1659022226.07272,341582.9411084,25
1659022226.07272,341582.9411123,42
1659022226.07272,341582.9411164,61
1659022226.07272,341582.9411205,65
1659022226.07272,341582.941126,65
1659022226.07272,341582.9411321,75
1659022226.07272,341582.9411372,84
1659022226.07272,341582.9411412,87
1659022226.07272,341582.9411448,101
1659022226.07272,341582.941148,120
1659022226.07272,341582.9411507,122
1659022226.07272,341582.9411533,124
1659022226.07272,341582.941156,127
1659022226.07272,341582.9411587,115
1659022226.07272,341582.9411614,98
1659022226.07272,341582.9411641,89
1659022226.07272,341582.9411668,75
1659022226.07272,341582.9411697,63
1659022226.07272,341582.9411723,63
1659022226.07272,341582.941175,63
1659022226.07272,341582.9411777,61
1659022226.07272,341582.9412005,65
1659022226.07272,341583.4766832,65
1659022226.07272,341583.4766971,73
1659022226.07272,341583.4767003,82
1659022226.07272,341583.4767028,80
1659022226.07272,341583.4767052,82
1659022226.07272,341583.4767074,89
1659022226.07272,341583.4767097,89
1659022226.09068,341583.476712,84
1659022226.09068,341583.4767142,80
1659022226.09068,341583.4767165,70
1659022226.09068,341583.4767189,61
1659022226.09068,341583.4767213,68
1659022226.09068,341583.4767276,75
1659022226.09068,341583.4767391,70
1659022226.09068,341583.4767429,73
1659022226.09068,341583.4767451,75
1659022226.09068,341583.4767471,61
1659022226.09068,341583.476749,44
1659022226.09068,341583.4767511,44
1659022226.09068,341583.4767531,56
1659022226.09068,341583.4767551,73
1659022226.09068,341583.4767572,96
1659022226.09068,341583.4767592,110
1659022226.09068,341583.4767612,117
1659022226.09068,341583.4767631,117
1659022226.09068,341583.4767652,96
1659022226.09068,341583.4767673,82
1659022226.09068,341583.4767694,87
1659022226.09068,341583.4767713,89
1659022226.09068,341583.4767734,84
1659022226.09068,341583.4767754,89
1659022226.70931,341583.4767774,75
1659022226.70931,341583.4767793,56
1659022226.70931,341583.4767812,160
1659022226.70931,341583.4767831,438
1659022226.70931,341583.4767849,629
1659022226.70931,341583.4767869,487
1659022226.70931,341583.4767887,254
1659022226.70931,341583.4767906,148
1659022226.70931,341583.4767925,73
1659022226.70931,341583.4767945,28
1659022226.70931,341583.4767965,51
1659022226.70931,341583.4767984,61
1659022226.70931,341583.4768003,49
1659022226.70931,341583.4768031,54
1659022226.70931,341583.4768073,65
1659022226.70931,341583.4768121,73
1659022226.70931,341583.4768167,80
1659022226.70931,341583.4768214,84
1659022226.70931,341583.4768275,82
1659022226.70931,341583.476847,89
1659022226.70931,341583.4768598,98
1659022226.70931,341583.4768777,103
1659022226.70931,341583.4768824,113
1659022226.70931,341583.4768858,113
1659022226.70931,341583.476889,113
1659022226.70931,341583.4768925,127
1659022226.70931,341583.4768958,136
1659022226.70931,341583.4769008,136
1659022226.70931,341583.4769087,148
1659022226.70931,341583.4769186,162
1659022226.70931,341583.4769244,167
1659022226.70931,341583.4769288,174
1659022226.70931,341583.4769341,186
1659022226.70931,341583.4769379,197
1659022226.70931,341583.4769432,195
1659022226.70931,341583.4769471,181
1659022226.70931,341583.476951,167
1659022226.70931,341583.4769546,150
1659022226.70931,341583.4769578,134
1659022226.70931,341583.4769615,134
1659022226.70931,341583.4769805,131
1659022226.70931,341583.4769925,117
1659022226.70931,341584.1106248,113
1659022226.70931,341584.1106447,124
1659022226.70931,341584.1106548,131
1659022226.70931,341584.1106602,141
1659022226.70931,341584.1106667,148
1659022226.70931,341584.1106708,146
1659022226.70931,341584.1106758,129
1659022226.70931,341584.1106797,117
1659022226.72643,341584.1106865,124
1659022226.72643,341584.1106924,139
1659022226.72643,341584.1106962,143
1659022226.72643,341584.1107,146
1659022226.72643,341584.1107053,136
1659022226.72643,341584.1107099,124
1659022226.72643,341584.1107153,127
1659022226.72643,341584.1107191,136
1659022226.72643,341584.1107252,139
1659022226.72643,341584.1107306,141
1659022226.72643,341584.1107344,141
1659022226.72643,341584.1107397,134
1659022226.72643,341584.1107432,131
1659022226.72643,341584.1107471,127
1659022226.72643,341584.1107523,131
1659022226.72643,341584.1107571,155
1659022226.72643,341584.1107625,169
1659022226.72643,341584.110767,169
1659022226.72643,341584.1107724,167
1659022226.72643,341584.1107763,148
1659022226.72643,341584.1107813,139
1659022226.72643,341584.110785,155
1659022226.72643,341584.1107904,164
1659022226.72643,341584.110794,150
1659022227.2972,341584.1107993,139
1659022227.2972,341584.110803,120
1659022227.2972,341584.1108066,153
1659022227.2972,341584.1108102,365
1659022227.2972,341584.1108138,631
1659022227.2972,341584.1108174,598
1659022227.2972,341584.110821,322
1659022227.2972,341584.1108246,193
1659022227.2972,341584.1108282,181
1659022227.2972,341584.1108321,115
1659022227.2972,341584.1108357,87
1659022227.2972,341584.1108392,110
1659022227.2972,341584.1108427,103
1659022227.2972,341584.1108463,98
1659022227.2972,341584.1108531,113
1659022227.2972,341584.1108587,117
1659022227.2972,341584.1108624,115
1659022227.2972,341584.1108667,120
1659022227.2972,341584.1108704,129
1659022227.2972,341584.110874,129
1659022227.2972,341584.1108775,129
1659022227.2972,341584.1108813,141
1659022227.2972,341584.1108853,146
1659022227.2972,341584.1108911,143
1659022227.2972,341584.1108951,148
1659022227.2972,341584.1109004,150
1659022227.2972,341584.1109049,150
1659022227.2972,341584.1109086,150
1659022227.2972,341584.1109124,157
1659022227.2972,341584.1109162,167
1659022227.2972,341584.1109218,176
1659022227.2972,341584.1109256,181
1659022227.2972,341584.1109309,186
1659022227.2972,341584.1109353,188
1659022227.2972,341584.110941,183
1659022227.2972,341584.1109448,176
1659022227.2972,341584.1109502,157
1659022227.2972,341584.1109541,129
1659022227.2972,341584.1109594,115
1659022227.2972,341584.1109649,108
1659022227.2972,341584.1109687,96
1659022227.2972,341584.6959476,87
1659022227.2972,341584.6959732,87
1659022227.2972,341584.6959833,89
1659022227.2972,341584.6959906,94
1659022227.2972,341584.6959988,91
1659022227.2972,341584.6960105,91
1659022227.2972,341584.6960224,94
1659022227.2972,341584.6960469,98
1659022227.2972,341584.6960941,98
1659022227.30878,341584.6961097,89
1659022227.30878,341584.6961215,73
1659022227.30878,341584.6961266,77
1659022227.30878,341584.6961302,87
1659022227.30878,341584.6961323,75
1659022227.30878,341584.6961351,63
1659022227.30878,341584.6961373,63
1659022227.30878,341584.6961394,54
1659022227.30878,341584.6961414,42
1659022227.30878,341584.6961465,49
1659022227.30878,341584.696158,61
1659022227.30878,341584.6961636,56
1659022227.30878,341584.6961658,54
1659022227.30878,341584.6961679,58
1659022227.30878,341584.69617,56
1659022227.30878,341584.696172,68
1659022227.30878,341584.6961747,103
1659022227.30878,341584.6961852,117
1659022227.30878,341584.6961927,94
1659022227.30878,341584.6961952,70
1659022227.30878,341584.6961973,73
1659022227.30878,341584.6961993,82
1659022227.30878,341584.6962016,87
1659022227.30878,341584.6962114,91
1659022227.73749,341584.6962199,91
1659022227.73749,341584.6962224,63
1659022227.73749,341584.6962244,75
1659022227.73749,341584.6962265,285
1659022227.73749,341584.6962332,598
1659022227.73749,341584.6962427,621
1659022227.73749,341584.6962553,355
1659022227.73749,341584.6962628,188
1659022227.73749,341584.6962809,127
1659022227.73749,341584.6962985,44
1659022227.73749,341584.6963121,32
1659022227.73749,341584.6963256,68
1659022227.73749,341584.6963415,56
1659022227.73749,341584.6963543,44
1659022227.73749,341584.6963631,58
1659022227.73749,341584.6963702,61
1659022227.73749,341584.6963794,61
1659022227.73749,341584.696389,73
1659022227.73749,341584.6964004,77
1659022227.73749,341584.6964091,77
1659022227.73749,341584.6964168,77
1659022227.73749,341584.6964256,75
1659022227.73749,341584.6964333,75
1659022227.73749,341584.696446,84
1659022227.73749,341584.6964549,91
1659022227.73749,341584.6964624,87
1659022227.73749,341584.6964678,84
1659022227.73749,341584.6964722,89
1659022227.73749,341584.6964823,89
1659022227.73749,341584.696497,89
1659022227.73749,341584.6965105,98
1659022227.73749,341584.6965243,106
1659022227.73749,341584.6965363,110
1659022227.73749,341584.6965466,117
1659022227.73749,341584.6965523,122
1659022227.73749,341584.6965568,115
1659022227.73749,341584.6965602,96
1659022227.73749,341584.6965733,82
1659022227.73749,341584.6965855,68
1659022227.73749,341584.6965911,56
1659022227.73749,341585.1342939,49
1659022227.73749,341585.1343119,47
1659022227.73749,341585.1343169,44
1659022227.73749,341585.1343211,49
1659022227.73749,341585.134325,51
1659022227.73749,341585.1343289,49
1659022227.73749,341585.1343327,42
1659022227.73749,341585.1343367,32
1659022227.73749,341585.1343406,30
1659022227.73749,341585.134379,40
1659022227.74946,341585.1343854,49
1659022227.74946,341585.1343893,58
1659022227.74946,341585.1344515,68
1659022227.74946,341585.1344674,73
1659022227.74946,341585.1344772,65
1659022227.74946,341585.1344831,61
1659022227.74946,341585.134496,61
1659022227.74946,341585.1345061,65
1659022227.74946,341585.1345147,65
1659022227.74946,341585.1345223,47
1659022227.74946,341585.1345282,35
1659022227.74946,341585.1345326,35
1659022227.74946,341585.1345453,40
1659022227.74946,341585.1345555,49
1659022227.74946,341585.1345685,58
1659022227.74946,341585.1345813,56
1659022227.74946,341585.1345953,56
1659022227.74946,341585.1346065,68
1659022227.74946,341585.1346143,68
1659022227.74946,341585.134626,44
1659022227.74946,341585.1346527,40
1659022227.74946,341585.1346728,49
1659022227.74946,341585.1346798,47
1659022227.74946,341585.1346835,47
1659022228.37098,341585.1346869,44
1659022228.37098,341585.1346899,18
1659022228.37098,341585.134693,28
1659022228.37098,341585.1346964,252
1659022228.37098,341585.1346997,603
1659022228.37098,341585.1347031,650
1659022228.37098,341585.1347063,376
1659022228.37098,341585.1347098,179
1659022228.37098,341585.1347161,98
1659022228.37098,341585.1347219,21
1659022228.37098,341585.1347282,7
1659022228.37098,341585.1347356,11
1659022228.37098,341585.1347427,-18
1659022228.37098,341585.1347497,-18
1659022228.37098,341585.1347545,21
1659022228.37098,341585.1347582,54
1659022228.37098,341585.1347618,58
1659022228.37098,341585.1347653,47
1659022228.37098,341585.1347686,35
1659022228.37098,341585.1347721,35
1659022228.37098,341585.1347758,63
1659022228.37098,341585.1347793,82
1659022228.37098,341585.1347832,65
1659022228.37098,341585.1347902,58
1659022228.37098,341585.1347941,68
1659022228.37098,341585.1347976,80
1659022228.37098,341585.1348009,84
1659022228.37098,341585.1348041,80
1659022228.37098,341585.1348074,77
1659022228.37098,341585.1348106,82
1659022228.37098,341585.1348139,80
1659022228.37098,341585.1348212,87
1659022228.37098,341585.1348253,98
1659022228.37098,341585.1348307,103
1659022228.37098,341585.1348342,108
1659022228.37098,341585.1348396,98
1659022228.37098,341585.1348434,70
1659022228.37098,341585.134849,54
1659022228.37098,341585.1348544,49
1659022228.37098,341585.7685681,40
1659022228.37098,341585.768581,28
1659022228.37098,341585.7685853,16
1659022228.37098,341585.7685877,-7
1659022228.37098,341585.7685899,-21
1659022228.37098,341585.768592,-7
1659022228.37098,341585.7685941,2
1659022228.37098,341585.7685962,-14
1659022228.37098,341585.7685982,-21
1659022228.37098,341585.7686002,7
1659022228.37098,341585.7686022,37
1659022228.38157,341585.7686042,25
1659022228.38157,341585.7686063,-2
1659022228.38157,341585.7686084,-7
1659022228.38157,341585.7686106,4
1659022228.38157,341585.7686139,-4
1659022228.38157,341585.7686411,-30
1659022228.38157,341585.7686525,-16
1659022228.38157,341585.7686611,-7
1659022228.38157,341585.7686673,-63
1659022228.38157,341585.7686694,2
1659022228.38157,341585.7686715,160
1659022228.38157,341585.7686736,127
1659022228.38157,341585.7686756,18
1659022228.38157,341585.7686777,11
1659022228.38157,341585.7686798,7
1659022228.38157,341585.7686819,9
1659022228.38157,341585.7686839,49
1659022228.38157,341585.7686859,63
1659022228.38157,341585.7686881,77
1659022228.38157,341585.7686901,98
1659022228.38157,341585.7686956,61
1659022228.38157,341585.7687068,23
1659022228.38157,341585.7687104,32
1659022228.38157,341585.7687142,49
1659022228.90643,341585.7687162,84
1659022228.90643,341585.7687187,96
1659022228.90643,341585.7687229,44
1659022228.90643,341585.7687271,30
1659022228.90643,341585.7687329,70
1659022228.90643,341585.7687376,214
1659022228.90643,341585.76874,530
1659022228.90643,341585.7687419,657
1659022228.90643,341585.7687438,393
1659022228.90643,341585.7687456,171
1659022228.90643,341585.7687476,122
1659022228.90643,341585.7687495,37
1659022228.90643,341585.7687519,-21
1659022228.90643,341585.7687786,-7
1659022228.90643,341585.7687874,23
1659022228.90643,341585.7688093,54
1659022228.90643,341585.7688167,44
1659022228.90643,341585.7688323,14
1659022228.90643,341585.7688556,16
1659022228.90643,341585.7688773,35
1659022228.90643,341585.768898,44
1659022228.90643,341585.7689105,47
1659022228.90643,341585.7689202,47
1659022228.90643,341585.7689324,30
1659022228.90643,341585.7689393,37
1659022228.90643,341585.7689437,89
1659022228.90643,341585.7689569,84
1659022228.90643,341585.7689715,40
1659022228.90643,341585.7689848,65
1659022228.90643,341585.7689987,98
1659022228.90643,341585.7690119,80
1659022228.90643,341585.7690253,61
1659022228.90643,341585.7690387,61
1659022228.90643,341585.769052,80
1659022228.90643,341585.7690652,98
1659022228.90643,341585.7690783,91
1659022228.90643,341585.7690913,82
1659022228.90643,341585.7691046,70
1659022228.90643,341586.3064124,35
1659022228.90643,341586.3064281,25
1659022228.90643,341586.3064336,49
1659022228.90643,341586.3064377,30
1659022228.90643,341586.3064417,-14
1659022228.90643,341586.3064466,-14
1659022228.90643,341586.3064508,14
1659022228.90643,341586.3064567,28
1659022228.90643,341586.3064608,14
1659022228.90643,341586.3064643,0
1659022228.90643,341586.3064678,9
1659022228.90643,341586.3064711,28
1659022228.92338,341586.3064746,25
1659022228.92338,341586.3064799,11
1659022228.92338,341586.3064836,16
1659022228.92338,341586.3064872,25
1659022228.92338,341586.3064923,21
1659022228.92338,341586.3064963,23
1659022228.92338,341586.3064998,35
1659022228.92338,341586.3065031,25
1659022228.92338,341586.3065065,2
1659022228.92338,341586.3065098,9
1659022228.92338,341586.3065132,28
1659022228.92338,341586.30652,25
1659022228.92338,341586.3065319,25
1659022228.92338,341586.3065398,28
1659022228.92338,341586.3065438,21
1659022228.92338,341586.3065489,18
1659022228.92338,341586.3065525,9
1659022228.92338,341586.3065583,9
1659022228.92338,341586.3065705,28
1659022228.92338,341586.3065774,35
1659022228.92338,341586.3065841,44
1659022228.92338,341586.3065902,65
1659022228.92338,341586.3065937,63
1659022228.92338,341586.3065971,56
1659022229.49261,341586.3066005,56
1659022229.49261,341586.306604,35
1659022229.49261,341586.3066078,16
1659022229.49261,341586.3066114,40
1659022229.49261,341586.3066152,63
1659022229.49261,341586.3066188,54
1659022229.49261,341586.3066222,30
1659022229.49261,341586.3066257,42
1659022229.49261,341586.3066293,186
1659022229.49261,341586.3066329,471
1659022229.49261,341586.3066364,577
1659022229.49261,341586.30664,351
1659022229.49261,341586.3066436,188
1659022229.49261,341586.306647,176
1659022229.49261,341586.3066519,77
1659022229.49261,341586.3066561,21
1659022229.49261,341586.3066598,68
1659022229.49261,341586.3066635,80
1659022229.49261,341586.3066682,54
1659022229.49261,341586.3066721,63
1659022229.49261,341586.3066754,70
1659022229.49261,341586.306679,68
1659022229.49261,341586.3066824,84
1659022229.49261,341586.3066876,103
1659022229.49261,341586.3066925,101
1659022229.49261,341586.3066977,98
1659022229.49261,341586.3067127,96
1659022229.49261,341586.3067245,96
1659022229.49261,341586.3067324,101
1659022229.49261,341586.3067362,120
1659022229.49261,341586.3067422,124
1659022229.49261,341586.3067462,129
1659022229.49261,341586.306752,171
1659022229.49261,341586.3067583,188
1659022229.49261,341586.3067652,146
1659022229.49261,341586.3067712,127
1659022229.49261,341586.3067783,157
1659022229.49261,341586.8900484,179
1659022229.49261,341586.890071,181
1659022229.49261,341586.8900769,190
1659022229.49261,341586.8900838,183
1659022229.49261,341586.8900897,162
1659022229.49261,341586.8900966,131
1659022229.49261,341586.8901042,122
1659022229.49261,341586.8901114,134
1659022229.49261,341586.890115,91
1659022229.49261,341586.8901218,37
1659022229.49261,341586.8901258,37
1659022229.49261,341586.8901323,37
1659022229.49261,341586.8901357,47
1659022229.50457,341586.8901483,84
1659022229.50457,341586.8901588,84
1659022229.50457,341586.8901729,40
1659022229.50457,341586.8901851,51
1659022229.50457,341586.8901968,115
1659022229.50457,341586.8902007,89
1659022229.50457,341586.890203,18
1659022229.50457,341586.8902051,28
1659022229.50457,341586.8902071,47
1659022229.50457,341586.8902093,28
1659022229.50457,341586.8902113,28
1659022229.50457,341586.8902144,40
1659022229.50457,341586.8902253,47
1659022229.50457,341586.8902325,61
1659022229.50457,341586.8902357,65
1659022229.50457,341586.8902378,40
1659022229.50457,341586.8902404,30
1659022229.50457,341586.8902506,56
1659022229.50457,341586.8902588,75
1659022229.50457,341586.8902612,91
1659022229.50457,341586.8902633,61
1659022229.50457,341586.8902659,18
1659022229.50457,341586.8902747,63
1659022229.50457,341586.8902887,96
1659022230.07372,341586.8902992,58
1659022230.07372,341586.8903068,68
1659022230.07372,341586.8903142,110
1659022230.07372,341586.8903215,87
1659022230.07372,341586.8903278,75
1659022230.07372,341586.8903359,96
1659022230.07372,341586.8903435,91
1659022230.07372,341586.8903509,63
1659022230.07372,341586.890364,32
1659022230.07372,341586.8903749,61
1659022230.07372,341586.8903814,134
1659022230.07372,341586.8903941,266
1659022230.07372,341586.8904045,504
1659022230.07372,341586.8904121,513
1659022230.07372,341586.8904242,216
1659022230.07372,341586.8904343,82
1659022230.07372,341586.8904402,77
1659022230.07372,341586.8904535,11
1659022230.07372,341586.890463,21
1659022230.07372,341586.8904733,49
1659022230.07372,341586.8904838,-4
1659022230.07372,341586.890497,-14
1659022230.07372,341586.8905113,25
1659022230.07372,341586.8905216,7
1659022230.07372,341586.8905309,-18
1659022230.07372,341586.8905412,4
1659022230.07372,341586.8905516,-2
1659022230.07372,341586.8905574,7
1659022230.07372,341586.8905644,63
1659022230.07372,341586.8905689,44
1659022230.07372,341586.8905766,-2
1659022230.07372,341586.8905844,35
1659022230.07372,341586.8905912,47
1659022230.07372,341586.8905949,44
1659022230.07372,341586.8905994,115
1659022230.07372,341586.8906027,87
1659022230.07372,341587.4744948,-28
1659022230.07372,341587.4745123,-4
1659022230.07372,341587.4745233,84
1659022230.07372,341587.4745361,110
1659022230.07372,341587.4745416,122
1659022230.07372,341587.4745437,84
1659022230.07372,341587.4745468,18
1659022230.07372,341587.4745488,84
1659022230.07372,341587.4745509,127
1659022230.07372,341587.4745529,16
1659022230.07372,341587.4745549,-49
1659022230.07372,341587.4745569,-58
1659022230.07372,341587.4745591,-101
1659022230.07372,341587.4745649,-84
1659022230.08269,341587.4745765,-16
1659022230.08269,341587.4745822,-14
1659022230.08269,341587.4745845,-37
1659022230.08269,341587.4745865,-37
1659022230.08269,341587.4745886,-70
1659022230.08269,341587.4745906,-98
1659022230.08269,341587.4745926,-61
1659022230.08269,341587.4745994,-49
1659022230.08269,341587.4746105,-47
1659022230.08269,341587.4746135,14
1659022230.08269,341587.4746159,23
1659022230.08269,341587.4746179,-37
1659022230.08269,341587.4746199,-30
1659022230.08269,341587.4746219,2
1659022230.08269,341587.474624,-21
1659022230.08269,341587.4746311,7
1659022230.08269,341587.4746423,73
1659022230.08269,341587.4746459,49
1659022230.08269,341587.4746498,23
1659022230.08269,341587.4746532,61
1659022230.08269,341587.4746646,80
1659022230.08269,341587.4746711,84
1659022230.08269,341587.4746734,82
1659022230.08269,341587.4746755,58
1659022230.55883,341587.4746775,58
1659022230.55883,341587.474684,96
1659022230.55883,341587.474694,136
1659022230.55883,341587.4747032,124
1659022230.55883,341587.474708,63
1659022230.55883,341587.4747117,77
1659022230.55883,341587.4747166,146
1659022230.55883,341587.474722,94
1659022230.55883,341587.4747299,25
1659022230.55883,341587.4747393,96
1659022230.55883,341587.4747529,143
1659022230.55883,341587.4747594,101
1659022230.55883,341587.4747624,98
1659022230.55883,341587.4747712,122
1659022230.55883,341587.4747732,190
1659022230.55883,341587.4747753,445
1659022230.55883,341587.4747815,650
1659022230.55883,341587.4747927,457
1659022230.55883,341587.4747979,186
1659022230.55883,341587.4748,162
1659022230.55883,341587.4748022,150
1659022230.55883,341587.4748045,77
1659022230.55883,341587.4748122,82
1659022230.55883,341587.4748229,143
1659022230.55883,341587.4748264,150
1659022230.55883,341587.4748354,103
1659022230.55883,341587.4748726,96
1659022230.55883,341587.4748825,98
1659022230.55883,341587.4748877,82
1659022230.55883,341587.4748921,108
1659022230.55883,341587.4748967,150
1659022230.55883,341587.4749012,157
1659022230.55883,341587.4749045,136
1659022230.55883,341587.4749179,122
1659022230.55883,341587.4749294,115
1659022230.55883,341587.9620504,84
1659022230.55883,341587.9620708,96
1659022230.55883,341587.9620769,122
1659022230.55883,341587.9620861,91
1659022230.55883,341587.9620941,113
1659022230.55883,341587.9621005,174
1659022230.55883,341587.9621075,167
1659022230.55883,341587.9621137,141
1659022230.55883,341587.9621196,115
1659022230.55883,341587.9621232,108
1659022230.55883,341587.9621287,164
1659022230.55883,341587.9621327,169
1659022230.55883,341587.9621377,117
1659022230.55883,341587.9621415,98
1659022230.55883,341587.9621478,101
1659022230.57079,341587.9621562,61
1659022230.57079,341587.9621683,7
1659022230.57079,341587.9621799,-4
1659022230.57079,341587.9621892,-2
1659022230.57079,341587.9621956,2
1659022230.57079,341587.9622027,16
1659022230.57079,341587.9622093,4
1659022230.57079,341587.9622172,-28
1659022230.57079,341587.9622236,-30
1659022230.57079,341587.9622323,-23
1659022230.57079,341587.9622419,-40
1659022230.57079,341587.9622533,-23
1659022230.57079,341587.9622668,30
1659022230.57079,341587.9622797,37
1659022230.57079,341587.9622911,-9
1659022230.57079,341587.9622999,-18
1659022230.57079,341587.9623062,32
1659022230.57079,341587.9623144,49
1659022230.57079,341587.9623205,18
1659022230.57079,341587.9623284,30
1659022230.57079,341587.9623342,49
1659022230.57079,341587.9623423,11
1659022230.57079,341587.9623483,-14
1659022230.57079,341587.9623565,-21
1659022231.19166,341587.9623614,-9
1659022231.19166,341587.9623682,80
1659022231.19166,341587.9623735,113
1659022231.19166,341587.9623797,37
1659022231.19166,341587.9623853,54
1659022231.19166,341587.9623902,186
1659022231.19166,341587.9623949,190
1659022231.19166,341587.9623988,63
1659022231.19166,341587.9624032,40
1659022231.19166,341587.9624085,110
1659022231.19166,341587.9624147,143
1659022231.19166,341587.9624205,174
1659022231.19166,341587.9624262,179
1659022231.19166,341587.9624318,131
1659022231.19166,341587.9624369,115
1659022231.19166,341587.9624474,252
1659022231.19166,341587.9624584,556
1659022231.19166,341587.9624677,666
1659022231.19166,341587.9624735,355
1659022231.19166,341587.9624793,150
1659022231.19166,341587.9624824,228
1659022231.19166,341587.9624853,153
1659022231.19166,341587.9624882,58
1659022231.19166,341587.962491,113
1659022231.19166,341587.9624938,113
1659022231.19166,341587.9624968,98
1659022231.19166,341587.9624997,98
1659022231.19166,341587.9625025,58
1659022231.19166,341587.9625054,42
1659022231.19166,341587.9625083,68
1659022231.19166,341587.9625111,98
1659022231.19166,341587.962514,124
1659022231.19166,341587.9625169,110
1659022231.19166,341587.9625197,51
1659022231.19166,341588.5965303,9
1659022231.19166,341588.5965502,63
1659022231.19166,341588.5965602,148
1659022231.19166,341588.596569,96
1659022231.19166,341588.5965762,23
1659022231.19166,341588.5965832,84
1659022231.19166,341588.5965893,110
1659022231.19166,341588.5965995,51
1659022231.19166,341588.5966029,58
1659022231.19166,341588.5966051,136
1659022231.19166,341588.5966072,169
1659022231.19166,341588.5966092,136
1659022231.19166,341588.5966115,108
1659022231.19166,341588.5966189,98
1659022231.19166,341588.59663,58
1659022231.19166,341588.5966359,44
1659022231.20363,341588.5966452,75
1659022231.20363,341588.5966526,51
1659022231.20363,341588.5966586,9
1659022231.20363,341588.5966619,11
1659022231.20363,341588.5966678,-7
1659022231.20363,341588.5966744,-44
1659022231.20363,341588.5966824,-7
1659022231.20363,341588.5966869,65
1659022231.20363,341588.5966905,40
1659022231.20363,341588.5967,-2
1659022231.20363,341588.5967117,35
1659022231.20363,341588.5967168,32
1659022231.20363,341588.5967201,-11
1659022231.20363,341588.5967223,4
1659022231.20363,341588.5967295,35
1659022231.20363,341588.5967405,30
1659022231.20363,341588.5967452,21
1659022231.20363,341588.5967483,4
1659022231.20363,341588.5967504,35
1659022231.20363,341588.596758,106
1659022231.20363,341588.5967686,89
1659022231.20363,341588.5967744,28
1659022231.20363,341588.5967781,30
1659022231.20363,341588.5967807,68
1659022231.88669,341588.5967924,51
1659022231.88669,341588.5967987,54
1659022231.88669,341588.5968025,129
1659022231.88669,341588.5968062,127
1659022231.88669,341588.5968103,63
1659022231.88669,341588.5968141,101
1659022231.88669,341588.5968176,141
1659022231.88669,341588.5968211,91
1659022231.88669,341588.5968248,63
1659022231.88669,341588.5968287,113
1659022231.88669,341588.5968324,110
1659022231.88669,341588.5968362,49
1659022231.88669,341588.5968419,56
1659022231.88669,341588.5968456,91
1659022231.88669,341588.5968493,87
1659022231.88669,341588.5968531,179
1659022231.88669,341588.596858,461
1659022231.88669,341588.5968642,636
1659022231.88669,341588.596868,428
1659022231.88669,341588.5968734,169
1659022231.88669,341588.5968772,127
1659022231.88669,341588.5968823,84
1659022231.88669,341588.5968871,21
1659022231.88669,341588.5968924,49
1659022231.88669,341588.5968972,70
1659022231.88669,341588.5969025,32
1659022231.88669,341588.5969071,14
1659022231.88669,341588.5969163,28
1659022231.88669,341588.597,56
1659022231.88669,341588.5970081,80
1659022231.88669,341588.5970114,87
1659022231.88669,341588.5970144,84
1659022231.88669,341588.5970173,77
1659022231.88669,341589.2801222,68
1659022231.88669,341589.2801434,70
1659022231.88669,341589.2801561,108
1659022231.88669,341589.2801629,136
1659022231.88669,341589.280169,110
1659022231.88669,341589.2801764,96
1659022231.88669,341589.2801821,131

1659022231.88669,341589.2801911,146
1659022231.88669,341589.2801985,136
1659022231.88669,341589.2802065,136
1659022231.88669,341589.2802114,153
1659022231.88669,341589.2802207,162
1659022231.88669,341589.2802259,174
1659022231.88669,341589.2802309,186
1659022231.88669,341589.2802394,157
1659022231.88669,341589.2802457,115
1659022231.88669,341589.2802508,94
1659022231.90365,341589.2802558,98
1659022231.90365,341589.2802613,96
1659022231.90365,341589.2802655,61
1659022231.90365,341589.2802758,47
1659022231.90365,341589.2802884,51
1659022231.90365,341589.2803009,28
1659022231.90365,341589.2803064,11
1659022231.90365,341589.2803095,18
1659022231.90365,341589.2803145,28
1659022231.90365,341589.2803261,32
1659022231.90365,341589.2803316,37
1659022231.90365,341589.2803339,30
1659022231.90365,341589.280336,35
1659022231.90365,341589.2803379,47
1659022231.90365,341589.2803399,40
1659022231.90365,341589.2803419,40
1659022231.90365,341589.2803444,51
1659022231.90365,341589.2803548,42
1659022231.90365,341589.2803631,40
1659022231.90365,341589.2803656,54
1659022231.90365,341589.2803678,44
1659022231.90365,341589.2803699,30
1659022231.90365,341589.2803727,54
1659022231.90365,341589.2803829,77
1659022232.26966,341589.2803908,61
1659022232.26966,341589.2803939,47
1659022232.26966,341589.2804723,58
1659022232.26966,341589.280478,65
1659022232.26966,341589.2804802,63
1659022232.26966,341589.2804823,68
1659022232.26966,341589.2804844,75
1659022232.26966,341589.2804864,68
1659022232.26966,341589.2804884,54
1659022232.26966,341589.2804904,56
1659022232.26966,341589.2804924,73
1659022232.26966,341589.2804943,103
1659022232.26966,341589.2804972,115
1659022232.26966,341589.2804994,70
1659022232.26966,341589.2805015,56
1659022232.26966,341589.2805035,82
1659022232.26966,341589.2805055,73
1659022232.26966,341589.2805076,63
1659022232.26966,341589.2805095,96
1659022232.26966,341589.2805116,77
1659022232.26966,341589.2805137,-9
1659022232.26966,341589.2805158,-21
1659022232.26966,341589.2805178,230
1659022232.26966,341589.2805198,645
1659022232.26966,341589.2805218,749
1659022232.26966,341589.2805245,428
1659022232.26966,341589.2805265,153
1659022232.26966,341589.2805286,73
1659022232.26966,341589.2805307,-2
1659022232.26966,341589.2805327,-30
1659022232.26966,341589.2805347,-9
1659022232.26966,341589.2805367,-9
1659022232.26966,341589.6693075,-21
1659022232.26966,341589.6693199,-32
1659022232.26966,341589.6693242,-18
1659022232.26966,341589.6693268,0
1659022232.26966,341589.6693292,-14
1659022232.26966,341589.6693315,-21
1659022232.26966,341589.6693338,-11
1659022232.26966,341589.6693359,-25
1659022232.26966,341589.6693382,-44
1659022232.26966,341589.6693404,-14
1659022232.26966,341589.6693426,14
1659022232.26966,341589.6693447,-14
1659022232.26966,341589.6693469,-32
1659022232.26966,341589.669349,-7
1659022232.26966,341589.6693513,9
1659022232.26966,341589.6693554,4
1659022232.26966,341589.6693692,18
1659022232.26966,341589.6693756,25
1659022232.28063,341589.669378,28
1659022232.28063,341589.66938,56
1659022232.28063,341589.6693821,49
1659022232.28063,341589.6693841,23
1659022232.28063,341589.6693861,37
1659022232.28063,341589.6693895,37
1659022232.28063,341589.6694026,-9
1659022232.28063,341589.6694086,-58
1659022232.28063,341589.6694109,-68
1659022232.28063,341589.669413,-65
1659022232.28063,341589.669415,-65
1659022232.28063,341589.669417,-58
1659022232.28063,341589.6694191,-70
1659022232.28063,341589.6694265,-80
1659022232.28063,341589.6694373,-63
1659022232.28063,341589.6694419,-63
1659022232.28063,341589.6694441,-70
1659022232.28063,341589.6694489,-65
1659022232.28063,341589.669462,-49
1659022232.28063,341589.6694683,-37
1659022232.28063,341589.6694713,-61
1659022232.28063,341589.6694733,-65
1659022232.28063,341589.6694767,-37
1659022232.28063,341589.6694894,-44
1659022232.85357,341589.6694951,-56
1659022232.85357,341589.6694973,-35
1659022232.85357,341589.6694993,-37
1659022232.85357,341589.6695012,-56
1659022232.85357,341589.6695031,-47
1659022232.85357,341589.6695052,-28
1659022232.85357,341589.6695091,-40
1659022232.85357,341589.6695202,-54
1659022232.85357,341589.6695253,-40
1659022232.85357,341589.6695276,-9
1659022232.85357,341589.6695295,4
1659022232.85357,341589.6695314,-4
1659022232.85357,341589.6695337,-18
1659022232.85357,341589.6695412,-11
1659022232.85357,341589.6695525,7
1659022232.85357,341589.6695569,11
1659022232.85357,341589.669559,23
1659022232.85357,341589.6695612,44
1659022232.85357,341589.6695633,58
1659022232.85357,341589.6695653,54
1659022232.85357,341589.6695673,42
1659022232.85357,341589.6695693,35
1659022232.85357,341589.6695713,28
1659022232.85357,341589.6695733,37
1659022232.85357,341589.6695752,56
1659022232.85357,341589.6695774,58
1659022232.85357,341589.6695794,40
1659022232.85357,341589.6695815,-4
1659022232.85357,341589.6695835,-28
1659022232.85357,341589.6695855,117
1659022232.85357,341589.6695876,497
1659022232.85357,341590.2534014,720
1659022232.85357,341590.2534217,468
1659022232.85357,341590.2534318,164
1659022232.85357,341590.2534409,96
1659022232.85357,341590.2534478,28
1659022232.85357,341590.2534591,-32
1659022232.85357,341590.25347,-11
1659022232.85357,341590.2534788,-16
1659022232.85357,341590.2534886,-37
1659022232.85357,341590.253501,-44
1659022232.85357,341590.2535099,-47
1659022232.85357,341590.2535295,-30
1659022232.85357,341590.253555,-28
1659022232.85357,341590.253565,-42
1659022232.85357,341590.253574,-30
1659022232.85357,341590.2535815,-2
1659022232.85357,341590.253584,-16
1659022232.85357,341590.2535861,-25
1659022232.85357,341590.2535882,4
1659022232.86454,341590.2535902,16
1659022232.86454,341590.2535921,7
1659022232.86454,341590.2535941,23
1659022232.86454,341590.253596,32
1659022232.86454,341590.253599,28
1659022232.86454,341590.2536009,51
1659022232.86454,341590.2536029,65
1659022232.86454,341590.2536049,68
1659022232.86454,341590.2536069,94
1659022232.86454,341590.2536139,106
1659022232.86454,341590.2536377,101
1659022232.86454,341590.2536444,108
1659022232.86454,341590.2536654,103
1659022232.86454,341590.2536759,73
1659022232.86454,341590.2536849,51
1659022232.86454,341590.2536931,28
1659022232.86454,341590.2537067,21
1659022232.86454,341590.2537139,35
1659022232.86454,341590.2537314,35
1659022232.86454,341590.2537459,35
1659022232.86454,341590.2537539,47
1659022232.86454,341590.2537588,37
1659022232.86454,341590.2537686,35
1659022232.86454,341590.2537745,58
1659022233.4371,341590.2537789,63
1659022233.4371,341590.2537827,61
1659022233.4371,341590.2537868,73
1659022233.4371,341590.2537907,77
1659022233.4371,341590.2537945,73
1659022233.4371,341590.2537982,77
1659022233.4371,341590.2538018,84
1659022233.4371,341590.2538077,80
1659022233.4371,341590.2538114,84
1659022233.4371,341590.2538169,87
1659022233.4371,341590.2538207,75
1659022233.4371,341590.2538244,91
1659022233.4371,341590.2538297,115
1659022233.4371,341590.2538337,98
1659022233.4371,341590.2538371,87
1659022233.4371,341590.2538409,91
1659022233.4371,341590.2538448,96
1659022233.4371,341590.2538502,108
1659022233.4371,341590.2538547,108
1659022233.4371,341590.2538584,89
1659022233.4371,341590.2538644,77
1659022233.4371,341590.253868,80
1659022233.4371,341590.2538731,101
1659022233.4371,341590.2538819,127
1659022233.4371,341590.2538873,124
1659022233.4371,341590.2538921,94
1659022233.4371,341590.2538972,87
1659022233.4371,341590.2539012,87
1659022233.4371,341590.2539065,58
1659022233.4371,341590.2539109,51
1659022233.4371,341590.8396382,80
1659022233.4371,341590.8396504,84
1659022233.4371,341590.839653,51
1659022233.4371,341590.8396568,11
1659022233.4371,341590.839659,61
1659022233.4371,341590.8396611,379
1659022233.4371,341590.8396633,732
1659022233.4371,341590.8396654,614
1659022233.4371,341590.8396675,242
1659022233.4371,341590.8396695,120
1659022233.4371,341590.8396716,103
1659022233.4371,341590.8396735,21
1659022233.4371,341590.8396755,-7
1659022233.4371,341590.8396775,0
1659022233.4371,341590.8396793,-16
1659022233.4371,341590.8396813,-16
1659022233.4371,341590.8396836,-4
1659022233.4371,341590.8396855,-7
1659022233.4371,341590.8396875,-9
1659022233.4371,341590.8396893,-4
1659022233.45904,341590.8396952,-4
1659022233.45904,341590.8397039,-9
1659022233.45904,341590.8397097,-11
1659022233.45904,341590.8397134,-2
1659022233.45904,341590.8397169,7
1659022233.45904,341590.8397206,2
1659022233.45904,341590.839727,7
1659022233.45904,341590.8397322,25
1659022233.45904,341590.8397414,40
1659022233.45904,341590.8397518,51
1659022233.45904,341590.8397644,51
1659022233.45904,341590.839775,54
1659022233.45904,341590.8397853,73
1659022233.45904,341590.8397895,80
1659022233.45904,341590.8397917,84
1659022233.45904,341590.8397945,98
1659022233.45904,341590.8398034,106
1659022233.45904,341590.8398156,89
1659022233.45904,341590.8398271,56
1659022233.45904,341590.8398384,40
1659022233.45904,341590.8398475,54
1659022233.45904,341590.8398542,56
1659022233.45904,341590.8398574,32
1659022233.45904,341590.8398637,25
1659022233.92683,341590.8398689,35
1659022233.92683,341590.8398798,44
1659022233.92683,341590.8398881,47
1659022233.92683,341590.8398958,49
1659022233.92683,341590.8399015,63
1659022233.92683,341590.8399079,70
1659022233.92683,341590.8399167,68
1659022233.92683,341590.8399244,80
1659022233.92683,341590.8399368,82
1659022233.92683,341590.839946,68
1659022233.92683,341590.8399534,77
1659022233.92683,341590.8399659,108
1659022233.92683,341590.8399753,117
1659022233.92683,341590.8399825,115
1659022233.92683,341590.839995,120
1659022233.92683,341590.8400048,110
1659022233.92683,341590.8400157,103
1659022233.92683,341590.8400269,115
1659022233.92683,341590.8400355,115
1659022233.92683,341590.8400447,106
1659022233.92683,341590.8400559,103
1659022233.92683,341590.8400648,108
1659022233.92683,341590.8400719,103
1659022233.92683,341590.8400843,98
1659022233.92683,341590.8400935,110
1659022233.92683,341590.8401002,117
1659022233.92683,341590.8401124,108
1659022233.92683,341590.8401225,96
1659022233.92683,341590.8401314,91
1659022233.92683,341591.3276687,89
1659022233.92683,341591.3276868,94
1659022233.92683,341591.3276962,103
1659022233.92683,341591.327703,103
1659022233.92683,341591.3277096,101
1659022233.92683,341591.3277141,127
1659022233.92683,341591.3277219,155
1659022233.92683,341591.3277286,139
1659022233.92683,341591.3277362,91
1659022233.92683,341591.3277419,84
1659022233.92683,341591.3277506,106
1659022233.92683,341591.3277578,87
1659022233.92683,341591.3277645,75
1659022233.92683,341591.3277707,106
1659022233.92683,341591.327781,87
1659022233.92683,341591.3277853,23
1659022233.92683,341591.3277883,113
1659022233.92683,341591.3277912,466
1659022233.92683,341591.3277941,737
1659022233.92683,341591.3277998,548
1659022233.92683,341591.3278099,223
1659022233.94278,341591.3278142,110
1659022233.94278,341591.3278195,49
1659022233.94278,341591.3278239,-21
1659022233.94278,341591.3278289,-18
1659022233.94278,341591.3278322,-2
1659022233.94278,341591.3278372,-16
1659022233.94278,341591.3278404,4
1659022233.94278,341591.3278475,21
1659022233.94278,341591.3278613,-16
1659022233.94278,341591.3278745,-25
1659022233.94278,341591.3278876,0
1659022233.94278,341591.3278992,14
1659022233.94278,341591.3279066,25
1659022233.94278,341591.327914,37
1659022233.94278,341591.3279178,32
1659022233.94278,341591.3279228,23
1659022233.94278,341591.3279263,30
1659022233.94278,341591.3279332,61
1659022233.94278,341591.3279386,77
1659022233.94278,341591.3279435,61
1659022233.94278,341591.3279471,65
1659022233.94278,341591.3279527,91
1659022233.94278,341591.3279566,106
1659022233.94278,341591.327962,103
1659022234.56076,341591.327965,103
1659022234.56076,341591.3279681,131
1659022234.56076,341591.3279713,153
1659022234.56076,341591.3279754,129
1659022234.56076,341591.3279801,115
1659022234.56076,341591.3279839,127
1659022234.56076,341591.3279873,117
1659022234.56076,341591.3279944,91
1659022234.56076,341591.3279976,68
1659022234.56076,341591.3280007,51
1659022234.56076,341591.3280038,61
1659022234.56076,341591.3280075,63
1659022234.56076,341591.3280111,37
1659022234.56076,341591.3280145,40
1659022234.56076,341591.3280177,68
1659022234.56076,341591.3280209,68
1659022234.56076,341591.3280242,58
1659022234.56076,341591.3280274,68
1659022234.56076,341591.328032,87
1659022234.56076,341591.3280385,91
1659022234.56076,341591.3280455,82
1659022234.56076,341591.3280517,77
1659022234.56076,341591.3280566,75
1659022234.56076,341591.3280605,77
1659022234.56076,341591.3280637,91
1659022234.56076,341591.3280672,87
1659022234.56076,341591.3280705,77
1659022234.56076,341591.3280741,89
1659022234.56076,341591.960672,87
1659022234.56076,341591.9606921,65
1659022234.56076,341591.9606981,63
1659022234.56076,341591.9607042,80
1659022234.56076,341591.960711,84
1659022234.56076,341591.9607155,80
1659022234.56076,341591.9607203,63
1659022234.56076,341591.9607266,37
1659022234.56076,341591.9607326,44
1659022234.56076,341591.9607386,70
1659022234.56076,341591.960745,73
1659022234.56076,341591.9607531,54
1659022234.56076,341591.9607585,40
1659022234.56076,341591.960763,44
1659022234.56076,341591.9607672,63
1659022234.56076,341591.9607722,89
1659022234.56076,341591.9607768,110
1659022234.56076,341591.960782,96
1659022234.56076,341591.9607881,58
1659022234.56076,341591.9607969,30
1659022234.56076,341591.960806,28
1659022234.56076,341591.9608124,42
1659022234.57074,341591.9608173,51
1659022234.57074,341591.9608226,47
1659022234.57074,341591.9608297,42
1659022234.57074,341591.9608341,0
1659022234.57074,341591.9608379,-21
1659022234.57074,341591.9608428,186
1659022234.57074,341591.9608463,572
1659022234.57074,341591.9608499,683
1659022234.57074,341591.9608537,400
1659022234.57074,341591.9608582,179
1659022234.57074,341591.9608641,115
1659022234.57074,341591.9608679,21
1659022234.57074,341591.9608716,-2
1659022234.57074,341591.9608769,49
1659022234.57074,341591.9608808,35
1659022234.57074,341591.9608864,2
1659022234.57074,341591.9608934,16
1659022234.57074,341591.9608991,35
1659022234.57074,341591.9609027,47
1659022234.57074,341591.960906,58
1659022234.57074,341591.9609149,56
1659022234.57074,341591.9609217,61
1659022234.57074,341591.9609263,68
1659022234.57074,341591.9609301,61
1659022235.14484,341591.9609338,63
1659022235.14484,341591.9609373,82
1659022235.14484,341591.9609409,77
1659022235.14484,341591.9609447,70
1659022235.14484,341591.9609486,89
1659022235.14484,341591.9609525,103
1659022235.14484,341591.9609557,108
1659022235.14484,341591.9609815,122
1659022235.14484,341591.9609895,153
1659022235.14484,341591.9609952,176
1659022235.14484,341591.9610007,169
1659022235.14484,341591.9610041,162
1659022235.14484,341591.9610088,174
1659022235.14484,341591.9610125,179
1659022235.14484,341591.9610155,171
1659022235.14484,341591.9610188,157
