Time,TimeLsl,Value
1659101047.1755,420403.8044978,16
1659101047.1755,420403.8045192,28
1659101047.1755,420403.8045292,33
1659101047.1755,420403.8045376,28
1659101047.1755,420403.8045444,31
1659101047.1755,420403.8045505,43
1659101047.1755,420403.8045546,48
1659101047.1755,420403.8045624,48
1659101047.1755,420403.8045688,48
1659101047.1755,420403.8045723,43
1659101047.1755,420403.8045786,40
1659101047.1755,420403.8045819,43
1659101047.1755,420403.8045883,45
1659101047.1755,420403.8045943,52
1659101047.1755,420403.8045975,52
1659101047.1755,420403.8046023,45
1659101047.1755,420403.8046102,43
1659101047.1755,420403.804617,43
1659101047.1755,420403.8046237,40
1659101047.1755,420403.804627,45
1659101047.1755,420403.8046332,50
1659101047.1755,420403.804637,40
1659101047.1755,420403.8046416,24
1659101047.1755,420403.8046476,28
1659101047.1755,420403.8046515,33
1659101047.1755,420403.8046565,28
1659101047.1755,420403.8046624,36
1659101047.1755,420403.8046657,43
1659101047.1755,420403.8046703,24
1659101047.1755,420403.804676,26
1659101047.1755,420403.80468,60
1659101047.1755,420403.8046838,62
1659101047.1755,420403.8046896,28
1659101047.1755,420403.8046942,9
1659101047.1755,420403.8047004,9
1659101047.1755,420403.8047044,9
1659101047.1755,420403.8047102,16
1659101047.1755,420403.8047141,26
1659101047.1755,420403.8047196,33
1659101047.1755,420403.8047234,105
1659101047.1755,420403.8047299,314
1659101047.1755,420403.8047362,633
1659101047.1755,420403.8047397,835
1659101047.1755,420403.8047428,590
1659101047.1755,420403.8047458,21
1659101047.1755,420403.8047519,-225
1659101047.1755,420403.8047552,-31
1659101047.1755,420403.8047607,76
1659101047.1755,420403.8047639,0
1659101047.1755,420403.8047695,2
1659101047.28551,420403.8047732,48
1659101047.28551,420403.8047767,43
1659101047.28551,420403.8047806,40
1659101047.28551,420403.804787,52
1659101047.28551,420403.8047901,52
1659101047.28551,420403.804793,57
1659101047.28551,420403.8047959,74
1659101047.28551,420403.8047989,86
1659101047.28551,420403.8048017,93
1659101047.28551,420403.8048045,105
1659101047.28551,420403.8048077,115
1659101047.28551,420403.8048107,122
1659101047.28551,420403.8048136,129
1659101047.28551,420403.8048166,139
1659101047.28551,420403.8048194,151
1659101047.28551,420403.8048223,158
1659101047.28551,420403.8048251,158
1659101047.28551,420403.8048279,168
1659101047.28551,420403.8048307,180
1659101047.28551,420403.8048336,187
1659101047.28551,420403.8048364,199
1659101047.28551,420403.8048393,213
1659101047.28551,420403.8048421,211
1659101047.28551,420404.2914176,192
1659101047.28551,420404.29144,175
1659101047.28551,420404.2914483,160
1659101047.28551,420404.2914526,146
1659101047.28551,420404.2914567,141
1659101047.28551,420404.2914608,141
1659101047.28551,420404.2914645,139
1659101047.28551,420404.2914682,136
1659101047.28551,420404.2914731,129
1659101047.28551,420404.2914781,132
1659101047.28551,420404.2914824,144
1659101047.28551,420404.2914864,146
1659101047.28551,420404.2914897,139
1659101047.28551,420404.2914936,134
1659101047.28551,420404.2914994,141
1659101047.28551,420404.2915057,144
1659101047.28551,420404.2915114,148
1659101047.28551,420404.2915165,153
1659101047.28551,420404.2915214,144
1659101047.28551,420404.2915264,124
1659101047.28551,420404.2915327,124
1659101047.28551,420404.2915398,136
1659101047.28551,420404.2915449,141
1659101047.28551,420404.2915497,148
1659101047.28551,420404.2915606,153
1659101047.28551,420404.29157,141
1659101047.28551,420404.2915779,120
1659101047.32753,420404.2915914,122
1659101047.32753,420404.2916016,129
1659101047.32753,420404.2916104,127
1659101047.32753,420404.2916178,129
1659101047.32753,420404.2916315,127
1659101047.32753,420404.2916433,124
1659101047.32753,420404.2916525,132
1659101047.32753,420404.2916597,136
1659101047.32753,420404.2916641,134
1659101047.32753,420404.2916708,141
1659101047.32753,420404.2916754,156
1659101047.32753,420404.2916821,160
1659101047.32753,420404.2916879,146
1659101047.32753,420404.2916952,139
1659101047.32753,420404.2916997,144
1659101047.32753,420404.2917069,144
1659101047.32753,420404.2917131,139
1659101047.32753,420404.2917188,141
1659101047.32753,420404.2917219,146
1659101047.32753,420404.2917248,177
1659101047.32753,420404.2917278,314
1659101047.32753,420404.2917307,590
1659101047.32753,420404.2917336,852
1659101047.32753,420404.2917366,797
1659101047.32753,420404.2917395,331
1659101047.32753,420404.2917424,-72
1659101047.32753,420404.2917453,-19
1659101047.32753,420404.2917482,163
1659101047.32753,420404.2917639,139
1659101047.32753,420404.2917859,100
1659101047.32753,420404.291806,139
1659101047.32753,420404.2918159,148
1659101047.32753,420404.2918239,141
1659101047.32753,420404.2918295,160
1659101047.32753,420404.2918331,172
1659101047.32753,420404.291838,168
1659101047.32753,420404.2918421,172
1659101047.32753,420404.2918471,187
1659101047.32753,420404.2918504,192
1659101047.32753,420404.2918537,192
1659101047.32753,420404.2918569,194
1659101047.32753,420404.2918601,194
1659101047.32753,420404.2918634,194
1659101047.32753,420404.2918666,201
1659101047.32753,420404.2918699,199
1659101047.32753,420404.2918731,192
1659101047.32753,420404.87603,201
1659101047.32753,420404.8760481,213
1659101047.3764,420404.8760564,211
1659101047.3764,420404.8760621,206
1659101047.3764,420404.8760653,216
1659101047.3764,420404.87607,223
1659101047.3764,420404.8760746,218
1659101047.3764,420404.8760802,206
1659101047.3764,420404.8760839,187
1659101047.3764,420404.8760874,151
1659101047.3764,420404.8760992,117
1659101047.3764,420404.8761039,112
1659101047.3764,420404.8761086,115
1659101047.3764,420404.8761121,100
1659101047.3764,420404.8761185,93
1659101047.3764,420404.8761242,91
1659101047.3764,420404.8761309,79
1659101047.3764,420404.8761377,79
1659101047.3764,420404.8761463,81
1659101047.3764,420404.8761523,69
1659101047.3764,420404.8761589,69
1659101047.3764,420404.8761689,76
1659101047.3764,420404.876175,67
1659101047.3764,420404.8761829,64
1659101047.3764,420404.8761893,72
1659101047.3764,420404.8761969,72
1659101047.3764,420404.8762052,69
1659101047.3764,420404.876213,69
1659101047.3764,420404.8762216,62
1659101047.3764,420404.8762302,57
1659101047.3764,420404.8762379,55
1659101047.3764,420404.8762435,48
1659101047.3764,420404.8762554,45
1659101047.3764,420404.8762685,48
1659101047.3764,420404.8762784,43
1659101047.3764,420404.876288,38
1659101047.3764,420404.8762971,40
1659101047.3764,420404.8763037,38
1659101047.3764,420404.8763095,31
1659101047.3764,420404.8763179,21
1659101047.3764,420404.8763233,14
1659101047.3764,420404.8763315,12
1659101047.3764,420404.8763406,4
1659101047.3764,420404.8763499,9
1659101047.3764,420404.876358,26
1659101047.3764,420404.8763653,28
1659101047.3764,420404.8763722,9
1659101047.3764,420404.8763776,0
1659101047.3764,420404.8763815,0
1659101047.3764,420404.876389,-2
1659101047.3764,420404.8763939,-2
1659101047.3764,420404.8764013,2
1659101047.38937,420404.8764134,0
1659101047.38937,420404.8764261,21
1659101047.38937,420404.8764371,158
1659101047.38937,420404.8764453,444
1659101047.38937,420404.8764515,729
1659101047.38937,420404.87646,686
1659101047.38937,420404.8764702,196
1659101047.38937,420404.8764788,-240
1659101047.38937,420404.8764856,-194
1659101047.38937,420404.8764941,-9
1659101047.38937,420404.8765025,-36
1659101047.38937,420404.8765094,-81
1659101047.38937,420404.8765173,-40
1659101047.38937,420404.8765234,-31
1659101047.38937,420404.8765362,-50
1659101047.38937,420404.876546,-36
1659101047.38937,420404.8765538,-24
1659101047.38937,420404.8765596,-26
1659101047.38937,420404.8765648,-21
1659101047.38937,420404.8765719,-9
1659101047.38937,420404.876578,-7
1659101047.38937,420405.412486,-4
1659101047.38937,420405.4125058,2
1659101047.38937,420405.4125161,12
1659101047.90404,420405.4125252,19
1659101047.90404,420405.4125307,24
1659101047.90404,420405.4125373,31
1659101047.90404,420405.412544,31
1659101047.90404,420405.4125496,33
1659101047.90404,420405.412555,43
1659101047.90404,420405.4125623,50
1659101047.90404,420405.4125695,55
1659101047.90404,420405.4125768,43
1659101047.90404,420405.4125812,16
1659101047.90404,420405.4125848,0
1659101047.90404,420405.4125912,0
1659101047.90404,420405.4125947,-14
1659101047.90404,420405.4126013,-36
1659101047.90404,420405.4126046,-48
1659101047.90404,420405.4126094,-69
1659101047.90404,420405.4126146,-91
1659101047.90404,420405.4126175,-88
1659101047.90404,420405.4126205,-84
1659101047.90404,420405.4126235,-88
1659101047.90404,420405.4126263,-84
1659101047.90404,420405.4126291,-74
1659101047.90404,420405.412632,-72
1659101047.90404,420405.4126348,-62
1659101047.90404,420405.4126377,-52
1659101047.90404,420405.4126405,-48
1659101047.90404,420405.4126434,-45
1659101047.90404,420405.4126463,-45
1659101047.90404,420405.4126491,-50
1659101047.90404,420405.4126519,-45
1659101047.90404,420405.4126548,-38
1659101047.90404,420405.4126576,-33
1659101047.90404,420405.4126604,-31
1659101047.90404,420405.4126632,-31
1659101047.90404,420405.4126661,-31
1659101047.90404,420405.4126689,-31
1659101047.90404,420405.4126717,-26
1659101047.90404,420405.4126745,-19
1659101047.90404,420405.4126775,-16
1659101047.90404,420405.4126803,-16
1659101047.90404,420405.4126832,-14
1659101047.90404,420405.4126861,-12
1659101047.90404,420405.4126889,-9
1659101047.90404,420405.4126917,-2
1659101047.90404,420405.4126945,2
1659101047.90404,420405.4126997,0
1659101047.90404,420405.4127053,4
1659101047.90404,420405.4127089,14
1659101047.90404,420405.4127137,19
1659101047.90404,420405.4127167,7
1659101047.91701,420405.4127195,-12
1659101047.91701,420405.4127224,-24
1659101047.91701,420405.4127252,-24
1659101047.91701,420405.4127281,-19
1659101047.91701,420405.4127309,-16
1659101047.91701,420405.4127338,-19
1659101047.91701,420405.4127366,-4
1659101047.91701,420405.4127396,88
1659101047.91701,420405.4127425,336
1659101047.91701,420405.4127454,650
1659101047.91701,420405.4127483,739
1659101047.91701,420405.4127512,360
1659101047.91701,420405.4127541,-172
1659101047.91701,420405.4127571,-271
1659101047.91701,420405.41276,-50
1659101047.91701,420405.4127629,-7
1659101047.91701,420405.4127658,-74
1659101047.91701,420405.4127688,-45
1659101047.91701,420405.4127717,-19
1659101047.91701,420405.4127745,-36
1659101047.91701,420405.9487397,-31
1659101047.91701,420405.9487584,-12
1659101047.91701,420405.9487679,-14
1659101047.91701,420405.9487733,-21
1659101048.49378,420405.948778,-26
1659101048.49378,420405.9487842,-26
1659101048.49378,420405.948791,-19
1659101048.49378,420405.9487979,-12
1659101048.49378,420405.9488032,-9
1659101048.49378,420405.9488074,-16
1659101048.49378,420405.9488108,-19
1659101048.49378,420405.9488146,-9
1659101048.49378,420405.9488182,-4
1659101048.49378,420405.9488225,-4
1659101048.49378,420405.9488278,4
1659101048.49378,420405.9488322,9
1659101048.49378,420405.9488389,0
1659101048.49378,420405.948851,4
1659101048.49378,420405.9488633,24
1659101048.49378,420405.9488722,33
1659101048.49378,420405.9488812,31
1659101048.49378,420405.9488886,19
1659101048.49378,420405.9489023,0
1659101048.49378,420405.9489145,-12
1659101048.49378,420405.948926,-16
1659101048.49378,420405.9489346,-19
1659101048.49378,420405.9489432,-14
1659101048.49378,420405.9489493,-7
1659101048.49378,420405.9489572,-4
1659101048.49378,420405.9489643,-2
1659101048.49378,420405.9489725,12
1659101048.49378,420405.9489796,24
1659101048.49378,420405.9489883,33
1659101048.49378,420405.9489942,43
1659101048.49378,420405.9490077,48
1659101048.49378,420405.9490207,45
1659101048.49378,420405.9490351,52
1659101048.49378,420405.9490482,69
1659101048.49378,420405.9490621,79
1659101048.49378,420405.9490699,81
1659101048.49378,420405.9490743,76
1659101048.49378,420405.949086,74
1659101048.49378,420405.9490998,76
1659101048.49378,420405.949111,84
1659101048.49378,420405.9491193,79
1659101048.49378,420405.9491256,76
1659101048.49378,420405.9491376,79
1659101048.49378,420405.9491471,76
1659101048.49378,420405.9491599,79
1659101048.49378,420405.949173,91
1659101048.49378,420405.9491865,98
1659101048.49378,420405.9491999,100
1659101048.49378,420405.9492132,100
1659101048.49378,420405.9492265,105
1659101048.50674,420405.9492398,108
1659101048.50674,420405.9492532,110
1659101048.50674,420405.9492664,120
1659101048.50674,420405.9492796,141
1659101048.50674,420405.9492927,153
1659101048.50674,420405.9493072,136
1659101048.50674,420405.949319,122
1659101048.50674,420405.9493237,124
1659101048.50674,420405.9493276,127
1659101048.50674,420405.9493308,122
1659101048.50674,420405.9493338,127
1659101048.50674,420405.9493386,127
1659101048.50674,420405.9493443,146
1659101048.50674,420405.94935,268
1659101048.50674,420405.9493584,540
1659101048.50674,420405.9493644,842
1659101048.50674,420405.9493677,861
1659101048.50674,420405.9493722,410
1659101048.50674,420405.9493754,-96
1659101048.50674,420406.5347171,-115
1659101048.50674,420406.534736,100
1659101048.50674,420406.5347407,100
1659101048.50674,420406.5347443,40
1659101048.50674,420406.5347473,69
1659101049.07045,420406.5347503,74
1659101049.07045,420406.5347536,43
1659101049.07045,420406.5347577,52
1659101049.07045,420406.5347628,76
1659101049.07045,420406.5347665,76
1659101049.07045,420406.5347694,76
1659101049.07045,420406.5347723,79
1659101049.07045,420406.5347752,72
1659101049.07045,420406.5347806,67
1659101049.07045,420406.5347857,76
1659101049.07045,420406.5347902,91
1659101049.07045,420406.5347932,93
1659101049.07045,420406.5347962,98
1659101049.07045,420406.5347998,110
1659101049.07045,420406.534878,122
1659101049.07045,420406.5348867,129
1659101049.07045,420406.5348907,141
1659101049.07045,420406.5348944,151
1659101049.07045,420406.5348979,151
1659101049.07045,420406.5349014,156
1659101049.07045,420406.5349051,163
1659101049.07045,420406.534911,168
1659101049.07045,420406.5349175,158
1659101049.07045,420406.5349212,141
1659101049.07045,420406.5349264,132
1659101049.07045,420406.53493,120
1659101049.07045,420406.5349355,105
1659101049.07045,420406.5349392,98
1659101049.07045,420406.5349446,98
1659101049.07045,420406.5349482,98
1659101049.07045,420406.5349535,96
1659101049.07045,420406.5349571,96
1659101049.07045,420406.5349621,103
1659101049.07045,420406.5349658,110
1659101049.07045,420406.534971,115
1659101049.07045,420406.5349746,117
1659101049.07045,420406.5349796,122
1659101049.07045,420406.5349832,132
1659101049.07045,420406.5349883,139
1659101049.07045,420406.5349919,136
1659101049.07045,420406.5349971,134
1659101049.07045,420406.5350007,132
1659101049.07045,420406.5350057,132
1659101049.07045,420406.5350094,139
1659101049.07045,420406.5350147,141
1659101049.07045,420406.5350182,132
1659101049.07045,420406.5350243,120
1659101049.07045,420406.5350321,120
1659101049.07045,420406.5350392,124
1659101049.07045,420406.5350477,124
1659101049.09139,420406.5350565,124
1659101049.09139,420406.5351619,127
1659101049.09139,420406.535171,124
1659101049.09139,420406.5351772,122
1659101049.09139,420406.5351807,127
1659101049.09139,420406.5351874,127
1659101049.09139,420406.5351904,120
1659101049.09139,420406.5351934,108
1659101049.09139,420406.5351962,100
1659101049.09139,420406.5351991,108
1659101049.09139,420406.5352019,110
1659101049.09139,420406.5352047,110
1659101049.09139,420406.5352075,124
1659101049.09139,420406.5352105,136
1659101049.09139,420406.5352133,124
1659101049.09139,420406.5352162,110
1659101049.09139,420406.535219,103
1659101049.09139,420406.535222,98
1659101049.09139,420407.1190323,98
1659101049.09139,420407.1190503,100
1659101049.09139,420407.1190563,88
1659101049.09139,420407.1190605,79
1659101049.09139,420407.1190649,151
1659101049.09139,420407.1190693,386
1659101049.66685,420407.1191447,715
1659101049.66685,420407.1191496,878
1659101049.66685,420407.1191537,580
1659101049.66685,420407.1191591,-2
1659101049.66685,420407.1191628,-220
1659101049.66685,420407.1191657,-12
1659101049.66685,420407.119169,76
1659101049.66685,420407.1191722,-12
1659101049.66685,420407.1191773,-12
1659101049.66685,420407.119182,21
1659101049.66685,420407.1191863,0
1659101049.66685,420407.1191923,7
1659101049.66685,420407.1191957,31
1659101049.66685,420407.1191988,24
1659101049.66685,420407.1192018,21
1659101049.66685,420407.1192049,28
1659101049.66685,420407.1192079,24
1659101049.66685,420407.1192111,38
1659101049.66685,420407.1192141,57
1659101049.66685,420407.1192181,55
1659101049.66685,420407.1192211,52
1659101049.66685,420407.1192251,52
1659101049.66685,420407.1192286,57
1659101049.66685,420407.1192316,62
1659101049.66685,420407.1192348,69
1659101049.66685,420407.119238,79
1659101049.66685,420407.1192418,86
1659101049.66685,420407.119245,93
1659101049.66685,420407.1192481,98
1659101049.66685,420407.1192512,105
1659101049.66685,420407.1192545,108
1659101049.66685,420407.1192578,100
1659101049.66685,420407.1192611,81
1659101049.66685,420407.1192646,60
1659101049.66685,420407.1192678,43
1659101049.66685,420407.119271,33
1659101049.66685,420407.119274,26
1659101049.66685,420407.1192772,24
1659101049.66685,420407.119281,28
1659101049.66685,420407.1192865,33
1659101049.66685,420407.1192913,38
1659101049.66685,420407.1192958,43
1659101049.66685,420407.1193016,48
1659101049.66685,420407.1193062,50
1659101049.66685,420407.1193097,57
1659101049.66685,420407.119313,69
1659101049.66685,420407.1193162,79
1659101049.66685,420407.1193191,84
1659101049.66685,420407.1193221,69
1659101049.66685,420407.1193248,52
1659101049.67982,420407.1193287,60
1659101049.67982,420407.1193318,69
1659101049.67982,420407.1193349,67
1659101049.67982,420407.1193381,64
1659101049.67982,420407.119341,67
1659101049.67982,420407.119344,64
1659101049.67982,420407.119347,60
1659101049.67982,420407.11935,64
1659101049.67982,420407.119353,67
1659101049.67982,420407.119356,57
1659101049.67982,420407.1193609,55
1659101049.67982,420407.1193655,64
1659101049.67982,420407.1193688,81
1659101049.67982,420407.1193716,91
1659101049.67982,420407.1193747,86
1659101049.67982,420407.1193777,79
1659101049.67982,420407.1193806,79
1659101049.67982,420407.7058144,86
1659101049.67982,420407.7058317,91
1659101049.67982,420407.7058401,88
1659101049.67982,420407.7058438,84
1659101049.67982,420407.7058471,98
1659101049.67982,420407.7058507,112
1659101049.67982,420407.7058541,122
1659101050.19272,420407.7058574,129
1659101050.19272,420407.7058613,127
1659101050.19272,420407.7058661,112
1659101050.19272,420407.7058724,98
1659101050.19272,420407.7058773,86
1659101050.19272,420407.7058803,69
1659101050.19272,420407.7058832,64
1659101050.19272,420407.705886,72
1659101050.19272,420407.7058894,72
1659101050.19272,420407.7058988,120
1659101050.19272,420407.7059086,321
1659101050.19272,420407.7059169,631
1659101050.19272,420407.7059223,809
1659101050.19272,420407.7059279,561
1659101050.19272,420407.7059345,9
1659101050.19272,420407.7059387,-242
1659101050.19272,420407.7059454,-64
1659101050.19272,420407.705955,38
1659101050.19272,420407.705965,-36
1659101050.19272,420407.7059711,-36
1659101050.19272,420407.7059753,14
1659101050.19272,420407.7059804,7
1659101050.19272,420407.7059885,0
1659101050.19272,420407.7059936,21
1659101050.19272,420407.7060011,28
1659101050.19272,420407.7060049,24
1659101050.19272,420407.7060111,28
1659101050.19272,420407.7060152,45
1659101050.19272,420407.7060206,67
1659101050.19272,420407.7060252,74
1659101050.19272,420407.7060307,64
1659101050.19272,420407.7060352,69
1659101050.19272,420407.7060408,86
1659101050.19272,420407.7060457,88
1659101050.19272,420407.7060511,88
1659101050.19272,420407.7060546,112
1659101050.19272,420407.7060583,129
1659101050.19272,420407.706062,115
1659101050.19272,420407.7060674,115
1659101050.19272,420407.706104,134
1659101050.19272,420407.7061134,136
1659101050.19272,420407.7061175,117
1659101050.19272,420407.7061239,110
1659101050.19272,420407.7061276,105
1659101050.19272,420407.7061313,74
1659101050.19272,420407.7061369,43
1659101050.19272,420407.7061401,36
1659101050.19272,420407.7061933,36
1659101050.19272,420407.7062044,33
1659101050.19272,420407.7062117,26
1659101050.20269,420407.7062167,19
1659101050.20269,420407.7062239,24
1659101050.20269,420407.7062279,31
1659101050.20269,420407.7062339,45
1659101050.20269,420407.706237,60
1659101050.20269,420407.7062406,57
1659101050.20269,420407.7062461,60
1659101050.20269,420407.7062497,72
1659101050.20269,420407.7062533,67
1659101050.20269,420407.706262,69
1659101050.20269,420407.7062658,86
1659101050.20269,420407.7062714,84
1659101050.20269,420407.7062757,74
1659101050.20269,420407.7062814,81
1659101050.20269,420407.7062885,86
1659101050.20269,420407.7062994,79
1659101050.20269,420408.2404502,74
1659101050.20269,420408.2404719,76
1659101050.20269,420408.2404871,76
1659101050.20269,420408.2405017,76
1659101050.20269,420408.2405163,76
1659101050.20269,420408.2405299,76
1659101050.20269,420408.2405432,79
1659101050.20269,420408.2405575,76
1659101050.20269,420408.2405644,79
1659101050.20269,420408.2405667,86
1659101050.20269,420408.2405687,81
1659101050.20269,420408.2405708,74
1659101050.20269,420408.2405727,81
1659101050.73021,420408.2405746,84
1659101050.73021,420408.2405808,84
1659101050.73021,420408.2405907,79
1659101050.73021,420408.2405945,64
1659101050.73021,420408.2405966,60
1659101050.73021,420408.2405989,69
1659101050.73021,420408.240604,72
1659101050.73021,420408.2406133,67
1659101050.73021,420408.2406204,60
1659101050.73021,420408.2406294,55
1659101050.73021,420408.240635,60
1659101050.73021,420408.2406395,60
1659101050.73021,420408.2406468,40
1659101050.73021,420408.2406558,26
1659101050.73021,420408.2406688,31
1659101050.73021,420408.2406794,33
1659101050.73021,420408.2406871,43
1659101050.73021,420408.2406923,55
1659101050.73021,420408.2407028,57
1659101050.73021,420408.2407062,110
1659101050.73021,420408.2407091,343
1659101050.73021,420408.240712,686
1659101050.73021,420408.2407148,842
1659101050.73021,420408.2407177,535
1659101050.73021,420408.2407206,-21
1659101050.73021,420408.2407235,-216
1659101050.73021,420408.2407264,-26
1659101050.73021,420408.2407293,52
1659101050.73021,420408.2407322,-14
1659101050.73021,420408.2407351,-9
1659101050.73021,420408.2407381,28
1659101050.73021,420408.240741,12
1659101050.73021,420408.2407439,-4
1659101050.73021,420408.2407468,21
1659101050.73021,420408.2407497,40
1659101050.73021,420408.2407528,31
1659101050.73021,420408.2407607,24
1659101050.73021,420408.2407745,33
1659101050.73021,420408.2407857,48
1659101050.73021,420408.2407907,64
1659101050.73021,420408.2407928,81
1659101050.73021,420408.2407954,88
1659101050.73021,420408.2408055,86
1659101050.73021,420408.2408134,88
1659101050.73021,420408.2408159,103
1659101050.73021,420408.2408213,105
1659101050.73021,420408.2408329,98
1659101050.73021,420408.2408363,124
1659101050.73021,420408.2408403,151
1659101050.73021,420408.2408478,129
1659101050.74218,420408.2408565,110
1659101050.74218,420408.2408608,132
1659101050.74218,420408.2408709,146
1659101050.74218,420408.240875,112
1659101050.74218,420408.2408771,74
1659101050.74218,420408.2408792,62
1659101050.74218,420408.2408812,64
1659101050.74218,420408.2408832,52
1659101050.74218,420408.2408852,28
1659101050.74218,420408.2408872,19
1659101050.74218,420408.7766584,33
1659101050.74218,420408.7766766,33
1659101050.74218,420408.7766921,26
1659101050.74218,420408.7767027,50
1659101050.74218,420408.7767082,74
1659101050.74218,420408.7767162,57
1659101050.74218,420408.7767236,40
1659101050.74218,420408.7767338,40
1659101050.74218,420408.7767468,48
1659101051.26781,420408.7767553,74
1659101051.26781,420408.7767578,88
1659101051.26781,420408.77676,60
1659101051.26781,420408.7767619,21
1659101051.26781,420408.776764,28
1659101051.26781,420408.776771,55
1659101051.26781,420408.776778,62
1659101051.26781,420408.7767821,60
1659101051.26781,420408.7767908,48
1659101051.26781,420408.7767967,26
1659101051.26781,420408.7768011,16
1659101051.26781,420408.7768112,28
1659101051.26781,420408.7768235,43
1659101051.26781,420408.7768364,48
1659101051.26781,420408.7768482,55
1659101051.26781,420408.776854,57
1659101051.26781,420408.7768618,55
1659101051.26781,420408.7768748,43
1659101051.26781,420408.7768819,28
1659101051.26781,420408.7768842,21
1659101051.26781,420408.776891,33
1659101051.26781,420408.7768984,60
1659101051.26781,420408.7769019,55
1659101051.26781,420408.7769067,36
1659101051.26781,420408.7769096,33
1659101051.26781,420408.7769128,19
1659101051.26781,420408.7769159,7
1659101051.26781,420408.7769188,21
1659101051.26781,420408.7769219,24
1659101051.26781,420408.7769248,9
1659101051.26781,420408.7769279,9
1659101051.26781,420408.7769309,19
1659101051.26781,420408.7769339,36
1659101051.26781,420408.7769368,67
1659101051.26781,420408.77694,72
1659101051.26781,420408.7769441,52
1659101051.26781,420408.7769472,52
1659101051.26781,420408.7769502,55
1659101051.26781,420408.7769531,38
1659101051.26781,420408.7769561,36
1659101051.26781,420408.7769607,50
1659101051.26781,420408.7769637,55
1659101051.26781,420408.7769666,57
1659101051.26781,420408.7769696,105
1659101051.26781,420408.7769758,278
1659101051.26781,420408.7769887,592
1659101051.26781,420408.777002,842
1659101051.26781,420408.7770153,674
1659101051.26781,420408.7770285,115
1659101051.26781,420408.7770418,-204
1659101051.28078,420408.7770551,-52
1659101051.28078,420408.7770683,74
1659101051.28078,420408.7771279,24
1659101051.28078,420408.7771382,19
1659101051.28078,420408.7771521,48
1659101051.28078,420408.7771652,31
1659101051.28078,420408.7771783,31
1659101051.28078,420408.7771915,60
1659101051.28078,420408.7772037,60
1659101051.28078,420408.7772106,57
1659101051.28078,420408.7772167,74
1659101051.28078,420408.777221,84
1659101051.28078,420408.7772336,74
1659101051.28078,420408.7772478,79
1659101051.28078,420409.3135868,98
1659101051.28078,420409.3136038,110
1659101051.28078,420409.313608,122
1659101051.28078,420409.3136145,132
1659101051.28078,420409.31362,127
1659101051.28078,420409.3136258,122
1659101051.28078,420409.3136296,144
1659101051.28078,420409.3136328,156
1659101051.28078,420409.3136398,144
1659101051.28078,420409.3136433,139
1659101051.85035,420409.3136486,132
1659101051.85035,420409.3136522,124
1659101051.85035,420409.3136553,134
1659101051.85035,420409.3136584,132
1659101051.85035,420409.3136617,79
1659101051.85035,420409.3136649,36
1659101051.85035,420409.3136684,24
1659101051.85035,420409.3136715,9
1659101051.85035,420409.3136747,-14
1659101051.85035,420409.3136779,-24
1659101051.85035,420409.3136821,-7
1659101051.85035,420409.3136875,7
1659101051.85035,420409.3136946,7
1659101051.85035,420409.3137021,7
1659101051.85035,420409.3137097,4
1659101051.85035,420409.3137196,2
1659101051.85035,420409.3137311,14
1659101051.85035,420409.3137404,24
1659101051.85035,420409.3137453,9
1659101051.85035,420409.3137529,-2
1659101051.85035,420409.3137603,24
1659101051.85035,420409.3137683,36
1659101051.85035,420409.3137758,31
1659101051.85035,420409.3137819,33
1659101051.85035,420409.3137904,28
1659101051.85035,420409.3137958,26
1659101051.85035,420409.3138089,33
1659101051.85035,420409.3138217,26
1659101051.85035,420409.3138302,21
1659101051.85035,420409.3138366,36
1659101051.85035,420409.3138399,38
1659101051.85035,420409.3138458,26
1659101051.85035,420409.3138489,31
1659101051.85035,420409.313852,40
1659101051.85035,420409.313855,38
1659101051.85035,420409.313858,36
1659101051.85035,420409.3138611,43
1659101051.85035,420409.3138641,50
1659101051.85035,420409.313867,60
1659101051.85035,420409.31387,69
1659101051.85035,420409.3138729,67
1659101051.85035,420409.3138759,64
1659101051.85035,420409.3138788,60
1659101051.85035,420409.3138817,55
1659101051.85035,420409.3138847,79
1659101051.85035,420409.3138877,88
1659101051.85035,420409.3138907,48
1659101051.85035,420409.3138936,26
1659101051.85035,420409.3138967,38
1659101051.85035,420409.3138998,60
1659101051.86531,420409.3139029,100
1659101051.86531,420409.3139077,141
1659101051.86531,420409.3139209,110
1659101051.86531,420409.3139341,45
1659101051.86531,420409.3139465,60
1659101051.86531,420409.3139579,88
1659101051.86531,420409.3139631,43
1659101051.86531,420409.3139677,28
1659101051.86531,420409.3139793,81
1659101051.86531,420409.3139862,64
1659101051.86531,420409.3139945,31
1659101051.86531,420409.3139999,163
1659101051.86531,420409.3140059,448
1659101051.86531,420409.8982935,758
1659101051.86531,420409.8983091,821
1659101051.86531,420409.8983138,381
1659101051.86531,420409.8983195,-146
1659101051.86531,420409.8983243,-148
1659101051.86531,420409.8983295,76
1659101051.86531,420409.8983344,31
1659101051.86531,420409.8983396,-36
1659101051.86531,420409.8983431,57
1659101051.86531,420409.8983463,67
1659101051.86531,420409.8983504,-9
1659101052.44388,420409.898356,4
1659101052.44388,420409.8983617,60
1659101052.44388,420409.8983656,48
1659101052.44388,420409.89837,36
1659101052.44388,420409.8983751,64
1659101052.44388,420409.8983797,72
1659101052.44388,420409.8983868,72
1659101052.44388,420409.8983935,81
1659101052.44388,420409.8983982,76
1659101052.44388,420409.8984029,84
1659101052.44388,420409.8984076,105
1659101052.44388,420409.8984124,103
1659101052.44388,420409.8984169,110
1659101052.44388,420409.8984215,136
1659101052.44388,420409.8984261,132
1659101052.44388,420409.8984307,120
1659101052.44388,420409.8984375,141
1659101052.44388,420409.8984422,151
1659101052.44388,420409.8984487,148
1659101052.44388,420409.8984533,160
1659101052.44388,420409.8984597,156
1659101052.44388,420409.8984703,124
1659101052.44388,420409.8984778,98
1659101052.44388,420409.8984814,81
1659101052.44388,420409.8984946,72
1659101052.44388,420409.8985068,67
1659101052.44388,420409.8985188,62
1659101052.44388,420409.8985264,38
1659101052.44388,420409.8985331,38
1659101052.44388,420409.8985378,74
1659101052.44388,420409.8985444,76
1659101052.44388,420409.8985491,38
1659101052.44388,420409.8985576,33
1659101052.44388,420409.8985713,43
1659101052.44388,420409.8985803,48
1659101052.44388,420409.8985873,69
1659101052.44388,420409.8985986,76
1659101052.44388,420409.8986069,52
1659101052.44388,420409.8986154,45
1659101052.44388,420409.8986547,62
1659101052.44388,420409.8986736,52
1659101052.44388,420409.898682,38
1659101052.44388,420409.898688,72
1659101052.44388,420409.8986913,96
1659101052.44388,420409.8986968,76
1659101052.44388,420409.8986999,69
1659101052.44388,420409.8987028,74
1659101052.44388,420409.8987057,76
1659101052.44388,420409.8987087,86
1659101052.44388,420409.8987117,91
1659101052.45386,420409.8987146,96
1659101052.45386,420409.8987175,100
1659101052.45386,420409.8987204,91
1659101052.45386,420409.8987232,88
1659101052.45386,420409.898726,93
1659101052.45386,420409.8987289,105
1659101052.45386,420409.8987319,122
1659101052.45386,420409.8987347,112
1659101052.45386,420409.8987374,105
1659101052.45386,420409.8987403,124
1659101052.45386,420409.8987432,134
1659101052.45386,420409.8987462,115
1659101052.45386,420410.4830784,103
1659101052.45386,420410.4830976,127
1659101052.45386,420410.4831099,146
1659101052.45386,420410.48312,127
1659101052.45386,420410.4831303,117
1659101052.45386,420410.4831395,139
1659101052.45386,420410.4831483,148
1659101052.45386,420410.4831578,139
1659101052.45386,420410.4831683,136
1659101052.45386,420410.4831803,117
1659101052.45386,420410.4831886,64
1659101052.45386,420410.483194,57
1659101052.97881,420410.4832006,122
1659101052.97881,420410.4832064,124
1659101052.97881,420410.4832136,31
1659101052.97881,420410.483221,7
1659101052.97881,420410.4832264,187
1659101052.97881,420410.4832317,511
1659101052.97881,420410.4832348,792
1659101052.97881,420410.483238,837
1659101052.97881,420410.4832413,456
1659101052.97881,420410.4832456,-91
1659101052.97881,420410.4832534,-192
1659101052.97881,420410.4832572,38
1659101052.97881,420410.4832613,76
1659101052.97881,420410.4832652,12
1659101052.97881,420410.4832689,31
1659101052.97881,420410.4832729,40
1659101052.97881,420410.4832768,31
1659101052.97881,420410.4832825,21
1659101052.97881,420410.4832866,0
1659101052.97881,420410.4832921,2
1659101052.97881,420410.4832966,60
1659101052.97881,420410.4833019,115
1659101052.97881,420410.4833057,74
1659101052.97881,420410.4833092,4
1659101052.97881,420410.4833144,38
1659101052.97881,420410.483318,105
1659101052.97881,420410.4833218,84
1659101052.97881,420410.4833276,7
1659101052.97881,420410.483336,12
1659101052.97881,420410.4833416,108
1659101052.97881,420410.4833501,120
1659101052.97881,420410.4833553,52
1659101052.97881,420410.4833588,74
1659101052.97881,420410.4833623,134
1659101052.97881,420410.4833676,112
1659101052.97881,420410.4833715,81
1659101052.97881,420410.483377,100
1659101052.97881,420410.4833812,100
1659101052.97881,420410.4833869,60
1659101052.97881,420410.4833925,45
1659101052.97881,420410.4833962,50
1659101052.97881,420410.4833997,28
1659101052.97881,420410.483405,4
1659101052.97881,420410.4834086,24
1659101052.97881,420410.4834121,40
1659101052.97881,420410.4834154,21
1659101052.97881,420410.4834197,24
1659101052.97881,420410.4834234,55
1659101052.97881,420410.4834289,67
1659101052.97881,420410.483432,76
1659101052.99078,420410.4834358,108
1659101052.99078,420410.483441,134
1659101052.99078,420410.4834449,127
1659101052.99078,420410.4834504,115
1659101052.99078,420410.4834547,124
1659101052.99078,420410.4834604,144
1659101052.99078,420410.4834642,148
1659101052.99078,420410.4834678,132
1659101052.99078,420410.4834729,124
1659101052.99078,420410.4834764,134
1659101052.99078,420410.4834801,127
1659101052.99078,420411.0232297,117
1659101052.99078,420411.0232501,127
1659101052.99078,420411.0232609,136
1659101052.99078,420411.0232677,146
1659101052.99078,420411.0232722,141
1659101052.99078,420411.0232766,124
1659101052.99078,420411.0232808,115
1659101052.99078,420411.0232853,129
1659101052.99078,420411.0232897,141
1659101052.99078,420411.0232959,141
1659101052.99078,420411.0233008,136
1659101052.99078,420411.023305,132
1659101052.99078,420411.0233103,122
1659101053.55573,420411.0233148,120
1659101053.55573,420411.0233194,124
1659101053.55573,420411.0233246,110
1659101053.55573,420411.0233291,98
1659101053.55573,420411.0233373,120
1659101053.55573,420411.0233434,120
1659101053.55573,420411.023349,86
1659101053.55573,420411.0233546,93
1659101053.55573,420411.0233602,120
1659101053.55573,420411.0233687,112
1659101053.55573,420411.0233756,105
1659101053.55573,420411.0233798,105
1659101053.55573,420411.023385,91
1659101053.55573,420411.0233888,91
1659101053.55573,420411.0233926,103
1659101053.55573,420411.0233979,88
1659101053.55573,420411.0234018,69
1659101053.55573,420411.0234099,81
1659101053.55573,420411.0234211,76
1659101053.55573,420411.0234314,57
1659101053.55573,420411.0234411,129
1659101053.55573,420411.0234532,393
1659101053.55573,420411.0234584,744
1659101053.55573,420411.0234653,833
1659101053.55573,420411.0234717,424
1659101053.55573,420411.0234782,-117
1659101053.55573,420411.0234831,-216
1659101053.55573,420411.0234942,-7
1659101053.55573,420411.0235064,45
1659101053.55573,420411.0235191,-4
1659101053.55573,420411.0235337,7
1659101053.55573,420411.0235455,19
1659101053.55573,420411.023549,19
1659101053.55573,420411.0235525,28
1659101053.55573,420411.023561,9
1659101053.55573,420411.0235655,2
1659101053.55573,420411.0235724,40
1659101053.55573,420411.0235773,50

1659101053.55573,420411.0235853,40
1659101053.55573,420411.0235904,62
1659101053.55573,420411.023598,81
1659101053.55573,420411.0236089,72
1659101053.55573,420411.0236206,60
1659101053.55573,420411.0236325,57
1659101053.55573,420411.0236458,67
1659101053.55573,420411.0236594,72
1659101053.55573,420411.0236701,91
1659101053.55573,420411.0236831,112
1659101053.55573,420411.0236959,105
1659101053.55573,420411.0237092,98
1659101053.57767,420411.0237225,105
1659101053.57767,420411.0237423,105
1659101053.57767,420411.0237519,98
1659101053.57767,420411.0237603,91
1659101053.57767,420411.0237727,88
1659101053.57767,420411.0237825,74
1659101053.57767,420411.0237874,45
1659101053.57767,420411.0237936,26
1659101053.57767,420411.0237979,16
1659101053.57767,420411.023804,16
1659101053.57767,420411.6044067,21
1659101053.57767,420411.6044252,9
1659101053.57767,420411.6044318,4
1659101053.57767,420411.6044377,12
1659101053.57767,420411.6044423,14
1659101053.57767,420411.6044482,28
1659101053.57767,420411.6044526,45
1659101053.57767,420411.604457,45
1659101053.57767,420411.6044611,36
1659101053.57767,420411.6044652,19
1659101053.57767,420411.6044692,31
1659101053.57767,420411.6044731,64
1659101053.57767,420411.6044769,76
1659101053.57767,420411.6044806,67
1659101054.09954,420411.6044845,64
1659101054.09954,420411.6044882,64
1659101054.09954,420411.6044921,55
1659101054.09954,420411.6044957,43
1659101054.09954,420411.6044992,50
1659101054.09954,420411.6045028,60
1659101054.09954,420411.6045063,50
1659101054.09954,420411.6045097,40
1659101054.09954,420411.6045131,38
1659101054.09954,420411.6045166,40
1659101054.09954,420411.60452,67
1659101054.09954,420411.6045241,88
1659101054.09954,420411.6045274,93
1659101054.09954,420411.6045308,98
1659101054.09954,420411.6045341,98
1659101054.09954,420411.6045373,69
1659101054.09954,420411.6045408,67
1659101054.09954,420411.6045442,93
1659101054.09954,420411.6045477,79
1659101054.09954,420411.6045511,57
1659101054.09954,420411.6045554,79
1659101054.09954,420411.6045615,105
1659101054.09954,420411.6045651,122
1659101054.09954,420411.6045687,141
1659101054.09954,420411.604574,134
1659101054.09954,420411.6045775,110
1659101054.09954,420411.6045824,100
1659101054.09954,420411.604586,98
1659101054.09954,420411.604591,103
1659101054.09954,420411.6045946,117
1659101054.09954,420411.6045984,112
1659101054.09954,420411.6046021,98
1659101054.09954,420411.604607,156
1659101054.09954,420411.6046105,362
1659101054.09954,420411.6046156,657
1659101054.09954,420411.6046215,789
1659101054.09954,420411.6046249,506
1659101054.09954,420411.6046286,-7
1659101054.09954,420411.604634,-192
1659101054.09954,420411.6046377,-9
1659101054.09954,420411.6046414,72
1659101054.09954,420411.6046449,0
1659101054.09954,420411.6046502,4
1659101054.09954,420411.6046559,45
1659101054.09954,420411.6046594,36
1659101054.09954,420411.604663,38
1659101054.09954,420411.6046665,60
1659101054.09954,420411.6046701,64
1659101054.09954,420411.6046753,52
1659101054.09954,420411.6046796,48
1659101054.11151,420411.6046845,50
1659101054.11151,420411.6046899,52
1659101054.11151,420411.6046934,50
1659101054.11151,420411.6046969,52
1659101054.11151,420411.6047004,62
1659101054.11151,420411.6047039,72
1659101054.11151,420411.6047089,81
1659101054.11151,420411.6047125,91
1659101054.11151,420411.6047161,100
1659101054.11151,420412.1404407,105
1659101054.11151,420412.140462,120
1659101054.11151,420412.1404774,127
1659101054.11151,420412.1404907,134
1659101054.11151,420412.1404998,153
1659101054.11151,420412.1405063,146
1659101054.11151,420412.1405141,98
1659101054.11151,420412.1405208,72
1659101054.11151,420412.1405283,64
1659101054.11151,420412.1405392,50
1659101054.11151,420412.1405509,36
1659101054.11151,420412.1405586,16
1659101054.11151,420412.1405691,-14
1659101054.11151,420412.1405776,-26
1659101054.11151,420412.1405867,-9
1659101054.63778,420412.1405915,-2
1659101054.63778,420412.1405996,-7
1659101054.63778,420412.1406045,-9
1659101054.63778,420412.1406078,-19
1659101054.63778,420412.1406177,-24
1659101054.63778,420412.1406279,-7
1659101054.63778,420412.1406344,9
1659101054.63778,420412.1406393,16
1659101054.63778,420412.1406431,16
1659101054.63778,420412.1406467,16
1659101054.63778,420412.14065,16
1659101054.63778,420412.1406535,24
1659101054.63778,420412.1406569,28
1659101054.63778,420412.1406607,33
1659101054.63778,420412.1406641,40
1659101054.63778,420412.1406676,38
1659101054.63778,420412.1406712,31
1659101054.63778,420412.140675,36
1659101054.63778,420412.1406787,50
1659101054.63778,420412.1406841,62
1659101054.63778,420412.1406878,72
1659101054.63778,420412.1406916,64
1659101054.63778,420412.1406953,50
1659101054.63778,420412.1406989,62
1659101054.63778,420412.1407027,74
1659101054.63778,420412.1407079,76
1659101054.63778,420412.140712,79
1659101054.63778,420412.1407176,79
1659101054.63778,420412.1407214,72
1659101054.63778,420412.1407252,67
1659101054.63778,420412.140731,79
1659101054.63778,420412.140735,86
1659101054.63778,420412.1407397,88
1659101054.63778,420412.1407432,100
1659101054.63778,420412.1407467,120
1659101054.63778,420412.1407508,117
1659101054.63778,420412.1407563,100
1659101054.63778,420412.1407601,96
1659101054.63778,420412.1407636,100
1659101054.63778,420412.140769,103
1659101054.63778,420412.1407723,100
1659101054.63778,420412.140776,93
1659101054.63778,420412.1407812,81
1659101054.63778,420412.1407847,112
1659101054.63778,420412.1407883,268
1659101054.63778,420412.1407919,549
1659101054.63778,420412.1407951,785
1659101054.63778,420412.1408004,677
1659101054.63778,420412.140804,182
1659101054.63778,420412.1408098,-189
1659101054.65873,420412.1408138,-103
1659101054.65873,420412.140819,69
1659101054.65873,420412.1408225,45
1659101054.65873,420412.1408282,19
1659101054.65873,420412.1408324,60
1659101054.65873,420412.1408381,60
1659101054.65873,420412.1408411,45
1659101054.65873,420412.1408444,62
1659101054.65873,420412.6766128,76
1659101054.65873,420412.6766282,72
1659101054.65873,420412.6766333,69
1659101054.65873,420412.6766368,67
1659101054.65873,420412.67664,72
1659101054.65873,420412.6766432,79
1659101054.65873,420412.6766464,76
1659101054.65873,420412.6766497,76
1659101054.65873,420412.6766535,79
1659101054.65873,420412.676658,69
1659101054.65873,420412.6766623,67
1659101054.65873,420412.6766653,79
1659101054.65873,420412.6766693,88
1659101054.65873,420412.6766722,96
1659101054.65873,420412.6766767,98
1659101054.65873,420412.6766816,91
1659101055.21721,420412.676687,79
1659101055.21721,420412.6766976,79
1659101055.21721,420412.6767066,79
1659101055.21721,420412.6767116,69
1659101055.21721,420412.6767156,55
1659101055.21721,420412.676721,36
1659101055.21721,420412.6767249,14
1659101055.21721,420412.6767285,2
1659101055.21721,420412.6767334,-4
1659101055.21721,420412.676737,-4
1659101055.21721,420412.6767441,2
1659101055.21721,420412.6767543,7
1659101055.21721,420412.6767626,7
1659101055.21721,420412.6767676,4
1659101055.21721,420412.6767726,9
1659101055.21721,420412.6767771,24
1659101055.21721,420412.6767837,38
1659101055.21721,420412.6767883,40
1659101055.21721,420412.6767929,36
1659101055.21721,420412.6767986,36
1659101055.21721,420412.6768071,45
1659101055.21721,420412.6768176,52
1659101055.21721,420412.6768286,57
1659101055.21721,420412.6768348,64
1659101055.21721,420412.6768478,64
1659101055.21721,420412.6768564,55
1659101055.21721,420412.6768632,55
1659101055.21721,420412.676877,67
1659101055.21721,420412.6768911,74
1659101055.21721,420412.6768994,72
1659101055.21721,420412.6769079,76
1659101055.21721,420412.6769167,88
1659101055.21721,420412.6769231,86
1659101055.21721,420412.676931,79
1659101055.21721,420412.676937,84
1659101055.21721,420412.676946,91
1659101055.21721,420412.6769546,86
1659101055.21721,420412.6769632,79
1659101055.21721,420412.6769699,76
1659101055.21721,420412.6769733,84
1659101055.21721,420412.6769782,86
1659101055.21721,420412.6769843,93
1659101055.21721,420412.6769905,110
1659101055.21721,420412.676996,124
1659101055.21721,420412.6770026,127
1659101055.21721,420412.6770077,117
1659101055.21721,420412.6770204,110
1659101055.21721,420412.677031,117
1659101055.21721,420412.6770386,122
1659101055.21721,420412.6770424,112
1659101055.23017,420412.6770556,110
1659101055.23017,420412.6770748,120
1659101055.23017,420412.677139,144
1659101055.23017,420412.6771603,228
1659101055.23017,420412.6771665,446
1659101055.23017,420412.6771703,744
1659101055.23017,420412.6771738,859
1659101055.23017,420413.2617917,544
1659101055.23017,420413.2618094,19
1659101055.23017,420413.261819,-163
1659101055.23017,420413.2618276,19
1659101055.23017,420413.2618371,98
1659101055.23017,420413.2618449,21
1659101055.23017,420413.2618527,28
1659101055.23017,420413.2618641,81
1659101055.23017,420413.2618793,72
1659101055.23017,420413.2618906,38
1659101055.23017,420413.2618999,36
1659101055.23017,420413.2619084,52
1659101055.23017,420413.2619129,62
1659101055.23017,420413.2619226,48
1659101055.23017,420413.2619286,48
1659101055.23017,420413.2619314,62
1659101055.23017,420413.2619399,69
1659101055.8043,420413.26195,64
1659101055.8043,420413.2619594,60
1659101055.8043,420413.2619633,64
1659101055.8043,420413.2619662,76
1659101055.8043,420413.2619746,74
1659101055.8043,420413.2619805,60
1659101055.8043,420413.2619847,74
1659101055.8043,420413.261989,100
1659101055.8043,420413.2619931,100
1659101055.8043,420413.261997,96
1659101055.8043,420413.2620005,88
1659101055.8043,420413.2620042,74
1659101055.8043,420413.2620077,79
1659101055.8043,420413.2620112,79
1659101055.8043,420413.262015,50
1659101055.8043,420413.262019,26
1659101055.8043,420413.262025,14
1659101055.8043,420413.2620301,-9
1659101055.8043,420413.262036,-21
1659101055.8043,420413.2620401,-7
1659101055.8043,420413.2620458,0
1659101055.8043,420413.262051,0
1659101055.8043,420413.2620571,7
1659101055.8043,420413.2620615,7
1659101055.8043,420413.2620675,2
1659101055.8043,420413.2620714,9
1659101055.8043,420413.2620759,19
1659101055.8043,420413.2620787,12
1659101055.8043,420413.2620817,4
1659101055.8043,420413.2620846,9
1659101055.8043,420413.2620875,24
1659101055.8043,420413.2620905,28
1659101055.8043,420413.2620934,16
1659101055.8043,420413.2620964,14
1659101055.8043,420413.2620993,31
1659101055.8043,420413.2621022,40
1659101055.8043,420413.2621051,38
1659101055.8043,420413.262108,52
1659101055.8043,420413.262111,74
1659101055.8043,420413.2621139,74
1659101055.8043,420413.262117,57
1659101055.8043,420413.2621199,48
1659101055.8043,420413.2621228,52
1659101055.8043,420413.2621258,64
1659101055.8043,420413.2621286,76
1659101055.8043,420413.2621315,86
1659101055.8043,420413.2621344,86
1659101055.8043,420413.2621374,79
1659101055.8043,420413.2621403,84
1659101055.8043,420413.2621432,105
1659101055.81627,420413.2621461,132
1659101055.81627,420413.2621491,146
1659101055.81627,420413.262156,127
1659101055.81627,420413.2621672,98
1659101055.81627,420413.2621779,108
1659101055.81627,420413.2621865,127
1659101055.81627,420413.8467455,132
1659101055.81627,420413.8467615,139
1659101055.81627,420413.8467697,134
1659101055.81627,420413.846775,120
1659101055.81627,420413.8467804,146
1659101055.81627,420413.846787,292
1659101055.81627,420413.8467989,592
1659101055.81627,420413.8468058,900
1659101055.81627,420413.8468119,837
1659101055.81627,420413.8468214,283
1659101055.81627,420413.8468286,-163
1659101055.81627,420413.8468309,-72
1659101055.81627,420413.846833,103
1659101055.81627,420413.846835,48
1659101055.81627,420413.8468414,0
1659101055.81627,420413.8468525,31
1659101055.81627,420413.8468574,21
1659101055.81627,420413.8468596,12
1659101056.38872,420413.8468618,33
1659101056.38872,420413.8468639,26
1659101056.38872,420413.846866,12
1659101056.38872,420413.846874,31
1659101056.38872,420413.8468829,43
1659101056.38872,420413.8468856,33
1659101056.38872,420413.8468876,28
1659101056.38872,420413.8468898,36
1659101056.38872,420413.8468971,40
1659101056.38872,420413.8469069,48
1659101056.38872,420413.8469171,57
1659101056.38872,420413.8469278,69
1659101056.38872,420413.8469359,86
1659101056.38872,420413.8469384,98
1659101056.38872,420413.8469406,105
1659101056.38872,420413.8469426,112
1659101056.38872,420413.8469446,124
1659101056.38872,420413.8469467,134
1659101056.38872,420413.8469487,124
1659101056.38872,420413.8469508,110
1659101056.38872,420413.8469528,103
1659101056.38872,420413.8469549,88
1659101056.38872,420413.8469569,67
1659101056.38872,420413.8469589,55
1659101056.38872,420413.846961,45
1659101056.38872,420413.8469631,43
1659101056.38872,420413.8469651,60
1659101056.38872,420413.8469671,64
1659101056.38872,420413.8469692,57
1659101056.38872,420413.8469712,79
1659101056.38872,420413.8469732,84
1659101056.38872,420413.8469753,24
1659101056.38872,420413.8469773,-12
1659101056.38872,420413.8469794,9
1659101056.38872,420413.8469814,16
1659101056.38872,420413.8469834,2
1659101056.38872,420413.8469855,-19
1659101056.38872,420413.8469876,-28
1659101056.38872,420413.8469897,-28
1659101056.38872,420413.8469918,-31
1659101056.38872,420413.8469938,-40
1659101056.38872,420413.8469958,-38
1659101056.38872,420413.8469979,-24
1659101056.38872,420413.8469999,-19
1659101056.38872,420413.847002,-38
1659101056.38872,420413.847004,-40
1659101056.38872,420413.847006,-21
1659101056.38872,420413.847008,-16
1659101056.38872,420413.84701,-16
1659101056.38872,420413.8470127,-2
1659101056.40069,420413.8470148,16
1659101056.40069,420413.8470168,16
1659101056.40069,420413.8470188,21
1659101056.40069,420413.8470208,36
1659101056.40069,420413.8470229,45
1659101056.40069,420414.4316238,52
1659101056.40069,420414.4316431,64
1659101056.40069,420414.4316522,79
1659101056.40069,420414.4316573,91
1659101056.40069,420414.4316635,88
1659101056.40069,420414.4316674,79
1659101056.40069,420414.4316737,69
1659101056.40069,420414.4316777,67
1659101056.40069,420414.4316819,72
1659101056.40069,420414.4316881,64
1659101056.40069,420414.4316925,52
1659101056.40069,420414.4316967,64
1659101056.40069,420414.4317022,129
1659101056.40069,420414.431706,331
1659101056.40069,420414.43171,645
1659101056.40069,420414.4317158,804
1659101056.40069,420414.4317196,518
1659101056.40069,420414.4317234,-24
1659101056.40069,420414.4317274,-225
1659101056.92319,420414.4317332,-50
1659101056.92319,420414.4317373,24
1659101056.92319,420414.431741,-33
1659101056.92319,420414.4317449,-14
1659101056.92319,420414.431749,31
1659101056.92319,420414.431753,26
1659101056.92319,420414.4317571,14
1659101056.92319,420414.4317609,28
1659101056.92319,420414.4317648,40
1659101056.92319,420414.4317689,26
1659101056.92319,420414.4317727,16
1659101056.92319,420414.4317764,33
1659101056.92319,420414.4317799,45
1659101056.92319,420414.4317838,33
1659101056.92319,420414.4317878,36
1659101056.92319,420414.4317917,64
1659101056.92319,420414.4317956,69
1659101056.92319,420414.4317993,64
1659101056.92319,420414.4318028,76
1659101056.92319,420414.431807,81
1659101056.92319,420414.4318109,84
1659101056.92319,420414.4318147,84
1659101056.92319,420414.4318186,81
1659101056.92319,420414.4318227,98
1659101056.92319,420414.4318288,112
1659101056.92319,420414.4318328,98
1659101056.92319,420414.4318367,84
1659101056.92319,420414.4318407,76
1659101056.92319,420414.4318467,60
1659101056.92319,420414.4318509,43
1659101056.92319,420414.4318563,40
1659101056.92319,420414.43186,40
1659101056.92319,420414.4318657,19
1659101056.92319,420414.4318697,2
1659101056.92319,420414.4318753,19
1659101056.92319,420414.4318806,36
1659101056.92319,420414.4318865,36
1659101056.92319,420414.4318908,48
1659101056.92319,420414.4318969,38
1659101056.92319,420414.431902,19
1659101056.92319,420414.4319077,40
1659101056.92319,420414.4319116,60
1659101056.92319,420414.4319168,36
1659101056.92319,420414.4319204,28
1659101056.92319,420414.4319258,43
1659101056.92319,420414.4319293,38
1659101056.92319,420414.431934,33
1659101056.92319,420414.4319395,43
1659101056.92319,420414.4319432,48
1659101056.92319,420414.4319467,48
1659101056.93615,420414.4319501,45
1659101056.93615,420414.4319545,38
1659101056.93615,420414.4319585,31
1659101056.93615,420414.4319643,36
1659101056.93615,420414.9676316,40
1659101056.93615,420414.9676489,38
1659101056.93615,420414.9676662,33
1659101056.93615,420414.9676807,38
1659101056.93615,420414.9676955,52
1659101056.93615,420414.9677087,62
1659101056.93615,420414.967722,57
1659101056.93615,420414.9677353,50
1659101056.93615,420414.9677438,40
1659101056.93615,420414.9677464,40
1659101056.93615,420414.9677541,67
1659101056.93615,420414.9677647,79
1659101056.93615,420414.967769,55
1659101056.93615,420414.9677712,45
1659101056.93615,420414.9677733,50
1659101056.93615,420414.9677754,38
1659101056.93615,420414.9677825,31
1659101056.93615,420414.9677935,45
1659101056.93615,420414.9677983,45
1659101056.93615,420414.9678004,45
1659101057.50426,420414.9678026,144
1659101057.50426,420414.9678046,391
1659101057.50426,420414.9678065,703
1659101057.50426,420414.9678084,816
1659101057.50426,420414.9678159,456
1659101057.50426,420414.9678274,-74
1659101057.50426,420414.9678334,-175
1659101057.50426,420414.9678373,21
1659101057.50426,420414.9678429,40
1659101057.50426,420414.9678477,-26
1659101057.50426,420414.9678535,7
1659101057.50426,420414.9678638,19
1659101057.50426,420414.9678775,-9
1659101057.50426,420414.9678833,7
1659101057.50426,420414.9678857,28
1659101057.50426,420414.9678878,21
1659101057.50426,420414.9678931,26
1659101057.50426,420414.9679044,48
1659101057.50426,420414.9679079,55
1659101057.50426,420414.9679108,57
1659101057.50426,420414.9679198,60
1659101057.50426,420414.9679315,62
1659101057.50426,420414.9679404,67
1659101057.50426,420414.967944,76
1659101057.50426,420414.9679564,88
1659101057.50426,420414.9679713,103
1659101057.50426,420414.9679848,112
1659101057.50426,420414.967998,122
1659101057.50426,420414.9680112,132
1659101057.50426,420414.9680244,141
1659101057.50426,420414.9680375,156
1659101057.50426,420414.968046,160
1659101057.50426,420414.9680494,158
1659101057.50426,420414.9680622,156
1659101057.50426,420414.968068,139
1659101057.50426,420414.9680702,105
1659101057.50426,420414.9680722,86
1659101057.50426,420414.9680743,76
1659101057.50426,420414.9680763,43
1659101057.50426,420414.9680784,4
1659101057.50426,420414.9680804,7
1659101057.50426,420414.9680824,31
1659101057.50426,420414.9680844,26
1659101057.50426,420414.9680864,16
1659101057.50426,420414.9680885,31
1659101057.50426,420414.9680976,50
1659101057.50426,420414.9680996,52
1659101057.50426,420414.9681015,57
1659101057.50426,420414.9681036,69
1659101057.50426,420414.9681056,74
1659101057.51722,420414.9681077,67
1659101057.51722,420414.9681099,67
1659101057.51722,420414.9681119,76
1659101057.51722,420415.5527104,72
1659101057.51722,420415.552732,52
1659101057.51722,420415.5527474,52
1659101057.51722,420415.5527602,57
1659101057.51722,420415.5527749,55
1659101057.51722,420415.5527874,52
1659101057.51722,420415.5527934,43
1659101057.51722,420415.5527985,33
1659101057.51722,420415.5528087,38
1659101057.51722,420415.5528214,48
1659101057.51722,420415.5528312,52
1659101057.51722,420415.5528385,50
1659101057.51722,420415.5528446,38
1659101057.51722,420415.5528483,31
1659101057.51722,420415.5528555,26
1659101057.51722,420415.5528615,28
1659101057.51722,420415.5528734,40
1659101057.51722,420415.5528891,45
1659101057.51722,420415.5529035,26
1659101057.51722,420415.5529167,16
1659101057.51722,420415.5529247,31
1659101058.00101,420415.5529296,36
1659101058.00101,420415.552934,36
1659101058.00101,420415.5529383,52
1659101058.00101,420415.5529431,67
1659101058.00101,420415.5529474,60
1659101058.00101,420415.5529523,50
1659101058.00101,420415.5529577,50
1659101058.00101,420415.5529634,52
1659101058.00101,420415.5529706,57
1659101058.00101,420415.5529746,60
1659101058.00101,420415.552981,55
1659101058.00101,420415.5529938,48
1659101058.00101,420415.5530069,86
1659101058.00101,420415.5530186,266
1659101058.00101,420415.5530318,580
1659101058.00101,420415.5530452,818
1659101058.00101,420415.5530583,660
1659101058.00101,420415.5530718,129
1659101058.00101,420415.5530851,-189
1659101058.00101,420415.5530979,-57
1659101058.00101,420415.5531078,69
1659101058.00101,420415.5531189,19
1659101058.00101,420415.5531301,4
1659101058.00101,420415.5531388,38
1659101058.00101,420415.5531451,36
1659101058.00101,420415.553159,40
1659101058.00101,420415.5531685,55
1659101058.00101,420415.5531772,52
1659101058.00101,420415.5531862,52
1659101058.00101,420415.5531994,67
1659101058.00101,420415.5532128,74
1659101058.00101,420415.553226,79
1659101058.00101,420415.5532392,88
1659101058.00101,420415.5532523,86
1659101058.00101,420415.5532654,91
1659101058.00101,420415.5532787,100
1659101058.00101,420415.5532918,103
1659101058.00101,420415.5533049,115
1659101058.00101,420415.5533181,134
1659101058.00101,420415.5533336,144
1659101058.00101,420415.5533494,153
1659101058.00101,420415.5533588,160
1659101058.00101,420415.5533615,158
1659101058.00101,420415.5533637,165
1659101058.00101,420415.5533658,177
1659101058.00101,420415.5533679,170
1659101058.00101,420415.5533699,153
1659101058.00101,420415.5533719,139
1659101058.00101,420415.5533739,120
1659101058.00101,420415.553376,103
1659101058.01198,420415.5533781,84
1659101058.01198,420415.5533801,64
1659101058.01198,420416.0406899,64
1659101058.01198,420416.0407082,64
1659101058.01198,420416.040718,57
1659101058.01198,420416.0407234,55
1659101058.01198,420416.0407301,62
1659101058.01198,420416.040735,69
1659101058.01198,420416.0407416,74
1659101058.01198,420416.0407469,76
1659101058.01198,420416.0407545,62
1659101058.01198,420416.0407602,40
1659101058.01198,420416.0407656,36
1659101058.01198,420416.0407717,40
1659101058.01198,420416.0407776,45
1659101058.01198,420416.0407852,48
1659101058.01198,420416.0407958,50
1659101058.01198,420416.0408006,55
1659101058.01198,420416.040803,67
1659101058.01198,420416.0408068,64
1659101058.01198,420416.0408331,57
1659101058.01198,420416.0408451,64
1659101058.01198,420416.040852,64
1659101058.01198,420416.040859,38
1659101058.59262,420416.0408638,16
1659101058.59262,420416.0408684,28
1659101058.59262,420416.0408728,45
1659101058.59262,420416.0408773,50
1659101058.59262,420416.0408815,50
1659101058.59262,420416.0408862,55
1659101058.59262,420416.0408911,55
1659101058.59262,420416.0408972,36
1659101058.59262,420416.0409018,26
1659101058.59262,420416.0409084,55
1659101058.59262,420416.0409132,88
1659101058.59262,420416.0409188,81
1659101058.59262,420416.0409229,55
1659101058.59262,420416.0409271,52
1659101058.59262,420416.0409323,76
1659101058.59262,420416.0409363,98
1659101058.59262,420416.0409419,81
1659101058.59262,420416.0409459,38
1659101058.59262,420416.0409512,48
1659101058.59262,420416.0409551,81
1659101058.59262,420416.0409617,84
1659101058.59262,420416.0409658,117
1659101058.59262,420416.0409713,240
1659101058.59262,420416.0409752,451
1659101058.59262,420416.0409807,698
1659101058.59262,420416.0409854,758
1659101058.59262,420416.0409907,400
1659101058.59262,420416.0409942,-86
1659101058.59262,420416.0409996,-170
1659101058.59262,420416.0410032,40
1659101058.59262,420416.0410081,84
1659101058.59262,420416.0410116,4
1659101058.59262,420416.0410151,33
1659101058.59262,420416.0410202,60
1659101058.59262,420416.0410234,45
1659101058.59262,420416.0410268,72
1659101058.59262,420416.0410324,93
1659101058.59262,420416.041037,91
1659101058.59262,420416.041041,88
1659101058.59262,420416.0410484,72
1659101058.59262,420416.0410523,72
1659101058.59262,420416.041056,98
1659101058.59262,420416.04106,108
1659101058.59262,420416.0410652,115
1659101058.59262,420416.0410695,127
1659101058.59262,420416.0410729,127
1659101058.59262,420416.0410764,122
1659101058.59262,420416.0410814,122
1659101058.59262,420416.0410849,124
1659101058.59262,420416.0410899,129
1659101058.60259,420416.0410933,139
1659101058.60259,420416.6278599,141
1659101058.60259,420416.627878,136
1659101058.60259,420416.6278856,141
1659101058.60259,420416.6278925,151
1659101058.60259,420416.6278996,124
1659101058.60259,420416.6279092,62
1659101058.60259,420416.6279209,21
1659101058.60259,420416.6279302,19
1659101058.60259,420416.627934,12
1659101058.60259,420416.6279422,-7
1659101058.60259,420416.6279478,-16
1659101058.60259,420416.6279542,-31
1659101058.60259,420416.6279587,-43
1659101058.60259,420416.6279631,-43
1659101058.60259,420416.6279675,-43
1659101058.60259,420416.6279742,-36
1659101058.60259,420416.6279786,-26
1659101058.60259,420416.6279834,-26
1659101058.60259,420416.6279881,-21
1659101058.60259,420416.6279951,-7
1659101058.60259,420416.6279998,0
1659101058.60259,420416.6280065,0
1659101058.60259,420416.6280118,2
1659101059.21956,420416.6280167,7
1659101059.21956,420416.6280212,4
1659101059.21956,420416.6280257,12
1659101059.21956,420416.6280303,26
1659101059.21956,420416.628035,24
1659101059.21956,420416.6280394,16
1659101059.21956,420416.6280437,21
1659101059.21956,420416.6280478,26
1659101059.21956,420416.6280519,31
1659101059.21956,420416.6280557,31
1659101059.21956,420416.6280598,26
1659101059.21956,420416.6280639,31
1659101059.21956,420416.6280679,14
1659101059.21956,420416.628072,-12
1659101059.21956,420416.6280762,9
1659101059.21956,420416.6280804,19
1659101059.21956,420416.628087,-14
1659101059.21956,420416.6280914,0
1659101059.21956,420416.6280975,38
1659101059.21956,420416.6281016,38
1659101059.21956,420416.6281085,40
1659101059.21956,420416.628113,60
1659101059.21956,420416.6281195,62
1659101059.21956,420416.6281237,67
1659101059.21956,420416.6281301,57
1659101059.21956,420416.6281362,43
1659101059.21956,420416.6281403,62
1659101059.21956,420416.6281464,81
1659101059.21956,420416.6281518,64
1659101059.21956,420416.6281563,50
1659101059.21956,420416.6281631,64
1659101059.21956,420416.6281674,151
1659101059.21956,420416.6281736,436
1659101059.21956,420416.6281776,830
1659101059.21956,420416.6281815,888
1659101059.21956,420416.6281855,386
1659101059.21956,420416.6281896,-163
1659101059.21956,420416.6281953,-194
1659101059.21956,420416.6281995,-7
1659101059.21956,420416.6282056,-12
1659101059.21956,420416.6282097,-62
1659101059.21956,420416.6282138,-38
1659101059.21956,420416.6282189,-33
1659101059.21956,420416.6282251,-50
1659101059.21956,420416.6282295,-36
1659101059.21956,420416.6282376,-21
1659101059.21956,420416.6282432,-31
1659101059.21956,420416.6282492,-28
1659101059.21956,420416.6282536,14
1659101059.21956,420416.6282577,38
1659101059.23053,420417.259555,19
1659101059.23053,420417.2595755,31
1659101059.23053,420417.2595855,57
1659101059.23053,420417.2595944,57
1659101059.23053,420417.2596029,76
1659101059.23053,420417.2596111,105
1659101059.23053,420417.2596194,96
1659101059.23053,420417.2596261,91
1659101059.23053,420417.2596325,112
1659101059.23053,420417.2596404,129
1659101059.23053,420417.2596471,134
1659101059.23053,420417.2596536,148
1659101059.23053,420417.2596623,168
1659101059.23053,420417.2596707,172
1659101059.23053,420417.2596792,144
1659101059.23053,420417.259688,98
1659101059.23053,420417.2596961,62
1659101059.23053,420417.2597041,48
1659101059.23053,420417.2597119,64
1659101059.23053,420417.2597175,57
1659101059.23053,420417.2597255,74
1659101059.23053,420417.2597319,112
1659101059.23053,420417.2597416,36
1659101059.23053,420417.2597712,-50
1659101059.75226,420417.2597836,0
1659101059.75226,420417.2597911,67
1659101059.75226,420417.2597953,48
1659101059.75226,420417.2597994,-12
1659101059.75226,420417.2598038,-14
1659101059.75226,420417.2598076,28
1659101059.75226,420417.2598117,-7
1659101059.75226,420417.2598158,-40
1659101059.75226,420417.2598201,12
1659101059.75226,420417.2598243,45
1659101059.75226,420417.2598285,48
1659101059.75226,420417.2598327,-2
1659101059.75226,420417.2598382,-60
1659101059.75226,420417.2598447,12
1659101059.75226,420417.2598501,64
1659101059.75226,420417.2598563,9
1659101059.75226,420417.2598609,16
1659101059.75226,420417.2598654,69
1659101059.75226,420417.2598699,67
1659101059.75226,420417.2598745,62
1659101059.75226,420417.2598788,81
1659101059.75226,420417.2598839,81
1659101059.75226,420417.2598924,74
1659101059.75226,420417.2599037,81
1659101059.75226,420417.2599167,81
1659101059.75226,420417.2599231,69
1659101059.75226,420417.2599261,84
1659101059.75226,420417.2599282,98
1659101059.75226,420417.2599303,67
1659101059.75226,420417.2599328,40
1659101059.75226,420417.2599422,57
1659101059.75226,420417.2599515,81
1659101059.75226,420417.2599539,96
1659101059.75226,420417.2599559,69
1659101059.75226,420417.2599583,0
1659101059.75226,420417.2599662,-16
1659101059.75226,420417.2599803,9
1659101059.75226,420417.2599918,4
1659101059.75226,420417.2600004,12
1659101059.75226,420417.2600075,28
1659101059.75226,420417.2600156,28
1659101059.75226,420417.2600235,103
1659101059.75226,420417.2600318,343
1659101059.75226,420417.2600403,684
1659101059.75226,420417.2600473,763
1659101059.75226,420417.2600544,288
1659101059.75226,420417.2600616,-259
1659101059.75226,420417.2600689,-244
1659101059.75226,420417.2600759,-2
1659101059.75226,420417.7960744,16
1659101059.76323,420417.7960929,19
1659101059.76323,420417.7960982,52
1659101059.76323,420417.7961095,31
1659101059.76323,420417.7961202,57
1659101059.76323,420417.7961298,67
1659101059.76323,420417.7961376,31
1659101059.76323,420417.7961457,48
1659101059.76323,420417.7961573,69
1659101059.76323,420417.796169,62
1659101059.76323,420417.7961777,84
1659101059.76323,420417.7961862,117
1659101059.76323,420417.7961994,115
1659101059.76323,420417.7962094,76
1659101059.76323,420417.7962168,88
1659101059.76323,420417.7962298,127
1659101059.76323,420417.7962408,105
1659101059.76323,420417.7962483,88
1659101059.76323,420417.7962617,117
1659101059.76323,420417.7962725,112
1659101059.76323,420417.7962799,98
1659101059.76323,420417.7962885,112
1659101059.76323,420417.796291,136
1659101059.76323,420417.7962931,139
1659101059.76323,420417.7962952,115
1659101060.33496,420417.7962972,105
1659101060.33496,420417.7962995,91
1659101060.33496,420417.7963055,57
1659101060.33496,420417.7963148,40
1659101060.33496,420417.796324,24
1659101060.33496,420417.7963284,9
1659101060.33496,420417.7963359,19
1659101060.33496,420417.7963481,19
1659101060.33496,420417.7963559,9
1659101060.33496,420417.7963594,16
1659101060.33496,420417.7963666,0
1659101060.33496,420417.79638,-4
1659101060.33496,420417.7963923,33
1659101060.33496,420417.7964016,26
1659101060.33496,420417.7964079,-28
1659101060.33496,420417.7964168,-19
1659101060.33496,420417.7964224,24
1659101060.33496,420417.7964286,60
1659101060.33496,420417.7964329,112
1659101060.33496,420417.7964411,105
1659101060.33496,420417.7964619,57
1659101060.33496,420417.7964768,96
1659101060.33496,420417.7964839,136
1659101060.33496,420417.7964947,74
1659101060.33496,420417.7965009,57
1659101060.33496,420417.7965053,76
1659101060.33496,420417.7965075,16
1659101060.33496,420417.7965164,-12
1659101060.33496,420417.796526,48
1659101060.33496,420417.7965305,84
1659101060.33496,420417.7965401,50
1659101060.33496,420417.7965474,16
1659101060.33496,420417.7965557,45
1659101060.33496,420417.7965614,105
1659101060.33496,420417.7965646,86
1659101060.33496,420417.7965677,21
1659101060.33496,420417.7965708,38
1659101060.33496,420417.7965765,88
1659101060.33496,420417.7965802,84
1659101060.33496,420417.7965865,69
1659101060.33496,420417.7965901,88
1659101060.33496,420417.7965934,115
1659101060.33496,420417.7965985,84
1659101060.33496,420417.7966021,48
1659101060.33496,420417.7966054,86
1659101060.33496,420417.7966086,108
1659101060.33496,420417.7966135,52
1659101060.33496,420417.7966186,43
1659101060.33496,420418.3809306,84
1659101060.33496,420418.3809517,57
1659101060.34593,420418.3809668,24
1659101060.34593,420418.3809815,100
1659101060.34593,420418.3809961,297
1659101060.34593,420418.3810054,576
1659101060.34593,420418.38102,787
1659101060.34593,420418.3810342,614
1659101060.34593,420418.3810478,86
1659101060.34593,420418.3810616,-204
1659101060.34593,420418.3810699,-64
1659101060.34593,420418.3810727,50
1659101060.34593,420418.3810748,7
1659101060.34593,420418.3810769,12
1659101060.34593,420418.3810802,43
1659101060.34593,420418.3810944,-2
1659101060.34593,420418.3811081,-31
1659101060.34593,420418.3811213,-4
1659101060.34593,420418.3811312,16
1659101060.34593,420418.3811404,14
1659101060.34593,420418.3811479,19
1659101060.34593,420418.3811609,16
1659101060.34593,420418.3811716,-2
1659101060.34593,420418.3811801,-7
1659101060.34593,420418.3811916,4
1659101060.34593,420418.3812009,21
1659101060.82466,420418.381214,26
1659101060.82466,420418.3812209,24
1659101060.82466,420418.3812327,40
1659101060.82466,420418.3812448,69
1659101060.82466,420418.3812563,74
1659101060.82466,420418.3812626,67
1659101060.82466,420418.3812674,72
1659101060.82466,420418.3812718,96
1659101060.82466,420418.3812764,108
1659101060.82466,420418.381281,93
1659101060.82466,420418.3812855,76
1659101060.82466,420418.38129,67
1659101060.82466,420418.3812946,52
1659101060.82466,420418.3813011,33
1659101060.82466,420418.3813064,24
1659101060.82466,420418.3813114,16
1659101060.82466,420418.3813165,2
1659101060.82466,420418.3813215,-14
1659101060.82466,420418.3813272,-28
1659101060.82466,420418.3813331,-24
1659101060.82466,420418.3813397,0
1659101060.82466,420418.3813467,16
1659101060.82466,420418.381354,9
1659101060.82466,420418.3813604,0
1659101060.82466,420418.3813656,9
1659101060.82466,420418.3813705,31
1659101060.82466,420418.3813755,31
1659101060.82466,420418.3813806,28
1659101060.82466,420418.3813864,31
1659101060.82466,420418.3813929,26
1659101060.82466,420418.3813987,16
1659101060.82466,420418.3814041,21
1659101060.82466,420418.3814104,24
1659101060.82466,420418.3814156,12
1659101060.82466,420418.3814209,7
1659101060.82466,420418.3814264,12
1659101060.82466,420418.3814318,4
1659101060.82466,420418.3814391,-2
1659101060.82466,420418.3814439,4
1659101060.82466,420418.38145,7
1659101060.82466,420418.3814543,4
1659101060.82466,420418.3814587,0
1659101060.82466,420418.3814632,-4
1659101060.82466,420418.381469,-4
1659101060.82466,420418.3814743,16
1659101060.82466,420418.3814802,33
1659101060.82466,420418.3814854,26
1659101060.82466,420418.868286,14
1659101060.82466,420418.8683058,21
1659101060.82466,420418.8683126,26
1659101060.83763,420418.8683182,26
1659101060.83763,420418.8683218,48
1659101060.83763,420418.8683251,81
1659101060.83763,420418.8683289,93
1659101060.83763,420418.8683321,84
1659101060.83763,420418.8683354,69
1659101060.83763,420418.8683387,69
1659101060.83763,420418.8683418,79
1659101060.83763,420418.8683451,69
1659101060.83763,420418.8683484,45
1659101060.83763,420418.8683516,43
1659101060.83763,420418.8683548,69
1659101060.83763,420418.8683581,151
1659101060.83763,420418.8683614,379
1659101060.83763,420418.8683647,715
1659101060.83763,420418.8683683,888
1659101060.83763,420418.8683718,595
1659101060.83763,420418.8683783,19
1659101060.83763,420418.8683825,-206
1659101060.83763,420418.8683871,-16
1659101060.83763,420418.8683904,84
1659101060.83763,420418.8683957,14
1659101060.83763,420418.8684002,4
1659101060.83763,420418.8684049,36
1659101061.35704,420418.8684081,36
1659101061.35704,420418.8684111,36

1659101061.35704,420418.868414,52
1659101061.35704,420418.8684212,57
1659101061.35704,420418.8684268,57
1659101061.35704,420418.8684299,74
1659101061.35704,420418.8684332,86
1659101061.35704,420418.8684369,79
1659101061.35704,420418.8684403,76
1659101061.35704,420418.8684443,86
1659101061.35704,420418.8684475,91
1659101061.35704,420418.8684507,91
1659101061.35704,420418.8684541,103
1659101061.35704,420418.8684575,122
1659101061.35704,420418.8684609,139
1659101061.35704,420418.8684644,148
1659101061.35704,420418.8684679,144
1659101061.35704,420418.8684713,136
1659101061.35704,420418.8684747,141
1659101061.35704,420418.8684782,148
1659101061.35704,420418.8684817,151
1659101061.35704,420418.8684852,144
1659101061.35704,420418.8684886,122
1659101061.35704,420418.868492,103
1659101061.35704,420418.8684954,91
1659101061.35704,420418.8684988,62
1659101061.35704,420418.8685052,36
1659101061.35704,420418.8685121,36
1659101061.35704,420418.8685183,36
1659101061.35704,420418.8685252,33
1659101061.35704,420418.8685348,38
1659101061.35704,420418.8685416,48
1659101061.35704,420418.8685498,50
1659101061.35704,420418.8685578,50
1659101061.35704,420418.8685664,57
1659101061.35704,420418.8685748,69
1659101061.35704,420418.8685815,72
1659101061.35704,420418.8685901,69
1659101061.35704,420418.8685967,69
1659101061.35704,420418.8686128,72
1659101061.35704,420418.8686186,74
1659101061.35704,420418.8686232,72
1659101061.35704,420418.8686293,79
1659101061.35704,420418.8686371,91
1659101061.35704,420418.8686448,88
1659101061.35704,420418.868651,74
1659101061.35704,420419.4040533,72
1659101061.35704,420419.4040662,79
1659101061.35704,420419.4040688,81
1659101061.35704,420419.404071,74
1659101061.37661,420419.4040731,60
1659101061.37661,420419.4040753,52
1659101061.37661,420419.4040774,64
1659101061.37661,420419.4040795,79
1659101061.37661,420419.4040815,57
1659101061.37661,420419.4040838,28
1659101061.37661,420419.4040858,40
1659101061.37661,420419.4040879,74
1659101061.37661,420419.4040898,88
1659101061.37661,420419.4040918,79
1659101061.37661,420419.4040938,57
1659101061.37661,420419.4040961,26
1659101061.37661,420419.4041016,19
1659101061.37661,420419.4041125,36
1659101061.37661,420419.4041186,50
1659101061.37661,420419.4041251,60
1659101061.37661,420419.4041373,84
1659101061.37661,420419.4041458,189
1659101061.37661,420419.4041518,472
1659101061.37661,420419.4041559,823
1659101061.37661,420419.4041597,854
1659101061.37661,420419.4041637,372
1659101061.37661,420419.4041675,-148
1659101061.37661,420419.404173,-172
1659101061.94451,420419.404177,31
1659101061.94451,420419.4041808,28
1659101061.94451,420419.4041842,-36
1659101061.94451,420419.4041878,-7
1659101061.94451,420419.4041914,7
1659101061.94451,420419.404195,-4
1659101061.94451,420419.4041988,9
1659101061.94451,420419.4042028,21
1659101061.94451,420419.4042066,19
1659101061.94451,420419.4042104,28
1659101061.94451,420419.404214,40
1659101061.94451,420419.4042176,45
1659101061.94451,420419.4042213,48
1659101061.94451,420419.4042246,52
1659101061.94451,420419.4042279,57
1659101061.94451,420419.4042315,67
1659101061.94451,420419.4042351,79
1659101061.94451,420419.4042405,88
1659101061.94451,420419.4042441,93
1659101061.94451,420419.404249,100
1659101061.94451,420419.4042543,112
1659101061.94451,420419.4042586,127
1659101061.94451,420419.4042623,136
1659101061.94451,420419.4042659,139
1659101061.94451,420419.4042696,136
1659101061.94451,420419.4042749,127
1659101061.94451,420419.4042785,112
1659101061.94451,420419.4042837,79
1659101061.94451,420419.4042873,50
1659101061.94451,420419.4042909,45
1659101061.94451,420419.4042945,48
1659101061.94451,420419.4042982,40
1659101061.94451,420419.4043033,26
1659101061.94451,420419.4043076,-2
1659101061.94451,420419.4043168,-12
1659101061.94451,420419.4043209,14
1659101061.94451,420419.4043244,28
1659101061.94451,420419.4043299,24
1659101061.94451,420419.4043337,31
1659101061.94451,420419.4043562,48
1659101061.94451,420419.4043699,57
1659101061.94451,420419.404379,60
1659101061.94451,420419.4043835,52
1659101061.94451,420419.4043888,48
1659101061.94451,420419.4044039,57
1659101061.94451,420419.9891514,69
1659101061.94451,420419.9891708,69
1659101061.94451,420419.9891758,69
1659101061.94451,420419.9891813,76
1659101061.94451,420419.9891893,74
1659101061.95548,420419.989198,55
1659101061.95548,420419.9892076,38
1659101061.95548,420419.9892206,43
1659101061.95548,420419.9892295,45
1659101061.95548,420419.9892359,45
1659101061.95548,420419.989246,43
1659101061.95548,420419.9892529,21
1659101061.95548,420419.9892613,0
1659101061.95548,420419.9892688,4
1659101061.95548,420419.9892766,16
1659101061.95548,420419.989283,19
1659101061.95548,420419.9892906,21
1659101061.95548,420419.9892965,26
1659101061.95548,420419.9893075,21
1659101061.95548,420419.9893134,7
1659101061.95548,420419.9893155,2
1659101061.95548,420419.9893175,14
1659101061.95548,420419.9893196,19
1659101061.95548,420419.9893217,9
1659101061.95548,420419.9893239,2
1659101061.95548,420419.989326,31
1659101061.95548,420419.989328,175
1659101061.95548,420419.9893301,460
1659101061.95548,420419.9893321,756
1659101062.5323,420419.9893341,739
1659101062.5323,420419.989336,261
1659101062.5323,420419.9893381,-208
1659101062.5323,420419.98934,-182
1659101062.5323,420419.9893419,9
1659101062.5323,420419.9893438,-12
1659101062.5323,420419.9893457,-55
1659101062.5323,420419.9893477,0
1659101062.5323,420419.9893496,19
1659101062.5323,420419.9893518,-2
1659101062.5323,420419.9893546,2
1659101062.5323,420419.9893566,28
1659101062.5323,420419.9893585,43
1659101062.5323,420419.9893604,48
1659101062.5323,420419.9893623,57
1659101062.5323,420419.9893655,64
1659101062.5323,420419.9893774,67
1659101062.5323,420419.9893857,79
1659101062.5323,420419.9893956,88
1659101062.5323,420419.9894078,88
1659101062.5323,420419.9894203,93
1659101062.5323,420419.9894259,108
1659101062.5323,420419.9894281,120
1659101062.5323,420419.9894303,129
1659101062.5323,420419.9894325,144
1659101062.5323,420419.9894347,160
1659101062.5323,420419.9894367,170
1659101062.5323,420419.9894393,175
1659101062.5323,420419.9894414,175
1659101062.5323,420419.9894434,172
1659101062.5323,420419.9894455,163
1659101062.5323,420419.9894476,139
1659101062.5323,420419.9894496,115
1659101062.5323,420419.9894516,100
1659101062.5323,420419.9894537,88
1659101062.5323,420419.9894558,69
1659101062.5323,420419.9894578,55
1659101062.5323,420419.9894598,60
1659101062.5323,420419.9894618,72
1659101062.5323,420419.9894638,74
1659101062.5323,420419.9894659,64
1659101062.5323,420419.9894679,64
1659101062.5323,420419.9894699,74
1659101062.5323,420419.989472,84
1659101062.5323,420420.5740392,91
1659101062.5323,420420.574058,86
1659101062.5323,420420.5740665,81
1659101062.5323,420420.5740724,76
1659101062.5323,420420.5740776,76
1659101062.5323,420420.5740812,74
1659101062.54426,420420.5740851,72
1659101062.54426,420420.5740904,64
1659101062.54426,420420.5740949,45
1659101062.54426,420420.5740983,24
1659101062.54426,420420.5741016,19
1659101062.54426,420420.5741048,24
1659101062.54426,420420.5741081,36
1659101062.54426,420420.5741113,48
1659101062.54426,420420.5741146,38
1659101062.54426,420420.5741179,12
1659101062.54426,420420.5741214,-2
1659101062.54426,420420.5741265,2
1659101062.54426,420420.5741299,21
1659101062.54426,420420.5741336,33
1659101062.54426,420420.5741385,33
1659101062.54426,420420.5741422,40
1659101062.54426,420420.5741459,64
1659101062.54426,420420.5741492,76
1659101062.54426,420420.5741526,76
1659101062.54426,420420.5741587,76
1659101062.54426,420420.5741707,74
1659101062.54426,420420.5741812,79
1659101062.54426,420420.5741904,88
1659101062.54426,420420.5741973,69
1659101063.07762,420420.5742104,55
1659101063.07762,420420.5742179,91
1659101063.07762,420420.574225,225
1659101063.07762,420420.5742321,525
1659101063.07762,420420.5742375,878
1659101063.07762,420420.5742438,897
1659101063.07762,420420.5742502,391
1659101063.07762,420420.5742572,-129
1659101063.07762,420420.5742699,-141
1659101063.07762,420420.5742801,28
1659101063.07762,420420.5742874,-2
1659101063.07762,420420.5742978,-45
1659101063.07762,420420.5743032,7
1659101063.07762,420420.5743113,14
1659101063.07762,420420.5743191,-2
1659101063.07762,420420.5743229,19
1659101063.07762,420420.5743289,31
1659101063.07762,420420.5743322,33
1659101063.07762,420420.5743373,52
1659101063.07762,420420.5743454,74
1659101063.07762,420420.5743506,76
1659101063.07762,420420.5743567,86
1659101063.07762,420420.5743627,105
1659101063.07762,420420.5743701,117
1659101063.07762,420420.5743743,132
1659101063.07762,420420.5743794,151
1659101063.07762,420420.5743836,168
1659101063.07762,420420.5743884,180
1659101063.07762,420420.5743918,194
1659101063.07762,420420.5743957,213
1659101063.07762,420420.5744006,228
1659101063.07762,420420.5744043,230
1659101063.07762,420420.5744092,232
1659101063.07762,420420.5744122,228
1659101063.07762,420420.5744163,216
1659101063.07762,420420.574421,208
1659101063.07762,420420.5744241,194
1659101063.07762,420420.5744281,165
1659101063.07762,420420.5744313,146
1659101063.07762,420420.5744344,146
1659101063.07762,420420.5744392,136
1659101063.07762,420420.5744422,127
1659101063.07762,420420.5744453,124
1659101063.07762,420421.1115562,112
1659101063.07762,420421.111569,110
1659101063.07762,420421.1115716,120
1659101063.07762,420421.1115739,124
1659101063.07762,420421.1115759,132
1659101063.07762,420421.111578,136
1659101063.07762,420421.1115801,144
1659101063.09458,420421.1115821,163
1659101063.09458,420421.1115842,163
1659101063.09458,420421.1115862,120
1659101063.09458,420421.1115883,96
1659101063.09458,420421.1115907,100
1659101063.09458,420421.111597,96
1659101063.09458,420421.1116069,98
1659101063.09458,420421.1116125,100
1659101063.09458,420421.1116218,91
1659101063.09458,420421.1116286,100
1659101063.09458,420421.111633,122
1659101063.09458,420421.1116351,88
1659101063.09458,420421.1116379,50
1659101063.09458,420421.1116481,57
1659101063.09458,420421.1116566,64
1659101063.09458,420421.111659,62
1659101063.09458,420421.1116611,55
1659101063.09458,420421.1116632,40
1659101063.09458,420421.1116652,33
1659101063.09458,420421.1116673,52
1659101063.09458,420421.1116749,79
1659101063.09458,420421.1116857,81
1659101063.09458,420421.1116892,62
1659101063.09458,420421.111693,50
1659101063.74585,420421.111696,43
1659101063.74585,420421.1117069,36
1659101063.74585,420421.1117121,36
1659101063.74585,420421.1117166,40
1659101063.74585,420421.1117279,43
1659101063.74585,420421.1117373,38
1659101063.74585,420421.1117449,67
1659101063.74585,420421.1117534,242
1659101063.74585,420421.1117625,580
1659101063.74585,420421.111777,905
1659101063.74585,420421.111786,849
1659101063.74585,420421.1117885,300
1659101063.74585,420421.1117947,-187
1659101063.74585,420421.1118056,-163
1659101063.74585,420421.1118125,12
1659101063.74585,420421.1118221,-7
1659101063.74585,420421.1118292,-50
1659101063.74585,420421.1118361,-16
1659101063.74585,420421.1118431,-9
1659101063.74585,420421.1118551,-24
1659101063.74585,420421.1118658,-12
1659101063.74585,420421.1118733,0
1659101063.74585,420421.1118849,-4
1659101063.74585,420421.1118956,9
1659101063.74585,420421.1119045,26
1659101063.74585,420421.111915,19
1659101063.74585,420421.1119257,19
1659101063.74585,420421.1119381,31
1659101063.74585,420421.1119499,36
1659101063.74585,420421.1119581,48
1659101063.74585,420421.1119653,55
1659101063.74585,420421.1119695,48
1659101063.74585,420421.1119727,57
1659101063.74585,420421.1119757,84
1659101063.74585,420421.1119785,88
1659101063.74585,420421.1119815,93
1659101063.74585,420421.1119843,115
1659101063.74585,420421.1119872,120
1659101063.74585,420421.11199,98
1659101063.74585,420421.1119929,88
1659101063.74585,420421.1119956,96
1659101063.74585,420421.1119985,98
1659101063.74585,420421.7934537,88
1659101063.74585,420421.7934724,64
1659101063.74585,420421.7934777,36
1659101063.74585,420421.7934842,40
1659101063.74585,420421.7934942,74
1659101063.74585,420421.7935004,84
1659101063.74585,420421.7935061,55
1659101063.74585,420421.7935145,43
1659101063.75582,420421.7935177,79
1659101063.75582,420421.7935198,100
1659101063.75582,420421.7935242,69
1659101063.75582,420421.7935331,57
1659101063.75582,420421.7935401,81
1659101063.75582,420421.7935475,86
1659101063.75582,420421.7935548,64
1659101063.75582,420421.7935605,40
1659101063.75582,420421.7935711,38
1659101063.75582,420421.7935761,55
1659101063.75582,420421.7935843,52
1659101063.75582,420421.7935923,21
1659101063.75582,420421.7936057,19
1659101063.75582,420421.7936142,50
1659101063.75582,420421.7936167,64
1659101063.75582,420421.7936188,48
1659101063.75582,420421.793621,31
1659101063.75582,420421.793623,43
1659101063.75582,420421.793625,48
1659101063.75582,420421.793627,28
1659101063.75582,420421.793629,28
1659101063.75582,420421.7936319,50
1659101063.75582,420421.7936399,64
1659101063.75582,420421.7936487,64
1659101064.19494,420421.7936587,67
1659101064.19494,420421.7936616,76
1659101064.19494,420421.7936637,69
1659101064.19494,420421.7936657,69
1659101064.19494,420421.7936676,93
1659101064.19494,420421.7936697,98
1659101064.19494,420421.7936716,93
1659101064.19494,420421.7936736,103
1659101064.19494,420421.7936755,88
1659101064.19494,420421.7936775,91
1659101064.19494,420421.7936804,122
1659101064.19494,420421.7936893,110
1659101064.19494,420421.7936973,120
1659101064.19494,420421.7937061,280
1659101064.19494,420421.7937149,578
1659101064.19494,420421.7937173,881
1659101064.19494,420421.7937194,842
1659101064.19494,420421.7937215,324
1659101064.19494,420421.7937245,-110
1659101064.19494,420421.7937338,-40
1659101064.19494,420421.7937462,115
1659101064.19494,420421.7937514,40
1659101064.19494,420421.7937535,7
1659101064.19494,420421.7937616,81
1659101064.19494,420421.7937727,69
1659101064.19494,420421.7937814,28
1659101064.19494,420421.7937872,62
1659101064.19494,420421.7937945,86
1659101064.19494,420421.7937989,86
1659101064.19494,420421.793804,115
1659101064.19494,420421.7938089,132
1659101064.19494,420421.7938119,98
1659101064.19494,420421.7938165,93
1659101064.19494,420421.7938215,132
1659101064.19494,420421.793825,151
1659101064.19494,420421.7938283,134
1659101064.19494,420421.7938331,112
1659101064.19494,420421.7938365,117
1659101064.19494,420421.7938419,153
1659101064.19494,420421.793846,192
1659101064.19494,420421.793851,201
1659101064.19494,420422.2318009,192
1659101064.19494,420422.2318201,184
1659101064.19494,420422.2318271,184
1659101064.19494,420422.2318327,189
1659101064.19494,420422.2318398,201
1659101064.19494,420422.2318465,196
1659101064.19494,420422.2318534,175
1659101064.19494,420422.2318591,160
1659101064.19494,420422.2318632,136
1659101064.2069,420422.2318671,103
1659101064.2069,420422.2318744,105
1659101064.2069,420422.2318785,127
1659101064.2069,420422.2318826,124
1659101064.2069,420422.2318867,127
1659101064.2069,420422.2318918,134
1659101064.2069,420422.2318983,134
1659101064.2069,420422.2319029,139
1659101064.2069,420422.2319092,148
1659101064.2069,420422.2319136,132
1659101064.2069,420422.23192,115
1659101064.2069,420422.2319279,127
1659101064.2069,420422.2319355,129
1659101064.2069,420422.2319417,112
1659101064.2069,420422.2319492,103
1659101064.2069,420422.2319538,93
1659101064.2069,420422.2319595,98
1659101064.2069,420422.2319635,117
1659101064.2069,420422.2319707,127
1659101064.2069,420422.231979,127
1659101064.2069,420422.2319875,110
1659101064.2069,420422.2319938,96
1659101064.2069,420422.2320008,115
1659101064.2069,420422.2320065,127
1659101064.72371,420422.2320168,108
1659101064.72371,420422.2320217,120
1659101064.72371,420422.2320264,129
1659101064.72371,420422.2320305,100
1659101064.72371,420422.2320349,103
1659101064.72371,420422.2320392,136
1659101064.72371,420422.2320456,144
1659101064.72371,420422.2320498,141
1659101064.72371,420422.2320567,144
1659101064.72371,420422.2320625,129
1659101064.72371,420422.2320685,151
1659101064.72371,420422.2321299,194
1659101064.72371,420422.2321399,187
1659101064.72371,420422.2321465,163
1659101064.72371,420422.2321545,165
1659101064.72371,420422.2321611,177
1659101064.72371,420422.2321791,189
1659101064.72371,420422.2321879,180
1659101064.72371,420422.2321946,160
1659101064.72371,420422.2322026,177
1659101064.72371,420422.2322089,261
1659101064.72371,420422.2322153,460
1659101064.72371,420422.2322215,756
1659101064.72371,420422.2322295,926
1659101064.72371,420422.2322841,701
1659101064.72371,420422.2322997,189
1659101064.72371,420422.2323073,-69
1659101064.72371,420422.2323144,50
1659101064.72371,420422.2323194,124
1659101064.72371,420422.2323242,64
1659101064.72371,420422.2323286,74
1659101064.72371,420422.2323333,124
1659101064.72371,420422.2323374,110
1659101064.72371,420422.2323417,84
1659101064.72371,420422.2323463,98
1659101064.72371,420422.232351,120
1659101064.72371,420422.2323554,115
1659101064.72371,420422.2323598,112
1659101064.72371,420422.2323642,124
1659101064.72371,420422.2323687,120
1659101064.72371,420422.7686241,120
1659101064.72371,420422.7686406,129
1659101064.72371,420422.7686456,134
1659101064.72371,420422.7686519,141
1659101064.72371,420422.7686563,132
1659101064.72371,420422.7686604,129
1659101064.72371,420422.7686662,156
1659101064.72371,420422.7686701,168
1659101064.72371,420422.7686759,139
1659101064.72371,420422.7686797,105
1659101064.73568,420422.7686835,108
1659101064.73568,420422.7686874,110
1659101064.73568,420422.7686928,88
1659101064.73568,420422.7686966,91
1659101064.73568,420422.7687022,103
1659101064.73568,420422.7687074,69
1659101064.73568,420422.7687114,26
1659101064.73568,420422.7687167,9
1659101064.73568,420422.7687205,14
1659101064.73568,420422.7687262,28
1659101064.73568,420422.7687313,19
1659101064.73568,420422.7687368,0
1659101064.73568,420422.7687489,14
1659101064.73568,420422.7687632,40
1659101064.73568,420422.7687726,48
1659101064.73568,420422.7687753,50
1659101064.73568,420422.7687774,62
1659101064.73568,420422.76878,64
1659101064.73568,420422.768788,64
1659101064.73568,420422.7688029,62
1659101064.73568,420422.7688144,81
1659101064.73568,420422.7688261,108
1659101064.73568,420422.7688314,100
1659101064.73568,420422.7688334,100
1659101065.313,420422.7688385,120
1659101065.313,420422.7688493,117
1659101065.313,420422.7688546,98
1659101065.313,420422.7688575,91
1659101065.313,420422.7688672,100
1659101065.313,420422.7688751,115
1659101065.313,420422.768884,124
1659101065.313,420422.7688948,127
1659101065.313,420422.7688981,122
1659101065.313,420422.7689011,108
1659101065.313,420422.768904,100
1659101065.313,420422.7689068,117
1659101065.313,420422.7689097,108
1659101065.313,420422.7689126,74
1659101065.313,420422.7689155,81
1659101065.313,420422.7689183,115
1659101065.313,420422.7689212,136
1659101065.313,420422.7689241,141
1659101065.313,420422.768927,108
1659101065.313,420422.7689305,62
1659101065.313,420422.768943,69
1659101065.313,420422.7689495,98
1659101065.313,420422.7689529,98
1659101065.313,420422.768955,93
1659101065.313,420422.7689571,91
1659101065.313,420422.7689592,74
1659101065.313,420422.7689613,86
1659101065.313,420422.7689633,177
1659101065.313,420422.7689654,398
1659101065.313,420422.7689674,720
1659101065.313,420422.7689694,873
1659101065.313,420422.7689715,554
1659101065.313,420422.7689735,7
1659101065.313,420422.7689933,-160
1659101065.313,420422.7690217,12
1659101065.313,420422.7690302,50
1659101065.313,420422.7690363,-21
1659101065.313,420422.7690405,0
1659101065.313,420422.7690443,24
1659101065.313,420423.3535663,9
1659101065.313,420423.3535873,16
1659101065.313,420423.3536014,31
1659101065.313,420423.3536152,28
1659101065.313,420423.3536287,38
1659101065.313,420423.3536374,43
1659101065.313,420423.3536401,19
1659101065.313,420423.3536423,4
1659101065.313,420423.3536443,14
1659101065.313,420423.3536464,24
1659101065.313,420423.3536485,45
1659101065.32298,420423.3536505,67
1659101065.32298,420423.3536525,57
1659101065.32298,420423.3536545,50
1659101065.32298,420423.3536572,60
1659101065.32298,420423.3536594,55
1659101065.32298,420423.3536615,60
1659101065.32298,420423.3536635,84
1659101065.32298,420423.3536656,91
1659101065.32298,420423.3536677,79
1659101065.32298,420423.3536699,76
1659101065.32298,420423.353672,79
1659101065.32298,420423.353674,72
1659101065.32298,420423.3536759,50
1659101065.32298,420423.353678,33
1659101065.32298,420423.35368,31
1659101065.32298,420423.353682,24
1659101065.32298,420423.353684,9
1659101065.32298,420423.3536867,9
1659101065.32298,420423.3536889,9
1659101065.32298,420423.353691,14
1659101065.32298,420423.3536931,28
1659101065.32298,420423.3536951,31
1659101065.32298,420423.3536971,28
1659101065.32298,420423.3536991,38
1659101065.89329,420423.3537011,50
1659101065.89329,420423.353703,55
1659101065.89329,420423.3537048,62
1659101065.89329,420423.3537067,72
1659101065.89329,420423.3537087,69
1659101065.89329,420423.3537106,64
1659101065.89329,420423.3537125,69
1659101065.89329,420423.3537143,69
1659101065.89329,420423.3537162,62
1659101065.89329,420423.3537182,50
1659101065.89329,420423.3537202,45
1659101065.89329,420423.3537222,57
1659101065.89329,420423.3537241,69
1659101065.89329,420423.3537261,60
1659101065.89329,420423.353728,48
1659101065.89329,420423.3537353,60
1659101065.89329,420423.3537452,64
1659101065.89329,420423.3537519,57
1659101065.89329,420423.3537611,62
1659101065.89329,420423.353774,62
1659101065.89329,420423.3537833,50
1659101065.89329,420423.3537858,45
1659101065.89329,420423.3537879,43
1659101065.89329,420423.35379,52
1659101065.89329,420423.3537921,84
1659101065.89329,420423.3537941,93
1659101065.89329,420423.3537961,79
1659101065.89329,420423.3537981,67
1659101065.89329,420423.353801,48
1659101065.89329,420423.3538031,45
1659101065.89329,420423.3538053,69
1659101065.89329,420423.3538073,93
1659101065.89329,420423.3538094,93
1659101065.89329,420423.3538116,86
1659101065.89329,420423.3538136,148
1659101065.89329,420423.3538156,360
1659101065.89329,420423.3538176,672
1659101065.89329,420423.3538197,861
1659101065.89329,420423.9386547,631
1659101065.89329,420423.9386725,91
1659101065.89329,420423.9386772,-132
1659101065.89329,420423.9386822,43
1659101065.89329,420423.9386856,103
1659101065.89329,420423.938689,14
1659101065.89329,420423.9386935,24
1659101065.89329,420423.9386987,62
1659101065.89329,420423.9387019,40
1659101065.89329,420423.9387053,19
1659101065.89329,420423.9387089,28
1659101065.89329,420423.9387134,45
1659101065.90328,420423.9387215,52
1659101065.90328,420423.9387275,52
1659101065.90328,420423.9387316,48
1659101065.90328,420423.938736,38
1659101065.90328,420423.9387396,40
1659101065.90328,420423.938745,60
1659101065.90328,420423.9387511,74
1659101065.90328,420423.9387549,81
1659101065.90328,420423.9387591,74
1659101065.90328,420423.9387633,64
1659101065.90328,420423.938767,74
1659101065.90328,420423.9387717,93
1659101065.90328,420423.938778,115
1659101065.90328,420423.9387842,129
1659101065.90328,420423.9387904,132
1659101065.90328,420423.9387949,120
1659101065.90328,420423.9388004,105
1659101065.90328,420423.9388049,110
1659101065.90328,420423.9388109,117
1659101065.90328,420423.9388166,86
1659101065.90328,420423.9388209,40
1659101065.90328,420423.9388254,24
1659101065.90328,420423.9388326,19
1659101065.90328,420423.9388373,0
1659101066.52204,420423.9388963,-31
1659101066.52204,420423.9389107,-40
1659101066.52204,420423.9389173,-31
1659101066.52204,420423.9389249,-36
1659101066.52204,420423.9389329,-26
1659101066.52204,420423.9389407,-9
1659101066.52204,420423.9389457,-4
1659101066.52204,420423.9389519,7
1659101066.52204,420423.9389596,24
1659101066.52204,420423.9389647,28
1659101066.52204,420423.9389714,19
1659101066.52204,420423.9389796,12
1659101066.52204,420423.9389845,9
1659101066.52204,420423.938988,0
1659101066.52204,420423.939001,-2
1659101066.52204,420423.9390111,7
1659101066.52204,420423.9390159,7
1659101066.52204,420423.9390194,-2
1659101066.52204,420423.9390228,-9
1659101066.52204,420423.9390306,-2
1659101066.52204,420423.9390374,0
1659101066.52204,420423.9390434,-16
1659101066.52204,420423.9390464,-33
1659101066.52204,420423.9390493,-33
1659101066.52204,420423.9390527,-31
1659101066.52204,420423.9390666,-31
1659101066.52204,420423.93908,-31
1659101066.52204,420423.9390931,-36
1659101066.52204,420423.9391062,-19
1659101066.52204,420423.9391195,4
1659101066.52204,420423.9391326,9
1659101066.52204,420423.9391461,7
1659101066.52204,420423.9391599,4
1659101066.52204,420423.9391718,-2
1659101066.52204,420423.9391806,-2
1659101066.52204,420423.9391881,4
1659101066.52204,420423.9391953,16
1659101066.52204,420424.5717595,28
1659101066.52204,420424.5717769,38
1659101066.52204,420424.5717878,98
1659101066.52204,420424.5717921,316
1659101066.52204,420424.5717981,660
1659101066.52204,420424.5718049,847
1659101066.52204,420424.5718131,561
1659101066.52204,420424.5718216,-7
1659101066.52204,420424.5718355,-225
1659101066.52204,420424.5718495,-38
1659101066.52204,420424.5718632,48
1659101066.52204,420424.5718767,-31
1659101066.52204,420424.5718902,-31
1659101066.53401,420424.5719036,12
1659101066.53401,420424.5719171,4
1659101066.53401,420424.5719304,0
1659101066.53401,420424.5719439,16
1659101066.53401,420424.5719584,9
1659101066.53401,420424.5719729,-9
1659101066.53401,420424.5719873,0
1659101066.53401,420424.5720017,16
1659101066.53401,420424.5720142,28
1659101066.53401,420424.572023,40
1659101066.53401,420424.5720329,45
1659101066.53401,420424.5720423,43
1659101066.53401,420424.5720511,55
1659101066.53401,420424.5720635,67
1659101066.53401,420424.5720724,62
1659101066.53401,420424.572077,64
1659101066.53401,420424.5720832,79
1659101066.53401,420424.5720875,93
1659101066.53401,420424.5720932,88
1659101066.53401,420424.5720986,88
1659101066.53401,420424.5721042,108
1659101066.53401,420424.5721092,110
1659101066.53401,420424.5721145,86
1659101066.53401,420424.5721192,69
1659101067.01273,420424.5721262,55
1659101067.01273,420424.5721336,21
1659101067.01273,420424.5721411,-24
1659101067.01273,420424.5721489,-26
1659101067.01273,420424.572157,-7
1659101067.01273,420424.5721619,-16
1659101067.01273,420424.5721687,-31
1659101067.01273,420424.5721751,-26
1659101067.01273,420424.5721824,-28
1659101067.01273,420424.5721888,-38
1659101067.01273,420424.572192,-43
1659101067.01273,420424.572195,-38
1659101067.01273,420424.5721979,-14
1659101067.01273,420424.5722009,0
1659101067.01273,420424.5722037,0
1659101067.01273,420424.5722067,-12
1659101067.01273,420424.5722095,-19
1659101067.01273,420424.5722124,2
1659101067.01273,420424.572216,16
1659101067.01273,420424.5722191,0
1659101067.01273,420424.5722221,-4
1659101067.01273,420424.5722254,24
1659101067.01273,420424.5722393,40
1659101067.01273,420424.5722524,31
1659101067.01273,420424.5722668,36
1659101067.01273,420424.5722803,69
1659101067.01273,420424.5722936,91
1659101067.01273,420424.5723097,88
1659101067.01273,420424.5723233,93
1659101067.01273,420424.5723317,88
1659101067.01273,420424.5723369,74
1659101067.01273,420424.5723416,84
1659101067.01273,420424.5723454,103
1659101067.01273,420424.5723495,117
1659101067.01273,420424.5723535,127
1659101067.01273,420424.5723575,129
1659101067.01273,420425.0597395,100
1659101067.01273,420425.0597554,93
1659101067.01273,420425.0597601,127
1659101067.01273,420425.0597655,148
1659101067.01273,420425.0597694,141
1659101067.01273,420425.0597744,141
1659101067.01273,420425.0597793,153
1659101067.01273,420425.0597845,139
1659101067.01273,420425.0597888,192
1659101067.01273,420425.059794,444
1659101067.01273,420425.0597984,792
1659101067.01273,420425.0598034,893
1659101067.01273,420425.059808,504
1659101067.01273,420425.0598133,-19
1659101067.02271,420425.0598184,-112
1659101067.02271,420425.0598221,57
1659101067.02271,420425.0598259,69
1659101067.02271,420425.0598297,31
1659101067.02271,420425.0598347,79
1659101067.02271,420425.0598384,98
1659101067.02271,420425.0598422,88
1659101067.02271,420425.0598475,98
1659101067.02271,420425.0598511,98
1659101067.02271,420425.0598561,88
1659101067.02271,420425.0598613,105
1659101067.02271,420425.0598651,112
1659101067.02271,420425.0598701,96
1659101067.02271,420425.0598739,88
1659101067.02271,420425.0598777,84
1659101067.02271,420425.0598815,96
1659101067.02271,420425.0598866,124
1659101067.02271,420425.0598902,129
1659101067.02271,420425.0598949,115
1659101067.02271,420425.0599,108
1659101067.02271,420425.0599045,110
1659101067.02271,420425.0599083,122
1659101067.02271,420425.0599137,136
1659101067.02271,420425.0599185,146
1659101067.55488,420425.0599237,160
1659101067.55488,420425.0599282,158
1659101067.55488,420425.0599318,141
1659101067.55488,420425.0599354,124
1659101067.55488,420425.0599391,98
1659101067.55488,420425.059943,74
1659101067.55488,420425.0599467,72
1659101067.55488,420425.0599505,64
1659101067.55488,420425.0599541,48
1659101067.55488,420425.0599577,38
1659101067.55488,420425.0599614,38
1659101067.55488,420425.059965,28
1659101067.55488,420425.059973,31
1659101067.55488,420425.0599798,55
1659101067.55488,420425.0599849,48
1659101067.55488,420425.0599937,24
1659101067.55488,420425.0600108,31
1659101067.55488,420425.0600192,57
1659101067.55488,420425.0600231,57
1659101067.55488,420425.0600266,55
1659101067.55488,420425.06003,67
1659101067.55488,420425.0600344,72
1659101067.55488,420425.0600409,67
1659101067.55488,420425.0600451,64
1659101067.55488,420425.0600493,72
1659101067.55488,420425.060053,64
1659101067.55488,420425.0600587,52
1659101067.55488,420425.0600623,64
1659101067.55488,420425.060066,67
1659101067.55488,420425.0600713,60
1659101067.55488,420425.0600764,76
1659101067.55488,420425.0600797,84
1659101067.55488,420425.060086,72
1659101067.55488,420425.0600902,72
1659101067.55488,420425.0600934,67
1659101067.55488,420425.5980334,60
1659101067.55488,420425.5980548,76
1659101067.55488,420425.5980698,88
1659101067.55488,420425.5980844,98
1659101067.55488,420425.5980977,100
1659101067.55488,420425.5981109,72
1659101067.55488,420425.5981241,57
1659101067.55488,420425.5981328,62
1659101067.55488,420425.5981364,57
1659101067.55488,420425.598148,64
1659101067.55488,420425.5981579,76
1659101067.55488,420425.5981707,48
1659101067.55488,420425.5981815,31
1659101067.55488,420425.5981883,170
1659101067.55488,420425.5981947,463
1659101067.57283,420425.5982038,720
1659101067.57283,420425.5982116,684
1659101067.57283,420425.5982152,218
1659101067.57283,420425.5982187,-261
1659101067.57283,420425.5982223,-264
1659101067.57283,420425.5982261,-55
1659101067.57283,420425.5982316,-52
1659101067.57283,420425.5982353,-127
1659101067.57283,420425.5982392,-110
1659101067.57283,420425.5982461,-93
1659101067.57283,420425.5982598,-96
1659101067.57283,420425.5982678,-81
1659101067.57283,420425.598276,-74
1659101067.57283,420425.5982872,-72
1659101067.57283,420425.5982948,-64
1659101067.57283,420425.5982985,-60
1659101067.57283,420425.598302,-57
1659101067.57283,420425.5983075,-52
1659101067.57283,420425.5983124,-38
1659101067.57283,420425.598316,-21
1659101067.57283,420425.5983194,-2
1659101067.57283,420425.5983246,9
1659101067.57283,420425.598329,19
1659101067.57283,420425.598334,38
1659101068.09314,420425.5983376,48
1659101068.09314,420425.5983412,57
1659101068.09314,420425.5983444,81
1659101068.09314,420425.5983478,98
1659101068.09314,420425.5983513,105
1659101068.09314,420425.5983549,120
1659101068.09314,420425.5983585,136
1659101068.09314,420425.5983623,127
1659101068.09314,420425.598366,112
1659101068.09314,420425.5983699,100
1659101068.09314,420425.5983735,79
1659101068.09314,420425.5983772,67
1659101068.09314,420425.5983813,88
1659101068.09314,420425.5983849,100
1659101068.09314,420425.5983907,76
1659101068.09314,420425.5983951,62
1659101068.09314,420425.5984002,76
1659101068.09314,420425.5984043,84
1659101068.09314,420425.5984092,79
1659101068.09314,420425.5984129,84
1659101068.09314,420425.5984184,84
1659101068.09314,420425.5984235,79
1659101068.09314,420425.5984268,81
1659101068.09314,420425.5984304,79
1659101068.09314,420425.5984343,67
1659101068.09314,420425.5984397,64
1659101068.09314,420425.598444,67
1659101068.09314,420425.5984478,62
1659101068.09314,420425.5984512,36
1659101068.09314,420425.5984547,9
1659101068.09314,420425.5984582,14
1659101068.09314,420425.5984617,16
1659101068.09314,420425.5984654,4
1659101068.09314,420425.5984712,9
1659101068.09314,420426.132332,16
1659101068.09314,420426.1323459,2
1659101068.09314,420426.1323502,-14
1659101068.09314,420426.1323529,-14
1659101068.09314,420426.1323554,-4
1659101068.09314,420426.1323579,7
1659101068.09314,420426.1323603,16
1659101068.09314,420426.1323627,21
1659101068.09314,420426.132365,28
1659101068.09314,420426.1323673,26
1659101068.09314,420426.1323697,7
1659101068.09314,420426.1323721,4
1659101068.09314,420426.1323754,43
1659101068.09314,420426.1323886,64
1659101068.09314,420426.1323964,38
1659101068.09314,420426.1323989,4
1659101068.10312,420426.1324009,9
1659101068.10312,420426.132403,84
1659101068.10312,420426.1324051,285
1659101068.10312,420426.1324072,597
1659101068.10312,420426.1324092,828
1659101068.10312,420426.1324112,633
1659101068.10312,420426.1324133,62
1659101068.10312,420426.1324152,-228
1659101068.10312,420426.1324172,-79
1659101068.10312,420426.1324193,21
1659101068.10312,420426.1324217,-43
1659101068.10312,420426.1324242,-62
1659101068.10312,420426.1324263,-38
1659101068.10312,420426.1324283,-26
1659101068.10312,420426.1324303,-26
1659101068.10312,420426.1324323,-33
1659101068.10312,420426.1324364,-24
1659101068.10312,420426.1324392,-2
1659101068.10312,420426.1324726,0
1659101068.10312,420426.1324857,-12
1659101068.10312,420426.1324911,-12
1659101068.10312,420426.1324966,7
1659101068.10312,420426.1325105,33
1659101068.10312,420426.1325248,33
1659101068.67147,420426.1325391,31
1659101068.67147,420426.1325489,55
1659101068.67147,420426.1325603,74
1659101068.67147,420426.1325659,72
1659101068.67147,420426.13257,86
1659101068.67147,420426.1325735,110
1659101068.67147,420426.1325793,117
1659101068.67147,420426.1325837,122
1659101068.67147,420426.1325895,141
1659101068.67147,420426.1325955,153
1659101068.67147,420426.1326001,146
1659101068.67147,420426.1326031,127
1659101068.67147,420426.132606,98
1659101068.67147,420426.1326088,88
1659101068.67147,420426.1326118,96
1659101068.67147,420426.1326147,88
1659101068.67147,420426.1326176,72
1659101068.67147,420426.1326204,76
1659101068.67147,420426.1326233,91
1659101068.67147,420426.1326261,96
1659101068.67147,420426.132629,110
1659101068.67147,420426.1326318,117
1659101068.67147,420426.1326347,100
1659101068.67147,420426.1326375,103
1659101068.67147,420426.1326404,117
1659101068.67147,420426.1326433,117
1659101068.67147,420426.1326461,122
1659101068.67147,420426.1326489,127
1659101068.67147,420426.1326518,115
1659101068.67147,420426.1326547,110
1659101068.67147,420426.1326575,112
1659101068.67147,420426.1326603,96
1659101068.67147,420426.1326631,72
1659101068.67147,420426.7172955,60
1659101068.67147,420426.717317,57
1659101068.67147,420426.7173251,52
1659101068.67147,420426.7173344,48
1659101068.67147,420426.7173414,52
1659101068.67147,420426.7173488,43
1659101068.67147,420426.7173541,24

1659101068.67147,420426.7173617,24
1659101068.67147,420426.7173691,40
1659101068.67147,420426.7173759,50
1659101068.67147,420426.7173872,52
1659101068.67147,420426.7173976,48
1659101068.67147,420426.7174064,55
1659101068.67147,420426.7174195,84
1659101068.67147,420426.717428,91
1659101068.67147,420426.7174359,74
1659101068.67147,420426.7174432,67
1659101068.68942,420426.7174488,62
1659101068.68942,420426.7174563,62
1659101068.68942,420426.7174631,81
1659101068.68942,420426.7174707,96
1659101068.68942,420426.7174764,88
1659101068.68942,420426.7174849,146
1659101068.68942,420426.7174924,343
1659101068.68942,420426.7174959,640
1659101068.68942,420426.7175025,861
1659101068.68942,420426.717515,693
1659101068.68942,420426.7175287,158
1659101068.68942,420426.7175362,-175
1659101068.68942,420426.7175435,-57
1659101068.68942,420426.7175573,74
1659101068.68942,420426.7175705,26
1659101068.68942,420426.7175852,9
1659101068.68942,420426.7175962,36
1659101068.68942,420426.7176032,9
1659101068.68942,420426.7176057,-16
1659101068.68942,420426.7176078,-2
1659101068.68942,420426.7176099,21
1659101068.68942,420426.7176121,12
1659101068.68942,420426.7176194,-28
1659101068.68942,420426.7176304,-36
1659101069.30528,420426.7176382,24
1659101069.30528,420426.7176447,40
1659101069.30528,420426.7176518,-16
1659101069.30528,420426.7176589,-19
1659101069.30528,420426.717666,28
1659101069.30528,420426.7176703,31
1659101069.30528,420426.7176759,26
1659101069.30528,420426.7176805,57
1659101069.30528,420426.7176839,86
1659101069.30528,420426.7176899,91
1659101069.30528,420426.717693,76
1659101069.30528,420426.7176961,64
1659101069.30528,420426.7177015,62
1659101069.30528,420426.7177064,64
1659101069.30528,420426.7177206,72
1659101069.30528,420426.7177335,67
1659101069.30528,420426.7177468,43
1659101069.30528,420426.7177613,14
1659101069.30528,420426.7177685,2
1659101069.30528,420426.7177719,-12
1659101069.30528,420426.7177786,-31
1659101069.30528,420426.7177849,-26
1659101069.30528,420426.7177909,-4
1659101069.30528,420426.7177958,2
1659101069.30528,420426.7178343,-19
1659101069.30528,420426.7178467,-28
1659101069.30528,420426.7178517,-4
1659101069.30528,420426.7178628,26
1659101069.30528,420426.7178663,31
1659101069.30528,420426.7178697,12
1659101069.30528,420426.7178733,2
1659101069.30528,420426.7178768,24
1659101069.30528,420427.3534876,45
1659101069.30528,420427.3535049,48
1659101069.30528,420427.3535097,40
1659101069.30528,420427.3535138,45
1659101069.30528,420427.3535178,62
1659101069.30528,420427.3535217,69
1659101069.30528,420427.3535263,72
1659101069.30528,420427.3535343,76
1659101069.30528,420427.3535414,60
1659101069.30528,420427.3535486,36
1659101069.30528,420427.3535577,50
1659101069.30528,420427.3535662,67
1659101069.30528,420427.3535725,67
1659101069.30528,420427.3535783,69
1659101069.30528,420427.353585,62
1659101069.30528,420427.3535927,57
1659101069.30528,420427.3535984,74
1659101069.30528,420427.3536026,81
1659101069.31425,420427.3536068,67
1659101069.31425,420427.3536111,79
1659101069.31425,420427.3536157,81
1659101069.31425,420427.35362,64
1659101069.31425,420427.3536241,69
1659101069.31425,420427.3536287,81
1659101069.31425,420427.3536464,72
1659101069.31425,420427.3536578,84
1659101069.31425,420427.3536644,189
1659101069.31425,420427.3536712,451
1659101069.31425,420427.3536778,785
1659101069.31425,420427.3536834,914
1659101069.31425,420427.3536875,566
1659101069.31425,420427.3536929,0
1659101069.31425,420427.3536998,-180
1659101069.31425,420427.3537051,-19
1659101069.31425,420427.3537116,12
1659101069.31425,420427.3537175,-50
1659101069.31425,420427.3537229,-16
1659101069.31425,420427.3537276,14
1659101069.31425,420427.3537321,-12
1659101069.31425,420427.3537369,-24
1659101069.31425,420427.353743,-12
1659101069.31425,420427.3537487,-21
1659101069.7931,420427.3537553,-38
1659101069.7931,420427.3537637,-33
1659101069.7931,420427.3537729,-21
1659101069.7931,420427.3537808,-33
1659101069.7931,420427.3537879,-40
1659101069.7931,420427.3537948,-21
1659101069.7931,420427.3538021,-14
1659101069.7931,420427.3538073,-9
1659101069.7931,420427.3538164,12
1659101069.7931,420427.3538255,21
1659101069.7931,420427.3538308,19
1659101069.7931,420427.3538352,33
1659101069.7931,420427.3538385,55
1659101069.7931,420427.3538504,57
1659101069.7931,420427.3538582,38
1659101069.7931,420427.3538645,28
1659101069.7931,420427.3538679,43
1659101069.7931,420427.3538818,43
1659101069.7931,420427.3538954,14
1659101069.7931,420427.3539033,-7
1659101069.7931,420427.3539125,-14
1659101069.7931,420427.3539186,-24
1659101069.7931,420427.3539264,-28
1659101069.7931,420427.3539343,-33
1659101069.7931,420427.3539403,-36
1659101069.7931,420427.3539436,-14
1659101069.7931,420427.3539532,7
1659101069.7931,420427.3539603,-2
1659101069.7931,420427.3539749,-7
1659101069.7931,420427.3539861,4
1659101069.7931,420427.3539948,14
1659101069.7931,420427.839022,26
1659101069.7931,420427.8390403,38
1659101069.7931,420427.8390502,40
1659101069.7931,420427.8390557,48
1659101069.7931,420427.8390631,57
1659101069.7931,420427.8390699,57
1659101069.7931,420427.8390789,67
1659101069.7931,420427.8390835,76
1659101069.7931,420427.8390932,69
1659101069.7931,420427.8391011,74
1659101069.7931,420427.8391084,86
1659101069.7931,420427.8391164,74
1659101069.7931,420427.839122,55
1659101069.7931,420427.8391308,62
1659101069.7931,420427.839136,69
1659101069.7931,420427.8391452,67
1659101069.7931,420427.8391504,74
1659101069.7931,420427.8391589,96
1659101069.7931,420427.8391637,117
1659101069.80408,420427.8391718,117
1659101069.80408,420427.8391802,110
1659101069.80408,420427.8391861,112
1659101069.80408,420427.8391944,103
1659101069.80408,420427.8392006,93
1659101069.80408,420427.8392087,93
1659101069.80408,420427.8392161,100
1659101069.80408,420427.8392241,105
1659101069.80408,420427.8392311,96
1659101069.80408,420427.8392381,67
1659101069.80408,420427.8392451,93
1659101069.80408,420427.8392524,278
1659101069.80408,420427.8392576,619
1659101069.80408,420427.8392664,945
1659101069.80408,420427.8392733,840
1659101069.80408,420427.8392779,228
1659101069.80408,420427.8392866,-184
1659101069.80408,420427.8392932,-62
1659101069.80408,420427.839299,69
1659101069.80408,420427.8393066,-7
1659101069.80408,420427.8393133,-21
1659101069.80408,420427.8393198,33
1659101069.80408,420427.8393272,31
1659101069.80408,420427.8393325,16
1659101070.42579,420427.8393409,33
1659101070.42579,420427.8393453,40
1659101070.42579,420427.8393509,48
1659101070.42579,420427.8393553,67
1659101070.42579,420427.8393606,67
1659101070.42579,420427.8393665,60
1659101070.42579,420427.8393718,69
1659101070.42579,420427.8393761,69
1659101070.42579,420427.8393849,45
1659101070.42579,420427.8393905,40
1659101070.42579,420427.8393982,69
1659101070.42579,420427.8394048,86
1659101070.42579,420427.8394097,81
1659101070.42579,420427.8394129,93
1659101070.42579,420427.8394162,112
1659101070.42579,420427.8394196,110
1659101070.42579,420427.8394238,110
1659101070.42579,420427.8394273,129
1659101070.42579,420427.8394303,124
1659101070.42579,420427.8394336,93
1659101070.42579,420427.8394368,79
1659101070.42579,420427.8394405,76
1659101070.42579,420427.8394441,60
1659101070.42579,420427.8394471,40
1659101070.42579,420427.8394507,33
1659101070.42579,420427.8394543,36
1659101070.42579,420427.8394576,33
1659101070.42579,420427.839461,33
1659101070.42579,420427.8394645,45
1659101070.42579,420427.839468,60
1659101070.42579,420428.4740314,67
1659101070.42579,420428.4740697,60
1659101070.42579,420428.4740843,57
1659101070.42579,420428.4740925,79
1659101070.42579,420428.4741027,84
1659101070.42579,420428.4741096,67
1659101070.42579,420428.4741156,67
1659101070.42579,420428.4741217,79
1659101070.42579,420428.4741278,72
1659101070.42579,420428.4741339,62
1659101070.42579,420428.4741402,60
1659101070.42579,420428.4741481,55
1659101070.42579,420428.4741583,50
1659101070.42579,420428.4741674,62
1659101070.42579,420428.4741751,60
1659101070.42579,420428.4741831,33
1659101070.42579,420428.4741908,43
1659101070.42579,420428.4741967,55
1659101070.42579,420428.4742047,33
1659101070.42579,420428.4742123,38
1659101070.43575,420428.4742182,60
1659101070.43575,420428.4742261,55
1659101070.43575,420428.4742318,43
1659101070.43575,420428.4742398,45
1659101070.43575,420428.474247,52
1659101070.43575,420428.474255,55
1659101070.43575,420428.4742614,74
1659101070.43575,420428.4742698,96
1659101070.43575,420428.4742749,72
1659101070.43575,420428.4742837,50
1659101070.43575,420428.4742931,64
1659101070.43575,420428.4742973,69
1659101070.43575,420428.4743032,64
1659101070.43575,420428.4743086,72
1659101070.43575,420428.4743156,69
1659101070.43575,420428.474326,57
1659101070.43575,420428.4743365,120
1659101070.43575,420428.474345,369
1659101070.43575,420428.4743507,756
1659101070.43575,420428.4743635,960
1659101070.43575,420428.4743735,628
1659101070.43575,420428.4743819,-7
1659101070.43575,420428.4743921,-223
1659101070.43575,420428.4744025,-40
1659101070.91582,420428.4744081,-9
1659101070.91582,420428.4744189,-88
1659101070.91582,420428.4744267,-60
1659101070.91582,420428.4744359,-21
1659101070.91582,420428.4744439,-28
1659101070.91582,420428.4744527,-38
1659101070.91582,420428.4744604,-40
1659101070.91582,420428.4744685,-38
1659101070.91582,420428.4744804,-28
1659101070.91582,420428.4744921,-21
1659101070.91582,420428.4745065,-16
1659101070.91582,420428.4745198,-7
1659101070.91582,420428.4745334,12
1659101070.91582,420428.4745466,26
1659101070.91582,420428.4745602,26
1659101070.91582,420428.47457,26
1659101070.91582,420428.474578,43
1659101070.91582,420428.4745842,72
1659101070.91582,420428.4745922,96
1659101070.91582,420428.4745988,117
1659101070.91582,420428.4746072,134
1659101070.91582,420428.4746155,146
1659101070.91582,420428.4746218,158
1659101070.91582,420428.47463,172
1659101070.91582,420428.4746363,175
1659101070.91582,420428.4746428,151
1659101070.91582,420428.4746512,134
1659101070.91582,420428.4746579,141
1659101070.91582,420428.4746661,132
1659101070.91582,420428.9607677,103
1659101070.91582,420428.9607845,86
1659101070.91582,420428.960792,81
1659101070.91582,420428.9607985,76
1659101070.91582,420428.960803,74
1659101070.91582,420428.9608072,86
1659101070.91582,420428.9608132,93
1659101070.91582,420428.9608172,88
1659101070.91582,420428.9608212,84
1659101070.91582,420428.9608268,91
1659101070.91582,420428.9608306,96
1659101070.91582,420428.9608364,96
1659101070.91582,420428.9608404,96
1659101070.91582,420428.9608459,98
1659101070.91582,420428.9608496,96
1659101070.91582,420428.9608547,96
1659101070.91582,420428.9608637,103
1659101070.91582,420428.9608715,98
1659101070.91582,420428.9608779,76
1659101070.91582,420428.9608896,79
1659101070.91582,420428.9608956,100
1659101070.92877,420428.9609053,103
1659101070.92877,420428.9609175,100
1659101070.92877,420428.9609244,100
1659101070.92877,420428.9609278,91
1659101070.92877,420428.96093,98
1659101070.92877,420428.9609321,117
1659101070.92877,420428.9609344,115
1659101070.92877,420428.9609415,108
1659101070.92877,420428.9609526,122
1659101070.92877,420428.9609571,115
1659101070.92877,420428.9609593,93
1659101070.92877,420428.9609613,98
1659101070.92877,420428.9609635,110
1659101070.92877,420428.9609711,105
1659101070.92877,420428.9609821,105
1659101070.92877,420428.9609864,112
1659101070.92877,420428.9609885,108
1659101070.92877,420428.9609929,98
1659101070.92877,420428.9610059,103
1659101070.92877,420428.9610115,117
1659101070.92877,420428.9610138,122
1659101070.92877,420428.9610159,108
1659101070.92877,420428.9610182,88
1659101070.92877,420428.9610257,88
1659101071.44809,420428.9610364,122
1659101071.44809,420428.9610398,240
1659101071.44809,420428.9610427,484
1659101071.44809,420428.961046,799
1659101071.44809,420428.9610539,883
1659101071.44809,420428.9610626,482
1659101071.44809,420428.9610703,-43
1659101071.44809,420428.9610793,-120
1659101071.44809,420428.9610842,74
1659101071.44809,420428.9610863,93
1659101071.44809,420428.9610883,36
1659101071.44809,420428.9610912,74
1659101071.44809,420428.9610947,108
1659101071.44809,420428.9610992,91
1659101071.44809,420428.9611012,84
1659101071.44809,420428.9611041,91
1659101071.44809,420428.9611061,93
1659101071.44809,420428.96111,100
1659101071.44809,420428.9611153,96
1659101071.44809,420428.9611183,79
1659101071.44809,420428.9611212,69
1659101071.44809,420428.9611251,72
1659101071.44809,420428.9611376,84
1659101071.44809,420428.9611441,86
1659101071.44809,420428.9611522,79
1659101071.44809,420428.9611652,79
1659101071.44809,420428.9611736,86
1659101071.44809,420428.9611829,91
1659101071.44809,420429.4957195,103
1659101071.44809,420429.495738,117
1659101071.44809,420429.4957473,117
1659101071.44809,420429.4957536,108
1659101071.44809,420429.4957604,100
1659101071.44809,420429.4957642,93
1659101071.44809,420429.4957693,74
1659101071.44809,420429.4957731,48
1659101071.44809,420429.4957759,28
1659101071.44809,420429.4957788,21
1659101071.44809,420429.4957834,7
1659101071.44809,420429.4957906,-4
1659101071.44809,420429.4957944,4
1659101071.44809,420429.4957996,-2
1659101071.44809,420429.495804,-40
1659101071.44809,420429.4958094,-43
1659101071.44809,420429.4958136,-4
1659101071.44809,420429.4958198,12
1659101071.44809,420429.4958238,2
1659101071.44809,420429.4958298,-4
1659101071.44809,420429.4958342,-2
1659101071.44809,420429.49584,9
1659101071.46804,420429.4958444,24
1659101071.46804,420429.4958506,24
1659101071.46804,420429.4958564,24
1659101071.46804,420429.4958625,28
1659101071.46804,420429.4958671,19
1659101071.46804,420429.4958731,7
1659101071.46804,420429.4958769,16
1659101071.46804,420429.4958829,16
1659101071.46804,420429.4958875,0
1659101071.46804,420429.4958938,2
1659101071.46804,420429.4958998,26
1659101071.46804,420429.4959059,43
1659101071.46804,420429.4959104,45
1659101071.46804,420429.4959167,40
1659101071.46804,420429.4959212,33
1659101071.46804,420429.4959272,38
1659101071.46804,420429.4959315,55
1659101071.46804,420429.4959376,64
1659101071.46804,420429.4959418,57
1659101071.46804,420429.4959476,48
1659101071.46804,420429.4959523,52
1659101071.46804,420429.4959584,57
1659101071.46804,420429.495963,62
1659101071.46804,420429.4959693,98
1659101072.03367,420429.4959736,122
1659101072.03367,420429.4959792,91
1659101072.03367,420429.4959829,74
1659101072.03367,420429.4959864,110
1659101072.03367,420429.4959899,110
1659101072.03367,420429.4959956,76
1659101072.03367,420429.4960007,81
1659101072.03367,420429.4960071,93
1659101072.03367,420429.4960133,91
1659101072.03367,420429.4960205,93
1659101072.03367,420429.4960236,115
1659101072.03367,420429.4960266,254
1659101072.03367,420429.4960298,554
1659101072.03367,420429.4960329,813
