Time,TimeLsl,Value
1659098388.93922,417745.6795064,40
1659098388.93922,417745.6798846,38
1659098388.93922,417745.6798923,28
1659098388.93922,417745.6798961,7
1659098388.93922,417745.6798997,-7
1659098388.93922,417745.6799038,-2
1659098388.93922,417745.6799077,0
1659098388.93922,417745.6799112,-2
1659098388.93922,417745.6799146,-2
1659098388.93922,417745.679918,-12
1659098388.93922,417745.6799215,-31
1659098388.93922,417745.679925,-24
1659098388.93922,417745.6799284,-7
1659098388.93922,417745.6799318,-2
1659098388.93922,417745.6799352,4
1659098388.93922,417745.6799386,16
1659098388.93922,417745.679942,14
1659098388.93922,417745.6799459,9
1659098388.93922,417745.6799494,4
1659098388.93922,417745.6799529,2
1659098388.93922,417745.6799564,16
1659098388.93922,417745.6799598,28
1659098388.93922,417745.6799632,28
1659098388.93922,417745.6799667,52
1659098388.93922,417745.6799702,180
1659098388.93922,417745.6799736,444
1659098388.93922,417745.6799771,715
1659098388.93922,417745.6799807,686
1659098388.93922,417745.6799841,230
1659098388.93922,417745.6799875,-211
1659098388.93922,417745.679991,-192
1659098388.93922,417745.6799944,0
1659098388.93922,417745.679998,14
1659098388.93922,417745.6800013,-7
1659098388.93922,417745.6800049,31
1659098388.93922,417745.6800082,38
1659098388.93922,417745.6800117,31
1659098388.93922,417745.6800151,57
1659098388.93922,417745.6801874,72
1659098388.93922,417745.6802018,67
1659098388.93922,417745.6802059,62
1659098388.93922,417745.6802094,67
1659098388.93922,417745.6802129,84
1659098388.93922,417745.6802163,98
1659098388.93922,417745.6802197,93
1659098388.93922,417745.6802232,91
1659098388.93922,417745.6802265,93
1659098388.93922,417745.68023,93
1659098388.93922,417745.6802334,98
1659098388.93922,417745.6802373,120
1659098389.06415,417745.6802407,139
1659098389.06415,417745.6802441,134
1659098389.06415,417745.6802475,127
1659098389.06415,417745.6802509,127
1659098389.06415,417745.6802544,129
1659098389.06415,417745.6802578,148
1659098389.06415,417745.6802614,163
1659098389.06415,417745.6802649,151
1659098389.06415,417745.6802683,134
1659098389.06415,417745.6802718,120
1659098389.06415,417745.6802752,108
1659098389.06415,417745.6802786,100
1659098389.06415,417745.6802819,84
1659098389.06415,417745.6802853,81
1659098389.06415,417745.6802887,96
1659098389.06415,417745.6802927,93
1659098389.06415,417745.6802962,88
1659098389.06415,417745.6802996,96
1659098389.06415,417745.6803031,96
1659098389.06415,417745.6803064,96
1659098389.06415,417745.6803098,103
1659098389.06415,417745.6803132,93
1659098389.06415,417745.6803166,86
1659098389.06415,417746.1666185,105
1659098389.06415,417746.1666381,110
1659098389.06415,417746.166644,100
1659098389.06415,417746.1666475,108
1659098389.06415,417746.1666531,98
1659098389.06415,417746.1666586,74
1659098389.06415,417746.1666666,79
1659098389.06415,417746.1666727,79
1659098389.06415,417746.1666797,64
1659098389.06415,417746.1666862,74
1659098389.06415,417746.166693,98
1659098389.06415,417746.1666984,86
1659098389.06415,417746.1667027,57
1659098389.06415,417746.1667058,43
1659098389.06415,417746.1667092,24
1659098389.06415,417746.1667137,16
1659098389.06415,417746.1667183,36
1659098389.06415,417746.1667231,33
1659098389.06415,417746.1667274,12
1659098389.06415,417746.1667345,67
1659098389.06415,417746.1667387,283
1659098389.06415,417746.1667422,604
1659098389.06415,417746.166746,777
1659098389.06415,417746.1667504,506
1659098389.06415,417746.1667541,-33
1659098389.06415,417746.1667587,-218
1659098389.06415,417746.1667633,-45
1659098389.11328,417746.1667682,-7
1659098389.11328,417746.1667765,-88
1659098389.11328,417746.1667831,-74
1659098389.11328,417746.1667881,-57
1659098389.11328,417746.1667914,-74
1659098389.11328,417746.166797,-48
1659098389.11328,417746.1668003,-12
1659098389.11328,417746.1668056,-19
1659098389.11328,417746.1668087,-16
1659098389.11328,417746.1668116,19
1659098389.11328,417746.1668146,21
1659098389.11328,417746.1668176,0
1659098389.11328,417746.1668206,2
1659098389.11328,417746.1668238,12
1659098389.11328,417746.1668291,14
1659098389.11328,417746.1668321,33
1659098389.11328,417746.1668352,48
1659098389.11328,417746.1668402,43
1659098389.11328,417746.1668431,52
1659098389.11328,417746.166846,64
1659098389.11328,417746.1668488,52
1659098389.11328,417746.1668519,48
1659098389.11328,417746.1668546,57
1659098389.11328,417746.1668575,72
1659098389.11328,417746.1668602,100
1659098389.11328,417746.166863,110
1659098389.11328,417746.1668658,86
1659098389.11328,417746.1668686,62
1659098389.11328,417746.1668715,64
1659098389.11328,417746.1668743,62
1659098389.11328,417746.1668771,48
1659098389.11328,417746.16688,45
1659098389.11328,417746.1668828,60
1659098389.11328,417746.1668857,74
1659098389.11328,417746.1668885,76
1659098389.11328,417746.1668913,64
1659098389.11328,417746.1668942,64
1659098389.11328,417746.166897,81
1659098389.11328,417746.1668997,81
1659098389.11328,417746.1669025,74
1659098389.11328,417746.1669053,84
1659098389.11328,417746.1669083,67
1659098389.11328,417746.1669112,40
1659098389.11328,417746.1669141,45
1659098389.11328,417746.1669169,62
1659098389.11328,417746.1669197,74
1659098389.11328,417746.703252,81
1659098389.11328,417746.703273,76
1659098389.38071,417746.7032786,72
1659098389.38071,417746.7032835,91
1659098389.38071,417746.7032882,108
1659098389.38071,417746.7032929,96
1659098389.38071,417746.7032978,74
1659098389.38071,417746.7033025,64
1659098389.38071,417746.7033072,62
1659098389.38071,417746.7033148,60
1659098389.38071,417746.703321,57
1659098389.38071,417746.7033286,38
1659098389.38071,417746.7033347,14
1659098389.38071,417746.7033394,79
1659098389.38071,417746.7033444,302
1659098389.38071,417746.703349,583
1659098389.38071,417746.703355,657
1659098389.38071,417746.7033595,328
1659098389.38071,417746.7033644,-144
1659098389.38071,417746.7033689,-242
1659098389.38071,417746.7033733,-48
1659098389.38071,417746.7033777,7
1659098389.38071,417746.7034215,-52
1659098389.38071,417746.703429,-43
1659098389.38071,417746.7034329,-24
1659098389.38071,417746.7034362,-28
1659098389.38071,417746.7034398,-16
1659098389.38071,417746.7034432,-4
1659098389.38071,417746.7034466,-2
1659098389.38071,417746.7034499,7
1659098389.38071,417746.703454,21
1659098389.38071,417746.7034573,26
1659098389.38071,417746.7034605,26
1659098389.38071,417746.7034638,21
1659098389.38071,417746.7034671,21
1659098389.38071,417746.7034704,33
1659098389.38071,417746.7034738,45
1659098389.38071,417746.7034792,52
1659098389.38071,417746.7034827,64
1659098389.38071,417746.7034864,72
1659098389.38071,417746.7034897,72
1659098389.38071,417746.7034931,81
1659098389.38071,417746.7034965,84
1659098389.38071,417746.7034999,81
1659098389.38071,417746.7035033,96
1659098389.38071,417746.7035067,108
1659098389.38071,417746.7035102,108
1659098389.38071,417746.7035133,100
1659098389.38071,417746.7035166,93
1659098389.38071,417746.7035196,84
1659098389.38071,417746.7035226,67
1659098389.38071,417746.7035254,64
1659098389.43357,417746.7035285,74
1659098389.43357,417746.7035316,84
1659098389.43357,417746.703535,84
1659098389.43357,417746.7035387,79
1659098389.43357,417746.7035422,93
1659098389.43357,417746.7035458,112
1659098389.43357,417746.7035494,112
1659098389.43357,417746.703553,103
1659098389.43357,417746.7035586,100
1659098389.43357,417746.7035621,110
1659098389.43357,417746.7035657,115
1659098389.43357,417746.7035692,100
1659098389.43357,417746.7035727,96
1659098389.43357,417746.7035763,105
1659098389.43357,417746.7035799,108
1659098389.43357,417746.7035834,100
1659098389.43357,417746.7035867,103
1659098389.43357,417746.70359,120
1659098389.43357,417746.7035933,141
1659098389.43357,417746.7035967,151
1659098389.43357,417746.7036001,134
1659098389.43357,417747.2870119,115
1659098389.43357,417747.287029,115
1659098389.43357,417747.2870397,108
1659098389.78486,417747.2870492,103
1659098389.78486,417747.2870564,105
1659098389.78486,417747.2870628,93
1659098389.78486,417747.2870696,62
1659098389.78486,417747.2870762,76
1659098389.78486,417747.2870808,230
1659098389.78486,417747.2870861,520
1659098389.78486,417747.2870908,768
1659098389.78486,417747.2870974,631
1659098389.78486,417747.2871041,98
1659098389.78486,417747.2871106,-220
1659098389.78486,417747.2871149,-60
1659098389.78486,417747.2871193,74
1659098389.78486,417747.2871245,-7
1659098389.78486,417747.2871288,-16
1659098389.78486,417747.287135,31
1659098389.78486,417747.2871413,12
1659098389.78486,417747.2871508,2
1659098389.78486,417747.2871594,36
1659098389.78486,417747.2871652,45
1659098389.78486,417747.2871717,36
1659098389.78486,417747.2871786,45
1659098389.78486,417747.2871869,57
1659098389.78486,417747.2871927,60
1659098389.78486,417747.2871992,64
1659098389.78486,417747.2872033,76
1659098389.78486,417747.2872079,81
1659098389.78486,417747.2872156,74
1659098389.78486,417747.28722,74
1659098389.78486,417747.2872259,86
1659098389.78486,417747.2872317,88
1659098389.78486,417747.2872379,79
1659098389.78486,417747.287243,76
1659098389.78486,417747.2872479,81
1659098389.78486,417747.2872549,88
1659098389.78486,417747.2872618,100
1659098389.78486,417747.2872698,108
1659098389.78486,417747.2872768,108
1659098389.78486,417747.2872847,108
1659098389.78486,417747.2872915,100
1659098389.78486,417747.2872995,81
1659098389.78486,417747.2873053,74
1659098389.78486,417747.2873117,79
1659098389.78486,417747.2873166,84
1659098389.78486,417747.2873235,76
1659098389.78486,417747.2873305,64
1659098389.78486,417747.2873371,74
1659098389.78486,417747.2873439,88
1659098389.78486,417747.2873496,88
1659098389.78486,417747.2873582,96
1659098389.79582,417747.2873648,108
1659098389.79582,417747.2873714,110
1659098389.79582,417747.2873766,115
1659098389.79582,417747.287383,110
1659098389.79582,417747.2873876,91
1659098389.79582,417747.2873945,84
1659098389.79582,417747.2874011,105
1659098389.79582,417747.287408,120
1659098389.79582,417747.2874127,115
1659098389.79582,417747.2874181,98
1659098389.79582,417747.287425,76
1659098389.79582,417747.2874295,81
1659098389.79582,417747.2874337,103
1659098389.79582,417747.2874397,105
1659098389.79582,417747.2874447,103
1659098389.79582,417747.2874536,110
1659098389.79582,417747.2874581,120
1659098389.79582,417747.2874983,120
1659098389.79582,417747.2875053,93
1659098389.79582,417747.2875104,69
1659098389.79582,417747.8243579,76
1659098389.79582,417747.8243801,79
1659098389.79582,417747.8243893,69
1659098389.79582,417747.8243982,100
1659098390.31877,417747.8244097,261
1659098390.31877,417747.8244135,556
1659098390.31877,417747.8244158,804
1659098390.31877,417747.8244178,677
1659098390.31877,417747.824421,165
1659098390.31877,417747.82443,-158
1659098390.31877,417747.8244368,-36
1659098390.31877,417747.8244431,79
1659098390.31877,417747.8244517,16
1659098390.31877,417747.8244577,16
1659098390.31877,417747.8244655,60
1659098390.31877,417747.8244713,31
1659098390.31877,417747.824479,16
1659098390.31877,417747.8244854,45
1659098390.31877,417747.8244939,48
1659098390.31877,417747.8245011,36
1659098390.31877,417747.8245069,52
1659098390.31877,417747.8245154,67
1659098390.31877,417747.8245203,64
1659098390.31877,417747.8245234,62
1659098390.31877,417747.824527,67
1659098390.31877,417747.824532,67
1659098390.31877,417747.8245364,60
1659098390.31877,417747.8245401,69
1659098390.31877,417747.8245433,86
1659098390.31877,417747.8245476,76
1659098390.31877,417747.8245523,69
1659098390.31877,417747.8245609,91
1659098390.31877,417747.8245702,108
1659098390.31877,417747.8245751,115
1659098390.31877,417747.8245858,132
1659098390.31877,417747.8245985,139
1659098390.31877,417747.824608,132
1659098390.31877,417747.824613,129
1659098390.31877,417747.824625,127
1659098390.31877,417747.824633,117
1659098390.31877,417747.8246369,103
1659098390.31877,417747.8246425,84
1659098390.31877,417747.8246461,86
1659098390.31877,417747.8246498,103
1659098390.31877,417747.8246535,108
1659098390.31877,417747.8246587,105
1659098390.31877,417747.8246621,110
1659098390.31877,417747.8246658,115
1659098390.31877,417747.8246714,120
1659098390.31877,417747.8246761,120
1659098390.31877,417747.8246798,117
1659098390.31877,417747.8246834,122
1659098390.31877,417747.8246869,129
1659098390.31877,417747.8246905,122
1659098390.33972,417747.8246957,117
1659098390.33972,417747.8247007,122
1659098390.33972,417747.8247056,122
1659098390.33972,417747.824709,108
1659098390.33972,417747.8247126,93
1659098390.33972,417747.8247162,103
1659098390.33972,417747.8247198,108
1659098390.33972,417747.8247232,93
1659098390.33972,417747.824727,84
1659098390.33972,417747.8247329,84
1659098390.33972,417747.8247367,79
1659098390.33972,417747.8247406,69
1659098390.33972,417747.824746,60
1659098390.33972,417747.8247505,64
1659098390.33972,417747.8247558,74
1659098390.33972,417747.8247612,67
1659098390.33972,417747.8247649,69
1659098390.33972,417747.8247716,86
1659098390.33972,417747.8247776,79
1659098390.33972,417748.3593791,60
1659098390.33972,417748.3593988,60
1659098390.33972,417748.359404,76
1659098390.33972,417748.3594085,81
1659098390.33972,417748.359413,74
1659098390.96101,417748.3594172,64
1659098390.96101,417748.3594221,64
1659098390.96101,417748.3594263,127
1659098390.96101,417748.3594318,355
1659098390.96101,417748.359438,698
1659098390.96101,417748.3594423,847
1659098390.96101,417748.3594469,508
1659098390.96101,417748.3594514,-64
1659098390.96101,417748.3594555,-232
1659098390.96101,417748.3594601,-24
1659098390.96101,417748.3594646,26
1659098390.96101,417748.359469,-64
1659098390.96101,417748.3594735,-48
1659098390.96101,417748.359478,-7
1659098390.96101,417748.3594824,-24
1659098390.96101,417748.359487,-21
1659098390.96101,417748.3594914,2
1659098390.96101,417748.3594956,4
1659098390.96101,417748.3594999,7
1659098390.96101,417748.3595042,21
1659098390.96101,417748.3595098,26
1659098390.96101,417748.3595163,24
1659098390.96101,417748.359522,28
1659098390.96101,417748.3595264,38
1659098390.96101,417748.3595307,48
1659098390.96101,417748.3595351,50
1659098390.96101,417748.3595396,45
1659098390.96101,417748.3595458,45
1659098390.96101,417748.3595501,57
1659098390.96101,417748.359556,60
1659098390.96101,417748.3595606,64
1659098390.96101,417748.3595664,81
1659098390.96101,417748.3595715,88
1659098390.96101,417748.3595771,84
1659098390.96101,417748.3595817,86
1659098390.96101,417748.3595875,93
1659098390.96101,417748.3595923,91
1659098390.96101,417748.3595983,81
1659098390.96101,417748.3596028,72
1659098390.96101,417748.3596093,62
1659098390.96101,417748.3596149,43
1659098390.96101,417748.3596207,31
1659098390.96101,417748.3596252,36
1659098390.96101,417748.3596333,36
1659098390.96101,417748.359638,36
1659098390.96101,417748.3596461,48
1659098390.96101,417748.3596511,55
1659098390.96101,417748.3596554,48
1659098390.96101,417748.35966,38
1659098390.96101,417748.3596682,43
1659098390.97497,417748.3596772,52
1659098390.97497,417748.3596821,50
1659098390.97497,417748.359688,36
1659098390.97497,417748.3596952,26
1659098390.97497,417748.3597025,24
1659098390.97497,417748.3597088,19
1659098390.97497,417748.359716,16
1659098390.97497,417748.3597208,21
1659098390.97497,417748.3597258,21
1659098390.97497,417748.3597323,14
1659098390.97497,417748.359737,19
1659098390.97497,417748.3597427,31
1659098390.97497,417748.3597475,43
1659098390.97497,417748.3597518,50
1659098390.97497,417748.359758,45
1659098390.97497,417748.3597622,28
1659098390.97497,417748.3597675,26
1659098390.97497,417748.3597735,28
1659098390.97497,417748.9932779,33
1659098390.97497,417748.9932955,38
1659098390.97497,417748.9933049,24
1659098390.97497,417748.993313,2
1659098390.97497,417748.9933177,2
1659098390.97497,417748.9933232,4
1659098391.48874,417748.9933268,-2
1659098391.48874,417748.9933301,-4
1659098391.48874,417748.9933335,4
1659098391.48874,417748.9933368,-14
1659098391.48874,417748.9933404,-43
1659098391.48874,417748.9933436,-38
1659098391.48874,417748.9933468,-7
1659098391.48874,417748.9933501,7
1659098391.48874,417748.993358,12
1659098391.48874,417748.993368,14
1659098391.48874,417748.9933756,-2
1659098391.48874,417748.993383,-19
1659098391.48874,417748.9933923,-14
1659098391.48874,417748.9933969,0
1659098391.48874,417748.9934075,0
1659098391.48874,417748.9934137,2
1659098391.48874,417748.9934213,7
1659098391.48874,417748.9934288,28
1659098391.48874,417748.9934356,134
1659098391.48874,417748.9934417,384
1659098391.48874,417748.9934476,674
1659098391.48874,417748.9934511,717
1659098391.48874,417748.9934543,312
1659098391.48874,417748.9934578,-168
1659098391.48874,417748.9934617,-208
1659098391.48874,417748.9934651,-12
1659098391.48874,417748.9934691,14
1659098391.48874,417748.9934727,-24
1659098391.48874,417748.9934782,7
1659098391.48874,417748.9934822,19
1659098391.48874,417748.993489,7
1659098391.48874,417748.9934922,24
1659098391.48874,417748.9934985,45
1659098391.48874,417748.9935056,40
1659098391.48874,417748.9935129,24
1659098391.48874,417748.9935183,24
1659098391.48874,417748.9935236,38
1659098391.48874,417748.9935296,52
1659098391.48874,417748.9935362,64
1659098391.48874,417748.9935409,67
1659098391.48874,417748.9935467,67
1659098391.48874,417748.9935538,72
1659098391.48874,417748.9935582,79
1659098391.48874,417748.9935638,91
1659098391.48874,417748.9935709,103
1659098391.48874,417748.9935755,91
1659098391.48874,417748.9935812,76
1659098391.48874,417748.9935882,91
1659098391.48874,417748.9935956,108
1659098391.48874,417748.9936032,108
1659098391.50121,417748.9936098,120
1659098391.50121,417748.9936154,132
1659098391.50121,417748.9936244,112
1659098391.50121,417748.9936291,98
1659098391.50121,417748.9936325,98
1659098391.50121,417748.9936463,76
1659098391.50121,417748.9936595,55
1659098391.50121,417748.9936717,57
1659098391.50121,417748.9936812,67
1659098391.50121,417748.9936942,72
1659098391.50121,417748.9937063,72
1659098391.50121,417748.9937149,72
1659098391.50121,417748.9937264,81
1659098391.50121,417748.993734,91
1659098391.50121,417748.9937415,84
1659098391.50121,417748.9937513,76
1659098391.50121,417748.9937568,81
1659098391.50121,417749.5305668,88
1659098391.50121,417749.5306044,88
1659098391.50121,417749.5306092,86
1659098391.50121,417749.530614,84
1659098391.50121,417749.5306186,86
1659098391.50121,417749.5306224,91
1659098391.50121,417749.5306267,91
1659098392.07556,417749.5306308,81
1659098392.07556,417749.530635,76
1659098392.07556,417749.5306388,79
1659098392.07556,417749.5306422,79
1659098392.07556,417749.5306455,72
1659098392.07556,417749.5306488,60
1659098392.07556,417749.5306523,45
1659098392.07556,417749.5306556,40
1659098392.07556,417749.5306591,50
1659098392.07556,417749.5306626,55
1659098392.07556,417749.530666,57
1659098392.07556,417749.5306703,52
1659098392.07556,417749.530677,36
1659098392.07556,417749.5306824,24
1659098392.07556,417749.5306881,33
1659098392.07556,417749.5306938,43
1659098392.07556,417749.5307003,45
1659098392.07556,417749.5307066,50
1659098392.07556,417749.5307126,52
1659098392.07556,417749.5307196,52
1659098392.07556,417749.530726,57
1659098392.07556,417749.5307328,57
1659098392.07556,417749.5307392,62
1659098392.07556,417749.5307512,64
1659098392.07556,417749.5307569,50
1659098392.07556,417749.530762,48
1659098392.07556,417749.5307668,69
1659098392.07556,417749.5307716,96
1659098392.07556,417749.5307805,100
1659098392.07556,417749.5307861,88
1659098392.07556,417749.5307929,74
1659098392.07556,417749.5307988,69
1659098392.07556,417749.5308021,72
1659098392.07556,417749.5308053,74
1659098392.07556,417749.5308097,76
1659098392.07556,417749.5308153,79
1659098392.07556,417749.5308272,69
1659098392.07556,417749.5308379,88
1659098392.07556,417749.5308465,235
1659098392.07556,417749.5308515,520
1659098392.07556,417749.5308667,780
1659098392.07556,417749.5308731,705
1659098392.07556,417749.5308856,218
1659098392.07556,417749.5308971,-184
1659098392.07556,417749.5309081,-124
1659098392.07556,417749.5309169,40
1659098392.07556,417749.5309247,16
1659098392.07556,417749.5309334,-4
1659098392.07556,417749.5309393,38
1659098392.07556,417749.5309453,33
1659098392.09351,417749.5309498,19
1659098392.09351,417749.5309561,38
1659098392.09351,417749.5309619,48
1659098392.09351,417749.5309651,40
1659098392.09351,417749.5309781,38
1659098392.09351,417749.5309862,36
1659098392.09351,417749.5309915,33
1659098392.09351,417749.5309968,36
1659098392.09351,417749.5310041,38
1659098392.09351,417749.531014,45
1659098392.09351,417749.5310241,55
1659098392.09351,417749.5310341,57
1659098392.09351,417749.5310403,62
1659098392.09351,417749.5310454,69
1659098392.09351,417749.5310605,79
1659098392.09351,417749.5310696,84
1659098392.09351,417750.1152671,88
1659098392.09351,417750.1152882,91
1659098392.09351,417750.1152938,98
1659098392.09351,417750.1152985,105
1659098392.09351,417750.1153024,112
1659098392.09351,417750.1153086,110
1659098392.09351,417750.1153143,100
1659098392.09351,417750.1153206,86
1659098392.60878,417750.115326,64
1659098392.60878,417750.1153299,36
1659098392.60878,417750.1153337,7
1659098392.60878,417750.1153378,2
1659098392.60878,417750.115342,4
1659098392.60878,417750.1153461,4
1659098392.60878,417750.1153496,4
1659098392.60878,417750.1153546,0
1659098392.60878,417750.1153582,-14
1659098392.60878,417750.1153617,-12
1659098392.60878,417750.1153655,0
1659098392.60878,417750.1153692,4
1659098392.60878,417750.1153735,7
1659098392.60878,417750.1153777,7
1659098392.60878,417750.1153814,0
1659098392.60878,417750.1153851,2
1659098392.60878,417750.115389,12
1659098392.60878,417750.115393,16
1659098392.60878,417750.1153969,14
1659098392.60878,417750.1154005,12
1659098392.60878,417750.115404,12
1659098392.60878,417750.1154074,12
1659098392.60878,417750.1154106,14
1659098392.60878,417750.115414,16
1659098392.60878,417750.1154187,24
1659098392.60878,417750.1154301,31
1659098392.60878,417750.1154336,33
1659098392.60878,417750.1154377,31
1659098392.60878,417750.1154415,21
1659098392.60878,417750.1154454,16
1659098392.60878,417750.1154492,28
1659098392.60878,417750.1154531,38
1659098392.60878,417750.115457,36
1659098392.60878,417750.1154635,38
1659098392.60878,417750.1154673,45
1659098392.60878,417750.1154711,48
1659098392.60878,417750.1154751,52
1659098392.60878,417750.1154793,64
1659098392.60878,417750.1154852,69
1659098392.60878,417750.1154892,72
1659098392.60878,417750.1154954,72
1659098392.60878,417750.1155015,72
1659098392.60878,417750.1155075,81
1659098392.60878,417750.1155114,91
1659098392.60878,417750.1155153,93
1659098392.60878,417750.1155193,88
1659098392.60878,417750.1155254,84
1659098392.60878,417750.1155298,81
1659098392.60878,417750.1155357,86
1659098392.60878,417750.1155398,105
1659098392.62573,417750.1155438,120
1659098392.62573,417750.1155479,122
1659098392.62573,417750.1155519,110
1659098392.62573,417750.1155579,88
1659098392.62573,417750.1155624,86
1659098392.62573,417750.1155683,100
1659098392.62573,417750.1155723,103
1659098392.62573,417750.1155762,98
1659098392.62573,417750.1155823,91
1659098392.62573,417750.1155863,103
1659098392.62573,417750.1155925,204
1659098392.62573,417750.1155987,458
1659098392.62573,417750.1156046,780
1659098392.62573,417750.1156104,881
1659098392.62573,417750.1156164,499
1659098392.62573,417750.6510191,-40
1659098392.62573,417750.6510367,-132
1659098392.62573,417750.6510464,72
1659098392.62573,417750.6510543,84
1659098392.62573,417750.6510613,19
1659098392.62573,417750.6510682,45
1659098392.62573,417750.6510752,38
1659098392.62573,417750.6511055,0
1659098392.62573,417750.651116,12
1659098393.2017,417750.6511212,28
1659098393.2017,417750.651126,21
1659098393.2017,417750.6511307,24
1659098393.2017,417750.6511352,28
1659098393.2017,417750.6511394,28
1659098393.2017,417750.6511435,38
1659098393.2017,417750.6511481,52
1659098393.2017,417750.6511549,50
1659098393.2017,417750.6511882,50
1659098393.2017,417750.6511986,62
1659098393.2017,417750.6512043,52
1659098393.2017,417750.6512095,43
1659098393.2017,417750.6512159,67
1659098393.2017,417750.6512205,81
1659098393.2017,417750.6512234,76
1659098393.2017,417750.6512283,86
1659098393.2017,417750.6512335,103
1659098393.2017,417750.6512391,115
1659098393.2017,417750.6512428,117
1659098393.2017,417750.6512457,98
1659098393.2017,417750.6512486,76
1659098393.2017,417750.6512515,57
1659098393.2017,417750.6512543,40
1659098393.2017,417750.6512573,36
1659098393.2017,417750.6512601,38
1659098393.2017,417750.6512629,43
1659098393.2017,417750.6512658,40
1659098393.2017,417750.6512686,36
1659098393.2017,417750.6512715,40
1659098393.2017,417750.6512744,57
1659098393.2017,417750.6512773,72
1659098393.2017,417750.6512801,74
1659098393.2017,417750.6512829,76
1659098393.2017,417750.6512858,79
1659098393.2017,417750.6512891,79
1659098393.2017,417750.6512961,79
1659098393.2017,417750.6513006,81
1659098393.2017,417750.6513036,86
1659098393.2017,417750.6513065,98
1659098393.2017,417750.6513139,103
1659098393.2017,417750.6513175,93
1659098393.2017,417750.6513229,81
1659098393.2017,417750.6513261,79
1659098393.2017,417750.6513292,91
1659098393.2017,417750.6513322,91
1659098393.2017,417750.6513352,86
1659098393.2017,417750.6513382,98
1659098393.2017,417750.6513413,105
1659098393.2017,417750.6513445,91
1659098393.2017,417750.6513486,72
1659098393.21728,417750.6513518,67
1659098393.21728,417750.6513558,76
1659098393.21728,417750.6513602,86
1659098393.21728,417750.6513643,93
1659098393.21728,417750.6513673,88
1659098393.21728,417750.6513708,76
1659098393.21728,417750.6513739,79
1659098393.21728,417750.651377,84
1659098393.21728,417750.6513803,79
1659098393.21728,417750.6513837,79
1659098393.21728,417750.651387,88
1659098393.21728,417750.6513931,100
1659098393.21728,417750.6513988,93
1659098393.21728,417750.6514114,81
1659098393.21728,417751.2370778,74
1659098393.21728,417751.2370981,69
1659098393.21728,417751.2371092,76
1659098393.21728,417751.2371138,84
1659098393.21728,417751.2371196,69
1659098393.21728,417751.2371282,57
1659098393.21728,417751.237133,60
1659098393.21728,417751.2371359,62
1659098393.21728,417751.2371387,43
1659098393.21728,417751.2371416,19
1659098393.73682,417751.2371446,21
1659098393.73682,417751.2371476,40
1659098393.73682,417751.2371506,43
1659098393.73682,417751.2371535,31
1659098393.73682,417751.2371567,36
1659098393.73682,417751.2371599,45
1659098393.73682,417751.2371629,40
1659098393.73682,417751.2371658,38
1659098393.73682,417751.2371687,33
1659098393.73682,417751.2371717,19
1659098393.73682,417751.2371748,7
1659098393.73682,417751.237178,4
1659098393.73682,417751.237182,4
1659098393.73682,417751.2371865,0
1659098393.73682,417751.23719,2
1659098393.73682,417751.2371945,40
1659098393.73682,417751.237218,168
1659098393.73682,417751.2372555,427
1659098393.73682,417751.2372814,705
1659098393.73682,417751.2373222,693
1659098393.73682,417751.2373267,252
1659098393.73682,417751.2373316,-184
1659098393.73682,417751.2373385,-175
1659098393.73682,417751.2373454,-2
1659098393.73682,417751.2373503,-7
1659098393.73682,417751.2373547,-43
1659098393.73682,417751.2373585,-7
1659098393.73682,417751.2373646,4
1659098393.73682,417751.2373714,2
1659098393.73682,417751.2373782,19
1659098393.73682,417751.237385,14
1659098393.73682,417751.2373911,4
1659098393.73682,417751.2373963,26
1659098393.73682,417751.2374031,52
1659098393.73682,417751.23741,48
1659098393.73682,417751.2374163,38
1659098393.73682,417751.2374205,57
1659098393.73682,417751.2374283,69
1659098393.73682,417751.2374378,67
1659098393.73682,417751.2374441,67
1659098393.73682,417751.237451,72
1659098393.73682,417751.2374591,76
1659098393.73682,417751.2374635,91
1659098393.73682,417751.2374717,100
1659098393.73682,417751.2374805,105
1659098393.73682,417751.2374891,115
1659098393.73682,417751.2374962,124
1659098393.73682,417751.2375037,136
1659098393.73682,417751.2375076,136
1659098393.73682,417751.2375127,127
1659098393.75277,417751.2375215,112
1659098393.75277,417751.2375285,93
1659098393.75277,417751.2375362,76
1659098393.75277,417751.2375428,62
1659098393.75277,417751.2375517,57
1659098393.75277,417751.2375575,62
1659098393.75277,417751.2375707,55
1659098393.75277,417751.2375813,40
1659098393.75277,417751.2375922,36
1659098393.75277,417751.2376032,36
1659098393.75277,417751.2376108,24
1659098393.75277,417751.2376219,12
1659098393.75277,417751.2376323,24
1659098393.75277,417751.772604,38
1659098393.75277,417751.7726216,36
1659098393.75277,417751.7726282,43
1659098393.75277,417751.7726374,55
1659098393.75277,417751.772644,43
1659098393.75277,417751.7726501,31
1659098393.75277,417751.7726546,33
1659098393.75277,417751.7726605,43
1659098393.75277,417751.7726649,43
1659098393.75277,417751.7726709,40
1659098393.75277,417751.7726767,38
1659098394.32254,417751.7726807,38
1659098394.32254,417751.7726846,31
1659098394.32254,417751.7726885,7
1659098394.32254,417751.7726926,-9
1659098394.32254,417751.7726962,-2
1659098394.32254,417751.7727001,7
1659098394.32254,417751.7727045,7
1659098394.32254,417751.77271,2
1659098394.32254,417751.7727136,-9
1659098394.32254,417751.772717,-16
1659098394.32254,417751.7727206,-7
1659098394.32254,417751.7727259,7
1659098394.32254,417751.7727297,14
1659098394.32254,417751.7727357,21
1659098394.32254,417751.7727406,21
1659098394.32254,417751.7727465,12
1659098394.32254,417751.7727514,7
1659098394.32254,417751.7727572,12
1659098394.32254,417751.7727627,21
1659098394.32254,417751.7727688,26
1659098394.32254,417751.7727733,31
1659098394.32254,417751.7727797,43
1659098394.32254,417751.7727838,57
1659098394.32254,417751.7727896,52
1659098394.32254,417751.7727932,40
1659098394.32254,417751.772797,48
1659098394.32254,417751.7728008,57
1659098394.32254,417751.7728063,55
1659098394.32254,417751.7728096,62
1659098394.32254,417751.7728129,79
1659098394.32254,417751.7728167,93
1659098394.32254,417751.7728205,105
1659098394.32254,417751.7728242,103
1659098394.32254,417751.7728297,84
1659098394.32254,417751.7728353,64
1659098394.32254,417751.7728391,55
1659098394.32254,417751.7728449,67
1659098394.32254,417751.7728484,86
1659098394.32254,417751.7728518,86
1659098394.32254,417751.7728571,84
1659098394.32254,417751.7728604,132
1659098394.32254,417751.7728638,295
1659098394.32254,417751.7728671,561
1659098394.32254,417751.7728704,782
1659098394.32254,417751.7728754,686
1659098394.32254,417751.7728802,213
1659098394.32254,417751.7728851,-158
1659098394.32254,417751.7728888,-96
1659098394.32254,417751.7728924,43
1659098394.32254,417751.7728994,7
1659098394.3395,417751.7729034,-7
1659098394.3395,417751.7729084,38
1659098394.3395,417751.7729119,31
1659098394.3395,417751.7729155,12
1659098394.3395,417751.7729191,24
1659098394.3395,417751.7729227,31
1659098394.3395,417751.7729277,33
1659098394.3395,417751.7729327,45
1659098394.3395,417751.7729377,48
1659098394.3395,417751.772941,43
1659098394.3395,417751.7729443,50
1659098394.3395,417751.7729475,55
1659098394.3395,417752.3582043,55
1659098394.3395,417752.3582222,72
1659098394.3395,417752.3582313,76
1659098394.3395,417752.3582383,72
1659098394.3395,417752.358243,86
1659098394.3395,417752.3582482,103
1659098394.3395,417752.358255,98
1659098394.3395,417752.35826,88
1659098394.3395,417752.3582647,86
1659098394.3395,417752.3582699,84
1659098394.3395,417752.3582728,81
1659098394.3395,417752.3582759,84
1659098394.86744,417752.3582818,69
1659098394.86744,417752.3582867,52
1659098394.86744,417752.3582908,50
1659098394.86744,417752.3582948,21
1659098394.86744,417752.3582984,-26
1659098394.86744,417752.3583013,-31
1659098394.86744,417752.3583047,-7
1659098394.86744,417752.3583079,-12
1659098394.86744,417752.3583119,-28
1659098394.86744,417752.3583337,-21
1659098394.86744,417752.3583403,-4
1659098394.86744,417752.3583451,4
1659098394.86744,417752.3583586,4
1659098394.86744,417752.3583673,14
1659098394.86744,417752.3583717,21
1659098394.86744,417752.3583779,16
1659098394.86744,417752.3583832,16
1659098394.86744,417752.3583888,36
1659098394.86744,417752.3583928,55
1659098394.86744,417752.3583991,62
1659098394.86744,417752.3584057,50
1659098394.86744,417752.3584115,45
1659098394.86744,417752.3584162,60
1659098394.86744,417752.3584258,64
1659098394.86744,417752.3584306,62
1659098394.86744,417752.3584366,60
1659098394.86744,417752.3584427,50
1659098394.86744,417752.3584496,48
1659098394.86744,417752.3584544,57
1659098394.86744,417752.3584594,55
1659098394.86744,417752.3584645,52
1659098394.86744,417752.3584716,64
1659098394.86744,417752.3584789,74
1659098394.86744,417752.358491,72
1659098394.86744,417752.3585002,72
1659098394.86744,417752.3585127,74
1659098394.86744,417752.3585212,72
1659098394.86744,417752.3585304,74
1659098394.86744,417752.3585353,76
1659098394.86744,417752.3585453,81
1659098394.86744,417752.3585511,79
1659098394.86744,417752.3585571,60
1659098394.86744,417752.3585683,60
1659098394.86744,417752.3585789,86
1659098394.86744,417752.3585827,88
1659098394.86744,417752.3585923,79
1659098394.86744,417752.3586014,84
1659098394.86744,417752.3586124,86
1659098394.86744,417752.3586211,74
1659098394.86744,417752.3586288,72
1659098394.88938,417752.3586396,72
1659098394.88938,417752.3586446,69
1659098394.88938,417752.3586502,74
1659098394.88938,417752.3586542,81
1659098394.88938,417752.3586594,79
1659098394.88938,417752.3586631,81
1659098394.88938,417752.3586667,76
1659098394.88938,417752.3586719,72
1659098394.88938,417752.3586759,84
1659098394.88938,417752.3586797,105
1659098394.88938,417752.3586847,105
1659098394.88938,417752.8937096,93
1659098394.88938,417752.8937296,84
1659098394.88938,417752.8937389,79
1659098394.88938,417752.8937458,72
1659098394.88938,417752.8937538,74
1659098394.88938,417752.8937583,81
1659098394.88938,417752.8937654,84
1659098394.88938,417752.893773,81
1659098394.88938,417752.893779,79
1659098394.88938,417752.8937846,124
1659098394.88938,417752.8937911,300
1659098394.88938,417752.8937954,600
1659098394.88938,417752.893801,813
1659098395.39008,417752.893806,628
1659098395.39008,417752.8938098,91
1659098395.39008,417752.8938136,-232
1659098395.39008,417752.8938173,-100
1659098395.39008,417752.893821,33
1659098395.39008,417752.8938249,-21
1659098395.39008,417752.8938286,-48
1659098395.39008,417752.8938323,-7
1659098395.39008,417752.8938361,0
1659098395.39008,417752.8938432,-4
1659098395.39008,417752.8938498,7
1659098395.39008,417752.893854,12
1659098395.39008,417752.8938587,7
1659098395.39008,417752.8938653,21
1659098395.39008,417752.8938698,50
1659098395.39008,417752.8938845,60
1659098395.39008,417752.8938898,55
1659098395.39008,417752.8938937,57
1659098395.39008,417752.8939028,64
1659098395.39008,417752.8939081,79
1659098395.39008,417752.8939139,98
1659098395.39008,417752.8939167,105
1659098395.39008,417752.8939197,117
1659098395.39008,417752.8939227,134
1659098395.39008,417752.8939273,134
1659098395.39008,417752.8939341,134
1659098395.39008,417752.8939379,141
1659098395.39008,417752.8939409,146
1659098395.39008,417752.8939438,146
1659098395.39008,417752.8939474,139
1659098395.39008,417752.8939522,134
1659098395.39008,417752.893958,117
1659098395.39008,417752.8939632,88
1659098395.39008,417752.8939708,72
1659098395.39008,417752.8939738,69
1659098395.39008,417752.8939785,60
1659098395.39008,417752.8939843,57
1659098395.39008,417752.8939879,55

1659098395.39008,417752.8939907,50
1659098395.39008,417752.8939936,52
1659098395.39008,417752.8939965,64
1659098395.39008,417752.8939993,69
1659098395.39008,417752.8940033,72
1659098395.39008,417752.8940083,74
1659098395.39008,417752.8940129,74
1659098395.39008,417752.894016,74
1659098395.39008,417752.8940189,84
1659098395.39008,417752.894022,91
1659098395.39008,417752.8940249,84
1659098395.39008,417752.8940278,74
1659098395.40998,417752.8940339,76
1659098395.40998,417752.8940403,72
1659098395.40998,417752.8940433,52
1659098395.40998,417752.8940461,40
1659098395.40998,417752.8940538,43
1659098395.40998,417752.8940569,43
1659098395.40998,417752.894066,36
1659098395.40998,417752.8940734,36
1659098395.40998,417752.8940796,38
1659098395.40998,417752.8940861,40
1659098395.40998,417753.431462,33
1659098395.40998,417753.4315581,31
1659098395.40998,417753.4315651,33
1659098395.40998,417753.431569,36
1659098395.40998,417753.4315723,38
1659098395.40998,417753.4315757,43
1659098395.40998,417753.4315796,48
1659098395.40998,417753.4315829,48
1659098395.40998,417753.4315864,43
1659098395.40998,417753.4315929,33
1659098395.40998,417753.4315967,24
1659098395.40998,417753.4316001,31
1659098395.40998,417753.4316037,36
1659098395.40998,417753.4316072,31
1659098395.99299,417753.4316107,33
1659098395.99299,417753.4316145,38
1659098395.99299,417753.4316181,33
1659098395.99299,417753.4316212,26
1659098395.99299,417753.4316243,31
1659098395.99299,417753.4316277,43
1659098395.99299,417753.4316311,48
1659098395.99299,417753.4316347,48
1659098395.99299,417753.4316382,45
1659098395.99299,417753.4316424,52
1659098395.99299,417753.4316462,64
1659098395.99299,417753.4316497,67
1659098395.99299,417753.4316532,76
1659098395.99299,417753.4316566,100
1659098395.99299,417753.4316601,110
1659098395.99299,417753.4316636,100
1659098395.99299,417753.4316671,86
1659098395.99299,417753.4316706,76
1659098395.99299,417753.431674,72
1659098395.99299,417753.4316775,72
1659098395.99299,417753.4316811,86
1659098395.99299,417753.4316844,93
1659098395.99299,417753.4316877,84
1659098395.99299,417753.4316908,81
1659098395.99299,417753.4316956,151
1659098395.99299,417753.4316987,372
1659098395.99299,417753.4317026,698
1659098395.99299,417753.4317062,900
1659098395.99299,417753.4317099,674
1659098395.99299,417753.4317161,112
1659098395.99299,417753.4317199,-170
1659098395.99299,417753.4317264,-9
1659098395.99299,417753.4317328,91
1659098395.99299,417753.4317418,19
1659098395.99299,417753.4317508,19
1659098395.99299,417753.4317578,57
1659098395.99299,417753.4317649,40
1659098395.99299,417753.4317734,36
1659098395.99299,417753.4317805,62
1659098395.99299,417753.4317857,72
1659098395.99299,417753.431795,69
1659098395.99299,417753.4318014,76
1659098395.99299,417753.431809,88
1659098395.99299,417753.4318175,79
1659098395.99299,417753.4318244,57
1659098395.99299,417753.4318332,50
1659098395.99299,417753.4318408,55
1659098395.99299,417753.4318491,62
1659098395.99299,417753.4318568,81
1659098395.99299,417753.4318625,96
1659098396.02068,417753.4318662,86
1659098396.02068,417753.4318713,86
1659098396.02068,417753.4318749,103
1659098396.02068,417753.4318806,108
1659098396.02068,417753.4318848,108
1659098396.02068,417753.4318904,120
1659098396.02068,417753.431894,124
1659098396.02068,417753.431899,122
1659098396.02068,417753.4319022,115
1659098396.02068,417754.0149626,96
1659098396.02068,417754.0149835,81
1659098396.02068,417754.0149988,67
1659098396.02068,417754.0150123,50
1659098396.02068,417754.015022,52
1659098396.02068,417754.0150309,48
1659098396.02068,417754.0150399,21
1659098396.02068,417754.0150461,9
1659098396.02068,417754.0150499,16
1659098396.02068,417754.0150557,19
1659098396.02068,417754.0150638,26
1659098396.02068,417754.0150699,28
1659098396.02068,417754.0150759,12
1659098396.02068,417754.0150822,-4
1659098396.02068,417754.0150885,4
1659098396.56702,417754.0150946,24
1659098396.56702,417754.0151013,31
1659098396.56702,417754.0151088,24
1659098396.56702,417754.0151154,16
1659098396.56702,417754.0151216,14
1659098396.56702,417754.0151252,16
1659098396.56702,417754.0151302,21
1659098396.56702,417754.0151363,31
1659098396.56702,417754.0151422,31
1659098396.56702,417754.0151457,16
1659098396.56702,417754.0151493,14
1659098396.56702,417754.0151536,24
1659098396.56702,417754.0151582,31
1659098396.56702,417754.0151628,43
1659098396.56702,417754.0151716,57
1659098396.56702,417754.0151756,57
1659098396.56702,417754.0151787,48
1659098396.56702,417754.0151818,48
1659098396.56702,417754.0151871,57
1659098396.56702,417754.0152072,62
1659098396.56702,417754.0152225,67
1659098396.56702,417754.0152347,72
1659098396.56702,417754.0152426,74
1659098396.56702,417754.0152467,79
1659098396.56702,417754.0152594,86
1659098396.56702,417754.0152673,96
1659098396.56702,417754.0152767,98
1659098396.56702,417754.0152826,93
1659098396.56702,417754.0152925,100
1659098396.56702,417754.0153006,105
1659098396.56702,417754.0153059,103
1659098396.56702,417754.0153095,110
1659098396.56702,417754.0153147,122
1659098396.56702,417754.0153205,124
1659098396.56702,417754.0153245,124
1659098396.56702,417754.0153297,120
1659098396.56702,417754.0153346,110
1659098396.56702,417754.0153381,110
1659098396.56702,417754.0153414,124
1659098396.56702,417754.0153447,124
1659098396.56702,417754.0153491,105
1659098396.56702,417754.0153525,91
1659098396.56702,417754.0153597,93
1659098396.56702,417754.01537,120
1659098396.56702,417754.0153831,144
1659098396.56702,417754.0153947,146
1659098396.56702,417754.0154066,141
1659098396.56702,417754.0154458,136
1659098396.56702,417754.015455,129
1659098396.56702,417754.0154585,115
1659098396.59395,417754.0154618,115
1659098396.59395,417754.0154649,132
1659098396.59395,417754.0154681,129
1659098396.59395,417754.0154713,117
1659098396.59395,417754.0154745,144
1659098396.59395,417754.015478,276
1659098396.59395,417754.0154809,540
1659098396.59395,417754.0154842,845
1659098396.59395,417754.6029439,883
1659098396.59395,417754.602965,441
1659098396.59395,417754.6029726,-57
1659098396.59395,417754.6029783,-79
1659098396.59395,417754.6029814,105
1659098396.59395,417754.6029843,86
1659098396.59395,417754.6029872,33
1659098396.59395,417754.6029901,76
1659098396.59395,417754.602993,84
1659098396.59395,417754.6029959,45
1659098396.59395,417754.6029987,45
1659098396.59395,417754.6030023,69
1659098396.59395,417754.6030066,74
1659098396.59395,417754.6030101,67
1659098396.59395,417754.6030131,67
1659098396.59395,417754.603016,52
1659098397.18867,417754.6030201,38
1659098397.18867,417754.6030252,50
1659098397.18867,417754.6030301,62
1659098397.18867,417754.6030346,57
1659098397.18867,417754.6030414,67
1659098397.18867,417754.6030481,84
1659098397.18867,417754.6030546,88
1659098397.18867,417754.6031225,91
1659098397.18867,417754.6031305,105
1659098397.18867,417754.6031342,117
1659098397.18867,417754.6031399,120
1659098397.18867,417754.6031454,115
1659098397.18867,417754.6031505,115
1659098397.18867,417754.6031555,117
1659098397.18867,417754.6031598,112
1659098397.18867,417754.6031629,103
1659098397.18867,417754.6031657,91
1659098397.18867,417754.6031693,79
1659098397.18867,417754.6031737,60
1659098397.18867,417754.6031781,43
1659098397.18867,417754.603183,45
1659098397.18867,417754.6031861,57
1659098397.18867,417754.603189,50
1659098397.18867,417754.6031919,45
1659098397.18867,417754.6031947,50
1659098397.18867,417754.6031975,57
1659098397.18867,417754.6032004,60
1659098397.18867,417754.6032034,52
1659098397.18867,417754.6032063,50
1659098397.18867,417754.6032092,62
1659098397.18867,417754.603212,62
1659098397.18867,417754.6032197,50
1659098397.18867,417754.6032473,50
1659098397.18867,417754.6032526,57
1659098397.18867,417754.6032568,64
1659098397.18867,417754.6032611,74
1659098397.18867,417754.6032653,79
1659098397.18867,417754.6032695,74
1659098397.18867,417754.6032737,69
1659098397.18867,417754.603278,72
1659098397.18867,417754.6032824,81
1659098397.18867,417754.6032871,88
1659098397.18867,417754.6032914,91
1659098397.18867,417754.6032959,84
1659098397.18867,417754.6033006,84
1659098397.18867,417754.6033052,93
1659098397.18867,417754.6033096,93
1659098397.18867,417754.6033139,86
1659098397.18867,417754.6033182,96
1659098397.18867,417754.6033221,105
1659098397.20862,417754.6033264,103
1659098397.20862,417754.6033305,100
1659098397.20862,417754.6033346,105
1659098397.20862,417754.6033389,115
1659098397.20862,417754.6033431,117
1659098397.20862,417754.6033469,115
1659098397.20862,417754.6033511,112
1659098397.20862,417755.2338819,120
1659098397.20862,417755.2339011,127
1659098397.20862,417755.233907,120
1659098397.20862,417755.2339125,117
1659098397.20862,417755.2339158,127
1659098397.20862,417755.2339219,124
1659098397.20862,417755.2339253,115
1659098397.20862,417755.2339293,122
1659098397.20862,417755.2339324,132
1659098397.20862,417755.2339355,127
1659098397.20862,417755.2339386,120
1659098397.20862,417755.2339442,120
1659098397.20862,417755.2339492,120
1659098397.20862,417755.2339541,124
1659098397.20862,417755.2339574,136
1659098397.20862,417755.2339632,134
1659098397.20862,417755.2339733,117
1659098397.72468,417755.233982,108
1659098397.72468,417755.2339875,98
1659098397.72468,417755.2339942,76
1659098397.72468,417755.234,76
1659098397.72468,417755.2340039,91
1659098397.72468,417755.2340075,91
1659098397.72468,417755.2340108,93
1659098397.72468,417755.2340144,170
1659098397.72468,417755.2340177,376
1659098397.72468,417755.2340242,681
1659098397.72468,417755.2340654,871
1659098397.72468,417755.2340706,628
1659098397.72468,417755.2340738,62
1659098397.72468,417755.234077,-180
1659098397.72468,417755.2340801,-4
1659098397.72468,417755.2340834,72
1659098397.72468,417755.234087,7
1659098397.72468,417755.2340909,28
1659098397.72468,417755.234094,52
1659098397.72468,417755.2340971,7
1659098397.72468,417755.2341,-2
1659098397.72468,417755.2341033,19
1659098397.72468,417755.2341063,24
1659098397.72468,417755.23411,36
1659098397.72468,417755.234113,55
1659098397.72468,417755.2341168,55
1659098397.72468,417755.2341224,43
1659098397.72468,417755.2341283,45
1659098397.72468,417755.2341321,62
1659098397.72468,417755.2341364,76
1659098397.72468,417755.234142,81
1659098397.72468,417755.234148,81
1659098397.72468,417755.2341512,81
1659098397.72468,417755.2341544,91
1659098397.72468,417755.2341575,98
1659098397.72468,417755.2341608,98
1659098397.72468,417755.2341639,91
1659098397.72468,417755.2341672,98
1659098397.72468,417755.2341703,115
1659098397.72468,417755.2341739,124
1659098397.72468,417755.2341771,117
1659098397.72468,417755.2341802,105
1659098397.72468,417755.234184,91
1659098397.72468,417755.2341873,74
1659098397.72468,417755.2341905,57
1659098397.72468,417755.2341935,50
1659098397.72468,417755.2341969,38
1659098397.72468,417755.2342001,24
1659098397.72468,417755.2342033,26
1659098397.72468,417755.2342071,40
1659098397.75958,417755.2342138,45
1659098397.75958,417755.234218,50
1659098397.75958,417755.2342234,57
1659098397.75958,417755.2342326,50
1659098397.75958,417755.2342356,48
1659098397.75958,417755.2342385,60
1659098397.75958,417755.7725328,74
1659098397.75958,417755.7725581,72
1659098397.75958,417755.7725726,64
1659098397.75958,417755.7725849,69
1659098397.75958,417755.772596,84
1659098397.75958,417755.7726033,84
1659098397.75958,417755.7726092,74
1659098397.75958,417755.7726131,76
1659098397.75958,417755.772616,74
1659098397.75958,417755.7726189,60
1659098397.75958,417755.7726227,50
1659098397.75958,417755.7726279,52
1659098397.75958,417755.7726334,55
1659098397.75958,417755.77264,57
1659098397.75958,417755.7726462,60
1659098397.75958,417755.7726528,50
1659098397.75958,417755.7726595,40
1659098397.75958,417755.7726661,45
1659098398.21416,417755.7726754,45
1659098398.21416,417755.772682,38
1659098398.21416,417755.7726882,45
1659098398.21416,417755.7726943,57
1659098398.21416,417755.7727011,52
1659098398.21416,417755.7727077,50
1659098398.21416,417755.7727143,62
1659098398.21416,417755.7727201,67
1659098398.21416,417755.772726,60
1659098398.21416,417755.7727293,64
1659098398.21416,417755.7727341,67
1659098398.21416,417755.7727407,52
1659098398.21416,417755.7727457,48
1659098398.21416,417755.7727522,52
1659098398.21416,417755.7727579,60
1659098398.21416,417755.7727618,62
1659098398.21416,417755.7727675,64
1659098398.21416,417755.7727717,64
1659098398.21416,417755.7727754,64
1659098398.21416,417755.7727803,79
1659098398.21416,417755.7727876,105
1659098398.21416,417755.7727922,117
1659098398.21416,417755.7727997,105
1659098398.21416,417755.7728045,93
1659098398.21416,417755.7728101,88
1659098398.21416,417755.7728137,86
1659098398.21416,417755.7728171,79
1659098398.21416,417755.7728211,86
1659098398.21416,417755.7728251,100
1659098398.21416,417755.7728291,96
1659098398.21416,417755.7728332,93
1659098398.21416,417755.7728384,187
1659098398.21416,417755.7728453,432
1659098398.21416,417755.7728486,737
1659098398.21416,417755.7728516,849
1659098398.21416,417755.7728546,528
1659098398.21416,417755.7728575,-4
1659098398.21416,417755.7728604,-158
1659098398.21416,417755.7728633,26
1659098398.21416,417755.7728661,74
1659098398.21416,417755.7728691,16
1659098398.21416,417755.772872,48
1659098398.21416,417755.772875,60
1659098398.21416,417755.7728778,26
1659098398.21416,417755.7728806,28
1659098398.21416,417755.7728834,50
1659098398.21416,417755.7728863,52
1659098398.21416,417755.7728891,57
1659098398.21416,417755.7728922,67
1659098398.21416,417755.7728952,72
1659098398.2341,417755.7728983,69
1659098398.2341,417755.7729032,67
1659098398.2341,417755.7729062,69
1659098398.2341,417755.772909,81
1659098398.2341,417755.7729119,86
1659098398.2341,417756.2583795,86
1659098398.2341,417756.2583963,96
1659098398.2341,417756.2584034,112
1659098398.2341,417756.2584078,124
1659098398.2341,417756.2584119,134
1659098398.2341,417756.2584159,136
1659098398.2341,417756.2584213,134
1659098398.2341,417756.2584253,129
1659098398.2341,417756.2584293,127
1659098398.2341,417756.2584356,127
1659098398.2341,417756.2584414,112
1659098398.2341,417756.2584457,88
1659098398.2341,417756.2584512,67
1659098398.2341,417756.2584554,50
1659098398.2341,417756.2584617,36
1659098398.2341,417756.2584665,28
1659098398.2341,417756.2584721,28
1659098398.2341,417756.2584763,28
1659098398.2341,417756.2584816,21
1659098398.7998,417756.2584875,-2
1659098398.7998,417756.2584914,-21
1659098398.7998,417756.2584952,-26
1659098398.7998,417756.2584987,-21
1659098398.7998,417756.2585053,-4
1659098398.7998,417756.2585092,-4
1659098398.7998,417756.2585127,-28
1659098398.7998,417756.2585164,-33
1659098398.7998,417756.2585202,-14
1659098398.7998,417756.258524,-12
1659098398.7998,417756.2585276,-9
1659098398.7998,417756.2585312,4
1659098398.7998,417756.258535,2
1659098398.7998,417756.2585386,-7
1659098398.7998,417756.2585422,-2
1659098398.7998,417756.2585458,7
1659098398.7998,417756.2585493,12
1659098398.7998,417756.2585529,14
1659098398.7998,417756.2585564,12
1659098398.7998,417756.2585601,14
1659098398.7998,417756.2585639,28
1659098398.7998,417756.2585676,33
1659098398.7998,417756.258571,28
1659098398.7998,417756.2585747,28
1659098398.7998,417756.2585783,40
1659098398.7998,417756.2585819,50
1659098398.7998,417756.2585855,50
1659098398.7998,417756.2585889,48
1659098398.7998,417756.2585924,55
1659098398.7998,417756.2585962,62
1659098398.7998,417756.2585998,64
1659098398.7998,417756.2586037,62
1659098398.7998,417756.2586072,64
1659098398.7998,417756.2586108,67
1659098398.7998,417756.2586143,69
1659098398.7998,417756.2586178,72
1659098398.7998,417756.2586212,64
1659098398.7998,417756.2586255,62
1659098398.7998,417756.258629,86
1659098398.7998,417756.2586328,112
1659098398.7998,417756.2586364,117
1659098398.7998,417756.2586401,105
1659098398.7998,417756.2586522,91
1659098398.7998,417756.2586597,84
1659098398.7998,417756.2586644,86
1659098398.7998,417756.2586675,91
1659098398.7998,417756.2586705,93
1659098398.7998,417756.2586736,93
1659098398.7998,417756.2586767,98
1659098398.7998,417756.2586797,146
1659098398.83586,417756.2586825,297
1659098398.83586,417756.2586858,573
1659098398.83586,417756.2586898,825
1659098398.83586,417756.2586945,734
1659098398.83586,417756.8449187,228
1659098398.83586,417756.8449399,-160
1659098398.83586,417756.8449495,-74
1659098398.83586,417756.8449581,91
1659098398.83586,417756.8449669,50
1659098398.83586,417756.844976,19
1659098398.83586,417756.8449849,60
1659098398.83586,417756.8449911,62
1659098398.83586,417756.8449947,52
1659098398.83586,417756.8450002,55
1659098398.83586,417756.845004,52
1659098398.83586,417756.8450076,52
1659098398.83586,417756.8450231,48
1659098398.83586,417756.8450279,26
1659098398.83586,417756.8450343,26
1659098398.83586,417756.8450376,31
1659098398.83586,417756.8450417,14
1659098398.83586,417756.8450456,12
1659098398.83586,417756.8450487,31
1659098398.83586,417756.8450515,40
1659098399.33176,417756.8450544,43
1659098399.33176,417756.8450609,48
1659098399.33176,417756.8450678,52
1659098399.33176,417756.8450743,60
1659098399.33176,417756.8450811,64
1659098399.33176,417756.8450856,69
1659098399.33176,417756.8450893,88
1659098399.33176,417756.8450924,105
1659098399.33176,417756.8450955,93
1659098399.33176,417756.8450989,81
1659098399.33176,417756.8451017,79
1659098399.33176,417756.8451073,72
1659098399.33176,417756.8451114,50
1659098399.33176,417756.8451165,31
1659098399.33176,417756.8451215,19
1659098399.33176,417756.8451247,4
1659098399.33176,417756.8451276,-4
1659098399.33176,417756.8451307,0
1659098399.33176,417756.8451338,12
1659098399.33176,417756.8451382,19
1659098399.33176,417756.8451494,26
1659098399.33176,417756.8452089,36
1659098399.33176,417756.8452194,33
1659098399.33176,417756.8452249,19
1659098399.33176,417756.8452295,24
1659098399.33176,417756.8452323,40
1659098399.33176,417756.8452361,33
1659098399.33176,417756.8452403,28
1659098399.33176,417756.8452462,43
1659098399.33176,417756.8452527,50
1659098399.33176,417756.8452574,43
1659098399.33176,417756.845264,48
1659098399.33176,417756.8452708,55
1659098399.33176,417756.8452773,48
1659098399.33176,417756.8452854,38
1659098399.33176,417756.845292,45
1659098399.33176,417756.8452989,60
1659098399.33176,417756.8453059,67
1659098399.33176,417756.8453125,67
1659098399.33176,417756.8453193,60
1659098399.33176,417756.845327,57
1659098399.33176,417756.8453335,64
1659098399.33176,417756.8453402,72
1659098399.33176,417756.845345,74
1659098399.33176,417756.845348,81
1659098399.33176,417756.8453508,86
1659098399.33176,417756.8453537,86
1659098399.33176,417756.8453565,76
1659098399.33176,417756.8453595,79
1659098399.33176,417756.8453626,91
1659098399.35969,417756.845366,93
1659098399.35969,417756.8453689,93
1659098399.35969,417756.8453718,100
1659098399.35969,417757.3788414,112
1659098399.35969,417757.3788595,124
1659098399.35969,417757.3788679,124
1659098399.35969,417757.3788753,110
1659098399.35969,417757.3788817,98
1659098399.35969,417757.3788866,96
1659098399.35969,417757.3788929,81
1659098399.35969,417757.3788978,64
1659098399.35969,417757.3789043,74
1659098399.35969,417757.3789093,86
1659098399.35969,417757.3789157,84
1659098399.35969,417757.3789222,122
1659098399.35969,417757.3789271,264
1659098399.35969,417757.3789358,523
1659098399.35969,417757.3789428,789
1659098399.35969,417757.3789512,725
1659098399.35969,417757.3789577,218
1659098399.35969,417757.3789643,-182
1659098399.35969,417757.3789693,-112
1659098399.35969,417757.3789757,28
1659098399.35969,417757.3789803,-9
1659098399.87482,417757.3789866,-24
1659098399.87482,417757.3789913,16
1659098399.87482,417757.3789965,12
1659098399.87482,417757.3790023,4
1659098399.87482,417757.379007,19
1659098399.87482,417757.3790116,26
1659098399.87482,417757.3790163,31
1659098399.87482,417757.379021,43
1659098399.87482,417757.3790252,52
1659098399.87482,417757.3790293,57
1659098399.87482,417757.3790334,60
1659098399.87482,417757.3790377,62
1659098399.87482,417757.3790419,67
1659098399.87482,417757.3790458,69
1659098399.87482,417757.3790507,67
1659098399.87482,417757.3790554,76
1659098399.87482,417757.3791277,91
1659098399.87482,417757.3791353,100
1659098399.87482,417757.3791396,108
1659098399.87482,417757.3791442,115
1659098399.87482,417757.3791485,120
1659098399.87482,417757.3791551,127
1659098399.87482,417757.3791621,132
1659098399.87482,417757.3791678,132
1659098399.87482,417757.3791724,127
1659098399.87482,417757.379177,115
1659098399.87482,417757.3791851,93
1659098399.87482,417757.3791903,76
1659098399.87482,417757.379197,69
1659098399.87482,417757.3792016,55
1659098399.87482,417757.3792062,45
1659098399.87482,417757.3792108,48
1659098399.87482,417757.379215,52
1659098399.87482,417757.3792192,55
1659098399.87482,417757.3792233,57
1659098399.87482,417757.3792277,62
1659098399.87482,417757.3792325,69
1659098399.87482,417757.379239,76
1659098399.87482,417757.379244,79
1659098399.87482,417757.379249,76
1659098399.87482,417757.3792536,76
1659098399.87482,417757.3792579,84
1659098399.87482,417757.3792625,81
1659098399.87482,417757.3792671,72
1659098399.87482,417757.3792738,67
1659098399.87482,417757.3792779,60
1659098399.87482,417757.379282,50
1659098399.87482,417757.379286,48
1659098399.87482,417757.3792902,50
1659098399.87482,417757.3792945,45
1659098399.90374,417757.3792988,26
1659098399.90374,417757.379303,9
1659098399.90374,417757.9149308,16
1659098399.90374,417757.9149477,28
1659098399.90374,417757.9149566,28
1659098399.90374,417757.9149625,26
1659098399.90374,417757.9149688,31
1659098399.90374,417757.9149751,33
1659098399.90374,417757.9149807,36
1659098399.90374,417757.9149861,38
1659098399.90374,417757.9149923,36
1659098399.90374,417757.914998,24
1659098399.90374,417757.9150016,16
1659098399.90374,417757.9150049,36
1659098399.90374,417757.915008,57
1659098399.90374,417757.9150114,52
1659098399.90374,417757.9150148,36
1659098399.90374,417757.9150182,19
1659098399.90374,417757.9150225,7
1659098399.90374,417757.9150284,12
1659098399.90374,417757.9150353,31
1659098399.90374,417757.9150424,31
1659098399.90374,417757.9150493,28
1659098399.90374,417757.9150556,79
1659098400.45497,417757.9150651,252
1659098400.45497,417757.915154,544
1659098400.45497,417757.9151604,787
1659098400.45497,417757.9151651,645
1659098400.45497,417757.9151726,100
1659098400.45497,417757.91528,-244
1659098400.45497,417757.915288,-110
1659098400.45497,417757.9152929,36
1659098400.45497,417757.9152976,-21
1659098400.45497,417757.9153023,-38
1659098400.45497,417757.915307,14
1659098400.45497,417757.9153117,14
1659098400.45497,417757.9153163,0
1659098400.45497,417757.9153282,14
1659098400.45497,417757.915333,28
1659098400.45497,417757.9153382,36
1659098400.45497,417757.9153454,40
1659098400.45497,417757.9153505,45
1659098400.45497,417757.9153547,50
1659098400.45497,417757.9153594,57
1659098400.45497,417757.9153663,62
1659098400.45497,417757.9153712,67
1659098400.45497,417757.9153759,76
1659098400.45497,417757.9153808,79
1659098400.45497,417757.9153859,81
1659098400.45497,417757.9153902,91
1659098400.45497,417757.9153949,98
1659098400.45497,417757.9153993,105
1659098400.45497,417757.9154037,115
1659098400.45497,417757.9154083,127
1659098400.45497,417757.9154131,134
1659098400.45497,417757.9154173,141
1659098400.45497,417757.9154216,141
1659098400.45497,417757.9154258,134
1659098400.45497,417757.91543,117
1659098400.45497,417757.9154344,91
1659098400.45497,417757.9154393,67
1659098400.45497,417757.9154449,55
1659098400.45497,417757.9154509,52
1659098400.45497,417757.9154569,55
1659098400.45497,417757.9154646,57
1659098400.45497,417757.9154691,55
1659098400.45497,417757.9154734,50
1659098400.45497,417757.9154781,45
1659098400.45497,417757.9154852,48
1659098400.45497,417757.9154898,57
1659098400.45497,417757.9154942,69
1659098400.45497,417757.9154987,79
1659098400.45497,417757.9155052,79
1659098400.45497,417757.9155096,69
1659098400.47791,417757.9155148,62
1659098400.47791,417758.5003055,67
1659098400.47791,417758.5003481,76
1659098400.47791,417758.5003555,74
1659098400.47791,417758.5003604,64
1659098400.47791,417758.5003645,69
1659098400.47791,417758.5003684,67
1659098400.47791,417758.5003726,45
1659098400.47791,417758.5003768,36
1659098400.47791,417758.5003828,50
1659098400.47791,417758.500387,55
1659098400.47791,417758.5003902,50
1659098400.47791,417758.5003938,50
1659098400.47791,417758.500397,38
1659098400.47791,417758.5004002,24
1659098400.47791,417758.5004037,33
1659098400.47791,417758.500407,38
1659098400.47791,417758.5004107,40
1659098400.47791,417758.5004141,62
1659098400.47791,417758.5004174,67
1659098400.47791,417758.5004207,40
1659098400.47791,417758.5004239,26
1659098400.47791,417758.5004268,33
1659098400.47791,417758.5004303,36
1659098401.04881,417758.5004345,38
1659098401.04881,417758.5004389,36
1659098401.04881,417758.5004419,31
1659098401.04881,417758.5004448,62
1659098401.04881,417758.5004475,206
1659098401.04881,417758.5004503,480
1659098401.04881,417758.5004531,758
1659098401.04881,417758.5004558,746
1659098401.04881,417758.5004585,283
1659098401.04881,417758.5004612,-194
1659098401.04881,417758.500464,-196
1659098401.04881,417758.5004667,12
1659098401.04881,417758.5004695,26
1659098401.04881,417758.5004723,-12
1659098401.04881,417758.500475,28
1659098401.04881,417758.5004778,38
1659098401.04881,417758.5004807,14
1659098401.04881,417758.5004834,26
1659098401.04881,417758.5004862,43
1659098401.04881,417758.5004889,43
1659098401.04881,417758.5004918,50
1659098401.04881,417758.5004945,64
1659098401.04881,417758.5004972,69
1659098401.04881,417758.5005,74
1659098401.04881,417758.5005028,76
1659098401.04881,417758.5005056,84
1659098401.04881,417758.5005083,88
1659098401.04881,417758.500511,88
1659098401.04881,417758.5005139,84
1659098401.04881,417758.5005167,96
1659098401.04881,417758.5005221,115
1659098401.04881,417758.5005281,124
1659098401.04881,417758.5005314,127
1659098401.04881,417758.5005347,127
1659098401.04881,417758.500538,124
1659098401.04881,417758.5005418,134
1659098401.04881,417758.500549,146
1659098401.04881,417758.5005561,134
1659098401.04881,417758.5005655,110
1659098401.04881,417758.5005724,98
1659098401.04881,417758.5005767,84
1659098401.04881,417758.5005797,72
1659098401.04881,417758.5005825,67
1659098401.04881,417758.5005855,72
1659098401.04881,417758.5005884,74
1659098401.04881,417758.5005913,74
1659098401.04881,417758.5005941,74
1659098401.04881,417758.5005972,76
1659098401.04881,417758.500602,81
1659098401.04881,417758.5006093,88
1659098401.07425,417759.0857689,96
1659098401.07425,417759.0857825,100
1659098401.07425,417759.0857863,103
1659098401.07425,417759.0857897,98
1659098401.07425,417759.085793,98
1659098401.07425,417759.0857961,98
1659098401.07425,417759.0857995,100
1659098401.07425,417759.0858027,103
1659098401.07425,417759.0858062,86
1659098401.07425,417759.0858099,62
1659098401.07425,417759.0858132,55
1659098401.07425,417759.0858164,67
1659098401.07425,417759.0858196,72
1659098401.07425,417759.0858228,69
1659098401.07425,417759.085826,69
1659098401.07425,417759.0858292,52
1659098401.07425,417759.0858331,36
1659098401.07425,417759.0858362,50
1659098401.07425,417759.0858395,69
1659098401.07425,417759.0858427,81
1659098401.07425,417759.0858459,86
1659098401.07425,417759.0858491,74
1659098401.07425,417759.0858531,62
1659098401.07425,417759.0858563,64
1659098401.64511,417759.0858596,74
1659098401.64511,417759.0858627,74
1659098401.64511,417759.0858659,72
1659098401.64511,417759.0858692,79
1659098401.64511,417759.0858725,103
1659098401.64511,417759.0858775,211
1659098401.64511,417759.085881,465
1659098401.64511,417759.0858843,765
1659098401.64511,417759.0858875,811
1659098401.64511,417759.085892,403
1659098401.64511,417759.0858953,-117
1659098401.64511,417759.0858986,-211
1659098401.64511,417759.0859018,-4
1659098401.64511,417759.0859051,50
1659098401.64511,417759.0859083,-2
1659098401.64511,417759.0859115,7
1659098401.64511,417759.0859147,19
1659098401.64511,417759.0859181,14
1659098401.64511,417759.0859213,31
1659098401.64511,417759.0859246,40
1659098401.64511,417759.0859278,36
1659098401.64511,417759.0859323,43
1659098401.64511,417759.0859356,57
1659098401.64511,417759.0859388,52
1659098401.64511,417759.0859657,52
1659098401.64511,417759.0859752,60
1659098401.64511,417759.0859807,55
1659098401.64511,417759.0859854,40
1659098401.64511,417759.0859912,40
1659098401.64511,417759.0859958,45
1659098401.64511,417759.0860002,43
1659098401.64511,417759.0860044,50
1659098401.64511,417759.086009,60
1659098401.64511,417759.0860135,57
1659098401.64511,417759.086018,60
1659098401.64511,417759.0860222,74
1659098401.64511,417759.0860267,79
1659098401.64511,417759.0860311,84
1659098401.64511,417759.0860391,91
1659098401.64511,417759.0860471,69
1659098401.64511,417759.0860535,36
1659098401.64511,417759.086085,33
1659098401.64511,417759.0860926,33
1659098401.64511,417759.0860971,19
1659098401.64511,417759.0861034,14
1659098401.64511,417759.0861078,24
1659098401.64511,417759.0861138,28
1659098401.64511,417759.0861182,26
1659098401.64511,417759.0861247,21
1659098401.64511,417759.6699256,36
1659098401.67702,417759.6699454,43
1659098401.67702,417759.6699591,36
1659098401.67702,417759.669967,45
1659098401.67702,417759.6699738,57
1659098401.67702,417759.6699804,57
1659098401.67702,417759.6699873,67
1659098401.67702,417759.6699943,88
1659098401.67702,417759.6700006,91
1659098401.67702,417759.6700051,72
1659098401.67702,417759.6700098,60
1659098401.67702,417759.6700139,69
1659098401.67702,417759.6700215,57
1659098401.67702,417759.6700274,40
1659098401.67702,417759.670035,50
1659098401.67702,417759.6700409,60
1659098401.67702,417759.6700487,57
1659098401.67702,417759.6700539,57
1659098401.67702,417759.6700591,52
1659098401.67702,417759.6700636,48
1659098401.67702,417759.6701192,50
1659098401.67702,417759.6701346,64
1659098401.67702,417759.67015,88
1659098401.67702,417759.6701644,93
1659098401.67702,417759.6701772,50
1659098402.26724,417759.6701903,31
1659098402.26724,417759.6701978,62
1659098402.26724,417759.6702075,76
1659098402.26724,417759.6702175,62
1659098402.26724,417759.6702312,52
1659098402.26724,417759.6702449,48
1659098402.26724,417759.6702582,72
1659098402.26724,417759.6702718,201
1659098402.26724,417759.6702853,468
1659098402.26724,417759.6702985,777
1659098402.26724,417759.6703132,840
1659098402.26724,417759.6703265,408
1659098402.26724,417759.67034,-122
1659098402.26724,417759.6703544,-158
1659098402.26724,417759.6703677,50
1659098402.26724,417759.6703809,38
1659098402.26724,417759.6703954,-21
1659098402.26724,417759.670409,19
1659098402.26724,417759.6704224,16
1659098402.26724,417759.6704367,-14
1659098402.26724,417759.67045,9
1659098402.26724,417759.6704632,26
1659098402.26724,417759.6704778,21
1659098402.26724,417759.6704922,36
1659098402.26724,417759.6705133,45
1659098402.26724,417759.6705257,36
1659098402.26724,417759.6705325,38
1659098402.26724,417759.6705556,50
1659098402.26724,417759.6705648,52
1659098402.26724,417759.6705691,55
1659098402.26724,417759.6705786,67
1659098402.26724,417759.6705864,76
1659098402.26724,417759.6705945,84
1659098402.26724,417759.6706038,93
1659098402.26724,417759.6706111,93
1659098402.26724,417759.6706176,86
1659098402.26724,417759.6706226,98
1659098402.26724,417759.6706306,112
1659098402.26724,417759.6706388,110
1659098402.26724,417759.670645,103
1659098402.26724,417759.6706533,108
1659098402.26724,417759.6706614,110
1659098402.26724,417759.6706664,91
1659098402.26724,417759.6706733,64
1659098402.26724,417759.6706796,55
1659098402.26724,417759.6706872,55
1659098402.26724,417759.6706921,57
1659098402.26724,417759.6706984,62
1659098402.26724,417760.3054163,64
1659098402.26724,417760.3054385,67
1659098402.29916,417760.3054457,69
1659098402.29916,417760.3054523,76
1659098402.29916,417760.3054591,81
1659098402.29916,417760.305464,91
1659098402.29916,417760.3054684,108
1659098402.29916,417760.305472,100
1659098402.29916,417760.3054767,60
1659098402.29916,417760.3054822,19
1659098402.29916,417760.3054893,24
1659098402.29916,417760.3054963,50
1659098402.29916,417760.3055033,48
1659098402.29916,417760.3055076,28
1659098402.29916,417760.3055165,31
1659098402.29916,417760.3055226,26
1659098402.29916,417760.3055268,9
1659098402.29916,417760.3055306,14
1659098402.29916,417760.305535,26
1659098402.29916,417760.3055382,16
1659098402.29916,417760.3055414,14
1659098402.29916,417760.3055446,26
1659098402.29916,417760.305548,38
1659098402.29916,417760.3055518,50
1659098402.29916,417760.3055557,60
1659098402.29916,417760.3055596,55
1659098402.70415,417760.3055632,50
1659098402.70415,417760.3055671,48
1659098402.70415,417760.305571,38
1659098402.70415,417760.3055743,45
1659098402.70415,417760.3055773,64
1659098402.70415,417760.3055802,60
1659098402.70415,417760.3055837,64
1659098402.70415,417760.3055877,196
1659098402.70415,417760.3055907,489
1659098402.70415,417760.3055937,787
1659098402.70415,417760.3055968,792
1659098402.70415,417760.3056,357
1659098402.70415,417760.3056041,-127
1659098402.70415,417760.3056078,-156
1659098402.70415,417760.3056117,31
1659098402.70415,417760.3056156,28
1659098402.70415,417760.3056194,-21
1659098402.70415,417760.3056233,14
1659098402.70415,417760.3056271,33
1659098402.70415,417760.3056311,33
1659098402.70415,417760.305635,40
1659098402.70415,417760.3056385,43
1659098402.70415,417760.3056414,55
1659098402.70415,417760.3056439,67
1659098402.70415,417760.3056466,60
1659098402.70415,417760.3056492,57
1659098402.70415,417760.3056521,69
1659098402.70415,417760.305691,72
1659098402.70415,417760.3057037,74
1659098402.70415,417760.3057112,79
1659098402.70415,417760.3057178,79
1659098402.70415,417760.3057225,86
1659098402.70415,417760.3057276,98
1659098402.70415,417760.3057352,105
1659098402.70415,417760.3057429,115
1659098402.70415,417760.3057492,122
1659098402.70415,417760.3057566,127
1659098402.70415,417760.3057616,141
1659098402.70415,417760.3057669,160
1659098402.70415,417760.305773,163
1659098402.70415,417760.3057792,141
1659098402.70415,417760.3057836,127
1659098402.70415,417760.3057892,124
1659098402.70415,417760.3057964,115
1659098402.70415,417760.3058016,103
1659098402.70415,417760.3058081,103
1659098402.70415,417760.3058132,100
1659098402.70415,417760.7425059,96
1659098402.70415,417760.7425242,103
1659098402.70415,417760.7425298,115
1659098402.72709,417760.7425345,108
1659098402.72709,417760.7425391,110
1659098402.72709,417760.7425438,132
1659098402.72709,417760.7425488,129
1659098402.72709,417760.7425535,112
1659098402.72709,417760.7425583,120
1659098402.72709,417760.7425646,132
1659098402.72709,417760.7425708,127
1659098402.72709,417760.7425758,117
1659098402.72709,417760.7425805,110
1659098402.72709,417760.7425857,105
1659098402.72709,417760.7425906,110
1659098402.72709,417760.7425954,108
1659098402.72709,417760.7426,98
1659098402.72709,417760.7426045,91
1659098402.72709,417760.7426093,86
1659098402.72709,417760.7426137,93
1659098402.72709,417760.7426182,108
1659098402.72709,417760.7426226,105
1659098402.72709,417760.7426271,105
1659098402.72709,417760.7426314,120
1659098402.72709,417760.7426359,122
1659098402.72709,417760.7426401,91
1659098402.72709,417760.7426442,69
1659098403.23157,417760.7426482,81
1659098403.23157,417760.742652,81

1659098403.23157,417760.7426559,64
1659098403.23157,417760.7426601,55
1659098403.23157,417760.7426648,33
1659098403.23157,417760.7426695,19
1659098403.23157,417760.7426736,81
1659098403.23157,417760.7426783,290
1659098403.23157,417760.7426831,609
1659098403.23157,417760.742688,818
1659098403.23157,417760.742693,583
1659098403.23157,417760.7426979,7
1659098403.23157,417760.7427028,-244
1659098403.23157,417760.7427075,-57
1659098403.23157,417760.7427119,38
1659098403.23157,417760.7427166,-40
1659098403.23157,417760.7427213,-40
1659098403.23157,417760.7427258,-7
1659098403.23157,417760.7427303,-28
1659098403.23157,417760.7427347,-26
1659098403.23157,417760.742739,2
1659098403.23157,417760.7427437,7
1659098403.23157,417760.7427482,0
1659098403.23157,417760.7427527,4
1659098403.23157,417760.7427572,9
1659098403.23157,417760.7427619,21
1659098403.23157,417760.7427664,33
1659098403.23157,417760.7427708,36
1659098403.23157,417760.7427752,36
1659098403.23157,417760.7427797,43
1659098403.23157,417760.7427841,55
1659098403.23157,417760.7427884,62
1659098403.23157,417760.7427931,69
1659098403.23157,417760.7427976,88
1659098403.23157,417760.742802,100
1659098403.23157,417760.7428065,96
1659098403.23157,417760.742811,98
1659098403.23157,417760.7428155,110
1659098403.23157,417760.74282,120
1659098403.23157,417760.7428243,122
1659098403.23157,417760.742829,112
1659098403.23157,417760.7428334,103
1659098403.23157,417760.7428379,88
1659098403.23157,417760.7428423,69
1659098403.23157,417760.7428464,64
1659098403.23157,417760.7428505,72
1659098403.23157,417761.2792416,72
1659098403.23157,417761.2792603,64
1659098403.23157,417761.2792686,72
1659098403.23157,417761.2792737,79
1659098403.26448,417761.2792787,76
1659098403.26448,417761.2792856,74
1659098403.26448,417761.2792905,79
1659098403.26448,417761.279297,84
1659098403.26448,417761.2793015,76
1659098403.26448,417761.2793063,57
1659098403.26448,417761.2793123,52
1659098403.26448,417761.2793185,60
1659098403.26448,417761.2793246,62
1659098403.26448,417761.2793292,60
1659098403.26448,417761.279335,55
1659098403.26448,417761.2793407,40
1659098403.26448,417761.2793472,26
1659098403.26448,417761.2793518,36
1659098403.26448,417761.2793578,50
1659098403.26448,417761.2793623,50
1659098403.26448,417761.2793683,31
1659098403.26448,417761.2793738,19
1659098403.26448,417761.2793799,24
1659098403.26448,417761.2793843,33
1659098403.26448,417761.2793902,36
1659098403.26448,417761.2793963,40
1659098403.26448,417761.2794024,57
1659098403.26448,417761.2794087,72
1659098403.82874,417761.2794136,62
1659098403.82874,417761.2794181,48
1659098403.82874,417761.2794228,50
1659098403.82874,417761.2794273,50
1659098403.82874,417761.2794319,60
1659098403.82874,417761.2794364,76
1659098403.82874,417761.2794409,60
1659098403.82874,417761.2794451,43
1659098403.82874,417761.2794495,127
1659098403.82874,417761.2794552,360
1659098403.82874,417761.2794612,669
1659098403.82874,417761.2794656,828
1659098403.82874,417761.2794699,542
1659098403.82874,417761.2794752,-9
1659098403.82874,417761.2794816,-204
1659098403.82874,417761.2794882,-7
1659098403.82874,417761.2794927,62
1659098403.82874,417761.2794986,-9
1659098403.82874,417761.2795032,7
1659098403.82874,417761.2795078,43
1659098403.82874,417761.2795142,31
1659098403.82874,417761.2795186,33
1659098403.82874,417761.2795251,48
1659098403.82874,417761.2795305,45
1659098403.82874,417761.279535,38
1659098403.82874,417761.2795408,33
1659098403.82874,417761.279546,36
1659098403.82874,417761.2795537,40
1659098403.82874,417761.2795592,40
1659098403.82874,417761.2795638,50
1659098403.82874,417761.2795698,60
1659098403.82874,417761.2795745,55
1659098403.82874,417761.2795809,52
1659098403.82874,417761.2795855,67
1659098403.82874,417761.2795899,81
1659098403.82874,417761.2795944,91
1659098403.82874,417761.2796002,88
1659098403.82874,417761.2796046,86
1659098403.82874,417761.2796105,96
1659098403.82874,417761.2796149,105
1659098403.82874,417761.2796207,100
1659098403.82874,417761.2796249,96
1659098403.82874,417761.2796293,96
1659098403.82874,417761.279635,81
1659098403.82874,417761.2796396,57
1659098403.82874,417761.8644113,48
1659098403.82874,417761.8644294,50
1659098403.82874,417761.8644361,52
1659098403.82874,417761.8644411,48
1659098403.82874,417761.8644458,45
1659098403.85368,417761.8644504,45
1659098403.85368,417761.8644558,33
1659098403.85368,417761.8644622,31
1659098403.85368,417761.8644686,48
1659098403.85368,417761.8644732,55
1659098403.85368,417761.8644772,52
1659098403.85368,417761.8644834,50
1659098403.85368,417761.8644885,38
1659098403.85368,417761.8644948,19
1659098403.85368,417761.8644979,16
1659098403.85368,417761.8645008,19
1659098403.85368,417761.8645038,14
1659098403.85368,417761.8645067,16
1659098403.85368,417761.8645096,14
1659098403.85368,417761.8645125,14
1659098403.85368,417761.8645154,21
1659098403.85368,417761.8645182,28
1659098403.85368,417761.864521,28
1659098403.85368,417761.8645239,33
1659098403.85368,417761.8645268,31
1659098403.85368,417761.8645297,31
1659098403.85368,417761.8645325,40
1659098403.85368,417761.8645353,38
1659098403.85368,417761.864538,28
1659098404.40482,417761.8645419,38
1659098404.40482,417761.8645519,48
1659098404.40482,417761.8645812,45
1659098404.40482,417761.8645944,50
1659098404.40482,417761.8645988,60
1659098404.40482,417761.8646027,62
1659098404.40482,417761.8646061,76
1659098404.40482,417761.8646137,96
1659098404.40482,417761.8646172,88
1659098404.40482,417761.8646207,72
1659098404.40482,417761.8646241,74
1659098404.40482,417761.8646276,76
1659098404.40482,417761.864631,81
1659098404.40482,417761.8646344,91
1659098404.40482,417761.8646379,91
1659098404.40482,417761.8646414,91
1659098404.40482,417761.8646449,175
1659098404.40482,417761.8646485,410
1659098404.40482,417761.8646518,725
1659098404.40482,417761.8646553,861
1659098404.40482,417761.8646587,544
1659098404.40482,417761.8646622,-14
1659098404.40482,417761.8646658,-196
1659098404.40482,417761.8646692,-4
1659098404.40482,417761.8646726,60
1659098404.40482,417761.8646761,-7
1659098404.40482,417761.8646796,12
1659098404.40482,417761.864683,43
1659098404.40482,417761.8646864,21
1659098404.40482,417761.8646898,26
1659098404.40482,417761.8646933,40
1659098404.40482,417761.8646967,28
1659098404.40482,417761.8647001,26
1659098404.40482,417761.8647036,40
1659098404.40482,417761.8647069,38
1659098404.40482,417761.8647103,36
1659098404.40482,417761.8647137,50
1659098404.40482,417761.8647171,55
1659098404.40482,417761.8647206,52
1659098404.40482,417761.864724,52
1659098404.40482,417761.8647274,52
1659098404.40482,417761.8647309,55
1659098404.40482,417761.8647343,64
1659098404.40482,417761.8647378,72
1659098404.40482,417762.4490508,79
1659098404.40482,417762.4490732,84
1659098404.40482,417762.4490833,84
1659098404.40482,417762.4490897,91
1659098404.40482,417762.4490954,103
1659098404.40482,417762.4490995,105
1659098404.43947,417762.4491055,86
1659098404.43947,417762.44911,57
1659098404.43947,417762.4491158,28
1659098404.43947,417762.4491198,0
1659098404.43947,417762.4491256,-14
1659098404.43947,417762.4491296,-14
1659098404.43947,417762.4491351,-7
1659098404.43947,417762.4491408,-2
1659098404.43947,417762.4491485,-4
1659098404.43947,417762.4491523,-19
1659098404.43947,417762.4491576,-21
1659098404.43947,417762.4491613,2
1659098404.43947,417762.4491649,9
1659098404.43947,417762.4491711,-12
1659098404.43947,417762.4491757,-12
1659098404.43947,417762.4491798,-4
1659098404.43947,417762.4491833,-4
1659098404.43947,417762.4491867,4
1659098404.43947,417762.4491901,21
1659098404.43947,417762.4491934,26
1659098404.43947,417762.4491966,26
1659098404.43947,417762.4491999,26
1659098404.43947,417762.4492032,19
1659098404.43947,417762.4492066,21
1659098404.94292,417762.4492106,38
1659098404.94292,417762.4492152,45
1659098404.94292,417762.4492184,43
1659098404.94292,417762.4492215,40
1659098404.94292,417762.4492246,45
1659098404.94292,417762.4492278,50
1659098404.94292,417762.449231,55
1659098404.94292,417762.4492342,64
1659098404.94292,417762.4492373,76
1659098404.94292,417762.4492407,91
1659098404.94292,417762.4492439,103
1659098404.94292,417762.4492473,93
1659098404.94292,417762.4492507,79
1659098404.94292,417762.4492539,86
1659098404.94292,417762.4492584,91
1659098404.94292,417762.4492619,93
1659098404.94292,417762.4492652,100
1659098404.94292,417762.4492686,103
1659098404.94292,417762.4492717,103
1659098404.94292,417762.4492749,177
1659098404.94292,417762.4492783,396
1659098404.94292,417762.4492819,703
1659098404.94292,417762.4492854,876
1659098404.94292,417762.4492888,609
1659098404.94292,417762.4492924,43
1659098404.94292,417762.4492959,-213
1659098404.94292,417762.4492993,-57
1659098404.94292,417762.4493031,50
1659098404.94292,417762.4493066,9
1659098404.94292,417762.449311,16
1659098404.94292,417762.4493164,50
1659098404.94292,417762.4493199,40
1659098404.94292,417762.4493233,38
1659098404.94292,417762.4493269,50
1659098404.94292,417762.449331,52
1659098404.94292,417762.4493346,55
1659098404.94292,417762.449338,62
1659098404.94292,417762.4493416,67
1659098404.94292,417762.4493451,72
1659098404.94292,417762.4493481,74
1659098404.94292,417762.4493513,79
1659098404.94292,417762.4493543,86
1659098404.94292,417762.4493582,88
1659098404.94292,417762.9856625,84
1659098404.94292,417762.9856789,81
1659098404.94292,417762.9856857,86
1659098404.94292,417762.9856898,79
1659098404.94292,417762.9856937,67
1659098404.94292,417762.9856976,69
1659098404.94292,417762.9857016,72
1659098404.97085,417762.9857054,74
1659098404.97085,417762.9857094,76
1659098404.97085,417762.985713,67
1659098404.97085,417762.985717,50
1659098404.97085,417762.9857208,33
1659098404.97085,417762.9857247,2
1659098404.97085,417762.9857287,-21
1659098404.97085,417762.9857325,-19
1659098404.97085,417762.9857361,-16
1659098404.97085,417762.9857401,-21
1659098404.97085,417762.9857439,-16
1659098404.97085,417762.985748,-19
1659098404.97085,417762.9857523,-31
1659098404.97085,417762.9857566,-26
1659098404.97085,417762.9857602,-12
1659098404.97085,417762.9857642,-4
1659098404.97085,417762.9857681,2
1659098404.97085,417762.9857719,9
1659098404.97085,417762.9857758,7
1659098404.97085,417762.9857796,4
1659098404.97085,417762.9857829,7
1659098404.97085,417762.9857861,12
1659098404.97085,417762.9857893,16
1659098404.97085,417762.9857927,21
1659098405.52085,417762.9857958,19
1659098405.52085,417762.9857991,16
1659098405.52085,417762.9858037,19
1659098405.52085,417762.9858077,24
1659098405.52085,417762.9858117,28
1659098405.52085,417762.9858152,33
1659098405.52085,417762.9858189,31
1659098405.52085,417762.9858225,28
1659098405.52085,417762.985826,31
1659098405.52085,417762.9858299,28
1659098405.52085,417762.9858337,28
1659098405.52085,417762.985838,28
1659098405.52085,417762.9858421,26
1659098405.52085,417762.985846,21
1659098405.52085,417762.9858496,31
1659098405.52085,417762.985853,60
1659098405.52085,417762.9858585,72
1659098405.52085,417762.9858623,57
1659098405.52085,417762.9858652,52
1659098405.52085,417762.9858682,52
1659098405.52085,417762.9858716,48
1659098405.52085,417762.9858748,55
1659098405.52085,417762.9858792,72
1659098405.52085,417762.9858843,72
1659098405.52085,417762.9858878,74
1659098405.52085,417762.9858941,168
1659098405.52085,417762.9858985,417
1659098405.52085,417762.9859021,753
1659098405.52085,417762.9859058,895
1659098405.52085,417762.9859094,532
1659098405.52085,417762.9859132,-57
1659098405.52085,417762.9859171,-201
1659098405.52085,417762.9859209,16
1659098405.52085,417762.9859248,43
1659098405.52085,417762.9859287,-48
1659098405.52085,417762.985933,-26
1659098405.52085,417762.9859368,-4
1659098405.52085,417762.9859404,-26
1659098405.52085,417762.9859442,-21
1659098405.52085,417762.9859491,-7
1659098405.52085,417762.9859545,-7
1659098405.52085,417762.9859585,-4
1659098405.52085,417763.5699412,-4
1659098405.52085,417763.5699608,-9
1659098405.52085,417763.569972,-9
1659098405.52085,417763.5699822,-4
1659098405.52085,417763.5699895,4
1659098405.52085,417763.5700025,12
1659098405.52085,417763.5700137,16
1659098405.52085,417763.5700203,24
1659098405.5398,417763.5700311,19
1659098405.5398,417763.5700358,0
1659098405.5398,417763.5700388,2
1659098405.5398,417763.5700411,24
1659098405.5398,417763.5700432,26
1659098405.5398,417763.5700454,26
1659098405.5398,417763.5700476,31
1659098405.5398,417763.5700498,24
1659098405.5398,417763.570052,0
1659098405.5398,417763.5700543,-7
1659098405.5398,417763.5700566,-4
1659098405.5398,417763.5700587,-9
1659098405.5398,417763.5700609,-16
1659098405.5398,417763.570063,-24
1659098405.5398,417763.5700651,-36
1659098405.5398,417763.5700677,-33
1659098405.5398,417763.5700698,-21
1659098405.5398,417763.5700719,-19
1659098405.5398,417763.5700741,-14
1659098405.5398,417763.5700762,0
1659098405.5398,417763.5700783,14
1659098405.5398,417763.5700805,26
1659098405.5398,417763.5700826,21
1659098405.5398,417763.5700847,9
1659098406.19475,417763.5700869,9
1659098406.19475,417763.5700889,14
1659098406.19475,417763.5700909,16
1659098406.19475,417763.5700929,24
1659098406.19475,417763.5700948,31
1659098406.19475,417763.5700968,24
1659098406.19475,417763.5700987,19
1659098406.19475,417763.5701007,28
1659098406.19475,417763.5701026,38
1659098406.19475,417763.5701045,33
1659098406.19475,417763.5701065,26
1659098406.19475,417763.5701085,28
1659098406.19475,417763.5701104,28
1659098406.19475,417763.5701123,28
1659098406.19475,417763.5701144,28
1659098406.19475,417763.5701163,28
1659098406.19475,417763.5701182,31
1659098406.19475,417763.5701202,33
1659098406.19475,417763.5701221,33
1659098406.19475,417763.5701249,36
1659098406.19475,417763.5701354,48
1659098406.19475,417763.5701427,64
1659098406.19475,417763.5701454,69
1659098406.19475,417763.5701476,52
1659098406.19475,417763.5701497,40
1659098406.19475,417763.5701548,45
1659098406.19475,417763.5701705,45
1659098406.19475,417763.570181,33
1659098406.19475,417763.5701857,33
1659098406.19475,417763.5701896,36
1659098406.19475,417763.5701934,52
1659098406.19475,417763.5701969,170
1659098406.19475,417763.5702006,436
1659098406.19475,417763.5702052,749
1659098406.19475,417763.5702118,794
1659098406.19475,417763.5702166,348
1659098406.19475,417763.5702206,-180
1659098406.19475,417763.5702246,-204
1659098406.19475,417763.5702301,12
1659098406.19475,417763.5702342,4
1659098406.19475,417763.5702383,-62
1659098406.19475,417764.2047366,-28
1659098406.19475,417764.2047541,-4
1659098406.19475,417764.2047638,-16
1659098406.19475,417764.2047729,-7
1659098406.19475,417764.204781,7
1659098406.19475,417764.2047895,9
1659098406.19475,417764.204796,9
1659098406.19475,417764.2048039,12
1659098406.19475,417764.2048217,16
1659098406.22605,417764.204831,28
1659098406.22605,417764.2048343,38
1659098406.22605,417764.2048476,31
1659098406.22605,417764.2048658,9
1659098406.22605,417764.2048735,-2
1659098406.22605,417764.2048785,12
1659098406.22605,417764.2048913,28
1659098406.22605,417764.2049035,36
1659098406.22605,417764.2049136,38
1659098406.22605,417764.2049218,21
1659098406.22605,417764.204931,2
1659098406.22605,417764.2049394,26
1659098406.22605,417764.2049448,67
1659098406.22605,417764.2049551,81
1659098406.22605,417764.2050862,64
1659098406.22605,417764.2050946,26
1659098406.22605,417764.2051014,4
1659098406.22605,417764.2051079,-7
1659098406.22605,417764.2051502,-26
1659098406.22605,417764.205161,-19
1659098406.22605,417764.2051679,4
1659098406.22605,417764.2051745,-4
1659098406.22605,417764.2051804,-12
1659098406.22605,417764.2051841,7
1659098406.64549,417764.2051885,26
1659098406.64549,417764.2051944,31
1659098406.64549,417764.2051993,33
1659098406.64549,417764.2052028,19
1659098406.64549,417764.2052064,12
1659098406.64549,417764.2052102,26
1659098406.64549,417764.2052137,36
1659098406.64549,417764.2052174,48
1659098406.64549,417764.2052209,62
1659098406.64549,417764.2052242,57
1659098406.64549,417764.2052284,48
1659098406.64549,417764.2052329,52
1659098406.64549,417764.2052363,60
1659098406.64549,417764.2052397,60
1659098406.64549,417764.205243,69
1659098406.64549,417764.2052468,93
1659098406.64549,417764.2052505,96
1659098406.64549,417764.205254,81
1659098406.64549,417764.2052575,79
1659098406.64549,417764.2052611,86
1659098406.64549,417764.2052647,86
1659098406.64549,417764.2052684,86
1659098406.64549,417764.2052721,81
1659098406.64549,417764.2052758,69
1659098406.64549,417764.2052814,74
1659098406.64549,417764.2052849,110
1659098406.64549,417764.2052885,141
1659098406.64549,417764.2052918,132
1659098406.64549,417764.2052952,100
1659098406.64549,417764.2052984,100
1659098406.64549,417764.2053016,122
1659098406.64549,417764.205305,124
1659098406.64549,417764.2053086,120
1659098406.64549,417764.205312,127
1659098406.64549,417764.205317,129
1659098406.64549,417764.2053235,168
1659098406.64549,417764.2053272,338
1659098406.64549,417764.205331,638
1659098406.64549,417764.2053345,864
1659098406.64549,417764.205338,708
1659098406.64549,417764.69213,187
1659098406.64549,417764.6921524,-156
1659098406.64549,417764.6921668,-50
1659098406.64549,417764.6921771,96
1659098406.64549,417764.6921844,52
1659098406.64549,417764.6922254,26
1659098406.64549,417764.6922409,69
1659098406.64549,417764.6922547,74
1659098406.64549,417764.6922698,55
1659098406.64549,417764.6922835,43
1659098406.66444,417764.692297,36
1659098406.66444,417764.6923119,40
1659098406.66444,417764.6923204,52
1659098406.66444,417764.692323,48
1659098406.66444,417764.6923252,45
1659098406.66444,417764.6923272,55
1659098406.66444,417764.6923294,60
1659098406.66444,417764.6923314,50
1659098406.66444,417764.6923335,48
1659098406.66444,417764.6923356,52
1659098406.66444,417764.6923376,67
1659098406.66444,417764.6923397,67
1659098406.66444,417764.6923417,57
1659098406.66444,417764.6923437,72
1659098406.66444,417764.6923458,88
1659098406.66444,417764.6923478,81
1659098406.66444,417764.6923499,84
1659098406.66444,417764.6923519,105
1659098406.66444,417764.6923539,105
1659098406.66444,417764.692356,93
1659098406.66444,417764.692358,86
1659098406.66444,417764.6923609,76
1659098406.66444,417764.6923631,64
1659098406.66444,417764.6923651,55
1659098407.18171,417764.6923671,52
1659098407.18171,417764.6923691,52
1659098407.18171,417764.6923709,52
1659098407.18171,417764.6923728,52
1659098407.18171,417764.6923747,64
1659098407.18171,417764.6923765,74
1659098407.18171,417764.6923784,72
1659098407.18171,417764.6923803,74
1659098407.18171,417764.6923821,86
1659098407.18171,417764.692386,91
1659098407.18171,417764.6923958,91
1659098407.18171,417764.6924005,88
1659098407.18171,417764.6924044,81
1659098407.18171,417764.6924093,81
1659098407.18171,417764.6924148,84
1659098407.18171,417764.6924197,86
1659098407.18171,417764.6924313,91
1659098407.18171,417764.6924427,86
1659098407.18171,417764.6924573,81
1659098407.18171,417764.6924704,84
1659098407.18171,417764.6924837,86
1659098407.18171,417764.6924969,88
1659098407.18171,417764.6925079,91
1659098407.18171,417764.6925204,98
1659098407.18171,417764.6925347,110
1659098407.18171,417764.6925483,115
1659098407.18171,417764.6925616,98
1659098407.18171,417764.6925745,86
1659098407.18171,417764.6925877,96
1659098407.18171,417764.6926005,115
1659098407.18171,417764.6926147,144
1659098407.18171,417764.6926288,160
1659098407.18171,417764.6926432,124
1659098407.18171,417764.6926562,81
1659098407.18171,417764.6926696,74
1659098407.18171,417764.6926846,81
1659098407.18171,417764.6926991,100
1659098407.18171,417764.6927121,132
1659098407.18171,417764.6927252,124
1659098407.18171,417765.227867,117
1659098407.18171,417765.227882,220
1659098407.18171,417765.2278863,480
1659098407.18171,417765.2278895,758
1659098407.18171,417765.227894,710
1659098407.18171,417765.2279237,228
1659098407.18171,417765.2279318,-192
1659098407.18171,417765.2279349,-139
1659098407.18171,417765.2279377,57
1659098407.18171,417765.2279403,50
1659098407.18171,417765.227943,14
1659098407.19967,417765.2279457,55
1659098407.19967,417765.2279482,50
1659098407.19967,417765.2279509,31
1659098407.19967,417765.2279537,55
1659098407.19967,417765.2279565,60
1659098407.19967,417765.2279593,48
1659098407.19967,417765.227962,48
1659098407.19967,417765.2279647,40
1659098407.19967,417765.2279674,24
1659098407.19967,417765.2279701,36
1659098407.19967,417765.2279729,60
1659098407.19967,417765.2279756,67
1659098407.19967,417765.2279783,64
1659098407.19967,417765.2279811,62
1659098407.19967,417765.2279838,62
1659098407.19967,417765.2279865,72
1659098407.19967,417765.2279892,76
1659098407.19967,417765.2279919,69
1659098407.19967,417765.2279946,69
1659098407.19967,417765.2279973,81
1659098407.19967,417765.2280018,86
1659098407.19967,417765.228008,84
1659098407.19967,417765.2280158,93
1659098407.19967,417765.2280405,100
1659098407.77056,417765.2280493,84
1659098407.77056,417765.2280543,62
1659098407.77056,417765.2280936,43
1659098407.77056,417765.228099,16
1659098407.77056,417765.2281027,0
1659098407.77056,417765.2281057,4
1659098407.77056,417765.2281089,19
1659098407.77056,417765.228112,26
1659098407.77056,417765.2281152,21
1659098407.77056,417765.2281192,31
1659098407.77056,417765.2281222,36
1659098407.77056,417765.2281252,28
1659098407.77056,417765.228128,38
1659098407.77056,417765.2281312,52
1659098407.77056,417765.2281344,50
1659098407.77056,417765.2281373,50
1659098407.77056,417765.2281403,60
1659098407.77056,417765.2281435,57
1659098407.77056,417765.2281468,52
1659098407.77056,417765.228151,64
1659098407.77056,417765.2281546,67
1659098407.77056,417765.2281578,62
1659098407.77056,417765.228161,67
1659098407.77056,417765.2281639,74
1659098407.77056,417765.228167,69
1659098407.77056,417765.2281705,64
1659098407.77056,417765.2281739,79
1659098407.77056,417765.2281774,86
1659098407.77056,417765.2281805,79
1659098407.77056,417765.2281834,79
1659098407.77056,417765.2281861,96
1659098407.77056,417765.2281893,115
1659098407.77056,417765.228192,124
1659098407.77056,417765.2281948,112
1659098407.77056,417765.2281976,96
1659098407.77056,417765.2282007,84
1659098407.77056,417765.2282035,76
1659098407.77056,417765.2282064,79
1659098407.77056,417765.8129938,93
1659098407.77056,417765.8130118,96
1659098407.77056,417765.8130212,96
1659098407.77056,417765.8130292,165
1659098407.77056,417765.8130368,386
1659098407.77056,417765.8130464,691
1659098407.77056,417765.813054,801
1659098407.77056,417765.8131103,477
1659098407.77056,417765.8131206,-52
1659098407.77056,417765.8131272,-232
1659098407.77056,417765.8131347,-48
1659098407.77056,417765.8131422,45
1659098407.7925,417765.8131498,0
1659098407.7925,417765.8131537,16
1659098407.7925,417765.8131672,33
1659098407.7925,417765.8131752,-9
1659098407.7925,417765.8131894,-19
1659098407.7925,417765.8132025,7
1659098407.7925,417765.813216,7
1659098407.7925,417765.8132275,0
1659098407.7925,417765.8132408,12
1659098407.7925,417765.8132487,14
1659098407.7925,417765.8132513,12
1659098407.7925,417765.8132535,24
1659098407.7925,417765.8132586,36
1659098407.7925,417765.8132716,36
1659098407.7925,417765.8132804,38
1659098407.7925,417765.8132836,50
1659098407.7925,417765.8132953,57
1659098407.7925,417765.8133066,48
1659098407.7925,417765.8133131,33
1659098407.7925,417765.8133263,40
1659098407.7925,417765.813334,57
1659098407.7925,417765.8133381,60
1659098407.7925,417765.8133465,64
1659098407.7925,417765.8133588,79
1659098408.35722,417765.8133677,84
1659098408.35722,417765.813386,74
1659098408.35722,417765.8133908,60
1659098408.35722,417765.8133947,40
1659098408.35722,417765.8133994,24
1659098408.35722,417765.8134047,14
1659098408.35722,417765.8134098,7
1659098408.35722,417765.8134155,0
1659098408.35722,417765.8134239,-4
1659098408.35722,417765.8134371,0
1659098408.35722,417765.8134506,2
1659098408.35722,417765.8134638,2
1659098408.35722,417765.8134765,7
1659098408.35722,417765.8134863,14
1659098408.35722,417765.8134931,12
1659098408.35722,417765.8135057,12
1659098408.35722,417765.8135162,12
1659098408.35722,417765.8135267,12
1659098408.35722,417765.8135384,14
1659098408.35722,417765.8135497,21
1659098408.35722,417765.8135642,19
1659098408.35722,417765.8135781,19
1659098408.35722,417765.8135885,24
1659098408.35722,417765.8135953,24
1659098408.35722,417765.813602,19
1659098408.35722,417765.8136052,19
1659098408.35722,417765.8136082,19
1659098408.35722,417765.8136111,16
1659098408.35722,417765.8136141,16
1659098408.35722,417765.8136169,14
1659098408.35722,417765.8136198,16
1659098408.35722,417765.8136227,31
1659098408.35722,417765.8136256,50
1659098408.35722,417765.8136284,55
1659098408.35722,417765.8136313,36
1659098408.35722,417765.8136341,21
1659098408.35722,417765.813637,19
1659098408.35722,417766.3977504,19
1659098408.35722,417766.3977663,21
1659098408.35722,417766.3977917,28
1659098408.35722,417766.3978018,31
1659098408.35722,417766.3978066,43
1659098408.35722,417766.3978135,139
1659098408.35722,417766.3978223,388
1659098408.35722,417766.3978297,698
1659098408.35722,417766.3978366,777
1659098408.35722,417766.3978401,408
1659098408.35722,417766.3978481,-122
1659098408.35722,417766.3978549,-264
1659098408.35722,417766.3978627,-88
1659098408.37717,417766.3978697,-26
1659098408.37717,417766.3978787,-62
1659098408.37717,417766.3978813,-31
1659098408.37717,417766.3978836,-2
1659098408.37717,417766.3978867,-21
1659098408.37717,417766.3978989,-38
1659098408.37717,417766.3979104,-43
1659098408.37717,417766.3979138,-50
1659098408.37717,417766.3979167,-55
1659098408.37717,417766.3979275,-52
1659098408.37717,417766.3979353,-50
1659098408.37717,417766.3979386,-48
1659098408.37717,417766.3979407,-45
1659098408.37717,417766.3979428,-40
1659098408.37717,417766.3979506,-26
1659098408.37717,417766.3979614,-7
1659098408.37717,417766.397969,2
1659098408.37717,417766.397979,9
1659098408.37717,417766.3979863,19
1659098408.37717,417766.3979915,24
1659098408.37717,417766.397998,33
1659098408.37717,417766.3980034,45
1659098408.37717,417766.3980102,62
1659098408.37717,417766.3980153,74
1659098408.89403,417766.3980213,81
1659098408.89403,417766.3980261,76
1659098408.89403,417766.3980308,67
1659098408.89403,417766.3980354,60
1659098408.89403,417766.39804,45
1659098408.89403,417766.3980448,38
1659098408.89403,417766.3980494,38
1659098408.89403,417766.3980539,28
1659098408.89403,417766.3980583,24
1659098408.89403,417766.3980627,36
1659098408.89403,417766.3980671,48
1659098408.89403,417766.3980716,52
1659098408.89403,417766.3980759,60
1659098408.89403,417766.3980804,57
1659098408.89403,417766.3980849,60
1659098408.89403,417766.3980893,67
1659098408.89403,417766.3980937,64
1659098408.89403,417766.3980982,64
1659098408.89403,417766.3981026,76
1659098408.89403,417766.398107,74
1659098408.89403,417766.3981114,67
1659098408.89403,417766.3981157,72
1659098408.89403,417766.3981199,81
1659098408.89403,417766.3981243,86
1659098408.89403,417766.3981286,86
1659098408.89403,417766.398133,86
1659098408.89403,417766.3981374,86
1659098408.89403,417766.3981432,91
1659098408.89403,417766.3981477,98
1659098408.89403,417766.3981532,110
1659098408.89403,417766.3981574,127
1659098408.89403,417766.3981618,127
1659098408.89403,417766.3981676,108
1659098408.89403,417766.3981717,98
1659098408.89403,417766.3981777,105
1659098408.89403,417766.3981834,110
1659098408.89403,417766.9345084,112
1659098408.89403,417766.9345255,117
1659098408.89403,417766.9345331,115
1659098408.89403,417766.9345407,124
1659098408.89403,417766.9345469,237
1659098408.89403,417766.934556,518
1659098408.89403,417766.9345664,842
1659098408.89403,417766.9345805,895
1659098408.89403,417766.9345933,468
1659098408.89403,417766.934604,-93
1659098408.89403,417766.9346169,-216
1659098408.89403,417766.9346301,-14
1659098408.89403,417766.9346451,36
1659098408.89403,417766.9346584,-14
1659098408.91199,417766.9346685,16
1659098408.91199,417766.9346768,38
1659098408.91199,417766.934686,14
1659098408.91199,417766.9346925,21
1659098408.91199,417766.9346955,40
1659098408.91199,417766.9346977,40
1659098408.91199,417766.9346998,43
1659098408.91199,417766.9347022,38
1659098408.91199,417766.934712,24
1659098408.91199,417766.9347259,31
1659098408.91199,417766.9347394,45
1659098408.91199,417766.934753,43
1659098408.91199,417766.9347664,45
1659098408.91199,417766.9347796,55
1659098408.91199,417766.934793,52
1659098408.91199,417766.9348068,50
1659098408.91199,417766.9348199,55
1659098408.91199,417766.9348329,60
1659098408.91199,417766.9348464,62
1659098408.91199,417766.9348595,67
1659098408.91199,417766.9348729,67
1659098408.91199,417766.9348864,74
1659098408.91199,417766.9348996,81
1659098408.91199,417766.9349262,76
1659098409.42815,417766.9349535,64
1659098409.42815,417766.9349613,57
1659098409.42815,417766.9349685,48
1659098409.42815,417766.9349757,38
1659098409.42815,417766.9349866,36
1659098409.42815,417766.9349937,31
1659098409.42815,417766.9350046,21
1659098409.42815,417766.9350178,26
1659098409.42815,417766.9350314,38
1659098409.42815,417766.9350449,45
1659098409.42815,417766.9350996,48
1659098409.42815,417766.9351148,50
1659098409.42815,417766.9351251,57
1659098409.42815,417766.9351293,64
1659098409.42815,417766.9351353,67
1659098409.42815,417766.9351438,69
1659098409.42815,417766.9351543,72
1659098409.42815,417766.9351663,69
1659098409.42815,417766.935175,67
1659098409.42815,417766.9351867,67
1659098409.42815,417766.9351977,72
1659098409.42815,417766.9352065,84
1659098409.42815,417766.9352176,88
1659098409.42815,417766.9352281,81
1659098409.42815,417766.9352347,86
1659098409.42815,417766.9352396,93
1659098409.42815,417766.935246,93
1659098409.42815,417766.9352509,105
1659098409.42815,417766.9352556,115
1659098409.42815,417766.9352618,103
1659098409.42815,417766.9352663,91
1659098409.42815,417766.9352726,98
1659098409.42815,417766.9352771,100
1659098409.42815,417766.9352816,100
1659098409.42815,417766.935288,103
1659098409.42815,417767.4704331,100
1659098409.42815,417767.4704489,100
1659098409.42815,417767.4704547,153
1659098409.42815,417767.4704654,340
1659098409.42815,417767.4704698,657
1659098409.42815,417767.4704755,907
1659098409.42815,417767.4704795,739
1659098409.42815,417767.4704832,158
1659098409.42815,417767.470487,-187
1659098409.42815,417767.4704908,-28
1659098409.42815,417767.4704946,96
1659098409.42815,417767.4704983,2
1659098409.42815,417767.4705016,-26
1659098409.42815,417767.4705048,16
1659098409.42815,417767.4705082,14
1659098409.44809,417767.4705122,9
1659098409.44809,417767.4705155,28
1659098409.44809,417767.4705185,28
1659098409.44809,417767.4705215,7
1659098409.44809,417767.4705246,-2
1659098409.44809,417767.4705287,4
1659098409.44809,417767.4705318,12
1659098409.44809,417767.4705353,16
1659098409.44809,417767.4705395,26
1659098409.44809,417767.4705435,33
1659098409.44809,417767.4705489,28
1659098409.44809,417767.4705524,28
1659098409.44809,417767.4705568,43
1659098409.44809,417767.4705604,57
1659098409.44809,417767.4705639,57
1659098409.44809,417767.4705677,57
1659098409.44809,417767.4705716,57
1659098409.44809,417767.4705755,60
1659098409.44809,417767.4705795,72
1659098409.44809,417767.4705836,72
1659098409.44809,417767.4705897,55
1659098409.44809,417767.4705942,40
1659098409.44809,417767.4705996,28
1659098409.44809,417767.4706054,19
1659098409.97387,417767.4706094,16
1659098409.97387,417767.4706133,14
1659098409.97387,417767.4706183,9
1659098409.97387,417767.4706221,12
1659098409.97387,417767.4706262,19
1659098409.97387,417767.4706299,24
1659098409.97387,417767.4706329,31
1659098409.97387,417767.4706355,40
1659098409.97387,417767.4706381,45
1659098409.97387,417767.4706407,48
1659098409.97387,417767.4706432,48
1659098409.97387,417767.4706458,50
1659098409.97387,417767.4706483,60
1659098409.97387,417767.4706509,69
1659098409.97387,417767.4706535,67
1659098409.97387,417767.4706566,67
1659098409.97387,417767.4706591,76
1659098409.97387,417767.4706616,84
1659098409.97387,417767.4706643,86
1659098409.97387,417767.4706668,93
1659098409.97387,417767.4706694,91
1659098409.97387,417767.4706724,84
1659098409.97387,417767.4706749,74
1659098409.97387,417767.4706776,74
1659098409.97387,417767.4706804,93
1659098409.97387,417767.4706831,103
1659098409.97387,417767.4706857,84
1659098409.97387,417767.4706884,62
1659098409.97387,417767.4706911,64
1659098409.97387,417767.4706938,76
1659098409.97387,417767.4706966,76
1659098409.97387,417767.4706994,67
1659098409.97387,417767.4707021,60
1659098409.97387,417767.4707049,91
1659098409.97387,417768.0063976,254
1659098409.97387,417768.0064172,566
1659098409.97387,417768.0064276,866
1659098409.97387,417768.0064315,799
1659098409.97387,417768.0064347,249
1659098409.97387,417768.0064385,-196
1659098409.97387,417768.0064438,-103
1659098409.97387,417768.006449,72
1659098409.97387,417768.0064537,2
1659098409.97387,417768.006459,-43
1659098409.97387,417768.0064623,9
1659098409.97387,417768.006468,14
1659098409.97387,417768.0064714,-4
1659098409.97387,417768.0064746,16
1659098409.97387,417768.0064779,26
1659098409.97387,417768.0064813,7
1659098409.9978,417768.0064865,0
1659098409.9978,417768.0064898,9
1659098409.9978,417768.0064934,16
1659098409.9978,417768.0064987,16
1659098409.9978,417768.0065042,21
1659098409.9978,417768.0065091,21
1659098409.9978,417768.0065143,19
1659098409.9978,417768.0065232,33
1659098409.9978,417768.0065308,48
1659098409.9978,417768.0065331,48
1659098409.9978,417768.0065391,45
1659098409.9978,417768.0065505,57
1659098409.9978,417768.006562,69
1659098409.9978,417768.0065671,67
1659098409.9978,417768.0065693,76
1659098409.9978,417768.0065714,93
1659098409.9978,417768.0065781,88
1659098409.9978,417768.0065914,84
1659098409.9978,417768.0065993,84
1659098409.9978,417768.0066016,67
1659098409.9978,417768.0066046,52
1659098409.9978,417768.0066072,55
1659098409.9978,417768.0066163,50
1659098409.9978,417768.0066288,40
1659098410.56072,417768.0066421,43
1659098410.56072,417768.0066513,48
1659098410.56072,417768.0066543,48
1659098410.56072,417768.0066564,52
1659098410.56072,417768.0066583,64
1659098410.56072,417768.0066603,67
1659098410.56072,417768.0066622,69
1659098410.56072,417768.0066646,69
1659098410.56072,417768.0066725,69
1659098410.56072,417768.0066847,76
1659098410.56072,417768.0066942,79
1659098410.56072,417768.0067073,74
1659098410.56072,417768.0067159,76
1659098410.56072,417768.0067185,76
1659098410.56072,417768.0067208,79
1659098410.56072,417768.0067229,84
1659098410.56072,417768.0067249,86
1659098410.56072,417768.0067272,79
1659098410.56072,417768.0067293,74
1659098410.56072,417768.0067314,74
1659098410.56072,417768.0067335,91
1659098410.56072,417768.0067356,105
1659098410.56072,417768.0067377,96
1659098410.56072,417768.0067397,84
1659098410.56072,417768.0067418,81
1659098410.56072,417768.0067439,81
1659098410.56072,417768.006746,84
1659098410.56072,417768.0067481,81
1659098410.56072,417768.0067502,64
1659098410.56072,417768.0067522,55
1659098410.56072,417768.0067542,108
1659098410.56072,417768.0067563,309
1659098410.56072,417768.0067584,645
1659098410.56072,417768.591446,876
1659098410.56072,417768.5914665,667
1659098410.56072,417768.5914776,93
1659098410.56072,417768.5914871,-192
1659098410.56072,417768.5914947,-14
1659098410.56072,417768.5915017,81
1659098410.56072,417768.5915092,-19

1659098410.56072,417768.591513,-21
1659098410.56072,417768.5915152,33
1659098410.56072,417768.5915174,24
1659098410.56072,417768.5915195,24
1659098410.56072,417768.5915217,31
1659098410.56072,417768.5915238,7
1659098410.56072,417768.5915259,7
1659098410.56072,417768.591528,36
1659098410.56072,417768.59153,38
1659098410.56072,417768.5915322,21
1659098410.58067,417768.5915343,19
1659098410.58067,417768.5915364,24
1659098410.58067,417768.5915386,33
1659098410.58067,417768.5915407,43
1659098410.58067,417768.5915428,38
1659098410.58067,417768.5915449,45
1659098410.58067,417768.591547,67
1659098410.58067,417768.591549,69
1659098410.58067,417768.5915511,62
1659098410.58067,417768.5915532,64
1659098410.58067,417768.5915552,84
1659098410.58067,417768.5915573,103
1659098410.58067,417768.5915594,103
1659098410.58067,417768.5915615,91
1659098410.58067,417768.5915636,88
1659098410.58067,417768.5915657,93
1659098410.58067,417768.5915677,79
1659098410.58067,417768.5915697,60
1659098410.58067,417768.5915718,55
1659098410.58067,417768.5915739,62
1659098410.58067,417768.591576,62
1659098410.58067,417768.5915782,72
1659098410.58067,417768.5915803,79
1659098410.58067,417768.5915824,69
1659098411.14859,417768.5915845,69
1659098411.14859,417768.5915864,91
1659098411.14859,417768.5915884,98
1659098411.14859,417768.5915903,84
1659098411.14859,417768.5915922,84
1659098411.14859,417768.5915941,91
1659098411.14859,417768.591596,81
1659098411.14859,417768.5915979,69
1659098411.14859,417768.5916002,64
1659098411.14859,417768.5916023,57
1659098411.14859,417768.5916042,52
1659098411.14859,417768.5916061,57
1659098411.14859,417768.591608,64
1659098411.14859,417768.5916099,57
1659098411.14859,417768.5916118,52
1659098411.14859,417768.5916137,62
1659098411.14859,417768.591617,67
1659098411.14859,417768.5916219,60
1659098411.14859,417768.5916259,57
1659098411.14859,417768.5916281,69
1659098411.14859,417768.5916301,69
1659098411.14859,417768.591633,50
1659098411.14859,417768.591635,40
1659098411.14859,417768.5916371,45
1659098411.14859,417768.5916392,45
1659098411.14859,417768.5916412,55
1659098411.14859,417768.5916433,72
1659098411.14859,417768.5916453,67
1659098411.14859,417768.5916474,62
1659098411.14859,417768.5916495,170
1659098411.14859,417768.5916517,458
1659098411.14859,417768.5916538,787
1659098411.14859,417769.1762782,818
1659098411.14859,417769.1762919,362
1659098411.14859,417769.1762961,-141
1659098411.14859,417769.1763013,-160
1659098411.14859,417769.1763036,50
1659098411.14859,417769.1763058,48
1659098411.14859,417769.1763079,-7
1659098411.14859,417769.17631,38
1659098411.14859,417769.1763124,45
1659098411.14859,417769.1763146,0
1659098411.14859,417769.1763167,7
1659098411.14859,417769.1763187,31
1659098411.14859,417769.1763207,26
1659098411.14859,417769.1763227,28
1659098411.14859,417769.1763248,33
1659098411.14859,417769.1763269,9
1659098411.14859,417769.1763289,2
1659098411.14859,417769.1763309,28
1659098411.16954,417769.1763329,40
1659098411.16954,417769.1763349,33
1659098411.16954,417769.176337,43
1659098411.16954,417769.176339,55
1659098411.16954,417769.176341,60
1659098411.16954,417769.176343,62
1659098411.16954,417769.1763452,67
1659098411.16954,417769.1763471,76
1659098411.16954,417769.176349,84
1659098411.16954,417769.1763509,93
1659098411.16954,417769.1763528,108
1659098411.16954,417769.1763548,120
1659098411.16954,417769.1763569,108
1659098411.16954,417769.1763589,93
1659098411.16954,417769.176361,86
1659098411.16954,417769.176363,69
1659098411.16954,417769.1763651,52
1659098411.16954,417769.1763672,52
1659098411.16954,417769.1763692,60
1659098411.16954,417769.1763712,62
1659098411.16954,417769.1763732,62
1659098411.16954,417769.1763753,62
1659098411.16954,417769.1763774,60
1659098411.16954,417769.1763794,64
1659098411.72386,417769.1763815,67
1659098411.72386,417769.1763834,72
1659098411.72386,417769.1763853,81
1659098411.72386,417769.1763871,86
1659098411.72386,417769.176389,84
1659098411.72386,417769.1763909,84
1659098411.72386,417769.1763929,88
1659098411.72386,417769.1763949,84
1659098411.72386,417769.1763968,76
1659098411.72386,417769.1763996,67
1659098411.72386,417769.1764089,50
1659098411.72386,417769.1764172,31
1659098411.72386,417769.1764247,33
1659098411.72386,417769.1764309,45
1659098411.72386,417769.1764435,40
1659098411.72386,417769.1764539,38
1659098411.72386,417769.1764628,40
1659098411.72386,417769.1764733,38
1659098411.72386,417769.1764838,38
1659098411.72386,417769.1764927,64
1659098411.72386,417769.176503,84
1659098411.72386,417769.1765135,72
1659098411.72386,417769.1765225,55
1659098411.72386,417769.1765329,52
1659098411.72386,417769.1765433,50
1659098411.72386,417769.1765521,52
1659098411.72386,417769.1765584,62
1659098411.72386,417769.1765625,60
1659098411.72386,417769.1765646,57
1659098411.72386,417769.1765668,120
1659098411.72386,417769.1765689,319
1659098411.72386,417769.761618,628
1659098411.72386,417769.7616328,840
1659098411.72386,417769.7616358,628
1659098411.72386,417769.7616381,64
1659098411.72386,417769.7616403,-223
1659098411.72386,417769.7616474,-55
1659098411.72386,417769.7616623,60
1659098411.72386,417769.7616756,-4
1659098411.72386,417769.7616841,-4
1659098411.72386,417769.7616881,36
1659098411.72386,417769.7616901,26
1659098411.72386,417769.7616926,12
1659098411.72386,417769.7617028,12
1659098411.72386,417769.7617117,12
1659098411.72386,417769.7617142,16
1659098411.72386,417769.7617163,26
1659098411.72386,417769.7617185,31
1659098411.72386,417769.7617205,26
1659098411.72386,417769.7617226,16
1659098411.75078,417769.7617247,12
1659098411.75078,417769.7617275,19
1659098411.75078,417769.7617379,26
1659098411.75078,417769.761747,28
1659098411.75078,417769.7617496,36
1659098411.75078,417769.7617517,40
1659098411.75078,417769.7617538,40
1659098411.75078,417769.7617559,45
1659098411.75078,417769.761758,62
1659098411.75078,417769.7617603,76
1659098411.75078,417769.7617686,86
1659098411.75078,417769.7617787,96
1659098411.75078,417769.7617821,93
1659098411.75078,417769.7617857,76
1659098411.75078,417769.7617974,67
1659098411.75078,417769.7618071,62
1659098411.75078,417769.7618161,48
1659098411.75078,417769.7618211,33
1659098411.75078,417769.7618233,28
1659098411.75078,417769.7618322,31
1659098411.75078,417769.7618354,36
1659098411.75078,417769.7618453,45
1659098411.75078,417769.7618543,50
1659098411.75078,417769.7618611,57
1659098412.26563,417769.7618697,62
1659098412.26563,417769.7618783,64
1659098412.26563,417769.7618885,64
1659098412.26563,417769.7618962,57
1659098412.26563,417769.7619036,48
1659098412.26563,417769.7619087,55
1659098412.26563,417769.7619219,64
1659098412.26563,417769.7619347,62
1659098412.26563,417769.7619488,57
1659098412.26563,417769.7619619,57
1659098412.26563,417769.761975,62
1659098412.26563,417769.7619882,64
1659098412.26563,417769.7620015,57
1659098412.26563,417769.7620147,48
1659098412.26563,417769.7620279,48
1659098412.26563,417769.7620409,48
1659098412.26563,417769.7620541,50
1659098412.26563,417769.7620671,52
1659098412.26563,417769.7620803,50
1659098412.26563,417769.7620936,43
1659098412.26563,417769.7621068,45
1659098412.26563,417769.7621183,57
1659098412.26563,417769.7621336,64
1659098412.26563,417769.7621421,52
1659098412.26563,417769.7621456,45
1659098412.26563,417769.7621578,48
1659098412.26563,417769.7621611,43
1659098412.26563,417769.7621634,48
1659098412.26563,417769.7621656,52
1659098412.26563,417769.7621692,52
1659098412.26563,417770.2983756,91
1659098412.26563,417770.2983995,256
1659098412.26563,417770.2984157,559
1659098412.26563,417770.2984243,816
1659098412.26563,417770.2984322,713
1659098412.26563,417770.2984393,201
1659098412.26563,417770.2984452,-211
1659098412.26563,417770.2984536,-146
1659098412.26563,417770.2984629,26
1659098412.26563,417770.2984722,-4
1659098412.26563,417770.2984802,-43
1659098412.26563,417770.2984866,0
1659098412.26563,417770.2984928,4
1659098412.26563,417770.2985015,-4
1659098412.26563,417770.298514,9
1659098412.26563,417770.2985267,2
1659098412.26563,417770.2985384,-12
1659098412.26563,417770.2985454,0
1659098412.26563,417770.2985559,12
1659098412.26563,417770.2985708,9
1659098412.28657,417770.298584,16
1659098412.28657,417770.2985964,28
1659098412.28657,417770.2986086,28
1659098412.28657,417770.2986145,28
1659098412.28657,417770.2986239,38
1659098412.28657,417770.2986359,45
1659098412.28657,417770.2986475,48
1659098412.28657,417770.2986601,52
1659098412.28657,417770.2986691,60
1659098412.28657,417770.2986807,72
1659098412.28657,417770.2986896,86
1659098412.28657,417770.2986982,93
1659098412.28657,417770.2987111,98
1659098412.28657,417770.298717,100
1659098412.28657,417770.2987201,91
1659098412.28657,417770.2987234,72
1659098412.28657,417770.2987388,64
1659098412.28657,417770.2987481,60
1659098412.28657,417770.2987507,36
1659098412.28657,417770.2987527,12
1659098412.28657,417770.2987549,14
1659098412.28657,417770.2987623,21
1659098412.28657,417770.2987755,21
1659098412.28657,417770.2987818,26
1659098412.79619,417770.2987847,36
1659098412.79619,417770.2987868,38
1659098412.79619,417770.2987887,38
1659098412.79619,417770.2987906,48
1659098412.79619,417770.2987926,55
1659098412.79619,417770.2987944,57
1659098412.79619,417770.2987965,60
1659098412.79619,417770.2987984,62
1659098412.79619,417770.2988003,57
1659098412.79619,417770.2988022,57
1659098412.79619,417770.2988041,52
1659098412.79619,417770.298806,43
1659098412.79619,417770.2988079,43
1659098412.79619,417770.2988099,45
1659098412.79619,417770.2988125,38
1659098412.79619,417770.2988217,31
1659098412.79619,417770.2988335,33
1659098412.79619,417770.2988447,28
1659098412.79619,417770.2988531,26
1659098412.79619,417770.2988556,38
1659098412.79619,417770.2988578,60
1659098412.79619,417770.2988599,60
1659098412.79619,417770.2988623,38
1659098412.79619,417770.2988643,31
1659098412.79619,417770.2988663,36
1659098412.79619,417770.2988683,38
1659098412.79619,417770.2988703,40
1659098412.79619,417770.2988723,43
1659098412.79619,417770.2988744,40
1659098412.79619,417770.8341558,64
1659098412.79619,417770.8341731,199
1659098412.79619,417770.8341841,487
1659098412.79619,417770.8341905,794
1659098412.79619,417770.8341964,794
1659098412.79619,417770.8342026,331
1659098412.79619,417770.8342086,-175
1659098412.79619,417770.8342129,-218
1659098412.79619,417770.8342182,-16
1659098412.79619,417770.8342238,16
1659098412.79619,417770.834228,-21
1659098412.79619,417770.8342337,2
1659098412.79619,417770.8342375,-2
1659098412.79619,417770.8342416,-24
1659098412.79619,417770.8342471,-12
1659098412.79619,417770.8342511,4
1659098412.79619,417770.8342562,4
1659098412.79619,417770.8342602,2
1659098412.79619,417770.8342658,-4
1659098412.79619,417770.8342707,-9
1659098412.79619,417770.834276,2
1659098412.81392,417770.8342809,9
1659098412.81392,417770.8342866,12
1659098412.81392,417770.834291,21
1659098412.81392,417770.8342964,28
1659098412.81392,417770.8343011,28
1659098412.81392,417770.8343061,38
1659098412.81392,417770.8343106,50
1659098412.81392,417770.8343161,60
1659098412.81392,417770.834321,67
1659098412.81392,417770.8343263,69
1659098412.81392,417770.834331,69
1659098412.81392,417770.8343364,72
1659098412.81392,417770.8343416,76
1659098412.81392,417770.8343468,74
1659098412.81392,417770.8343513,64
1659098412.81392,417770.8343571,52
1659098412.81392,417770.834363,40
1659098412.81392,417770.8343673,31
1659098412.81392,417770.834373,26
1659098412.81392,417770.834378,19
1659098412.81392,417770.8343821,21
1659098412.81392,417770.834386,31
1659098412.81392,417770.8343917,33
1659098412.81392,417770.8343966,31
1659098413.34462,417770.834402,36
1659098413.34462,417770.8344058,33
1659098413.34462,417770.8344097,33
1659098413.34462,417770.8344135,43
1659098413.34462,417770.8344172,52
1659098413.34462,417770.8344206,57
1659098413.34462,417770.8344244,57
1659098413.34462,417770.8344279,60
1659098413.34462,417770.8344313,62
1659098413.34462,417770.834435,64
1659098413.34462,417770.8344399,64
1659098413.34462,417770.8344458,52
1659098413.34462,417770.8344498,52
1659098413.34462,417770.8344538,64
1659098413.34462,417770.8344595,64
1659098413.34462,417770.8344634,52
1659098413.34462,417770.8344683,55
1659098413.34462,417770.834474,55
1659098413.34462,417770.8344794,38
1659098413.34462,417770.8344833,36
1659098413.34462,417770.8344872,45
1659098413.34462,417770.8344929,55
1659098413.34462,417770.8344965,67
1659098413.34462,417770.834504,69
1659098413.34462,417770.8345096,60
1659098413.34462,417770.8345169,60
1659098413.34462,417770.8345223,64
1659098413.34462,417770.8345267,67
1659098413.34462,417771.3708103,72
1659098413.34462,417771.3708315,69
1659098413.34462,417771.3708451,62
1659098413.34462,417771.3708549,100
1659098413.34462,417771.3708623,261
1659098413.34462,417771.3708703,552
1659098413.34462,417771.3708778,845
1659098413.34462,417771.3708903,787
1659098413.34462,417771.3708995,225
1659098413.34462,417771.3709059,-237
1659098413.34462,417771.3709129,-141
1659098413.34462,417771.3709185,36
1659098413.34462,417771.3709293,-24
1659098413.34462,417771.3709373,-50
1659098413.34462,417771.3709436,-2
1659098413.34462,417771.3709516,-19
1659098413.34462,417771.3709623,-38
1659098413.34462,417771.3709698,-12
1659098413.34462,417771.3709748,-4
1659098413.34462,417771.370979,-7
1659098413.34462,417771.3709829,7
1659098413.34462,417771.370986,14
1659098413.37055,417771.3709891,12
1659098413.37055,417771.3709925,14
1659098413.37055,417771.3709966,14
1659098413.37055,417771.3709997,12
1659098413.37055,417771.3710029,9
1659098413.37055,417771.371009,16
1659098413.37055,417771.3710127,31
1659098413.37055,417771.3710159,38
1659098413.37055,417771.3710195,50
1659098413.37055,417771.3710228,69
1659098413.37055,417771.3710283,88
1659098413.37055,417771.3710336,91
1659098413.37055,417771.3710401,86
1659098413.37055,417771.3710483,93
1659098413.37055,417771.3710547,100
1659098413.37055,417771.3710614,86
1659098413.37055,417771.3710689,62
1659098413.37055,417771.3710752,48
1659098413.37055,417771.3710859,33
1659098413.37055,417771.3710948,19
1659098413.37055,417771.3711017,16
1659098413.37055,417771.371111,24
1659098413.37055,417771.3711199,31
1659098413.37055,417771.3711301,36
1659098413.96419,417771.3711373,40
1659098413.96419,417771.3711439,40
1659098413.96419,417771.3711499,43
1659098413.96419,417771.3711566,55
1659098413.96419,417771.3711627,62
1659098413.96419,417771.3711686,67
1659098413.96419,417771.3711776,74
1659098413.96419,417771.3711838,74
1659098413.96419,417771.3711931,69
1659098413.96419,417771.3711998,72
1659098413.96419,417771.3712087,76
1659098413.96419,417771.3712147,72
1659098413.96419,417771.3712243,62
1659098413.96419,417771.3712304,55
1659098413.96419,417771.3712388,60
1659098413.96419,417771.3712448,60
1659098413.96419,417771.3712526,45
1659098413.96419,417771.3712588,36
1659098413.96419,417771.3712691,43
1659098413.96419,417771.3712753,45
1659098413.96419,417771.371284,36
