109,6166499
114,9703357
120,8232344
122,1741526
112,2716902
91,86444178
66,45099695
46,27994133
41,84985699
44,90932315
40,20691677
31,24121328
28,26078715
28,2642126
30,50006423
41,71691767
51,16335027
46,08794173
38,73927478
37,61593581
28,46651557
9,539609819
-6,166180044
-24,90224629
-50,41997422
-65,22074152
-66,30591758
-68,42686288
-77,83492834
-91,28145466
-101,0177717
-103,7951979
-107,8650395
-113,9785902
-109,8871301
-98,09192564
-97,84422856
-112,6452755
-122,7462875
-117,6484691
-110,6030082
-110,361075
-108,423822
-100,5423831
-98,96787309
-110,2013872
-118,2440005
-114,5967677
-114,0107222
-119,7368759
-116,5262188
-103,8797182
-98,5483186
-107,5329411
-119,834483
-124,9538175
-126,891793
-130,1492333
-129,7269364
-126,3756749
-129,8461955
-145,3892181
-165,2554364
-178,195517
-187,210099
-196,5497943
-200,2151869
-197,7068328
-190,02526
-177,1709677
-159,8944267
-98,94607897
71,17366243
324,2144136
470,6758199
284,5575559
-147,8906742
-397,1691369
-315,2780689
-209,2176774
-216,4881398
-211,3396041
-188,7721882
-195,2859807
-193,6310402
-178,807396
-177,8150476
-180,9039651
-178,5740894
-174,825332
-165,657575
-153,8206718
-144,0644468
-132,8886958
-126,5431858
-130,2776558
-126,3418164
-103,4853504
-81,20791303
-72,50913191
-64,88860762
-52,09591382
-40,38059757
-29,49217966
-14,93015488
-2,693992367
-3,53313595
-12,94700449
-19,18499224
-18,74646921
-10,8807816
-3,8372521
-11,61518039
-26,71384349
-33,13249623
-35,87037163
-39,42668139
-34,05061632
-22,2413468
-12,99802326
-3,069776635
7,044281141
12,84505664
21,83347446
35,0104767
40,62702245
40,68408732
45,93266286
54,37375608
58,00838887
55,83759754
52,3624322
51,58395628
53,00324595
53,37138957
52,68948717
55,20864987
59,42999931
58,85466716
57,73379446
63,06853115
69,36003546
71,35947339
72,81801809
74,23684935
74,36715305
77,46012054
83,01694815
85,03883659
84,52699044
86,98261754
88,1569285
79,55113614
68,16645491
68,7541004
79,8152888
86,35123635
81,6131588
72,85227095
69,56978607
71,26691543
67,44486776
57,10484879
52,74806072
54,87570177
53,48896565
49,58904114
49,67711157
57,25435442
66,8219408
70,13103504
76,93279428
86,22836796
73,2688975
45,80551578
35,08934684
38,12150539
37,65309649
32,68521514
25,96894589
23,75536255
33,04552775
67,09049266
179,3912966
407,1989669
647,2645183
657,3389527
311,4232592
-92,73158661
-171,3746226
-50,25490072
-21,12148678
-36,97346113
-10,05991865
-1,379969038
-16,18273703
-18,7173626
-18,73300111
-17,47882356
-6,204016702
0,842216774
-5,089341907
-11,74792774
-10,63279208
-3,243202741
8,92155587
19,61218267
22,57935982
26,32375261
37,09600943
43,1467617
43,47662381
54,83619307
72,72604973
77,64675692
73,59886062
75,08288973
82,099356
83,89875411
72,48156165
56,84823919
48,9992303
42,93496163
33,15584294
22,1622672
6,45461065
-10,96676711
-22,85152301
-32,44933043
-37,75987908
-33,28287485
-25,76803975
-21,71511171
-17,62384449
-11,74400749
-9,57538564
-12,86777919
-17,62100359
-21,58488927
-24,00928151
-29,1440402
-40,7390397
-49,04416861
-49,05932956
-50,78443904
-55,71942715
-59,36423739
-64,96882647
-69,53316402
-66,30723242
-61,04102651
-61,7345534
-66,1378322
-65,50089376
-58,07378044
-53,35654587
-52,34925464
-45,55198209
-36,71481404
-43,58784648
-64,67118537
-74,46494632
-70,46925432
-70,9342435
-71,61005683
-65,24684583
-63,84477032
-66,65399813
-60,67470481
-53,90707335
-58,60129392
-65,75756355
-63,87608588
-55,70707086
-48,25073448
-39,75729847
-24,97699001
-9,660041505
-4,056690222
-4,91717807
-3,491751296
0,96933979
4,96584109
3,747494995
0,314040661
6,415214278
22,80074934
37,47037693
42,42382594
38,1608234
27,93109469
14,23436382
4,070353683
7,188786296
17,08938307
18,77186505
14,48595315
10,48136841
16,5078322
91,06506651
297,4027941
566,2707389
675,9186258
442,5961816
21,05313434
-185,9607857
-112,4458462
-48,40231271
-68,83044812
-63,48051269
-56,8527638
-79,4474558
-81,51483979
-65,0551635
-60,0686711
-58,05560305
-55,26619596
-59,70068241
-61,85929086
-56,24224547
-50,59976599
-44,68206767
-37,98936107
-35,02185204
-30,27974156
-19,01322563
-10,72249525
-9,407736273
-8,319129357
-6,706849889
-5,321067926
0,838051867
11,77035026
16,7256735
10,70387335
3,704807127
2,728337686
3,27433348
-1,90733146
-12,81677752
-23,45411951
-35,31946667
-51,66292272
-62,73458583
-61,28454874
-58,06289872
-62,06971767
-69,30508216
-73,0190635
-70,46172781
-66,38313608
-63,78334431
-59,66240351
-57,02035988
-61,3572549
-65,42312539
-59,2180037
-53,24191779
-59,49489136
-66,72694403
-65,93809143
-66,3783454
-72,7977141
-78,69620221
-78,57381109
-73,43053894
-69,016381
-70,0813297
-78,12537491
-84,39850409
-78,1507025
-68,13195341
-67,09223833
-72,28153719
-76,4498286
-74,34709004
-68,22329811
-68,82842876
-76,91245753
-83,22535978
-83,51711094
-77,53768679
-72,03706363
-73,26521863
-71,97213002
-65,15777738
-63,82214189
-65,71520661
-62,83695671
-58,43737977
-49,76646606
-35,82420876
-32,61060429
-44,62565252
-55,6193571
-57,84172571
-58,04277033
-56,47250751
-48,88095864
-43,26815026
-44,38411426
-40,47888823
-27,30251567
-15,35504627
-13,63653622
-24,39704839
-32,38665267
-16,35542618
14,94654645
36,51917282
37,61235257
20,72597704
-2,890070901
-19,98591711
-20,56169642
-5,867552864
8,09636012
11,82987944
7,582832157
2,105035257
33,14629546
164,956409
398,0351615
601,3823278
559,7476714
214,1309449
-121,4681104
-148,299765
-36,86430099
-24,91201213
-41,6932043
-17,70819541
-12,45731557
-25,94090723
-18,90932526
-5,362937066
-3,802122641
-1,727274684
5,61120135
11,96288718
16,82735166
16,20415072
12,34282734
15,24291153
20,65392032
26,07535772
37,50671478
48,69746957
55,89708721
63,3550199
65,820707
60,29357504
60,77303779
76,50849639
93,99933937
97,49494277
86,49467029
74,24787332
73,75389116
78,26205109
73,52166856
60,28204734
45,04247967
32,80224648
29,81061754
31,5668517
28,57019705
27,31989121
37,5651615
51,05522523
58,28928992
64,76655357
75,48620496
84,19742389
83,89938149
81,59124055
90,27215577
104,1912741
109,5977352
109,4906716
110,369209
113,7324669
119,8295588
122,6595924
121,4716704
117,5148905
106,0383461
97,54112634
103,2723169
108,2310002
100,6662559
96,32716133
103,9627919
104,0722214
91,90452307
87,70876915
91,48403203
89,72938446
88,69390007
94,87665384
96,02672262
83,89318556
67,47512467
57,77162526
54,28177649
47,25467186
32,9394097
21,33509368
14,94083337
2,505744681
-8,221049549
-0,490419086
7,196774238
-8,410322958
-25,56255509
-20,01075708
-8,755753848
-11,79835979
-22,13937827
-26,52960106
-23,71980792
-18,21076597
-16,75322928
-28,34793831
-44,9956194
-46,19698431
-34,2027297
-21,51353665
-6,380070128
0,69702142
-17,2828934
-43,57042846
-53,41617967
-53,32072451
-53,28462154
-48,30841
-43,39260937
-44,53771887
-43,74421713
-21,2625617
80,90681131
297,2634877
506,0570755
468,2872052
110,9535307
-251,694271
-295,6564993
-167,1834293
-124,2753118
-127,4323728
-107,1548134
-104,9428093
-112,0465107
-98,21604177
-88,45150061
-101,0029589
-116,1204618
-121,5540275
-122,8036471
-120,1192846
-112,7508764
-107,1983314
-105,2115307
-99,54032755
-89,18454699
-81,39398607
-75,91841358
-68,75756994
-61,16116721
-53,37888898
-42,66039037
-27,50529797
-13,66320987
-11,13369565
-18,41629641
-25,26052478
-29,41586503
-32,88177308
-35,40767665
-43,4929753
-60,13704058
-75,08921617
-88,84881802
-109,9151345
-128,0374266
-134,7149282
-140,946846
-147,2323602
-146,0706243
-146,2107658
-153,9018859
-159,6430605
-157,4333399
-151,7717493
-147,4072894
-144,3389364
-140,5656426
-135,0863366
-126,1499239
-116,0052872
-111,9012866
-114,3367606
-117,560526
-118,0713787
-113,118094
-103,1994271
-93,81411398
-89,21087122
-91,38839715
-94,84537214
-89,33045915
-77,34230438
-68,12953777
-61,19077367
-55,77461137
-55,37963577
-53,25441798
-42,89751595
-36,05747513
-38,48282912
-38,42210032
-34,87380061
-34,33643204
-30,0584875
-18,53845144
-10,77480054
-8,016004462
-1,760526521
3,993175554
3,246648906
0,251444817
-1,990882038
-3,978774329
-3,710672826
-3,18501715
-3,900246527
5,14519945
22,70288006
24,27435269
4,111172053
-17,53511054
-29,41294799
-33,52079818
-31,10712469
-22,67039764
-14,20909442
-11,22170046
-6,206709988
35,58737316
171,9120348
409,7687498
621,9089809
575,8341785
199,2957794
-169,7047936
-200,6661324
-77,58684463
-64,46555431
-83,80090236
-58,5915475
-50,5861669
-52,78345692
-32,68213377
-18,03093423
-18,07861629
-13,32395986
-7,015767437
-4,152864708
4,015898756
12,99164889
15,5254865
20,36848668
25,77169815
19,23614275
12,26281479
22,10268053
38,75667759
42,97571445
32,01066991
25,86239255
40,78170028
58,26937981
60,82618621
59,70284243
57,6500389
47,91843304
39,75864892
37,67127681
32,15687286
23,71595867
14,84902101
0,556511451
-13,16115394
-17,55359487
-15,12046712
-6,861462788
2,473689458
3,135224169
5,373338908
18,18819406
27,82991269
31,79858034
34,09424497
24,9669168
17,66656823
31,94313379
41,04651007
26,97655567
19,48309124
27,06589943
27,97472497
25,20927466
31,7692175
40,90418474
44,11376998
39,64752933
32,00498153
33,93560812
45,68885365
53,51412588
56,16079597
58,1281988
53,16563316
42,7723621
40,69761322
47,94057895
56,25041699
64,87625058
71,81716897
71,32222775
67,64044935
67,0208234
67,96230728
77,71382654
100,0242754
114,8925174
111,3173856
103,2976835
102,3321856
107,6696377
113,8087575
117,4982358
121,7367364
130,7728973
140,6053309
140,9826253
129,1533443
111,8660288
95,36919695
83,66134529
81,49094934
88,60646444
97,75632648
104,9389528
124,1527428
207,3960791
406,4173282
653,714841
729,7869543
471,1319914
75,74826259
-69,8659333
31,53769155
85,70741502
56,14150593
60,08822498
77,29582567
76,76255523
87,23665558
103,2163643
101,4499154
90,68554068
89,67147022
98,90593365
110,137161
121,3633837
130,0828355
127,7937536
118,2443793
116,6829594
123,3577467
130,0170013
135,1589915
141,2819946
148,3842981
147,2142005
137,5200122
132,0500566
127,3026709
117,026207
110,9690327
107,8795323
93,75610764
70,09717886
53,15118553
46,91658736
38,8918651
24,07552138
9,716081562
-2,187905425
-14,13786629
-25,88520255
-41,68128979
-60,77747684
-73,42508507
-81,8754076
-91,62970863
-99,68922268
-109,055154
-122,7286757
-137,2109294
-155,2530243
-176,1060367
-184,5210096
-176,7489517
-171,2908373
-181,6476054
-202,3201593
-223,0593664
-239,6160575
-250,2410261
-256,4350284
-263,948783
-279,03297
-303,1882309
-325,1651687
-334,464347
-338,3362898
-344,7814819
-352,5503677
-364,6433519
-382,8107987
-397,303032
-402,8703352
-401,2629511
-391,2310818
-382,7748886
-387,6444923
-390,5899728
-376,1113694
-357,9586808
-347,1318651
-339,6308402
-335,9554835
-329,6056325
-311,0810847
-288,131598
-271,2568908
-265,2066423
-272,7304931
-282,8280449
-283,2488613
-284,2424681
-292,5583538
-287,6959695
-260,4047299
-238,4340137
-233,5331635
-192,2014872
-40,93825773
212,7572859
417,1359384
335,9485272
-62,05408774
-402,6210148
-393,2513312
-257,6940839
-233,6982899
-238,7629373
-218,1369858
-215,0693675
-211,8089875
-185,6047249
-155,2054334
-140,6099423
-145,5670567
-153,5755592
-145,88421
-127,991748
-111,3968917
-92,84833986
-72,09477256
-51,88485195
-27,96722317
-3,090515191
18,24665826
39,29569781
53,05801758
53,03504423
61,97821608
95,6389822
125,0188015
130,8691419
136,1914791
148,2372961
154,2580821
160,7553315
168,2305432
167,1852192
164,3708646
166,5389857
166,4410898
155,3286841
145,2032748
154,816366
172,4194594
183,5140529
196,3516399
209,9337087
218,2617413
228,8372128
243,4115905
257,4863333
271,5628906
280,1427016
274,9771947
263,8177868
263,4158822
269,0228722
261,3901343
249,0190314
248,6609114
248,8171062
243,7389312
247,177685
253,384648
245,1110827
230,3582325
230,6273215
245,4195537
248,2361126
233,0781609
229,4468395
241,3432676
243,018542
237,7237365
241,459902
238,9780656
220,2792305
208,3643756
207,4844552
201,1403987
194,5831102
192,8134686
192,5823269
198,6405122
203,7388255
197,8780416
190,5589089
187,0321491
178,0484572
163,6085015
156,9629235
160,3623377
159,0573317
149,048466
139,0862744
128,4212635
139,5539134
244,484677
465,2139806
671,9922239
639,3197801
292,196996
-72,87580787
-137,8983369
-41,87032249
-32,79152156
-58,66171653
-43,23071499
-40,99834943
-58,71447705
-60,62897936
-55,24176199
-54,3027543
-51,06190907
-53,01920218
-64,92463222
-69,27822014
-62,83000887
-59,08006291
-55,52846794
-49,4253304
-52,02077707
-63,06495463
-70,5580292
-72,50018591
-70,64162842
-61,98257843
-50,27327525
-43,01397528
-37,70495151
-30,34649303
-24,68890452
-27,98250576
-44,22763108
-61,17462885
-60,82386098
-52,42570235
-56,7305403
-67,73877412
-69,45081445
-69,36708282
-86,23801105
-110,0640407
-114,5956227
-104,8332164
-101,0272897
-102,4283177
-99,5367828
-92,60317398
-91,62798614
-100,6117197
-104,55488
-96,70797685
-91,57152399
-93,39603854
-95,68204052
-101,6800523
-110,6405983
-111,5642041
-109,9513964
-116,3027023
-119,1186488
-112,1497623
-104,8965686
-101,1095918
-105,2893542
-119,4363759
-127,5511743
-124,3842636
-125,4361547
-132,2073543
-137,1983652
-141,9096851
-145,341807
-142,9952184
-136,8704012
-136,9678311
-146,2879776
-149,3313035
-143,0982646
-145,0893094
-147,8048791
-131,7454069
-107,1613182
-88,05303015
-79,67095124
-93,76548148
-121,337012
-135,3859248
-135,4125928
-136,1673794
-137,4006387
-133,6127151
-125,8039432
-115,7246478
-84,87514364
22,2442643
234,1332813
449,5416227
453,9690139
147,1651907
-206,3701011
-272,8871055
-162,1360564
-138,3671772
-159,3306818
-130,5267735
-113,955646
-131,867483
-134,7624585
-120,1407365
-112,0024718
-106,0978096
-96,42688569
-92,23982694
-93,03675107
-89,81776706
-82,33297522
-74,58246747
-65,56632748
-54,28463094
-44,23744576
-37,17483231
-33,59684365
-33,50352584
-30,64491816
-20,02105339
-7,8819581
-1,727652958
-0,058153
2,876532041
9,076397432
12,29144311
8,271673355
5,517096458
5,527724375
-2,44642762
-16,15534129
-26,34899578
-34,77736801
-42,940433
-46,3381643
-42,47053431
-34,83751469
-32,68907673
-33,77519175
-29,59583149
-34,15096847
-55,44057641
-64,96463064
-50,72310843
-42,21598948
-49,69325621
-55,40489424
-58,60089277
-64,28124491
-63,19594818
-55,59500479
-50,47842213
-45,59621309
-43,19839646
-47,78499735
-48,10604751
-42,66158575
-42,45165827
-38,7263191
-24,73563036
-14,97966269
-10,9584956
-5,672217778
-7,370927438
-11,55473268
-0,723751778
14,37188646
15,23204242
11,35656536
16,24529312
26,39805181
34,8146556
42,24490638
50,43859353
54,89549367
57,36537042
70,09797419
89,59304192
93,3502969
80,86944859
74,65019238
78,19220946
83,99516667
91,3087163
94,63249599
95,71612859
101,309222
109,9113693
153,2721482
299,8911215
542,7678367
715,6518259
600,292606
225,6896786
-46,15747009
-16,74936916
82,66343696
86,83038858
89,00091078
111,1744135
107,3502914
109,0279245
126,4566776
128,6359009
126,3149298
136,9930852
149,1696739
159,0939883
170,0153068
174,682894
171,0960013
164,2538661
157,9057133
157,0507546
165,9381893
182,0672042
192,6869742
190,5466626
189,6454212
200,2323907
210,8067011
213,6174721
212,6638134
208,694825
202,4595978
196,7072137
190,1867463
179,3972611
161,3378161
138,2574622
116,1552434
95,53019775
73,88135729
56,20774889
49,00839457
44,28231204
32,7785152
23,24601459
22,68381798
22,59093082
18,71635681
11,80909839
-3,381842698
-22,35746487
-34,86876619
-46,16674377
-59,75239329
-67,12670839
-70,5406801
-76,74529636
-78,49154139
-74,53039513
-74,36283272
-76,73982392
-78,6623325
-82,63131576
-84,14772389
-80,21249944
-76,82657679
-79,49088151
-85,95632989
-91,22382834
-94,29427281
-92,41854834
-88,59752839
-92,33207439
-99,62303519
-99,72124649
-92,12753035
-83,34269465
-81,86753259
-88,2028222
-91,09932577
-85,80778944
-76,32894266
-64,16349773
-56,06214932
-65,77557403
-93,30442992
-120,399356
-135,310972
-140,5398778
-139,8366527
-138,9518558
-143,6360249
-154,6396763
-170,4633046
-159,8573823
-48,57235912
184,1413378
400,7833047
358,8531612
-10,39944915
-369,4748588
-390,8733759
-255,3452838
-227,6408411
-238,7602813
-212,2038124
-204,221617
-207,3138521
-186,4806484
-170,2221109
-172,7883181
-166,6793223
-146,6451493
-129,435798
-120,8012411
-114,741424
-102,0062657
-83,345658
-67,75946592
-53,99752747
-36,30965374
-21,19562882
-13,90520993
-7,938127358
3,95591542
21,2772417
33,77620147
37,20317131
40,05855426
38,59277973
21,80630333
6,199606756
9,773197561
16,77760903
13,46339994
1,581154391
-23,36851845
-51,88498456
-65,71758536
-71,61563789
-78,5784352
-79,85524653
-73,94531768
-67,84787132
-67,31210729
-71,33720294
-73,17231353
-71,31657252
-69,26909202
-72,02896309
-82,09525624
-86,71702175
-78,14329011
-74,12307249
-81,65536112
-82,98912978
-77,87333424
-84,30691272
-97,28878637
-98,31785979
-92,14302144
-90,76314423
-91,42708598
-93,38368993
-96,38178527
-91,1701877
-79,24769992
-74,3631122
-75,2652029
-71,95273906
-69,67447693
-72,42916253
-69,71553223
-61,28231332
-58,37822457
-58,25197684
-51,6522736
-40,07781157
-24,77728128
-3,499367672
9,757249347
-1,256105722
-19,28810454
-21,58741554
-15,15270447
-9,982635053
-4,825869515
2,068930793
12,20310482
24,32799124
59,19492783
181,3052509
417,1602949
644,2613914
620,609869
254,4570525
-131,6957377
-182,3471857
-47,24598159
-4,890820924
-9,280405993
20,33655391
36,21134193
35,5952331
46,23949383
56,89538142
58,81414354
55,9970177
52,94523084
57,15999876
65,64252571
70,64400391
77,41561308
86,95852002
92,52387815
97,61282709
101,9764923
101,6159844
107,2823994
122,7268175
133,9503033
142,4539052
158,9886553
172,8055684
175,1556426
175,7898583
175,209178
165,4145461
153,1568888
146,9371134
140,2561085
127,6147433
112,0138675
92,45431156
73,43688564
67,46238003
69,03156472
64,89518928
57,55398266
49,50865305
39,00988776
33,80835306
37,4046941
40,79953475
37,2434776
26,73710378
11,78097298
-2,874376667
-10,97842857
-13,78068776
-18,28068087
-22,47795614
-20,87208346
-19,96265425
-27,74928154
-33,23159984
-23,65926513
-10,03195477
-5,849367456
-8,611223065
-12,06726262
-13,46724812
-16,06096248
-22,34820932
-26,82881289
-26,25261786
-22,36948918
-14,42931189
-5,43199096
-5,127451041
-13,7656363
-21,3465102
-20,37005523
-7,33627274
13,00481737
31,90317686
45,35874945
46,62146104
34,19122004
25,81791765
33,00142811
40,49160905
33,03830179
20,89133165
22,55050826
34,26562592
59,53646393
158,1127869
372,4943451
607,180875
637,9220992
333,4677273
-50,43254406
-138,0290308
-19,82206089
7,188025984
-29,24912125
-17,13386461
-5,466576691
-17,49764027
-16,72744789
-9,156401484
-10,78491195
-13,61339879
-15,14228963
-18,37201992
-23,30303244
-30,18577692
-34,02070966
-34,05829311
-35,29899544
-33,49329017
-27,39165575
-20,49457515
-9,302535506
-3,816027651
-15,78554578
-26,71158701
-17,59465105
-2,18523975
0,516143247
-5,491007109
-10,9571969
-14,63293286
-17,01872203
-20,61507137
-26,42248741
-29,94147591
-30,67254151
-35,36618738
-48,27291489
-64,39322328
-70,22760936
-63,02656716
-57,54058766
-57,77015847
-56,96576352
-57,62788281
-60,00699211
-60,85356272
-65,91806115
-74,45094894
-75,45268237
-72,17371223
-79,36448361
-96,77543567
-103,1570014
-91,2596076
-86,83367435
-101,3796152
-114,3978366
-113,3887383
-105,3527127
-102,5401448
-110,9514123
-120,0868852
-115,446926
-104,2818892
-104,5921217
-111,3779623
-109,6397418
-107,377783
-115,3424005
-121,7839009
-117,9525824
-115,0987353
-118,7226416
-118,324575
-112,6548012
-111,9635776
-116,0011538
-114,017771
-101,7636626
-90,73905411
-88,69416306
-87,12919932
-88,04436507
-98,18985497
-104,0658562
-105,4225487
-119,5101052
-132,5786914
-125,6284662
-116,6595817
-111,1721835
-54,66641092
116,8576029
368,3997309
518,2098516
360,0378491
-33,86638703
-279,7529623
-230,6219773
-150,7235281
-165,0577061
-158,8745991
-125,6742906
-119,2068608
-117,4723865
-110,7209415
-109,9525968
-102,417421
-89,61548074
-86,54684053
-88,21156348
-83,35971146
-70,49134538
-57,35652558
-49,70531207
-40,28776494
-27,35394458
-19,40391209
-16,68772956
-18,20546044
-22,4571698
-19,19292474
-5,912794666
6,633148355
9,944829271
6,022169712
2,865087658
5,223497115
10,59730778
13,48642473
14,64074807
18,81017265
21,4945877
13,44387657
-2,842083659
-14,3634224
-14,37027591
-9,362787616
-3,841108348
6,944603318
18,49418079
21,5574492
23,38422507
30,72431612
33,82752094
28,69362876
26,57241923
31,9636621
36,11711708
36,78253352
39,20965027
41,14819543
40,84788615
43,55842842
48,02951694
48,76083488
47,00205377
46,00283329
47,51282118
53,28165306
61,05895232
65,09433001
65,88738474
67,18770255
68,99485688
74,05840847
81,12790529
78,45288253
65,53286252
58,61735472
63,70585574
70,04784929
72,14280622
73,74018452
74,33942941
72,93997332
75,54123599
83,14262454
87,24353356
86,34334519
88,19142923
96,78714332
109,379833
122,4688319
132,3034618
129,6330332
112,4568448
99,52418436
103,5843287
113,3865436
118,9300847
123,4641971
127,4881159
126,0010666
135,7522652
214,9909185
410,2162243
655,9273723
749,6235436
517,3039116
125,2176421
-32,13610596
71,74181923
140,1005633
121,9392658
125,7570609
128,3030772
118,0764389
133,8262658
149,3016736
142,001775
136,1756792
137,8224932
139,9413219
142,2812687
138,5914357
129,8709246
125,8688368
126,8342743
129,01634
133,414138
139,5267745
143,8533582
143,3930006
139,1448169
135,6079262
129,5314521
116,1645235
106,0062747
103,5558464
92,56238584
66,27504754
41,1929938
31,81539526
29,64143137
19,170291
0,651172897
-19,41671371
-39,28414864
-54,20190022
-59,67072474
-62,19136597
-73,01455465
-96,64100795
-125,321429
-143,0565064
-147,5969136
-151,6933087
-159,3463337
-170,0566142
-184,0747587
-199,9013586
-222,7869872
-248,2321998
-261,2375327
-265,8035035
-269,6806098
-265,8693297
-257,3701209
-256,6834203
-260,8096439
-258,9991861
-253,7524199
-251,569696
-249,4513428
-244,897666
-238,4089483
-231,4854492
-228,3774045
-227,5850266
-225,6085035
-225,1979991
-223,1036529
-213,5755797
-206,1138694
-206,2185871
-202,3897725
-192,8774401
-183,681579
-171,8021527
-157,9890992
-150,7423305
-152,8117332
-156,1971677
-156,6484688
-157,9154452
-154,2478799
-138,8955297
-120,6081259
-106,1353736
-94,72695246
-91,88251617
-99,60169288
-108,6340852
-110,9792702
-106,6367999
-99,85620088
-92,63697482
-85,47859855
-83,63052424
-81,09217957
-32,36296797
124,3077312
368,9205623
524,7261934
365,9753157
-50,33135638
-315,4430859
-245,3591133
-122,3286571
-114,1009137
-104,1750583
-69,55024486
-69,22560656
-77,95025621
-68,72328656
-59,54377073
-59,9107626
-59,57329721
-49,78039118
-36,53104313
-26,32423415
-13,90892817
3,465927499
16,30140177
18,0985793
20,10855997
34,58245847
50,02140376
51,92653861
56,29901905
75,89001392
93,95070431
104,7322831
114,7359543
117,2129327
115,6644432
122,3417205
128,2460081
122,3785582
112,4906312
104,5834945
91,65842284
71,716697
52,7596037
35,53843485
20,55448704
18,80906099
27,05346097
25,78899424
16,01697051
15,73870138
23,45549974
28,16867928
32,62955389
38,8394371
43,54964157
49,01147849
55,47625706
57,69528396
53,41986276
49,15129343
52,64087178
58,38988891
58,89963073
56,67137741
51,70640284
47,00597417
49,82135123
54,1537861
55,50452255
59,12479559
63,26583095
63,92884463
63,3650424
64,57561933
62,81175937
52,07463484
43,86540601
47,18522067
46,28521365
37,41650647
34,58020685
30,02740834
17,7591899
15,27661552
21,83073381
22,42257767
22,80316385
31,47349267
42,43454761
49,18729497
53,73268358
64,07164442
78,95509036
81,6339158
65,60899642
50,63118883
52,70133038
59,82023881
61,98871202
68,45752783
77,47744375
76,29919668
85,42350278
171,3510572
376,0825339
622,8685854
700,2098428
436,1069152
24,06039005
-131,1791675
-31,86121429
20,0147703
-8,550715484
-4,807196002
6,245781675
-0,891352322
5,281809251
16,51565066
15,31053315
13,41679484
13,83475069
12,06469247
12,60688871
14,21158465
11,87900227
10,35934023
13,6527739
17,50945533
19,67951332
20,16305337
19,96015777
25,3208856
35,74527277
40,23333212
37,53505342
34,15040345
27,5793261
16,32174242
6,127550726
-1,003373332
-7,821176646
-17,07602856
-27,26812074
-36,64766709
-51,4649036
-77,22008822
-104,1635007
-117,7954426
-120,6162369
-118,8762279
-110,8257814
-108,9652841
-124,0451436
-134,3157882
-125,027667
-115,6812491
-118,0270242
-127,8155017
-141,547211
-146,472701
-138,0925402
-133,157316
-139,1676352
-149,624123
-156,2774234
-154,1281988
-153,1771296
-156,4249142
-151,8722685
-145,019926
-144,1186375
-137,6691705
-127,4223095
-127,8788553
-130,2896249
-126,6554515
-129,4771837
-136,005686
-131,7418376
-118,9365332
-105,8406816
-98,7052065
-100,2810455
-102,3191501
-98,8204854
-93,03602987
-85,96677496
-78,11372488
-72,4778963
-69,31031808
-66,36203096
-61,13408726
-53,8775506
-49,34349559
-48,53300753
-43,44718212
-31,58712512
-18,20395208
-3,79878797
4,127233058
-3,927031948
-16,71273445
-20,73103407
-17,48309832
-9,720102185
0,556772117
7,096335536
6,147392496
11,20874125
72,0291742
244,3574783
495,4424353
651,5328222
500,8774116
98,72497199
-163,1757319
-111,3259385
-16,47688957
-25,12982914
-18,53600366
7,553338598
-12,61305214
-31,28642676
-9,21803685
11,34086564
10,13902881
11,67520121
20,94813224
23,2065725
19,44927424
23,92499175
38,63248175
50,32050381
53,98782077
58,38319912
66,50540944
72,60322681
78,67543123
89,22080804
95,73814834
94,22624943
97,6839152
108,1099566
112,2531921
110,6124479
112,4365588
113,7243681
108,2247286
102,4365024
100,858562
97,48979035
89,32908117
80,62533975
74,12748321
68,58444091
66,24515495
69,3585806
70,42368674
66,18945628
64,40488662
66,0689901
67,6807944
69,73934302
69,9936957
67,94292885
66,33613598
62,17242814
54,95093437
50,67080209
51,33119754
50,18130621
39,97033327
28,69750395
28,362064
32,96328007
31,50044012
23,22285384
12,62985304
7,220792034
8,495048051
8,452021607
6,341136891
8,911842142
12,91361002
11,84593795
9,95834854
9,500389853
5,221635815
0,871686532
5,700168624
12,70673556
9,391067951
3,502873907
8,791889298
19,75787807
21,90063253
11,71997363
-3,034248793
-13,1121557
-16,51383864
-16,9893595
-15,78875026
-13,91201279
-15,10911861
-18,8800087
-18,2245933
-13,89275176
-12,88433232
-7,199151965
4,913003685
1,952380566
-17,83074373
-31,18605985
-33,86322656
-35,36187065
-36,18158689
-37,07193795
-38,03245432
-36,56263432
-25,66194405
39,67018262
219,4343441
471,8811708
591,7613256
369,0755034
-61,92556887
-274,7411323
-183,6203959
-103,5625371
-130,0667014
-130,6320029
-109,7575242
-115,4423165
-115,4354002
-104,2357647
-106,5923685
-114,2541399
-114,2199769
-111,7387474
-109,0592898
-106,4304128
-107,1008963
-106,0694912
-100,8349198
-98,14587659
-93,25102802
-78,89901325
-67,83844444
-66,31790715
-59,58596078
-46,14113899
-38,73195018
-37,60687797
-37,01438164
-40,45289669
-50,6708353
-60,41658691
-64,18851874
-64,23497637
-67,30428429
-78,89474653
-94,50464723
-106,6322513
-115,5258049
-124,9335365
-134,1036569
-137,2843606
-131,473826
-123,1702162
-119,1216798
-115,0763518
-110,2823538
-110,9877954
-111,4407744
-104,1393782
-96,58168375
-95,01575922
-93,93966421
-90,35145084
-89,99916449
-96,88084468
-105,4945259
-108,0882384
-105,1600093
-102,7078632
-104,979823
-110,4739113
-112,4381507
-109,370565
-106,7691801
-105,882025
-103,9571324
-101,99254
-100,9862912
-97,68643619
-92,09103283
-86,94814755
-80,50585636
-73,01224577
-68,96541378
-67,61347081
-66,20454067
-65,48676149
-64,95828673
-64,11728609
-62,4619465
-57,49047304
-53,70108995
-58,59204151
-65,66159306
-63,15803189
-54,07966822
-47,92483612
-43,44189442
-37,62922771
-33,48524716
-29,25839151
-21,44712797
-11,79995308
0,434606362
15,25799244
20,92161523
12,67685194
7,025046046
11,21750648
13,25550678
11,64028423
14,87303914
20,70493397
23,63709258
30,92059947
75,05649901
214,0457947
459,1394485
673,5883801
614,643466
232,3055394
-123,1746112
-155,046242
-57,30865486
-59,71119775
-78,50326548
-56,68430014
-59,50379171
-76,21127855
-70,55634789
-67,03863635
-74,15783039
-68,66366671
-57,05593272
-57,33446688
-62,2491591
-59,54995108
-48,98683661
-35,55986189
-27,51912579
-29,1147801
-31,59702976
-25,966133
-15,97240161
-10,61620098
-8,397950279
-0,318122526
7,372755353
1,674102487
-6,414715951
-2,644388718
1,484341548
-4,279321599
-11,9362283
-16,23728227
-18,68344062
-21,77571366
-32,5151647
-49,40290979
-63,19011744
-72,12800829
-72,46785481
-61,71098089
-50,35876149
-45,66262217
-39,62403864
-26,2445363
-13,2756897
0,280878008
25,17349564
51,65044456
68,20995939
88,35022856
118,5693951
142,6155573
155,9867696
182,9310431
237,1963465
285,5306072
292,9317117
276,1475068
265,1758005
265,2643628
282,6609267
316,1131895
340,3688133
345,6754266
347,2806249
355,9319722
373,3770018
397,1132178
416,388096
419,9490849
412,2936078
408,9190628
415,0728252
418,752248
409,2046637
397,9273853
400,6677078
408,1729096
407,1902538
406,7169895
415,7503536
423,7875716
425,8258598
433,862426
445,6444716
447,1691926
439,6837816
429,6854287
423,6713235
424,8886565
420,8346205
407,2564122
397,9012338
393,2662945
384,3488122
374,1460146
360,6551415
328,3734456
277,0481946
222,1766723
165,2561807
108,0340411
59,0075958
12,1742097
-22,96872827
-2,423803548
120,8064255
333,9694293
493,8127083
389,5837944
17,03025297
-284,6003164
-277,0602779
-171,3519583
-174,9776458
-196,939588
-172,4899911
-160,3810183
-167,6147885
-167,9433749
-172,1188038
-186,1430536
-197,768053
-211,7456801
-230,8277615
-231,5160705
-209,8123265
-189,7181936
-175,2352798
-170,8651358
-193,1092538
-224,2190671
-238,4459485
-247,0412098
-268,0061011
-293,0918092
-305,5494579
-311,6301062
-322,0847484
-326,414313
-329,119662
-349,7015906
-373,9108265
-385,4980294
-399,7137906
-417,5586322
-428,7830074
-442,6372994
-460,8718219
-478,736818
-494,9824606
-492,3588522
-473,6160242
-475,2539378
-493,272483
-498,6714791
-520,4506749
-575,3597484
-602,1483072
-578,0658887
-564,8619604
-595,5359197
-632,8370951
-643,7647457
-641,8180623
-646,2461673
-648,2981157
-644,2228955
-644,519428
-631,186569
-587,7231089
-546,8777738
-523,1492263
-486,536066
-451,0368307
-446,1499971
-435,6239816
-399,2071418
-376,6477767
-372,1941286
-346,0943836
-292,346673
-249,4490741
-242,8996121
-246,9462606
-230,5869432
-206,8195348
-196,8918627
-186,0517083
-157,2968083
-135,124856
-132,283503
-117,0203603
-83,08300019
-56,46895752
-39,67573133
-19,70078633
0,208445422
6,554562989
9,090194905
34,06799755
66,99065347
66,61086977
34,18137635
5,95492427
-0,065715977
7,122243811
13,27160783
14,63519452
21,71583484
37,26637052
57,03965228
122,5385381
301,5158915
555,2245798
675,167472
450,8474378
12,26734491
-203,3199418
-75,16156287
76,49533476
97,90359547
106,5660535
136,9855312
143,9148373
136,3567652
127,8140914
121,5395739
149,0359502
194,8059361
196,3522238
170,9274806
169,784347
176,4254353
171,1033282
170,5705772
179,079701
191,1331843
207,9834762
223,8829889
231,584096
236,8391318
252,1503895
274,27012
291,7005307
311,4437844
341,0019978
367,8772408
382,0715349
385,0868526
377,9251159
364,5881956
350,3279103
334,1460253
319,0442518
313,0242462
316,087609
331,2358842
366,4705585
409,7930607
444,204761
474,4569702
502,8009394
514,9878593
505,7688598
489,3950096
477,1173154
466,1867222
448,3541125
411,1203061
361,2360599
328,4520679
317,5189606
306,1873054
287,4576063
270,5803036
255,8057746
237,8843329
223,8162292
228,3516508
251,4907224
272,7335058
280,3300005
286,030144
297,3338118
303,4908184
304,7509172
318,3638011
338,0791031
331,646397
293,5651975
264,8349612
271,7050873
276,6749179
250,7437392
229,4107819
224,6752222
200,5361826
166,9927324
160,0438893
163,6886198
151,92584
130,2544171
110,9231702
107,430871
113,7762454
102,4579743
74,72469455
46,57500038
20,50744445
13,770539
33,61275704
46,53253362
33,02826702
18,09832004
59,99102122
219,2046662
453,2375189
561,8378131
352,0037534
-45,76648323
-239,7247461
-156,1229093
-87,9628708
-122,4965505
-130,9758894
-109,4028475
-112,0294032
-127,3575514
-139,6393022
-153,8766797
-174,0717201
-194,976471
-205,5929894
-202,4233407
-189,9695969
-176,2338357
-177,2181387
-203,4245904
-231,3552764
-231,2622824
-214,3976928
-197,7635891
-176,1120489
-167,9451443
-200,2649409
-242,0734963
-251,1228587
-242,6650662
-242,2021448
-246,4861078
-250,7689541
-257,5526676
-267,8392155
-277,6305473
-281,6785939
-289,2352661
-317,0524539
-358,8820254
-392,2258253
-412,8356746
-428,9633691
-440,8606785
-453,7793457
-475,9710857
-496,1875848
-500,4304998
-492,9514569
-482,7520513
-472,3338461
-461,1983719
-450,3471255
-444,2815699
-440,0031334
-426,2632088
-413,5631528
-423,1542859
-446,7878914
-466,215215
-478,4374643
-478,7058088
-462,7713788
-441,3852655
-420,7985205
-393,7621555
-359,2771421
-321,0944113
-283,7148536
-251,8893187
-218,868615
-182,9035102
-157,2447305
-142,3929608
-126,3488448
-111,1129848
-103,9359415
-98,06823482
-85,01034307
-68,26270362
-51,32571282
-29,44972624
-6,135058783
4,118015034
-1,190739121
-8,811515671
-7,994469417
3,010284139
17,45266846
23,33264561
20,15021587
19,4054173
27,59832536
66,2290524
194,5477472
438,3045945
687,4998145
701,8836621
352,7064268
-60,28156828
-134,579967
15,06161961
73,89361218
64,16646276
83,380654
88,28669845
75,38513796
79,92654289
78,16151147
54,09066902
40,21466722
45,78418337
49,29991963
51,51260223
64,67298071
82,7818271
95,58993515
102,0981195
106,8072149
117,7180754
137,5815734
157,3985989
161,6700588
146,396876
133,8299882
141,4703476
157,0689198
168,1266828
175,6446265
177,8737514
170,3150683
158,969597
155,3383656
152,9224098
135,9727717
108,7404995
85,22664604
68,18226846
53,60842715
39,25618495
30,37660637
32,72075676
41,03970151
48,08450525
53,10623108
59,60593976
65,58468894
64,54353244
62,23351943
67,90569377
78,31109317
82,70074857
72,07568337
57,43691274
58,28544294
66,12227063
67,44838224
67,51475327
67,57234769
67,62211732
71,41500117
74,70192492
73,48380028
70,26152444
70,28597953
76,55803209
79,82853252
69,0983146
58,118195
65,38897282
78,91142909
82,18632639
80,46440838
80,99639945
78,03300428
67,32490748
62,12277328
72,42724515
84,4889455
82,80847539
69,13641423
54,97331955
49,5697267
50,6761487
53,29307597
59,67097617
65,31029401
60,71145112
52,62484591
85,55085343
228,2398253
478,1920896
682,907951
605,8876902
212,3815645
-131,8601924
-133,8373707
-15,04978396
-9,497269434
-13,92968788
19,65307655
6,25111635
-24,63549918
-7,506723823
25,88746571
33,54706995
24,97206684
15,16241194
8,618038655
15,33885844
30,82476108
33,3256149
26,34126709
29,87154399
36,91625136
35,72517475
35,79807977
43,13471253
50,9847999
52,09804995
43,22415233
34,36277864
42,76358287
62,17620183
67,85025554
54,03534774
35,98106629
22,93698367
13,65265747
7,127630841
1,611433022
-5,896420165
-13,14642579
-17,13909331
-26,12494401
-45,85451047
-60,82833604
-58,29697427
-47,26098833
-34,22095046
-21,67744143
-21,38104989
-30,83237185
-35,53201005
-39,73057341
-51,67867639
-60,87693841
-62,07598326
-67,27643847
-76,97893471
-76,18410521
-60,14258509
-42,85501081
-37,5720195
-41,54424841
-48,02233422
-55,75691251
-66,49861709
-74,49807939
-68,2559279
-56,27278749
-57,29927889
-71,58601801
-88,38361538
-95,44267555
-86,2637965
-74,84756904
-72,94457624
-71,55539284
-70,93058468
-79,32070814
-82,97630958
-70,89792475
-56,8360783
-46,54128319
-40,01404016
-48,50483722
-62,76414914
-59,04243689
-44,84014719
-45,65771198
-56,49554796
-52,85405611
-39,73362118
-37,1346113
-23,05737751
74,49774672
289,5304458
518,2904227
550,5273988
264,7411151
-118,5686682
-231,1521708
-112,5095922
-54,14111143
-67,54688631
-47,97705355
-37,4317283
-53,91100382
-47,41495128
-27,94361941
-21,74703435
-15,82519931
-15,92809443
-33,80567653
-38,70787896
-16,88461134
-2,585759504
-9,061185264
-23,06072633
-37,33419615
-36,88138388
-16,45205419
0,704052691
0,337221127
-5,302239946
-3,713996971
-2,39769177
-13,35294155
-22,32933892
-11,82645194
-2,593824193
-11,38097481
-12,43739861
-2,262566173
-17,35592397
-54,7168945
-75,59487644
-83,23924482
-105,6493512
-131,0745239
-139,0140681
-149,9672664
-171,1833784
-168,9116419
-144,9012723
-132,9014635
-129,9113878
-125,6801965
-134,7070201
-149,2409689
-147,0311329
-138,3265826
-138,3763692
-147,4295251
-162,2350643
-169,0419829
-163,5992593
-160,1558551
-160,4607152
-157,5127685
-154,5609283
-158,3540929
-170,3911462
-179,4209579
-177,1923845
-177,4542696
-188,4554445
-200,444729
-203,9209317
-188,8828507
-164,3292744
-159,0089818
-165,1707435
-155,5633222
-145,1854732
-147,5359451
-133,6134809
-94,16681804
-64,44468947
-60,94582428
-49,91894835
-0,612785071
62,97394394
94,59251814
93,74421733
100,1803209
124,1521073
138,4108529
137,4578318
137,2943145
138,6715678
145,3408535
165,803428
195,5605415
266,8634372
436,4633504
639,3615083
660,0591286
373,8074192
1,857577465
-120,7892109
-31,38177212
21,08105466
13,10041677
23,4274472
29,56326398
15,00896938
8,515649281
10,83437243
8,966189774
9,41213373
19,92321755
39,50043461
53,39475778
43,85713873
30,13850728
36,48977079
41,6618135
28,6554959
15,72165412
16,36109934
26,07461716
36,86296707
43,47688179
39,91706681
26,18419976
14,52892989
3,701877561
-18,54636628
-45,71524062
-64,55421484
-71,06278922
-77,99049537
-105,5868967
-141,6015889
-158,5342001
-162,6343919
-167,4018588
-164,0863297
-154,6875671
-155,2053685
-157,3895658
-151,9900266
-161,2566534
-180,6893847
-173,788195
-142,8030949
-115,9841316
-108,3313888
-113,8449872
-112,7750843
-106,371875
-102,6355913
-89,06650288
-75,16491668
-79,93117733
-69,86566714
-10,71880606
57,00894822
87,8171003
115,4551171
181,9224279
255,7184243
295,8424605
320,0438533
350,321882
372,6757888
379,3547792
376,3580214
365,1846473
358,8337523
364,3043955
355,0956004
319,7063544
287,63561
273,6322845
262,4452603
253,0733859
251,5154755
241,0203099
206,8366367
154,4631707
104,8985948
80,89155956
74,6906847
61,29455896
45,20174083
45,41075909
56,42011335
63,97827465
88,58368605
194,4847632
407,6798951
611,4174446
584,695749
254,7631209
-89,1321509
-136,2418014
-17,56758785
15,88871029
2,625292591
24,39033818
39,18200657
29,99843847
14,58775653
-10,80193376
-40,42254334
-57,77599868
-64,11424096
-66,68922518
-66,50291936
-62,80730361
-58,85436924
-58,64611792
-55,43456074
-46,47171729
-41,25961479
-37,05028715
-25,34577402
-13,39811989
-4,209373126
13,46841494
38,13319098
55,53290062
65,91548936
77,77890357
88,12109143
90,44000387
86,98359554
84,24982579
83,4866596
81,19206852
72,36403169
51,75053674
23,34958076
2,159171228
-4,82267299
-9,097920754
-23,66852768
-44,53643524
-54,70356977
-46,67184163
-39,19314423
-53,51935313
-77,65232518
-86,34389757
-81,09588697
-76,16008866
-73,03827567
-71,4821979
-74,49358127
-75,82412691
-67,22551033
-51,69938059
-34,24735951
-20,12104087
-18,32198966
-24,60174128
-23,96180084
-15,90364236
-12,67870812
-18,0384079
-28,23411833
-46,51718218
-74,63890773
-101,3505681
-122,9034007
-149,5486065
-177,7873495
-201,8707563
-235,2999152
-270,0758759
-272,9496492
-249,422206
-238,4944771
-250,4173529
-263,6916825
-265,3182738
-261,2978926
-257,6312628
-253,8190654
-249,6119386
-244,2604774
-234,2652331
-202,1267134
-98,84538175
110,8283427
345,3940853
383,1015162
77,45035021
-322,8096525
-421,9286869
-291,1569024
-245,4944033
-278,9412483
-266,7474507
-232,4129783
-197,4377534
-155,821653
-136,0645085
-133,4161061
-113,3761865
-81,44444565
-63,3705341
-59,15405774
-49,79457775
-29,04161077
-10,1446292
3,146938634
19,33370818
34,6663384
39,64553148
27,27203251
4,04662914
3,970151221
39,79347045
73,26749998
83,89319395
90,92154714
89,10359446
65,44041049
54,68310903
76,83284254
93,89080166
88,10821468
78,23634694
64,5265003
40,73001254
18,09825674
10,1326407
19,08460626
30,20562867
33,24721596
33,21090818
16,34827681
-17,33907603
-13,84951825
36,06861144
61,16700282
40,6973734
19,16146762
6,81105611
-4,102065134
-4,326075533
-1,359130746
-9,199363486
-21,84488436
-33,5437827
-43,54412742
-45,09396789
-38,44133475
-38,83424087
-59,52068213
-87,74863839
-94,51607436
-72,82094047
-41,91117383
-22,53469909
-23,43942938
-35,37326726
-38,58410557
-28,81982843
-19,07831213
-9,107426099
10,84496621
24,03100634
7,452839908
-23,13738434
-41,48751547
-45,34540128
-37,95888929
-27,32582763
-24,94406599
-25,06145659
-22,67585506
-17,03512143
41,86287898
220,7702746
466,4391868
569,8717288
339,5700048
-81,21389078
-283,2278744
-194,9698742
-112,6878309
-119,6296986
-105,2934459
-81,92705647
-85,7785302
-85,59588383
-75,87715189
-73,37038755
-70,82366342
-60,48507237
-50,60272837
-47,17476722
-46,94934744
-44,42465094
-35,59888385
-22,97027727
-11,53708798
-0,297599193
10,99987872
17,85700757
21,7754206
29,25672186
41,55248553
57,41425524
75,84354351
92,84183104
106,9105662
126,0511643
153,5150073
176,0534429
186,9177842
192,8593093
187,8792603
165,2288435
143,1592284
135,4215474
131,5168956
121,4463299
105,210869
88,0614928
75,49914222
68,77471867
67,8890838
70,8430592
72,88742609
70,27292505
65,25025577
66,82007681
76,48300538
80,98961715
73,3404461
66,28598429
66,07668182
58,7129466
42,94514436
37,02359849
40,94859003
36,22035758
23,08909734
14,55496305
13,11806604
20,27847528
34,53621738
43,39127673
37,59359557
20,89307409
8,039570575
10,53290157
19,87284203
23,05912552
22,59144444
22,46945023
19,94275362
21,01092489
33,67349418
44,67995177
39,02974838
29,72229555
32,50696597
38,63309382
33,84997524
21,65686864
14,05299519
10,78753924
7,359648765
24,76843582
126,7629771
352,8423143
595,2554548
613,0013721
290,0790064
-98,01273499
-188,5249767
-73,45887515
-36,81561764
-69,34642191
-68,8025354
-57,18523467
-51,74582472
-39,23563835
-34,15603544
-41,50840232
-41,54415101
-30,51471858
-21,17156635
-15,76617923
-10,55006493
-9,274753272
-14,19179536
-13,55276287
2,640752737
19,887141
29,93477325
53,53200338
87,42716867
99,61859058
96,10457558
106,3834159
120,9533905
115,5627657
98,95979618
94,14272565
104,3597878
115,1092073
114,1392001
98,69797484
72,78373352
42,64467221
13,52898198
-6,065150221
-11,63954077
-13,94600849
-19,23637385
-19,76245809
-16,7760824
-15,02906709
-9,773230728
-0,760389357
4,257644365
2,52906197
0,05206
-0,675159182
-3,654386591
-10,13740582
-16,12599223
-19,12191221
-23,12692234
-28,89276867
-30,6711859
-31,2138967
-38,2726109
-48,34902477
-54,94482031
-56,31166452
-50,95120869
-49,11508768
-64,3049193
-77,27230355
-60,01882202
-33,79603722
-36,1054919
-58,1987085
-76,57718846
-92,99241168
-113,1958359
-128,938896
-124,7230038
-99,79954713
-79,66988944
-80,83536933
-88,04729998
-93,55696871
-115,1156365
-153,4745374
-175,8848783
-164,8478385
-149,8645691
-162,4361926
-187,5638028
-196,4984643
-195,991212
-198,5430511
-161,1549562
-12,32787194
231,4372882
414,1396417
328,7783373
-48,89744488
-387,1384928
-394,9455627
-265,0693786
-250,0106324
-272,0199835
-250,5980589
-237,4954531
-233,4627278
-215,7504118
-202,3590014
-199,2889599
-192,7907178
-180,3646726
-167,2611892
-157,2305994
-154,0232025
-150,389265
-134,8290207
-114,3426711
-99,68038506
-86,34229933
-72,82851849
-67,13911515
-61,27413013
-42,48357266
-21,5174206
-5,125620616
12,69191154
20,43529081
12,10466253
5,200202199
3,722115158
1,420636286
3,296029691
2,848588381
-9,671366086
-21,76348395
-27,17738761
-38,91267202
-58,71890506
-73,34562794
-75,54235561
-66,80857718
-47,64375636
-19,79733189
2,481282034
3,442695247
-6,662458802
-7,583523542
-0,569819764
12,87935389
37,26472044
53,08702405
45,09702953
31,79552181
25,68330543
28,26120399
49,53005967
76,49073261
77,39410045
54,49105775
35,78251543
31,01940024
33,4526542
40,08323403
48,6621106
54,69026839
54,91870488
42,34843005
27,48046573
35,56584513
49,60561221
43,85082113
49,0525357
77,21182881
85,82978185
69,15748419
56,69603258
49,94653061
43,91008816
54,58782085
91,98084948
133,5902995
142,1673004
114,7129854
83,22849054
65,7149545
54,92351788
46,10532278
48,2615122
63,14322961
73,5016184
71,8378214
75,90298038
130,6982356
296,2247252
545,4835851
687,7259479
506,452943
87,16569608
-166,1346718
-112,697044
-30,27030935
-28,60336199
4,304897845
38,95556352
24,34972162
16,98845159
27,1228253
19,75390672
6,382751527
7,010406803
12,88791064
18,76629185
33,8965696
52,52975315
57,16684148
52,05882308
55,45667559
69,86136554
84,77384811
89,44506684
79,12595341
69,56742736
84,27039591
117,9857537
141,4643826
138,7071514
122,4649159
115,7385185
115,7787879
98,33653918
68,1625737
55,00767868
66,12262722
85,00817818
82,16507601
40,09405066
-4,204182533
-12,97892291
-10,47948462
-28,20519667
-57,40540299
-63,07946251
-18,47674922
41,65334782
53,3114244
21,49806115
-7,786176454
-25,79073817
-40,01508892
-41,20870888
-20,62109338
7,248247046
19,89978671
14,33398477
-1,448714687
-19,44788267
-32,41310519
-41,59398323
-49,74013267
-54,85118425
-62,17678347
-69,71659054
-58,7202803
-35,93754212
-29,86807981
-39,76161156
-53,1178698
-68,6866011
-75,96756612
-68,71053942
-56,66530938
-53,58167811
-71,45946129
-95,29848803
-87,09860081
-48,85965526
-24,33152011
-22,01407698
-22,90722029
-35,26085709
-60,07490693
-76,84930171
-81,58398552
-75,0289145
-53,43405668
-36,54939184
-44,12491134
-45,66061796
-17,15652576
-7,862659896
-45,52905649
-72,15576245
-57,7428353
-49,54034305
-69,29836399
-78,76698657
-63,19630921
-52,33644014
-43,68749727
20,50039203
183,2270911
411,2424539
564,2963257
433,1385427
31,26893248
-259,3126859
-228,8565018
-127,1127126
-117,5815242
-111,2631498
-105,9078108
-130,7657361
-130,8371619
-107,8723319
-100,6214968
-88,58491434
-68,51284926
-71,90557288
-82,51336317
-77,33650452
-75,37528765
-75,88000946
-61,10097289
-48,0384868
-46,94286583
-33,81443032
-9,903506108
-7,21042449
-26,23552205
-34,72914056
-12,94162688
23,87666719
42,97538497
41,60416506
38,26264138
27,70044334
5,417195901
-6,087480335
1,686030994
3,487342091
-12,43393891
-21,57820786
-15,9458645
-19,28731239
-33,3529588
-41,39321468
-48,15849453
-62,39921639
-71,11580168
-56,55867522
-26,47826509
-13,37500262
-25,49932228
-36,35166166
-39,43246136
-47,99216499
-60,03121905
-65,55007293
-52,29917883
-28,02899169
-26,73996919
-41,68257164
-37,35726199
-27,01450573
-34,15477089
-41,77852796
-40,13624987
-45,97841192
-56,80549179
-46,86796943
-21,91632707
-16,95104917
-26,97262236
-29,73153543
-37,72827925
-47,46334679
-42,93723304
-41,40043497
-41,10345149
-26,54678347
-27,98093359
-52,65640642
-58,32370828
-49,73334727
-58,3858332
-71,03167753
-66,42139335
-42,80549534
-14,18449973
-5,808924201
-13,17928791
-11,04611138
-6,909916503
-15,27122644
-20,88056559
-11,98845955
-1,095435007
3,047980258
12,44125748
32,58386695
45,72527809
36,61495951
15,7523791
13,13700408
38,51830108
57,14573624
47,26877525
37,38688348
42,49952601
43,35616779
33,45627367
24,0493085
56,88473728
207,4620252
464,2806378
659,0900409
594,3897011
246,9290855
-101,542338
-153,2751008
-18,51973295
44,22323631
34,95327915
32,16986909
23,87248118
24,8105921
59,48368034
87,39122635
79,78271262
60,65762392
54,76544736
66,60567264
80,1777921
77,231301
72,51569757
89,28048324
110,7751628
107,7492446
90,20224055
92,1336666
120,5430427
145,6798929
145,0437458
132,3841346
128,7005971
133,9926764
140,5099203
144,5018822
139,7181211
124,9082016
109,8216942
97,95817546
90,81722841
92,39844243
82,95141364
45,72574506
8,47104675
-3,563063921
-4,126962123
-10,72101536
-22,09558326
-25,2510174
-19,43766112
-25,1558493
-44,40590819
-56,4381552
-64,75289874
-83,10043801
-96,98106283
-97,14505342
-95,09268027
-88,07420393
-73,83987481
-69,38993307
-80,72460838
-98,09411979
-112,4986755
-115,6884729
-109,663698
-105,9245258
-104,2211197
-97,55363144
-90,17220126
-90,82695735
-100,2680159
-109,245481
-110,0094445
-112,0599857
-119,1471713
-101,2710557
-54,9316803
-41,87907356
-81,8632511
-112,3842154
-109,1919559
-106,0364486
-100,1676562
-74,33552811
-58,79000017
-74,03099466
-94,05842025
-100,1221719
-91,22213099
-72,85816494
-65,28012747
-69,23785845
-67,98118387
-68,50991584
-74,82385255
-75,17277829
-68,05646342
-56,4746644
-49,42712375
-56,16357013
-59,6837183
-39,23726917
-11,57390985
-8,443313658
-27,84514018
-44,0290353
-48,49463131
-49,99154689
-47,26938724
-33,82774413
-22,66619599
-24,28430798
-15,68163209
53,89229278
231,1879407
473,7057985
599,9463659
415,4101552
1,347691252
-258,2404889
-207,3538357
-106,4917879
-99,15377179
-87,08920232
-60,29748257
-66,02800422
-75,28014765
-66,05328209
-62,84676586
-70,15994649
-67,24216094
-60,84273581
-62,21098749
-51,09622243
-29,99773727
-26,16481914
-27,59674581
-16,54278592
-6,002199243
10,0257631
45,04185844
72,79685226
76,541518
76,5266368
77,25299724
68,97139507
65,43263299
84,88752037
116,836873
133,2815127
123,9722672
104,65997
87,09545966
73,27957983
66,71317894
59,14710985
43,33222958
27,26939902
16,20948263
14,90334813
22,35186623
19,5559103
0,516356057
-15,01591871
-13,79003448
0,194889696
17,1897359
24,445387
23,21272635
27,74263746
28,78600371
19,34370797
20,16663233
24,50565773
13,36166366
8,485527859
23,12812592
32,790331
27,22301352
19,42704076
10,15327661
-5,847418837
-17,57418956
-14,77618397
-7,702555244
-8,852461635
-12,47506683
-8,319540278
-4,635057503
-17,42080046
-42,67595785
-56,89972546
-50,0913065
-43,74991192
-52,62476072
-62,21508033
-67,52010691
-81,28908564
-94,27127111
-83,46592759
-60,6223294
-50,48976116
-48,8175182
-53,35490679
-71,60124449
-91,3058605
-95,96809589
-81,58730398
-55,66285061
-38,44411443
-38,68048725
-44,37137429
-48,76619447
-50,86438076
-42,16538041
-22,41865524
-16,37368195
-37,52995238
-51,63697378
-37,19426909
-29,2013772
-44,9078532
-56,81326868
-56,91721191
-62,46928816
-61,46911991
10,08365291
206,4393727
456,0983639
547,3109328
319,3273674
-64,6020629
-234,4771075
-147,7975348
-83,06313228
-108,5237069
-100,9290852
-67,52911332
-67,82365738
-74,56260355
-58,24585825
-46,12334827
-53,44502091
-53,21084415
-43,67080677
-51,32491845
-60,42320993
-42,21573308
-25,95256103
-41,38378826
-52,75953066
-36,57992567
-25,34513227
-27,80533113
-18,96072459
4,18846323
28,89198644
44,14957731
48,21094629
52,32578193
55,74375095
48,4644982
38,73764666
37,31279749
39,68953005
48,36740195
62,59594905
58,62468557
34,20310414
14,08067584
0,506850355
-16,51894402
-26,2473002
-13,17883224
12,68582477
27,09601488
27,05106141
26,55026706
30,34291411
35,42826457
35,05556035
27,47402347
31,43285623
51,68124145
61,71834263
58,04330422
58,65525185
57,30329256
46,73651504
38,70398992
35,20477002
32,98789064
39,55236986
50,1472088
49,02139197
38,42388757
28,85364779
24,80960918
34,790693
54,29580552
61,07383843
55,37366918
50,94416136
41,78416511
29,14251747
32,51804282
54,40955326
71,56584905
70,73571902
66,91794101
66,11128228
59,56450001
54,7763417
53,24554568
41,47084151
33,95095052
49,43458626
65,17045497
63,90725612
60,64368284
62,37842247
62,86015709
58,33756394
47,30931605
34,02408269
32,23052993
48,42732113
63,86311756
59,78657884
51,44636355
61,59112977
79,21953558
77,8302397
52,17190194
18,74318386
-0,457250736
4,569264768
20,07140039
28,0478301
29,24723238
33,66829079
47,05969455
95,9201391
237,7483266
465,0429668
612,8027769
464,5264831
67,71282025
-197,389467
-150,7816238
-54,46488468
-64,44047294
-54,95959991
-8,773464633
-8,633253181
-28,79013818
-31,49527823
-38,74981742
-46,80488473
-40,91159358
-39,57104124
-45,03430838
-40,55245852
-36,62653753
-45,25757315
-48,44657451
-36,1945316
-24,75241486
-19,87117466
-9,551740854
4,204977655
6,398093375
0,276740656
6,340076115
26,08727905
37,76755187
34,88012044
31,17423453
29,89916816
22,05421996
9,638713574
3,901997933
-1,656552347
-25,03753667
-59,99152815
-85,7690733
-98,87069173
-103,0468759
-103,0480909
-111,374774
-127,7773346
-137,2561542
-135,3115855
-129,193953
-126,6535524
-129,6906502
-134,3054843
-143,7482629
-156,5191651
-154,1183405
-143,0459091
-149,3019613
-154,8865575
-136,7997286
-124,2914754
-132,861769
-139,0105504
-138,7377309
-142,2931916
-148,4267839
-156,3883294
-154,6776197
-125,2944169
-91,23845329
-94,00943159
-119,1070251
-122,5308779
-110,2806047
-113,1057913
-121,0059946
-110,4807427
-96,2795354
-100,901844
-111,0971117
-102,3647542
-78,45415913
-62,61468712
-62,59567157
-67,64641916
-69,76621004
-70,45429822
-71,95991183
-67,78225349
-56,92050064
-57,37380591
-66,89129747
-57,97207942
-39,61523219
-36,81981294
-35,08485596
-21,90937308
-14,54235416
-19,48276746
-21,72956014
-12,7816587
-5,887969463
-14,04737904
-25,75875482
-29,52094548
-35,33278146
-47,1930755
-54,10062312
-53,80420321
-53,05257848
-55,34449606
-46,928688
30,69612815
232,7812488
480,0779838
537,3376558
245,0615997
-165,9988378
-297,592299
-185,2174155
-128,6228091
-139,3070921
-113,268868
-99,00673206
-117,7692721
-113,0550686
-89,11269588
-84,94072224
-93,03771076
-94,65221984
-88,53280382
-75,67801353
-71,33639689
-82,00649951
-77,68686528
-56,62603693
-45,07255661
-22,02496649
16,76819067
26,55837097
16,84702879
26,13561623
40,42558254
39,96837359
31,0154313
20,31819312
18,12809148
23,19655324
13,77499922
1,864843616
21,71749355
54,83434853
56,21679995
13,61623065
-44,71598565
-68,52848472
-48,31991236
-25,83892482
-19,58418928
-8,30438421
26,7518001
81,58566121
134,4484841
175,3415406
216,0160894
257,4733754
287,2146291
310,7410668
342,0538899
376,6542847
399,2934217
393,4724561
355,6925266
311,7047556
288,7602489
289,1100953
299,2553665
296,6971167
276,6863822
266,2241818
272,0615158
274,4493666
277,6386977
287,6304541
289,6755621
285,5249287
281,4294419
275,1399705
272,6573639
256,9824517
209,3660444
170,8089324
169,0618865
159,3756575
128,0009766
115,4385547
114,4390829
95,0032324
81,63165413
88,57497912
79,33381831
51,65876263
40,30038298
41,00923027
30,28583547
13,13070962
2,044343901
-5,472790305
-14,67024136
-16,7975773
2,895614257
34,40972619
36,99513195
-12,34781431
-73,61877765
-93,56744225
-84,94351124
-92,74670667
-113,4767693
-128,6334585
-157,4665521
-212,2258465
-248,6611559
-161,2723128
90,1908322
330,7284111
307,590538
-22,22269019
-382,4611942
-471,1249116
-372,9637971
-329,7278223
-330,9169752
-305,7812606
-286,8206996
-282,0353291
-285,4252025
-290,7403887
-277,9809724
-276,8970539
-298,9887487
-285,0061875
-240,449516
-227,8188949
-240,3644995
-245,5865197
-218,9851596
-138,8106378
-72,81318678
-90,99305297
-121,1004966
-96,13579162
-41,59922526
19,50890177
41,9382756
0,438569319
-29,99055693
-19,09945577
-10,1384925
18,64195506
65,24149668
57,40972985
15,14623989
8,200600064
27,32237171
42,26110433
43,76633572
27,33759204
11,22438794
9,426226661
-0,057399885
-24,97701102
-35,5831372
-24,62631994
-19,60711174
-23,27607597
-15,38378684
-10,68082928
-37,9177989
-77,8453019
-92,96395502
-81,77438547
-68,02723085
-71,97313913
-83,86276853
-74,94678756
-58,22587486
-70,70071922
-104,6220195
-123,7404846
-110,8068334
-92,07179478
-98,78610738
-102,2005198
-77,06579048
-56,13268753
-53,40198887
-57,8744821
-73,05096448
-84,68224287
-78,01913374
-74,3124631
-84,81306645
-88,52178878
-73,6894845
-62,31701741
-69,90526068
-67,95509677
-51,46741742
-58,69312359
-75,88312543
-68,03834222
-58,15970231
-56,7481431
-42,30461099
-30,08006126
-38,32545809
-47,54177447
-50,22999212
-60,39110144
-55,52610143
-6,635999627
37,02818797
21,965437
-14,32528518
-31,59501942
-34,34481466
-19,07572786
1,211176139
4,514824706
6,334137527
29,41802674
104,765397
267,3751458
475,4961633
577,1273328
401,5175306
26,91562622
-183,1795172
-105,2690429
-4,354100566
-8,185845744
-13,76543988
13,15594991
46,07715106
72,99698576
73,91427113
53,57781951
36,98643862
35,63893185
55,28409845
74,92073384
74,04762981
85,16357485
107,7673543
92,35775088
65,9335446
84,7435134
121,7864333
137,8110787
141,0662227
137,5506375
128,7630946
139,2023654
171,617221
193,7564333
205,3687748
214,7030191
196,5079412
176,2823183
213,0249296
265,4845571
258,1599857
215,300004
184,1534043
166,7189831
172,4955418
191,4818869
183,1768304
165,3291903
178,1877909
189,0014638
166,7690474
156,2393882
182,6613409
198,5337689
184,6055446
180,8755503
191,3426781
180,2558309
152,8639225
144,4158782
152,9106354
152,0971438
143,4743663
135,2912788
119,5468714
102,4901487
100,6201297
102,1858491
86,1863572
79,62072072
104,238023
106,7873647
58,51786394
8,178657262
-18,98110037
-26,96223489
-9,515552728
3,358159631
-21,59186389
-60,86636855
-94,21607833
-117,8916955
-104,6439003
-70,7233504
-75,13068049
-108,116502
-126,1814027
-135,3259461
-142,5506714
-136,6060929
-136,7426996
-159,2109552
-179,5112973
-183,1441375
-182,6098607
-187,408825
-195,2913614
-190,2577736
-164,8083375
-151,1933011
-182,1628841
-235,717278
-264,6066456
-253,0811205
-223,1408077
-201,7857828
-201,5160917
-217,5817512
-231,482748
-230,9690392
-183,2905516
-22,44718232
229,5612019
374,7347647
191,8236996
-226,6717691
-469,0013871
-396,6648693
-293,4119006
-274,2421353
-239,6551974
-216,6506807
-226,7281486
-207,3871345
-173,3771416
-174,6976431
-198,0980826
-203,8278736
-178,8864004
-150,2730178
-141,7370513
-133,2777974
-109,3945239
-92,0864699
-93,85284629
-94,69283579
-75,35559333
-40,84024635
-19,395895
-29,02161259
-35,21644579
-3,979415047
33,19048507
35,54428554
13,08304245
5,30783666
36,21977335
75,56998161
70,60961403
33,83984624
23,01187644
41,62692495
40,9362337
1,941065791
-41,35729505
-48,95754499
-23,35836056
-3,058399267
-6,306300075
-17,10068399
-23,9401546
-25,82329869
-25,74868678
-33,71487374
-38,72039936
-27,513789
-26,09355417
-43,20819316
-48,60619165
-49,2860234
-71,49615082
-82,23502566
-50,00108964
-21,04277514
-31,8585058
-48,44669727
-50,0557578
-54,93408897
-58,08008633
-39,24214011
-13,6686359
-7,107955297
-11,30847666
-11,01857573
-3,236626374
10,78899875
17,80992749
17,32778753
21,34420566
22,86080711
25,87921487
36,15104895
34,42792575
32,46145736
49,75325084
57,80490757
54,86802258
68,69418386
71,78497167
53,64195792
67,01670546
95,16076746
78,57568673
72,51299508
131,7242127
168,2108474
126,7243943
83,0163348
84,08813619
92,94125106
73,82711658
44,49715403
50,4527681
78,6953464
75,72625883
56,54685706
86,65847397
208,3124231
419,2599981
607,5024722
541,2910978
162,8771058
-164,4882946
-139,8039169
-4,568597221
-25,53119502
-77,19059357
-55,04570033
-47,09544737
-56,08879179
-7,774716141
47,09777121
23,02963569
-23,72818385
-19,92477547
-3,809254481
-7,380763809
-3,388474265
16,41841513
40,04067688
59,97905469
64,48426327
68,55698802
100,1978848
131,1575799
131,4366694
139,2857195
173,2052658
183,4458138
149,7578379
118,641782
120,8480591
133,877051
132,9791085
130,4045512
137,6536674
126,2267139
83,87391627
39,84546866
3,391533718
-27,98775735
-35,79230477
-20,27204019
-9,676926639
-16,2569585
-27,51216143
-36,44259227
-46,29833901
-48,32952065
-41,53628708
-45,418819
-48,47732774
-26,71205514
-6,123273371
-8,961284756
-17,72642161
-22,16904602
-15,03954965
-0,088353507
-5,815907715
-25,22269127
-26,0592118
-19,07600527
-25,52363573
-38,65269501
-45,71380244
-31,45760453
-4,384774646
-2,496012697
-21,29204479
-24,02362287
-14,94152438
-16,29655188
-24,33953269
-27,82131849
-28,7427849
-32,35483114
-37,15837957
-39,65437528
-39,84378567
-39,47760002
-36,30682903
-30,33250438
-30,55567827
-36,97742296
-37,84883031
-41,17101126
-57,19509538
-59,1722304
-28,60358165
4,509668379
11,91632059
2,865159771
-9,895044897
-32,11553929
-52,29758383
-47,69245296
-43,30143457
-63,62582949
-75,91695095
-67,17612401
-61,40468499
-65,10398098
-78,02536922
-65,67021655
54,96010114
288,8641995
491,7906861
461,4881615
147,4552193
-166,3095532
-192,8075742
-84,54026691
-74,75905903
-90,2153822
-52,91067134
-26,59636411
-20,02390031
-1,194721343
12,63973039
10,22801208
8,56868104
7,410295329
-4,498585706
-11,65940085
8,676413545
36,50742414
38,58220117
29,64931898
38,20735663
54,50489842
63,54053446
70,81286122
79,82048205
90,06200777
101,5360572
108,7412576
109,6762454
108,8396665
105,230177
94,8464435
81,93714388
72,00096756
62,7866161
51,79280372
40,01825774
25,46171911
5,121942843
-19,75230148
-46,16222927
-62,35904046
-58,09391906
-47,11803271
-48,93253225
-61,03855129
-62,68720578
-43,37959363
-23,61679425
-27,39986821
-45,72985681
-58,85778174
-66,03464467
-72,5114269
-81,53908902
-95,36857057
-106,7507897
-108,4366427
-106,427004
-105,2227257
-100,574637
-94,9835444
-96,20023109
-101,9754568
-104,0599574
-108,204445
-128,6596073
-152,6761075
-145,2545842
-116,1456512
-115,599897
-137,617885
-140,4501529
-126,8472131
-104,8095519
-74,08762983
-58,68188131
-66,09271454
-78,82051142
-93,36562739
-110,9783914
-116,6591057
-92,40804602
-48,22546114
-17,86157314
-17,81657719
-40,09064159
-68,43390771
-80,09648997
-67,07847584
-54,62992584
-61,00087358
-69,19132574
-65,45126211
-60,78063567
-69,42937258
-87,6473723
-96,68450761
-92,54062471
-90,46554331
-97,70905673
-102,020932
-80,90090986
-1,348705178
170,8859932
403,3035224
541,1542448
392,1885486
5,156847256
-252,9404207
-203,3527917
-92,5797773
-81,8708646
-77,22551622
-49,64317055
-32,87324205
-1,915121374
38,48182433
43,06825124
20,34483859
13,56228843
25,97132538
33,82269635
33,36717032
36,35553801
46,03861167
58,41722473
72,49223158
81,26450722
71,48494701
54,15446635
57,77400035
79,09450356
99,11694964
120,342331
131,7716586
119,9059614
120,2462863
152,2936976
170,7992767
149,2641218
107,9393476
71,82608474
66,42547977
86,4886945
89,01690577
66,2613051
47,22309826
32,90350495
8,803758428
-15,3248949
-20,98119582
-8,413872709
5,12835808
14,89679185
32,14273517
53,61750548
63,82243069
56,25884881
38,17810756
23,33156395
20,22058388
29,34654177
42,46082013
47,31480918
40,90990642
33,49751626
34,32904956
34,15592328
23,22956003
15,55138765
24,12283886
32,19535077
27,02036451
30,34932479
48,68367951
53,27487932
38,6243772
31,73362805
42,35408826
54,7372153
55,13446728
47,79730252
46,47717917
51,17555473
56,39388563
63,88362686
67,39623145
55,93315012
33,2458308
21,08571824
38,95425353
71,6028737
79,78301128
54,49609389
27,74354373
23,02677725
28,34720462
26,70622936
19,85524785
16,04564895
16,52881351
14,55611395
-2,121086166
-34,2514326
-52,83358084
-40,36619658
-29,59795615
-29,77754693
-10,65366785
1,524970241
-7,99035594
56,80161749
262,6521411
501,8124518
537,2837723
234,5673106
-162,5857404
-287,174203
-188,9469158
-119,1527337
-102,0405284
-102,1091889
-131,8576219
-158,0347524
-165,8895239
-163,9208991
-136,6278601
-100,2594089
-103,064568
-143,7923808
-168,6919118
-150,2622474
-126,7524959
-132,4117885
-135,7392791
-122,2341454
-126,8955887
-145,4728348
-152,2151342
-156,3717626
-158,9420212
-139,6752374
-115,8207648
-123,8779842
-138,0963034
-114,725158
-82,76401158
-86,96235647
-110,3197137
-109,5856336
-78,00969633
-56,341512
-72,58072124
-99,72699552
-115,2800375
-137,4895815
-167,3553937
-169,8772727
-137,5550495
-108,1385886
-107,8777872
-124,5225768
-138,3229225
-157,7788238
-195,8903148
-208,1574648
-147,8303779
-80,909194
-92,14408867
-138,0352736
-149,5829966
-145,5375422
-151,8992318
-159,9184236
-166,3455131
-164,6809332
-153,9251546
-154,8286855
-158,1420724
-135,8658998
-115,2507902
-126,297405
-137,2564438
-127,3786449
-115,4147852
-106,8656805
-99,23218552
-100,5151937
-109,2156375
-109,3344882
-94,37275607
-80,08149038
-83,46177913
-98,76474919
-109,4915662
-113,6434343
-111,2215964
-90,47733376
-59,91196585
-43,02685031
-34,57338273
-19,55299641
0,532837787
17,68261176
22,64478037
19,66776172
32,49993751
75,63965327
130,0852188
168,3349084
196,1369614
225,9895826
240,3909423
231,5891773
224,3323911
249,8686542
309,696005
349,0624501
339,2159649
352,904494
431,6259524
518,6282253
630,4091693
834,2166129
1002,548357
870,9021766
452,0258195
159,9170091
223,5734442
361,9927998
369,1727283
353,61086
344,5548039
293,0021489
238,4504645
222,6473017
251,5901941
298,7766585
302,9541963
247,1202943
188,5224255
171,6580505
169,5246184
135,3695678
74,4403279
44,48431957
73,74895658
97,48164659
62,67979239
23,59079297
15,96204475
17,04094272
41,57488165
77,8112573
78,74746762
61,38091399
67,20900242
111,9791449
158,1887604
145,8352766
111,6661307
108,9287707
108,3706572
110,9892641
141,5320803
157,2466106
121,1303774
75,68092191
70,6458052
86,27260977
88,55894077
80,00242733
61,8507238
37,60151114
28,75249817
32,55142288
19,4960537
-2,915809149
10,06366755
42,93235133
29,43814532
1,828989469
42,60286182
101,5077797
96,54180116
71,70302581
86,48959639
117,1496998
116,4315683
82,5834806
51,35376327
32,49079156
12,4929907
-8,641163037
-31,91314128
-53,07436245
-62,12619075
-70,06993515
-91,40684833
-120,6381258
-144,0149048
-161,5382635
-171,45922
-157,0287317
-140,2476939
-157,8669395
-169,6372379
-130,0592944
-85,38374936
-85,86117746
-106,742087
-114,2769194
-118,4660483
-121,0597792
-95,30834885
-54,46192449
-47,2706037
-75,9844137
-105,853311
-131,1271809
-157,0558373
-160,6390222
-140,3764056
-132,5175849
-145,812085
-174,2593582
-209,1087836
-181,3596673
-19,2612424
229,4373313
356,236967
127,8886511
-328,8565568
-563,4975246
-489,783047
-423,2118463
-445,0325727
-436,993804
-413,5940464
-406,5817347
-392,7052329
-378,962834
-377,6027614
-385,3731685
-396,52214
-398,0476919
-388,4477725
-386,2202629
-396,1129779
-394,3736664
-368,0000124
-338,4896359
-324,8400935
-317,7988797
-306,1134272
-291,7811085
-277,2992366
-261,665066
-246,8757939
-247,1785612
-261,5704537
-256,0485034
-233,6096895
-230,0009396
-223,9691312
-197,011093
-196,123606
-222,553405
-226,0471801
-219,101578
-230,4632032
-231,6286203
-205,5943544
-176,6068936
-149,41269
-107,0081614
-54,13969291
-14,3036388
3,253676202
11,28595502
14,29692658
3,290344143
7,019983507
67,73964131
136,4531332
133,1642922
92,37696677
81,59501896
79,82232276
53,56276216
21,3202293
7,598622655
7,901845135
2,483802233
-13,90159986
-31,00045614
-43,05886468
-43,07292853
-25,03875762
-3,952470617
5,189803102
6,641921606
5,65772849
10,74105098
38,64569803
83,37545845
109,684099
105,0753625
95,80296606
96,62059902
110,0319213
143,2905613
169,6501146
150,6141412
97,1861649
57,61967043
74,6681023
134,0848629
167,3733105
151,0367582
134,5784712
150,001666
169,3095084
158,5051118
126,8415356
100,5717836
94,19880265
113,9754807
124,1546456
88,23906347
54,48143719
74,38440507
151,7005394
308,682345
501,332258
530,4026443
250,3957987
-141,1860569
-297,3407742
-222,81628
-167,1105774
-173,4717466
-156,3979462
-128,3874142
-118,4384688
-112,2995099
-113,9690194
-132,4455623
-147,9777877
-147,5644295
-143,454307
-145,1463258
-152,8894784
-168,932845
-191,0255936
-205,1669813
-196,6063539
-170,8431471
-148,1268866
-131,2071886
-109,5837596
-80,00639744
-40,97499108
3,760479214
42,69994165
81,09323284
147,9400978
254,4901899
376,493071
494,6982114
605,6049904
694,2126958
743,2705249
761,5275842
773,4828903
783,1353698
771,7338597
731,0271087
675,5137765
627,4424356
595,3115709
561,6195811
513,614779
465,7953925
422,9095653
379,7053577
360,6807476
377,8336316
389,9118255
370,1630658
338,5850106
321,9252407
334,9312607
356,8505004
351,6803158
332,4179905
326,0607371
316,1056984
287,5499486
261,3904954
249,8742808
236,2481827
225,7590168
248,6535378
280,9284412
273,5803648
244,8558904
228,7515454
226,2638048
234,8890928
233,3737843
211,964207
212,9066432
237,9473316
236,5824692
225,308213
233,6206821
216,5159597
172,7400947
161,539104
176,9089745
195,5956646
221,0951068
203,6532095
122,2658587
44,67892066
-10,11175661
-55,86034104
-62,07101446
-59,24797061
-138,895413
-285,267553
-376,3686075
-359,702797
-274,7743438
-132,0874693
72,35360731
215,5446717
64,23151608
-354,0900585
-613,4242405
-532,2752052
-443,1471136
-497,0441097
-489,4703186
-405,9298449
-401,6767706
-444,9651528
-445,7990225
-436,6823818
-430,1192029
-390,1134256
-333,9189558
-287,7896636
-256,2293815
-245,4919026
-243,330979
-239,0003197
-224,5035897
-185,3444074
-153,2763436
-157,0529198
-162,9276065
-149,4038217
-128,7349295
-109,4242384
-105,2250004
-122,8904089
-129,1735978
-103,0776401
-82,10554649
-80,01026432
-73,04467612
-73,7115986
-91,01378149
-108,7039064
-135,5345859
-163,0083622
-153,6277066
-138,6450182
-174,0626233
-223,8827743
-246,607649
-266,98935
-274,2799036
-229,9812595
-196,0952901
-260,1237897
-358,8184742
-386,4309804
-379,2128659
-414,915608
-451,2906043
-416,8391715
-372,3125456
-395,9618816
-440,2882531
-448,7926524
-441,2259905
-440,3390966
-425,8827185
-401,3575224
-396,7640931
-391,1029342
-389,8744678
-415,3290354
-409,4668977
-367,0382347
-346,0431466
-339,9816537
-348,1036971
-380,1591389
-387,3977628
-355,3192748
-316,9233033
-260,9594002
-206,4270413
-213,0756269
-233,6544829
-212,1628609
-202,5999395
-222,964825
-220,2565522
-158,9740851
-64,86631819
-31,93207714
-87,67011976
-132,8291371
-115,6577544
-88,90453229
-74,81796762
-43,8964948
7,361513175
56,95774354
86,39394259
129,9219145
281,04352
549,0106752
736,8253505
572,239569
134,0054052
-112,6250159
-38,89952064
26,68411228
23,62815029
110,4349056
186,6067338
159,3960326
132,8052402
135,5868338
140,9933287
177,7772761
226,1912625
232,7379073
202,9198623
172,9898094
178,4504598
230,8045521
273,554851
264,4541458
238,2552491
223,460995
242,3242377
300,3478505
329,2847238
311,3877636
304,9098905
299,8540382
288,7231514
325,5201852
384,9981033
402,4098765
393,5084813
387,2968989
378,5281132
353,7051098
310,8308746
283,4083925
292,9406458
297,1806131
263,3812679
229,7955773
222,9265009
215,0269891
202,3499823
192,6484095
165,4251871
138,4332174
141,6753879
147,15457
135,6236175
119,835366
98,04263131
80,99820884
84,45487212
90,41537195
87,88243536
89,10876458
88,09703607
65,84989957
32,61997714
22,90986224
37,47211886
48,05928064
64,42385001
96,06829737
93,74506028
35,20654272
-11,54488574
5,743109408
20,82282684
-11,55347126
-3,133559866
46,08474826
41,60360195
21,42511101
13,80134571
-22,01566381
-20,77392803
39,27850145
56,14353143
33,57302666
41,31880943
51,38265917
41,51631207
41,97146069
50,99975371
66,85279554
85,2821461
56,03932052
-8,624211102
-34,45702386
-33,95773831
-38,37502056
-20,20758249
-0,704181842
-1,613622318
63,81524632
266,0835282
516,9422813
587,1425174
308,1852021
-107,9287452
-259,9484509
-165,3730879
-117,4518748
-142,4340761
-134,0690021
-114,3560086
-104,044497
-68,13391385
-22,12375087
-8,763544597
-17,30287623
-29,74137137
-49,32869975
-51,56457496
-21,44875417
8,268962202
14,8387308
11,26066566
9,284838615
-4,088720413
-35,11002297
-53,27912171
-38,59610997
-12,31112133
-3,424329235
-16,18594649
-21,84622483
-8,155454449
-6,863963515
-25,47211768
-28,73031957
-9,389008282
7,551341123
7,590218186
-19,02292244
-63,03866041
-88,70760918
-98,03041539
-115,7577583
-121,1403493
-114,9289311
-137,1242775
-153,2271923
-128,2385092
-127,9090909
-153,2398284
-134,9816407
-113,8854738
-137,2023006
-162,6831195
-166,0789544
-147,140854
-129,6198906
-151,2671602
-173,0837814
-166,8208948
-181,9796624
-205,811267
-183,3169113
-150,2478177
-159,8552271
-182,8903986
-184,6046087
-174,4991507
-156,075334
-136,5844835
-129,7779387
-126,6570534
-125,7231947
-134,2277427
-135,9220895
-117,5576386
-105,8858046
-118,908012
-124,6256949
-119,5402965
-139,1532678
-161,7160676
-143,2301618
-94,44702243
-38,36812709
2,505041454
4,170996056
1,128245818
46,37529668
116,4106521
154,4828135
152,3402811
134,2315544
126,1551328
137,6095161
150,3432055
153,6047035
153,392515
150,455148
140,7911135
117,6489267
91,77710742
121,4241804
282,8386763
563,5191316
783,4640898
696,1721017
294,8917258
-49,37847121
-71,63991355
14,10598376
9,857815589
29,86418711
96,37371436
87,38502463
34,14675704
20,15756291
9,916106286
-14,07893566
-12,07887216
18,66500157
64,90140479
101,6290716
91,8467513
47,05320902
12,74722584
18,92759932
60,59314382
86,9926909
67,37508967
48,2392071
52,83392841
55,15815734
80,96081652
127,9908477
122,9972123
74,97889114
48,68488542
36,86421647
16,01592624
16,63907746
50,48275393
62,29606071
20,57812434
-46,92190693
-111,204863
-139,7715516
-111,6227584
-77,75924643
-98,18175643
-132,6410063
-127,887691
-128,6724829
-157,2460311
-137,1089614
-64,01187684
-57,20535675
-137,1899573
-179,7162113
-156,5346279
-167,8956932
-227,0498693
-246,9975953
-206,7392865
-181,5253349
-214,856109
-247,731954
-238,9031917
-233,6201206
-252,383016
-253,9421302
-213,0476924
-167,6999089
-170,3989631
-196,1450159
-190,1882054
-183,2786476
-218,4164362
-222,6016425
-133,3343164
-58,11448571
-82,19215689
-118,317315
-117,4899241
-120,4599272
-108,2272468
-71,79178497
-69,4034235
-99,56202433
-99,01742975
-57,01946263
-22,06792676
-14,91260705
-5,053269912
8,510336503
-1,221518015
-13,99854605
0,92955714
32,81311328
53,65246077
46,19795434
24,44996472
13,90887832
10,32509683
0,949036911
11,28112985
63,82182116
114,0715703
165,7808501
323,4501467
562,329959
651,6707982
422,2231878
42,98766265
-130,285231
-55,8449359
16,30911557
9,427501236
4,76080868
4,059634835
-16,67541438
-30,94372445
-4,744672635
53,92237162
87,05804631
69,16299651
47,98787396
43,5333367
28,80004871
11,78867947
23,24990364
63,4344007
102,0928545
112,975953
106,8343877
103,9188536
97,48004848
89,01867288
96,78542945
106,2810228
94,00615895
92,2115453
138,1478899
188,0659016
183,716289
149,8497609
131,4670255
119,8187902
98,1557613
68,47864365
35,53814038
21,8349526
36,36977907
37,89331594
11,40625643
-7,340709401
-13,34689499
-23,61161749
-37,88419807
-56,41396216
-65,2002397
-40,99236539
-1,289678942
12,65847468
-5,147254948
-25,95622395
-33,01779438
-36,33133441
-42,89621855
-36,46182785
-7,027550099
9,657220001
-12,40691936
-29,21937728
-19,7795703
-21,58692257
-25,14086604
-12,69084055
-15,23629405
-12,02668267
21,1885291
26,1598683
-3,612146625
-18,12700593
-21,8842087
-5,383262933
35,87631436
35,64499704
-8,82675021
-28,53847197
-10,4897222
15,81993577
27,39092911
21,72367545
15,56858286
17,17604979
19,296465
4,680207574
-29,67235313
-32,76085749
24,41504432
60,35569239
25,811417
4,032538666
33,01936813
44,02220634
24,04134453
20,32706416
22,62963699
-2,05067488
-37,96361904
-46,35895266
-10,2364425
32,65413516
30,56299456
10,24034053
53,68636852
208,9012647
443,635206
607,8883602
493,6608859
120,2029328
-161,9853583
-153,4038556
-68,05243599
-73,18098502
-90,78939683
-79,62757406
-78,44542771
-92,49287709
-98,26984969
-74,77628109
-39,76211481
-36,22730226
-54,42180259
-51,5955826
-42,24861659
-59,8808863
-74,24238071
-55,58309603
-34,65303546
-26,70220916
-16,2306341
-16,73833391
-38,22533878
-44,69168534
-8,637416536
35,43741853
44,28276468
33,89856082
29,53474004
18,94122978
11,1179519
36,56482285
67,78175379
58,01865069
29,2754145
7,801941214
-27,40187795
-63,83615647
-69,50101236
-67,89656809
-77,02295041
-78,1302903
-84,7187228
-104,7883869
-104,3394255
-88,62198518
-85,63621609
-82,63227199
-78,86030997
-88,57049047
-88,01297706
-63,68793643
-43,59553825
-45,98595504
-64,10936214
-87,96593755
-107,0558619
-110,1293182
-96,18649201
-72,97757116
-55,75274566
-60,26220772
-72,5061516
-69,23477351
-66,1982716
-77,89684583
-84,5806979
-81,25003121
-73,65505075
-58,29596304
-52,17297609
-65,0362993
-76,38614341
-82,47272046
-79,79624369
-53,10692752
-37,65498747
-54,44064011
-47,71410303
-17,72559474
-26,9753347
-58,96354317
-68,19044127
-64,90625085
-55,86119451
-38,05549552
-33,23937778
-40,66306582
-28,5767847
-2,730760057
-0,375217977
-9,26038503
10,86351179
37,9962451
26,38758715
-6,712690143
-24,55481517
-34,63901658
-35,96552329
-4,784564417
33,40363073
37,34883267
21,80081181
44,75933841
179,7241827
425,6951147
616,4219047
531,1543227
179,6421389
-102,6148767
-103,3669536
-29,11432172
-45,60721043
-62,84584916
-49,8304671
-36,56129326
3,211443596
43,23751497
29,01669265
-7,451251264
-19,66654432
-24,12941369
-25,09008614
5,701212013
38,74425491
31,0388172
20,58467407
31,13160128
25,17937518
16,97777276
48,02657171
86,57555039
95,62448795
94,6731643
94,97136017
85,01885717
75,06543781
98,36088555
148,6549848
157,6975211
111,2382809
77,02705184
75,56362281
80,5977838
83,12932607
69,90804216
40,43372599
10,70617284
-19,77482056
-32,50945602
-6,997933779
18,75954747
14,76279068
3,761600473
-7,244216784
-18,50485296
-2,020498088
33,70865967
46,68243409
41,40064091
30,61309792
0,569624973
-15,72995595
19,2141793
54,15185713
45,33290619
28,75715747
26,42444432
20,58460254
9,237470357
7,882888533
21,02070039
30,15075183
23,52289144
18,63697047
18,7428429
3,590365514
-15,82060212
-12,74019758
-2,918555522
-7,605807709
-9,552082923
-6,257506951
-20,72220255
-42,69628943
-53,92988418
-58,67310029
-43,42604811
-18,18883482
-30,21156438
-60,99433756
-65,78725191
-73,34040168
-103,6538779
-103,4777683
-55,06215735
-29,90712613
-56,0127525
-70,62911096
-61,50627271
-68,64430561
-79,79327421
-86,95323974
-110,8742601
-121,30639
-91,9996806
-71,45418004
-91,66993306
-118,1469812
-128,6353626
-121,3851125
-39,39626262
173,3311583
435,0471246
523,5016141
253,6946071
-197,6239124
-394,953958
-284,2955398
-175,6486653
-160,513339
-148,8895626
-137,277335
-133,6766522
-124,0875077
-116,7598924
-111,9437942
-105,389199
-100,3460898
-83,8144474
-44,79425019
-15,53547423
-27,03809338
-42,3020793
-18,07740159
17,88597221
22,33807652
0,778947662
-9,541376247
15,12714468
50,03455198
60,18088883
57,06619988
51,44053126
34,30393045
39,65644624
85,49812862
110,0790287
85,14919868
60,70869169
61,50756179
61,29586384
40,57365343
4,090986813
-36,15207918
-57,40548724
-31,16917963
13,80690172
7,522815145
-36,27138085
-56,32562766
-55,13986665
-42,46403922
-12,79808694
5,358048472
4,254424989
7,391100253
2,018131485
-15,86442458
-9,506511756
14,34192551
15,9309421
9,510592132
22,33092891
25,64200489
-3,806128447
-28,76342057
-11,97982201
29,29471561
47,81023951
25,06679574
-3,435570927
0,303183028
14,03309978
-4,495779874
-26,28341652
-1,579772184
31,61518962
19,55150388
-15,02079592
-37,35167787
-32,19111161
10,2109316
46,35447892
31,23955589
1,616186407
-8,765607243
-8,905804428
7,195613852
24,53866496
19,12336463
17,94972697
33,51776449
49,0774881
57,37890712
42,17202933
19,20686097
17,9834068
8,251670065
-12,98834739
7,513354852
51,50677586
54,99191339
31,2187639
57,43732266
195,3975837
428,0995401
634,0431837
604,7285054
246,6554952
-124,4258578
-150,7655651
-16,61363929
-19,22009329
-66,83494069
-49,20819558
-32,0898724
-21,47998595
10,87144879
20,71441668
-9,951097448
-33,12510869
-23,807632
-5,498682073
2,051726763
7,093580638
15,62686626
14,65157099
3,417683023
2,425191408
16,67408623
28,41435868
34,64600121
52,86900763
70,33337319
55,28909477
23,98617095
12,67460213
27,60439069
55,02554105
62,68805984
35,59195603
8,737240996
0,873928695
-12,49796423
-35,37841835
-45,51741127
-44,66491757
-54,07090865
-72,73535263
-77,65821419
-61,33945451
-50,77903108
-68,72689767
-89,43300412
-76,3972963
-45,11971595
-39,10020061
-48,08868346
-34,58509324
-23,58935415
-41,35138573
-52,12110274
-42,64841512
-41,18322781
-41,72544073
-26,27494861
-16,83164097
-20,64540199
-16,46611043
-16,54363955
-34,12785704
-43,21862491
-40,56579944
-45,16923113
-37,27876458
-9,894238468
-2,765485456
-18,14233216
-25,02459908
-30,16210057
-40,55464473
-33,95203346
-19,10406234
-25,51052061
-25,92119117
9,914149459
31,9957312
8,323790368
-14,60143025
-15,77968142
-17,21070745
-24,89424618
-26,330029
4,482219172
54,29277984
53,85194095
5,90999685
-12,53275175
0,524002239
-6,16942781
-21,36272223
0,19444486
41,50240554
46,06149799
39,37206648
127,9344613
349,4990386
581,8161604
586,8861946
250,9595147
-134,7135001
-201,8824653
-69,29699072
-33,45668106
-76,36113572
-85,00994909
-60,40271053
-30,2890046
-33,41841113
-87,29050539
-127,4048582
-94,51103611
-50,60860148
-73,44711273
-106,7761244
-86,09518748
-57,1538493
-56,45165398
-70,48814246
-97,76285272
-114,77532
-81,77507688
-31,26165367
-26,9845784
-44,94337718
-31,13757433
-16,06669264
-38,73025353
-66,37777735
-71,25878355
-69,87279092
-62,96931785
-42,29788253
-42,85800322
-78,89919849
-102,6709874
-109,67289
-137,4044272
-162,1151213
-151,0544961
-134,9720775
-143,6173932
-164,9899733
-174,3393509
-155,4150616
-131,4666443
-137,9936415
-146,9955994
-121,222068
-93,17260195
-95,84676023
-104,2441068
-95,11421069
-82,70664642
-81,02099422
-86,80684028
-85,81377709
-63,79140369
-32,989326
-22,15715701
-32,29451717
-37,40103458
-27,97634532
-19,7700937
-19,28193257
-9,761523529
12,79146273
26,87734619
26,24643727
27,64903649
45,08543429
67,05591072
64,56073522
39,35016632
21,92445148
31,28382676
58,67851663
70,85873374
62,07467867
64,07653974
73,36449273
63,43870074
42,54931396
32,69646942
45,38029088
73,60088856
85,35835901
62,15278492
25,23423493
0,602763492
-12,99158929
-19,29879782
1,431148859
36,44824691
37,0024776
46,84380717
180,4721867
415,8875521
562,0898239
436,5789072
78,10469149
-192,5829491
-160,4841561
-19,59908695
18,82208539
5,279172111
4,021968629
1,800254533
6,863793596
21,96233376
28,84560717
29,26333016
32,46520329
38,20091141
44,47012368
51,77249361
67,10765916
83,22524281
78,87485161
59,5560773
42,26849643
43,51167042
81,28514571
116,8384539
104,1711119
85,53262203
100,9224722
115,590136
106,0350732
97,0067294
108,5045367
125,0279136
124,5762655
123,6489845
140,9954501
144,3650291
106,2570758
62,17093276
63,10593041
94,06138773
91,28661239
52,53090106
25,29353968
19,57380377
40,37095876
81,43426026
92,51295439
72,60627814
70,71345965
79,58371858
70,96626645
61,86030699
56,26503649
38,67964415
29,10331246
32,7852176
24,97452974
15,4204135
14,37202827
1,328528648
-18,4609352
-17,99721714
3,718825356
21,43633157
4,654437972
-32,12772138
-33,91101444
-12,19631074
-23,73448101
-49,02639672
-41,57292972
-17,37495175
-6,433334097
-2,748947124
6,677340127
8,344660357
-14,49785157
-47,6010582
-57,2158191
-27,84299041
7,016575553
7,112030726
-7,557468311
-5,992759913
-2,444676963
-16,91404647
-52,15168917
-87,90841911
-75,43504328
-12,23236121
20,44883543
-14,64223681
-58,00635275
-67,14427823
-41,80676974
29,75542595
169,5415722
364,5509427
485,032822
326,2365058
-76,83869871
-337,1934727
-248,8284851
-89,74439246
-84,94183852
-122,671454
-118,6838564
-122,9796494
-138,8094228
-136,1737524
-113,5731994
-89,00831025
-91,72961664
-113,2376349
-113,5328661
-101,1157955
-111,7368927
-127,896611
-103,0953878
-49,08364364
-26,36178284
-47,18019275
-65,03924384
-62,1892895
-67,38066591
-85,61369191
-87,38866891
-68,20588074
-47,31559357
-33,21805583
-33,16349815
-46,90213325
-66,18415592
-85,50974297
-73,37905318
-27,79222727
-23,24938793
-67,75063974
-91,04606926
-109,385745
-152,7697174
-159,6980189
-119,9206641
-101,4376497
-106,7489544
-105,3545395
-115,5043483
-134,9483067
-137,936323
-135,4682884
-134,5440768
-129,4135447
-135,0765321
-149,782862
-144,5323406
-120,0747578
-111,4098873
-123,2874864
-125,9572968
-120,1690442
-119,422439
-104,2171761
-80,80293561
-83,9293825
-97,59616731
-94,0529262
-78,79928121
-53,08484053
-37,9091988
-54,27193732
-60,67262437
-45,36081548
-47,08605373
-35,34787002
4,104216631
2,020698745
-16,84791988
28,7488755
82,81161025
72,59082006
42,33705061
23,55085723
-1,517195388
-17,11653358
-1,996575007
36,59327101
75,40360315
86,68502771
77,43815833
81,41361561
130,1120267
272,0340252
502,4302505
651,5513475
483,3979665
53,72076271
-205,9796043
-106,7024707
30,30283138
17,78697306
4,500628768
32,19447573
20,61919367
-10,72453556
-21,58602828
-19,21459934
20,64043759
87,47976962
94,30408439
50,11406969
40,66041319
53,19380207
51,46492277
63,97446064
88,72309963
89,71152201
82,44040808
94,91043587
105,3722808
99,82661559
103,2741096
114,4654291
109,9012363
104,0821899
112,2589442
117,9321491
126,6024498
145,7704866
142,1868946
105,1023035
73,26733765
71,9326152
82,09874844
75,7663434
54,18599966
29,60831014
2,783860969
-16,78676877
-16,35300717
-7,414289651
-8,470059174
-6,519766355
33,18713037
95,1511646
96,62286184
12,10273939
-70,40869384
-75,41093737
-30,4034993
-14,13589641
-28,10765427
2,431692724
50,48260119
25,54551874
-28,8791161
-35,54087397
-33,18933475
-70,07408754
-119,1947308
-124,3008723
-61,64212921
13,78187189
18,72149498
-38,57290537
-76,60098405
-69,86240542
-59,60684327
-68,58398081
-81,04351068
-81,73513492
-73,15856493
-56,31352144
-33,69973448
-29,31694331
-48,41489641
-56,74335138
-43,80207491
-33,8408427
-35,60943937
-43,85765845
-56,08530219
-64,79218158
-54,7281162
11,60706588
181,7135282
416,8414259
534,7409061
347,9121076
-46,64483835
-262,4298088
-156,4426882
-17,18336862
-14,15174972
-27,5977383
-9,521248383
-10,42220102
-19,8005241
-17,90615226
-12,48902667
7,450905061
43,4136891
69,64936553
79,90796851
79,93952644
67,99406214
59,32159303
65,42213128
69,54568401
68,44225344
77,11183708
94,55442793
115,0200146
131,7585816
131,5201095
119,3045748
111,8619507
114,6922067
126,7953094
138,9212219
142,5699048
142,4913157
126,1854099
80,40214033
44,89145761
47,65331056
50,93764614
30,99440971
5,073545198
-13,57500474
-25,95129853
-47,05539551
-68,38735576
-50,19723997
-11,98510919
-15,75102477
-47,24504812
-55,2172406
-54,91766336
-77,59637714
-101,7534422
-105,3889181
-105,5028637
-112,8453368
-109,9163942
-96,21609135
-95,24448262
-105,0016208
-117,737557
-144,2023409
-162,1460202
-149,3186409
-138,2202467
-144,1008795
-140,9605789
-122,0493824
-100,6173249
-88,91443913
-99,19075521
-125,6963008
-145,9311008
-155,8951777
-158,5885511
-149,261238
-143,6632524
-142,5446057
-111,1553063
-69,74535991
-74,06476918
-101,863534
-115,3916512
-133,149115
-148,1359164
-135,3520438
-121,5474825
-129,4722152
-134,3762216
-123,0094788
-88,87196083
32,28636061
270,7155167
473,665541
394,8864699
25,3783421
-269,6088013
-232,5749169
-84,51995889
-50,19387941
-46,09662848
-19,72815412
-23,83840246
-32,17731781
-11,49484282
4,45908149
2,434515537
5,431521108
14,45016122
17,24050001
19,55260259
28,63653491
38,24236366
44,62015607
47,51997984
40,44190293
31,38599346
41,60231952
64,59094905
77,85194966
86,88538847
104,441332
119,7698459
127,3709948
136,4948425
144,391451
147,8108812
157,2531922
171,9684413
172,2066837
154,4679726
138,5023586
121,8098901
83,39061228
38,49456787
21,62179627
21,02233367
-2,803787209
-43,10653728
-62,63589128
-64,39182796
-79,37433028
-110,0833855
-127,0189856
-116,1811272
-102,8198117
-100,9350459
-95,52684177
-97,84521664
-118,6401936
-124,9118016
-116,4100754
-128,8850562
-145,8367914
-140,2653348
-134,1707473
-138,0530961
-136,4124559
-137,9989084
-149,0625425
-145,1034549
-119,3717497
-96,86753903
-95,84094279
-107,0420891
-104,2211143
-78,87816316
-48,5133889
-29,62695346
-19,96902756
-3,789790829
21,41056808
39,63185134
51,87385188
74,13635324
88,6691295
65,97194514
31,794555
33,13670413
57,24812775
55,62855116
30,77768966
33,44524847
77,6309227
129,8343972
192,3053468
314,5434357
498,7983179
632,8196373
533,607027
196,6601099
-55,77150161
-19,93820553
83,15958962
72,52146488
42,89699083
62,03572763
94,93722498
111,8510222
106,0266483
94,71362185
90,91145119
89,36963442
82,58765947
64,31500412
62,55113611
101,5455132
121,5475833
85,80678441
57,3225449
63,84428349
75,37140939
83,90332243
82,68941312
70,72906285
63,52164397
63,31651992
81,86304541
113,1605665
103,708421
43,50593808
-20,44756093
-50,65276275
-30,3603619
6,428939551
-5,535567916
-70,50460102
-142,7288835
-187,4591459
-190,4461255
-169,6905657
-158,9432163
-166,9548331
-186,7261775
-206,0080163
-205,0511219
-198,1062713
-223,4242466
-262,5058343
-268,1018252
-241,2130139
-212,3401992
-220,2341828
-267,6457701
-288,5757692
-262,2749908
-240,2442481
-221,7343563
-182,4961325
-158,530395
-167,3379637
-170,6696592
-150,5263025
-120,9087152
-94,31771869
-76,50413409
-65,46878181
-54,2124813
-42,23605069
-37,29030649
-44,37606325
-50,99413321
-28,89532599
31,16955174
97,94969664
139,944309
160,6525931
171,0737576
173,7070157
183,0515858
208,1066916
229,3715626
237,3454343
246,5275487
259,6671546
275,2635079
306,8158723
380,5735189
532,0357274
738,2017861
824,0709922
583,142652
145,416082
-75,85939186
-3,184432716
83,94030682
90,76418531
94,28657283
103,2568513
105,6744148
89,28867003
44,5990366
13,10494736
32,80584877
87,45120127
140,5404796
170,5731731
171,7987861
138,7168384
87,57686511
62,37841764
75,6210635
101,3043869
120,9279888
126,7414877
122,2445192
124,6867372
130,5678133
122,1374376
119,3953191
147,8411855
175,9747838
169,7958804
154,5542614
157,999733
163,1321215
146,9512736
116,2070566
98,14935875
98,27808915
94,59317828
84,09457797
75,28226165
53,65622445
6,216483402
-50,03692244
-83,35393188
-83,98446144
-86,67840527
-120,4356351
-147,0059999
-142,8893264
-168,8354182
-241,5940565
-290,4149996
-296,797983
-296,7427194
-297,9988987
-319,0661881
-373,4442318
-410,8826517
-407,8810465
-414,1889928
-443,0560444
-454,4817326
-443,4655667
-431,7570335
-432,8555978
-459,5107026
-494,7217691
-510,9881967
-518,0593637
-515,184627
-482,8633226
-447,0947656
-443,3782506
-452,7130521
-449,0984244
-434,7836021
-408,7678002
-367,8002148
-321,380023
-285,7563833
-273,9284362
-277,1453042
-254,9060923
-146,7098885
84,194236
373,5572265
518,8800441
315,9136654
-102,5909175
-304,1326983
-190,7106561
-64,82375618
-28,72095051
12,34882187
40,13663439
40,39357247
60,87073301
91,31922393
100,7401637
93,63468074
83,00391306
82,84900762
100,6711199
133,4714133
175,0010588
203,7612341
202,0031235
180,9779169
159,4368098
151,6310023
174,0616987
227,4801071
274,6374389
279,2849078
267,1737296
277,055122
289,4303032
289,5504922
295,6669075
291,5307674
278,1432887
300,5056866
329,619174
295,9849609
210,6042541
139,9782565
135,6081667
168,4951783
165,8904794
146,0452523
157,4606729
160,13791
116,328125
62,53247158
41,00209468
47,48813053
44,74170592
29,26393782
41,55593288
58,86878699
21,70358481
-34,93860062
-52,05670838
-38,39969004
-16,96651011
-6,756146449
-26,01759064
-62,99984842
-95,20194004
-115,1229007
-113,7617807
-95,61764616
-82,4395791
-80,72667782
-90,2280573
-109,6928494
-136,6202035
-168,2592861
-188,6092821
-192,9193941
-187,4388433
-171,1668695
-157,6027317
-155,2457075
-157,5950945
-163,1502094
-153,910389
-121,3749899
-93,79338905
-88,16498365
-94,23919142
-95,26545073
-96,24322076
-120,6719816
-114,8012343
30,36949875
289,0906742
520,1127273
590,6860719
384,0611003
30,23818374
-91,53232845
55,24989174
159,3351508
154,2237336
163,6659036
179,6619028
171,4619518
167,0662496
153,724974
113,4382818
103,9563081
178,2791675
261,1569533
249,839738
192,0775735
177,870491
187,9685014
181,8715952
169,5797429
175,5928951
215,1609828
267,2839172
281,7115904
255,1938754
234,9806265
230,571679
208,7168503
165,1659394
136,6687276
141,2249786
161,5844389
169,496838
134,4618887
77,7292874
44,04871449
23,66983463
6,592297069
-12,68426403
-50,16022922
-79,33599344
-84,96196567
-81,28856855
-60,06623805
-43,79542308
-64,97658511
-95,11019781
-114,1967467
-121,7367287
-102,7306517
-94,17903448
-132,0824058
-157,6913045
-143,5062788
-152,7778859
-181,0066919
-166,9432709
-148,8382051
-176,4420841
-199,2555043
-199,279069
-201,0133878
-172,4590759
-134,6167542
-145,7370482
-154,5705886
-129,3680098
-124,6299503
-134,6070519
-128,2999596
-128,9593208
-138,5857853
-117,6800047
-65,99263205
-39,2743215
-64,52572789
-95,49750642
-89,44031221
-66,85479999
-45,49162373
-13,85143623
2,565111172
-14,74263104
-27,02531017
-23,03357104
-16,01805561
47,02059734
229,5817525
474,4147785
589,2690479
390,8939377
-13,71117018
-237,796889
-162,1138266
-65,91258537
-74,44376181
-72,20794631
-47,20572293
-49,6876691
-56,65435545
-56,60634552
-66,29419557
-72,96845433
-65,87966286
-56,27835427
-45,91505358
-49,79027753
-85,15453439
-98,00832382
-37,3521367
20,06354503
-8,011751504
-47,82849
-21,13712482
2,811899104
-22,23185364
-43,76880882
-49,04938251
-26,07398097
46,90699937
73,64317202
-6,865839579
-74,37040195
-44,12087161
15,882405
28,63909149
6,898861546
-3,088601073
-18,82360257
-67,30643912
-92,03739691
-55,76675216
-28,24477121
-44,97171054
-49,69781688
-32,42332724
-31,64846906
-48,37346022
-57,59850921
-38,57381523
-8,799568275
-10,02594931
-37,25313037
-59,98127472
-66,21053701
-54,94106342
-54,17299183
-78,15645202
-76,64156582
-36,62844732
-23,86720305
-52,10793221
-61,10072684
-36,84567208
-28,09284636
-53,09232167
-77,59416375
-80,34843234
-77,60518148
-81,1144597
-82,87631031
-77,14077164
-58,90787737
-34,92765672
-37,9501348
-73,72533285
-101,5032686
-99,53395631
-77,81740754
-40,35363098
-3,392633007
1,065582095
-13,9789882
-18,27634497
-32,57648815
-52,62941685
-30,18512968
0,506374946
-16,80490154
-29,36895814
-4,685794666
-5,755412005
-16,32781249
86,84699979
324,5190187
544,4382356
551,8546393
258,2682154
-132,5710539
-259,4131898
-128,7582179
-51,8561679
-84,20707419
-88,56097614
-76,66791838
-99,5279511
-122,6411304
-129,2575185
-137,1271843
-135,2502032
-104,8766578
-71,50663802
-67,14024154
-76,7775738
-76,66874848
-68,81388768
-60,46312224
-50,86659194
-36,77444578
-22,18684221
-16,60394938
-20,77594534
-13,4530183
23,36463319
66,42679999
88,73326222
102,783789
125,8281385
141,8660572
128,8972804
101,6715316
85,43852269
84,44795344
100,1995116
117,4428728
108,9277002
85,40364476
68,8703448
55,3274261
48,02450178
46,96117225
27,88702511
2,801635202
15,20456448
57,34536205
84,22356414
81,83869413
68,9402625
54,02776693
28,60069229
13,40851072
36,95068166
58,97665191
40,48585578
26,9777151
38,4516394
30,65702598
12,59326004
13,25971488
4,405751974
-9,219278803
-1,366039023
-10,2852015
-31,72745012
-12,19347957
12,06600485
-1,199712553
-11,49135755
-2,059665801
-1,155382511
-14,5292622
-31,43206836
-38,6145732
-18,82755725
12,17819091
25,15187502
32,0926915
40,99982979
40,87247277
34,95979714
15,01097377
-9,724831808
5,001540958
50,9392481
71,83744157
61,1952697
52,51187763
51,28640783
48,01800055
63,70579434
152,8489265
342,4465336
563,4977521
655,5017188
458,2075712
72,86444834
-126,5285087
-45,47215639
33,28265183
11,23506624
9,634241371
30,97933655
39,76951655
78,75395212
121,4318207
94,55230678
48,86460292
70,61790999
112,311438
92,94440647
44,51604555
40,77559613
89,47231075
136,1054541
135,924304
106,4281513
87,61630136
95,48807422
119,0428053
134,0298461
129,1985648
111,0483469
104,5785959
127,0387338
142,9282021
127,2464619
115,2429948
114,1673037
90,76891294
52,54736953
28,00224322
14,88312735
2,439639442
-14,07857827
-41,17185821
-69,59050692
-79,33480446
-72,90500386
-64,80133058
-57,77398195
-53,07312665
-50,44890417
-45,65142433
-39,18076675
-33,28698035
-29,22008291
-20,73006058
1,433132569
20,26957499
14,27937807
6,462686576
19,31967901
25,85056802
7,555600771
-10,06494072
-11,76073924
6,218557948
47,3733394
58,95402977
22,71109011
16,64501807
42,50634818
46,54565203
48,51353849
52,66065387
32,98768206
1,495344713
-19,56559868
-11,94435067
27,10992419
54,59809945
25,27108675
-34,62016416
-67,82466539
-61,59139102
-29,66927709
-12,8072217
-61,50408512
-147,2586899
-189,819821
-175,6862261
-161,8566155
-173,0796626
-183,3540042
-189,6782403
-205,300935
-215,4706163
-193,9357769
-106,6948741
72,25366944
268,6614656
266,2801601
-55,6385678
-415,5930058
-458,8314091
-310,102001
-257,9029732
-274,7324866
-270,838672
-282,4696303
-280,3734335
-222,0481255
-188,7417222
-219,2022128
-239,6775604
-234,9157024
-235,4145519
-226,1719979
-210,9359066
-212,7041218
-214,4744661
-210,7447418
-214,7627317
-192,2761997
-136,2828925
-113,2805398
-131,0168558
-142,23954
-151,6962782
-152,6347434
-118,5525974
-99,69749107
-123,8170662
-130,9089559
-114,9707864
-112,7501777
-119,4947448
-142,4520988
-179,6198484
-190,9956006
-189,3269624
-221,3615413
-266,0969474
-294,5307936
-329,4106977
-357,4842833
-344,9991807
-319,9530288
-315,5934757
-328,4181804
-348,1748137
-365,1110599
-375,4746177
-370,0132013
-348,2245422
-351,6063902
-387,1565142
-398,3727043
-377,2527724
-351,2945536
-319,2459076
-306,1047197
-327,1189024
-342,2863959
-338,1051702
-318,3232256
-263,9385943
-185,1993412
-126,8535657
-113,6494019
-119,3350208
-110,9086305
-95,36847788
-52,71284955
41,05992718
91,95148319
49,71340645
41,09724111
99,35448641
103,9865958
62,99497588
81,1309856
133,1459352
155,0410856
182,5676472
213,4767793
179,2695892
126,1971314
150,5104071
216,9603631
257,5478914
286,5238285
325,3889546
377,1439933
458,0396107
586,8264153
803,7549571
1102,075727
1272,539158
1107,395621
793,6454299
683,0388357
766,0760304
819,2571446
812,8322478
802,3013485
762,9143937
734,6712688
784,5717978
827,1157431
776,0528053
704,8826238
670,1047762
626,7187789
565,474087
519,1200946
488,6561351
473,8314813
480,8953456
469,5968807
403,4351796
327,6592762
295,2681457
285,2607052
261,6358137
227,8922734
205,2788296
225,0441719
274,4369342
279,955696
251,8489826
251,6152661
243,0029662
203,2604509
173,1360372
139,8779922
85,73453404
45,70383232
28,28400959
1,973142027
-40,23073951
-70,32964847
-71,07564157
-60,22081772
-57,26731697
-62,21731939
-81,57304394
-122,3367473
-139,5107228
-85,59729918
-30,09883924
-59,51773891
-113,3564258
-110,8673581
-86,30302309
-82,91593619
-92,95863941
-115,6837002
-130,3437099
-85,19128291
-17,72905484
-22,95968145
-68,63583726
-70,51021419
-81,83552023
-164,114478
-218,0998236
-179,794305
-163,7006808
-226,0717187
-285,4101946
-323,9688907
-378,0005943
-419,0080967
-404,7441915
-348,2116734
-311,4133369
-339,6019748
-383,5303772
-370,2013296
-326,8676123
-306,5319984
-285,697253
-252,6161317
-251,0413794
-280,475729
-288,9219
-255,8825975
-218,8605109
-223,1083128
-235,1286573
-169,1741796
-3,24749431
197,8988057
308,5121501
189,5899926
-124,8701885
-351,6208884
-341,9145758
-293,7536909
-338,8906451
-374,8278195
-344,5675643
-307,1121977
-309,9640049
-319,1252376
-286,8481123
-246,1348106
-233,9874772
-225,4082199
-200,3991086
-168,9621745
-151,0994091
-159,8127643
-167,8541507
-132,4754378
-72,92845279
-36,46498034
-27,33676181
-54,54549478
-105,3428325
-99,98038343
-39,45971074
-9,782331885
-2,199718204
17,7867055
6,175561282
-28,78448157
-36,59470627
-38,75634823
-37,0205948
-8,138585075
-2,111409653
-28,69011049
-33,62568076
-44,16906468
-98,3211575
-153,3328053
-171,7048052
-148,4379051
-96,78280356
-63,99015033
-89,31054597
-144,7445421
-168,5426415
-155,7052981
-149,2329174
-157,3758565
-146,6344242
-113,2588814
-116,7494411
-184,6062691
-244,5794839
-256,1691571
-289,1253137
-347,9479328
-333,1369473
-285,692245
-330,1136686
-388,6510162
-350,3040417
-304,8224554
-315,9559245
-301,4540734
-242,0664844
-206,7926982
-191,8822143
-134,0844918
-44,14894991
6,175031668
19,88811187
65,74098776
130,7343939
148,3691017
147,8959187
202,5656881
294,3792879
347,83763
352,4416602
375,4423568
431,3407302
448,1378221
407,0847048
352,6824806
300,4322807
270,8352649
271,8926204
266,8555615
312,4753285
510,2531869
738,1904271
699,788363
319,2983316
-50,77830766
-67,69017409
106,0641338
176,9860374
176,3269773
196,5884122
215,5218188
243,8786902
280,6605358
279,36888
273,755262
298,8212343
285,8183627
223,998225
213,3624104
287,6625187
342,1501598
291,3269526
216,1945243
199,25451
179,7585514
140,2082968
153,8553996
211,4515181
233,2483147
195,2474549
143,4506071
97,35944143
37,9756294
6,05084298
24,0867541
26,83503389
-1,702647939
-29,52462375
-57,62922861
-94,76480098
-155,1796832
-220,3722224
-233,8407707
-212,583686
-212,5993328
-231,1360824
-253,1923137
-257,2664136
-237,8567779
-254,7118112
-301,5799283
-273,7095539
-170,0991236
-121,7470842
-164,4018945
-202,3120252
-203,4759599
-200,6421955
-201,3092423
-213,725625
-215,1398825
-176,3005688
-153,9562532
-184,6055209
-200,2469729
-164,1292271
-120,000918
-93,36069763
-86,20723529
-93,53921839
-70,10535256
-7,404361954
30,06501038
20,55400226
7,563832086
17,34569856
29,65078042
36,73023624
73,08520415
113,7168016
104,6261253
100,3142508
137,5322325
156,2811031
153,8118742
158,3755353
151,2230541
134,6053764
138,2734257
189,9781035
244,2202889
205,7508384
172,5705862
312,180344
529,8309008
642,7730228
547,757454
219,7849152
-86,64389525
-105,7783016
-10,11765109
-25,16131328
-60,90868058
-6,109167901
77,98778728
83,13272503
32,07616302
40,81859659
85,86049887
77,70232085
62,84449151
94,53741792
125,2814854
112,0770576
59,67447665
4,324063427
-2,223882463
34,2809176
48,58872138
27,69976598
8,614268048
-10,91757608
-32,89559012
-22,31961767
6,060478036
3,244814321
-27,01651069
-46,47341784
-11,37584671
65,52624464
90,7328799
36,24406479
-17,19021271
-22,31998207
-33,89528997
-99,66620002
-131,1327925
-63,54516394
-18,15342716
-56,70771066
-85,45815849
-87,40492993
-125,5481992
-167,3881552
-117,4250011
-39,65895418
-72,34024546
-137,4691194
-141,7958336
-176,0706585
-230,5438772
-195,7157847
-137,3366883
-133,4069068
-109,4267702
-76,1466196
-106,3168068
-134,437694
-118,0096535
-126,5330674
-160,0083272
-154,9358337
-133,8159965
-124,6492338
-81,43597218
-37,67664606
-67,12169767
-114,5215766
-127,1267395
-146,43765
-161,2047782
-111,4286002
-21,60959859
23,2517388
10,15491852
2,849441982
-1,415194238
-54,3894982
-74,8239823
35,03083698
142,6744393
111,8563008
48,57589434
39,33268951
16,62615325
-19,79425017
27,8209412
181,7211871
382,1559456
571,1246727
587,3768234
264,1618511
-160,5207916
-281,671653
-139,7912821
-30,63022814
-42,43904069
-55,46826933
23,28153654
85,80982783
32,61605597
-28,5503269
-31,93986782
-38,80311277
-52,1406066
-41,20289279
-11,74051336
25,99599129
44,00608253
19,78922363
-10,40512013
-21,07748129
-42,47839016
-47,10837462
19,78203992
78,19233065
51,62197748
20,82046309
28,28727308
3,521896005
-33,47617653
11,29255022
85,07757419
76,37839661
37,44452199
42,27545827
37,37071681
-4,020187548
-36,64773644
-39,76240793
-31,61467649
-50,70501297
-90,78388457
-108,3517548
-121,1590836
-135,206327
-93,7439375
-37,27236391
-59,29205128
-100,553441
-77,55697073
-51,05307454
-63,54218284
-65,77472239
-56,25111639
-65,22178447
-67,18714273
-43,39760379
-22,35357682
-19,8054676
-24,75367854
-31,19860877
-37,89065417
-43,08020744
-51,51765814
-61,20339278
-63,63779489
-65,07124505
-69,004121
-67,43679771
-66,36964743
-71,3030398
-75,73734191
-79,9229184
-77,36013151
-58,29934122
-40,99090527
-41,43517932
-41,38251698
-27,08326993
-9,787788021
-1,49641933
-6,45951029
-20,42740576
-31,90044915
-36,87898246
-40,11334642
-44,6038806
-48,10092343
-47,10481236
-44,11588393
-38,88447387
0,839082827
134,0544518
357,0112992
527,4592918
436,1480964
67,07738043
-246,2531886
-246,3439431
-130,9452155
-115,5573379
-120,6806431
-91,31546357
-83,71213229
-90,12098249
-80,29234781
-68,7265623
-64,17396057
-57,63487776
-45,85964962
-34,34861258
-27,60210379
-19,87046112
-10,65402325
-5,953129701
0,731879183
14,15066216
27,05287708
39,18818089
58,05622957
82,40667819
106,9891808
130,8033907
146,34896
148,8755399
148,3827808
154,3703323
167,0878428
171,7849601
152,711331
130,1166018
130,0004177
134,6124236
125,2022634
110,5195807
89,81401855
64,83521943
56,33282558
65,8064789
81,50582113
110,4304939
142,0801388
135,2043975
90,8029119
61,87532425
70,17127714
86,44041374
90,68237788
91,89681419
91,33336825
80,49168668
71,37141737
77,97220952
84,0437139
74,08558294
62,84747091
59,82903408
48,02993093
22,94982227
5,838371446
3,44524452
3,770110455
3,562641305
4,322512405
5,549402569
2,492994289
-18,59702607
-43,97096804
-41,62913688
-32,07183335
-42,29935348
-46,56198837
-37,860024
-38,69374096
-38,06341426
-21,71931312
-0,911700715
14,10916603
10,09303665
-10,71033257
-22,05117847
-22,9297307
-24,59621151
-15,05083557
4,20619032
8,92466741
-4,395594743
-10,50477806
6,346944278
36,65940808
110,4324583
285,9159494
503,3597455
579,0137203
381,1277579
25,9517526
-163,0143909
-90,27075711
-3,317419649
-20,40444101
-33,78187239
-12,69975344
4,841887861
22,84303546
37,05368537
28,97384586
10,10353765
8,692794077
26,99166124
39,75019818
36,71847704
31,89658323
31,53461552
29,88268625
16,4409214
-17,29053921
-41,06154187
-18,12191882
9,778511843
-16,11005371
-59,78740498
-61,00331702
-43,00755035
-56,54985093
-91,37995003
-97,24756419
-74,65239522
-98,09413005
-174,3224408
-208,8369847
-191,887404
-185,7233262
-197,0943636
-235,2501139
-289,1901597
-292,9140686
-276,1713937
-308,4616729
-330,2844295
-297,1391721
-274,0253946
-275,9425762
-260,1401817
-236,8676615
-228,8744516
-219,6599737
-200,7236357
-188,0648311
-198,9329398
-227,8273279
-236,9973479
-217,692339
-204,411627
-205,6545247
-210,4203318
-219,7083356
-228,0178107
-226,3480192
-212,9482114
-185,3176255
-149,9554881
-113,3610142
-66,28340781
-18,22186182
16,32444155
57,10633054
108,6246436
139,6302291
137,373945
120,6066588
107,0792468
95,29259446
75,9975954
54,44515157
58,3861728
101,3215765
135,7522872
114,9292365
74,35336265
60,02560995
65,44692879
80,61827511
103,7906101
131,9648999
172,6421152
234,3232309
330,2592256
485,9510816
697,3997842
866,6063217
812,0716845
491,5468652
199,782858
196,2806585
297,7912632
283,5656691
241,6048734
235,1598732
200,9816647
157,3212436
143,4296039
134,307738
115,9566363
94,12728652
66,32067366
43,2877794
32,52958181
24,79705491
28,34116835
46,91288697
60,01317042
63,39297282
64,55324233
68,49492078
76,71894329
69,72623789
47,51772513
42,84431771
45,45692008
19,10642808
-28,20627146
-78,48030107
-128,714793
-169,1588898
-203,8117443
-249,9225202
-295,7403927
-322,2645484
-342,2441859
-369,9285162
-402,066763
-422,1581631
-404,9519667
-360,4474377
-335,8938543
-343,540509
-348,6367094
-335,9317781
-332,9250533
-342,115889
-316,2536553
-260,8377392
-237,1175443
-232,5924913
-205,5120186
-192,6255823
-217,9326568
-232,6827346
-210,3753274
-178,0099654
-165,0861987
-173,8535965
-180,8117483
-172,7102634
-164,0487717
-153,576924
-117,5443916
-71,20086736
-51,54606543
-37,82972163
-7,051593698
16,53853852
42,69087287
71,90558464
66,68282643
63,52272791
95,92539567
125,1409131
149,16934
189,7607128
245,9150442
292,3823229
290,9125139
268,2555578
268,4113714
262,6298469
223,1608524
175,5042314
174,909803
243,6273619
298,1566779
272,9974966
266,3995386
375,3625003
525,3860532
559,4698443
343,863496
-37,93339372
-229,6712515
-128,6005281
-36,97169906
-73,5352637
-100,5417457
-98,49169275
-106,3856764
-88,47429192
-55,0081583
-39,4879179
-27,66423639
-43,53780252
-86,35932795
-88,62954702
-68,59921654
-81,26911557
-79,89004515
-35,46282805
-16,23830855
-25,46735206
-11,40084495
-5,539694148
-7,384826892
46,31280963
112,8022486
120,0825039
118,4025705
172,2614249
256,6580252
328,3413119
378,5602082
427,0636199
489,3504367
520,4195319
481,7697632
447,8999729
490,5589887
520,4956238
445,9586776
347,4469361
285,9591725
217,2441473
179,8006094
218,8772962
234,9729343
178,8362396
139,2159186
126,1106684
75,26917712
29,94012489
59,12218412
113,5640201
122,2642915
95,97165123
72,93474648
61,15221974
37,62270922
-1,905150643
3,567271484
91,03860436
165,5074747
119,972508
22,93232865
8,385560965
32,08082954
-27,23324013
-110,0580211
-101,8948843
-72,99519806
-119,6103276
-164,2416343
-155,8904752
-186,0582025
-242,4961628
-238,205697
-237,9381391
-301,4448163
-360,4770478
-379,286145
-379,6234103
-386,740137
-416,1376086
-411,0670984
-357,5298688
-379,277171
-461,8102444
-405,8803161
-156,2386005
119,8637011
180,9254012
-87,55467358
-479,3276821
-645,8947681
-543,5070601
-427,1656705
-411,1216956
-385,126215
-322,1802911
-312,784969
-347,6912759
-360,4002208
-345,9127943
-304,2299677
-252,3526935
-238,5319043
-256,0185132
-263,3134126
-258,1674748
-243,5815511
-204,806472
-147,8430463
-88,69206148
-49,60428306
-61,83045449
-92,12129692
-63,72750893
9,350233625
64,11127788
108,5549941
140,1807759
121,7380405
85,72622858
74,89480488
98,24325805
146,5211009
160,2278704
136,8631281
129,4264599
106,6674764
58,58581291
42,1811295
40,70311115
21,90146785
24,02593457
58,57627142
87,80226364
89,70372168
58,28048122
17,28240321
38,20937392
136,5613049
193,5881331
153,5398207
129,9163552
144,9677497
119,1940423
105,5952964
141,171601
143,17307
136,5998427
172,7020835
170,7299818
117,6837523
98,31363463
123,8698933
144,1028176
140,512722
134,3499452
112,864851
81,30782742
119,4292871
195,7296671
196,2094286
166,1190569
182,4590617
188,4799761
159,1823574
144,0667864
133,1338676
105,6342287
100,068521
144,6874186
202,4916187
199,4818414
146,9088295
163,0233482
300,0761851
496,8181499
671,5000745
657,3728124
310,9372389
-83,05574934
-136,6052344
-12,46027741
27,13008155
60,41682289
93,15094747
53,33347633
28,2154505
46,79793073
29,83199728
3,818749661
33,75930639
72,40480473
72,00640045
66,31526754
67,33259793
54,05960125
40,74750448
42,89755174
42,01100392
29,5891384
31,63324878
61,39464447
89,87465047
90,07460696
61,99586899
27,13980614
21,75780215
39,35125456
33,92157438
0,470185636
-37,50147493
-52,4919583
-13,24980358
38,72646162
14,18832075
-70,86273209
-128,6751926
-146,9975467
-153,0782709
-151,4158331
-168,5086924
-216,8553003
-239,2041006
-198,8035303
-157,1520199
-169,2479937
-189,3398709
-181,6760655
-184,7549871
-206,0750416
-198,6346312
-151,4321558
-131,7160127
-184,9845975
-245,4863051
-255,7195296
-247,9326651
-241,3741065
-218,0422501
-190,9354939
-196,8022384
-233,3908874
-265,1998482
-281,2275327
-261,7223577
-196,1827457
-179,1071256
-252,493933
-291,0916116
-250,8986129
-223,1633978
-233,3844365
-257,0602098
-278,9392092
-273,5199382
-264,3009125
-286,5306609
-302,2077259
-284,5806645
-258,6480489
-239,9084668
-242,8605229
-257,2528387
-197,3340539
2,647173317
261,4421655
361,0522252
118,9786342
-301,2773469
-479,2144798
-365,0815486
-279,1273609
-295,1007486
-285,0005681
-256,0757011
-247,5750557
-245,2475662
-232,8421946
-194,3579308
-162,5437932
-177,3988294
-202,172117
-195,8627637
-148,9699084
-93,74272154
-97,93040574
-124,7821962
-96,79736156
-57,97520399
-39,31506009
10,93369878
58,27166595
38,69939904
47,21741942
134,8262118
173,5262238
167,0678655
209,4515092
235,4274887
233,2460994
274,4075975
304,6622
304,5100843
326,4513879
320,736208
281,1146014
304,5865845
362,6521326
347,5611799
288,5636197
279,9093037
329,0980422
375,8796039
381,753716
372,2200639
388,7782912
418,9279999
402,1687503
347,2500608
336,4214085
356,9322286
354,5319153
353,9698211
340,7452576
286,6074954
264,0557642
295,8392535
299,4571122
269,4084493
261,6923341
266,3077967
269,7538277
277,2793796
264,3833661
251,0646634
283,5721102
309,404508
274,0606222
230,2891818
214,5888807
232,9583777
293,8962974
321,6512303
272,7217343
214,1063344
154,5535238
83,81176472
78,12948865
137,5050974
158,1869638
146,4234321
161,9628194
172,0534157
234,1934852
462,1312669
691,1149754
621,1428019
261,2129151
-46,17653837
-77,27743248
-9,591661279
-22,87113785
-17,3677934
53,66642364
80,22954861
42,56960154
16,43458813
18,8225007
19,73131923
6,659012278
-30,39646199
-73,43715479
-75,96512572
-49,98244177
-46,99117626
-66,99340786
-82,99121955
-103,4866976
-143,7319305
-180,729008
-189,23002
-174,9870556
-145,7522021
-119,2775438
-128,8151611
-167,8671296
-190,9355188
-175,5223911
-162,8798012
-187,2597947
-190,1644071
-154,8456631
-177,3055752
-254,7961432
-281,8193527
-281,1271746
-323,2215639
-361,6044589
-360,77778
-360,7434291
-377,7532884
-377,3092197
-335,6630636
-304,8166382
-322,5217388
-327,0301364
-303,5935775
-311,713783
-324,3924473
-283,3812375
-231,931793
-229,2957241
-249,9746119
-250,9700073
-242,78343
-238,6663684
-226,1202784
-213,8965831
-215,7466718
-203,6718998
-161,4235874
-136,2530196
-149,6614455
-153,4000774
-131,9700908
-120,1226236
-124,1087756
-121,179608
-104,5861432
-80,82936406
-51,41021374
-30,32959512
-37,83837053
-50,93736139
-37,62734786
-20,40906855
-16,53322023
-10,00045755
-6,061392803
-1,966595707
22,53340682
53,93813082
111,7471355
278,2100233
528,5764401
652,3460754
457,018662
70,59397658
-139,6781605
-84,04788515
-9,015289681
-33,33042262
-62,24328883
-37,75384959
-9,362022632
-18,81768228
-50,62065952
-92,02074218
-122,017675
-108,1111601
-68,30085651
-40,08638122
-44,21730883
-86,94317196
-128,2634616
-126,4276271
-90,93507709
-51,785179
-39,97726
-49,26060707
-44,13446748
-30,09804912
-12,65052092
14,70898673
28,98138154
44,6676089
82,26865137
99,78552824
89,21929503
84,07104294
80,8418984
78,03302246
87,64561029
93,4308906
80,64012505
48,02460768
6,585664304
2,574651879
43,7429579
64,84199977
43,37322409
19,3381061
9,988148914
7,324882888
15,34986492
42,81467776
65,97092925
49,32025169
11,61430104
-3,645243811
0,293318256
0,181709793
14,77167405
56,06497418
68,81339251
26,51872971
-21,81719594
-30,44254942
18,89452034
72,69587954
48,4634088
-6,300997717
-6,345433094
17,33202152
24,73329606
41,61033076
67,96507528
64,5494879
34,86553468
16,66518861
13,45042877
10,22323951
24,9856096
60,73953138
66,48699991
30,73001215
-7,029433884
-38,03933999
-53,2977086
-39,8025436
-35,30185121
-51,79364081
-46,02592572
-14,99672413
57,79594017
238,6040369
457,1795285
476,7743693
182,6405046
-176,9701298
-251,8056089
-106,3640188
-59,39345799
-131,8920377
-157,3578828
-135,039133
-120,683943
-79,54048346
-13,60694204
-10,38152383
-78,3624522
-108,2979696
-51,18633808
5,974159659
-8,564780148
-44,05148317
-47,23429765
-42,11159508
-36,68177091
-14,69324514
-2,394463074
-28,28389587
-63,11004122
-42,12142399
35,18340321
76,8058594
52,99733467
30,00918954
27,34275448
29,99932928
37,48018256
25,78655123
-2,830360032
-2,369379285
22,9206322
16,79077947
-29,00786661
-64,22426974
-66,85742867
-53,9063776
-36,62018659
-25,24796194
-22,78884657
-19,74202036
-16,10670055
-16,882142
-29,06763755
-35,9125183
2,083846111
46,67204722
31,1026375
7,876130158
17,74299885
-4,796322457
-36,24143971
1,158001084
35,9023137
-6,008228451
-31,82339242
26,95701418
80,33314306
51,30510521
-0,87702913
-4,713230544
8,796489573
-2,597920988
-4,646555233
23,15045307
28,54292946
1,030658833
-2,636614451
13,29081354
15,81260641
33,17838761
62,63774059
51,19020895
14,08529667
10,07246829
27,40114915
20,32072567
-0,919454461
-12,07008193
-10,63188555
11,14436807
33,25787485
42,95779362
130,7432464
370,3633189
616,5670608
588,8534862
234,9715742
-94,07973109
-110,5515194
0,305085401
16,98892647
22,24881405
74,08352618
91,74180918
72,72237824
76,77391793
93,64508282
87,33449807
73,09076001
73,16243675
77,54806888
77,49617002
78,75522756
84,32370327
91,95003401
96,63263241
96,36988756
96,41016579
100,0018113
114,1431469
151,3324749
189,3180777
190,5982186
188,9211426
224,0350771
236,1882328
195,8788044
193,8549717
258,3648997
273,1567402
200,4786323
173,078703
225,2050684
211,8558345
115,2790976
73,97294588
92,43545956
77,16471218
45,65877125
49,91569921
59,68355424
41,71039114
9,744262177
-27,46678204
-69,67469172
-109,881417
-145,8389071
-164,0491094
-163,2639688
-187,4854265
-241,9654196
-271,4558798
-269,7087328
-272,9758976
-279,7592852
-281,8107983
-301,3823301
-329,7257635
-312,8429707
-254,4858116
-226,406134
-238,3557719
-238,0865452
-228,6002589
-231,3987021
-209,4836475
-147,1068503
-100,5200479
-99,72495887
-104,4732823
-92,01669709
-82,10686118
-82,99541098
-86,68396059
-80,1741012
-60,46740036
-44,3154014
-42,96962276
-43,4315574
-6,952672162
66,4655928
133,5718246
253,3646382
490,842677
667,7546132
524,0991486
128,6250148
-112,419026
-32,53418079
73,02837483
41,01749714
18,18207463
37,02102848
28,78331293
7,967915669
-3,676141831
36,35019607
114,5460195
90,91045336
10,69265765
40,14182773
67,7571946
-26,71197491
-83,26637783
-38,40667495
-37,88349052
-82,94741218
-76,09899074
-46,83874007
-39,41713698
-58,08462113
-111,841595
-170,9384236
-207,6254348
-238,402919
-265,2711292
-257,9802812
-233,7805533
-247,1720866
-252,6549849
-195,9793151
-172,1451067
-217,6523526
-222,2510088
-188,9409947
-209,9721932
-261,3444512
-282,0575791
-269,1113519
-220,0055088
-156,4897537
-143,8137555
-165,7271483
-163,7295317
-176,0704714
-191,249499
-160,7661129
-163,1197782
-169,8099276
-95,08596128
-81,44724762
-168,6431236
-177,4228951
-130,2858376
-150,2311963
-139,2581869
-34,11599613
14,19621816
-34,82067396
-56,91577482
-40,58815973
-53,83687755
-83,16095118
-67,30937824
12,71886844
73,42484021
36,05961196
-24,37571844
-28,38003077
-33,20218309
-65,84101237
-41,54533512
24,18605197
22,10437136
0,210864027
27,25678879
62,74342166
167,6720551
394,0439976
584,1105725
536,8731178
225,3329854
-94,00845997
-153,8998409
-63,83976842
-25,32684245
-8,109652596
12,06322121
-19,05679203
-41,96825503
27,83027706
115,840256
118,8131397
75,00039161
51,65348001
29,2738773
-15,13694062
-19,07749511
75,45369463
156,7081108
122,4372365
109,1425548
171,3255484
162,2376987
102,1304853
104,2553855
111,6138733
75,45741928
87,28748941
165,3555449
192,1630415
147,2114286
119,7521491
123,2866387
132,316325
136,8426273
104,3669561
73,89071223
114,1652866
143,4420595
88,97240034
43,00766678
34,79920457
-12,90165308
-54,34358594
2,474712781
87,554536
99,39716233
64,25385561
32,87586458
12,76442239
7,670746292
5,346037207
-3,208520605
6,758240093
31,49746917
46,01029883
58,04784325
57,61119831
38,45144133
36,56963071
43,21680577
24,64398643
9,852172973
30,09234586
67,1154655
97,67247201
102,2642851
80,14180381
70,30590646
87,75745039
98,99727189
91,02618605
97,09498665
129,4544461
136,3553152
93,0483233
60,28417811
74,81356559
86,88715002
68,00557391
63,66945801
98,8794013
179,885981
344,9397525
557,0412497
623,9409845
354,6394474
-82,36289269
-244,5655884
-109,4682138
-31,07036415
-54,62165608
-42,37172722
-34,82023622
-62,71686258
-79,06130648
-83,6032887
-78,34255039
-54,02885296
-40,66197788
-51,99172648
-60,26791981
-69,99039838
-90,90902202
-78,27366961
-30,3342389
-12,59064626
-32,54282649
-50,19073252
-45,53433521
-11,57362309
16,4413979
11,76070465
28,88425716
73,06199883
70,79385669
35,0797417
32,66954902
48,31315833
37,26043406
28,01122573
53,31536823
51,42268209
-10,66702619
-46,45396383
-29,18835151
-47,62042303
-112,500425
-140,5786167
-110,6052693
-75,08066621
-71,50510226
-86,62888361
-96,20232741
-102,7257615
-109,199524
-105,8739632
-88,74943705
-71,82631304
-75,35496774
-87,58578659
-90,01916356
-93,15550087
-101,2452087
-105,0387049
-107,2864146
-116,2387702
-114,3962106
-89,25918156
-87,82813477
-119,853528
-119,5858248
-99,27549386
-125,4230093
-167,77885
-151,0934995
-89,86744568
-64,10118056
-82,04520006
-93,45000373
-102,0660945
-123,1439786
-131,434165
-122,9371656
-118,6534947
-122,0836689
-136,2282068
-161,0876293
-150,4124584
-74,70321806
10,28956665
107,3153695
301,8736632
524,2139199
538,3356109
232,4882071
-132,8288209
-194,3660026
-49,6238676
-17,10294529
-76,05376489
-85,97685518
-58,62274447
-23,49196041
-9,585029953
-37,15247918
-50,69483324
-32,21261624
-38,95635117
-72,42655978
-76,62376254
-37,29847855
-7,201225458
-15,58251942
-14,44287499
1,217194853
-22,35282115
-56,40343256
-34,93514716
12,05152906
25,05609195
17,07803921
12,36687045
1,922087157
3,743192777
32,32969267
40,68109414
19,54690645
29,42664081
56,81981036
39,47593021
9,394517381
-2,674909185
-40,73282864
-88,27971825
-92,31605342
-84,84230772
-102,1089529
-108,616459
-90,86529411
-83,85592483
-81,83881598
-55,81443073
-32,03323065
-44,49567577
-65,45222458
-62,6533341
-56,84945991
-71,79105621
-92,22857587
-86,41247046
-54,59319031
-40,02118455
-53,19690116
-58,87078704
-53,79328803
-52,46484897
-55,13591376
-69,30692538
-76,97832596
-48,90055682
-20,82405851
-34,99927088
-52,67663307
-29,3565836
2,210439615
-1,976000791
-28,41634165
-38,86101931
-16,81046965
18,73487187
38,77457019
34,30819064
16,5852989
6,605460979
15,11824322
36,37321227
54,11993508
50,10797889
42,33691124
91,80629995
233,0157131
436,9647192
607,152887
554,8297856
205,9949843
-127,601947
-133,461438
14,66608189
47,78018386
13,63043958
18,46642129
44,28770185
57,5938548
60,63445441
59,40907576
55,16729479
63,40868838
78,13283443
67,83931195
42,52770115
50,19758351
89,84854189
93,23016066
60,59202576
66,43372482
94,25484732
95,30498465
103,0837303
134,0906798
151,8254313
146,5375852
136,4767445
124,1425149
104,5345053
88,4023273
84,2455959
92,31392943
108,1069498
116,3742824
112,615557
93,33040683
54,76846977
31,17938794
32,81280811
20,66838182
0,745765575
-5,455378921
-8,685384622
-0,444578915
24,01671657
41,94818616
43,59952035
47,970416
67,31057653
68,11971215
34,14754004
7,893784577
5,358177535
3,540458297
6,190374058
17,05768004
12,14213969
-4,8064751
-6,03838379
3,446203008
6,14708374
7,814066114
8,946967298
-1,954385876
-1,640156714
31,63950153
52,38444587
33,84454373
21,2696732
30,40972315
39,51459347
51,08419522
65,8684508
84,61729414
109,5806709
99,25853842
39,15086627
-1,242363949
17,82884169
59,11448956
79,36459864
60,32920059
21,75833995
4,402074202
29,0104739
133,8336228
360,6216179
606,6245696
638,0926018
335,0258519
-99,82552918
-273,2113766
-134,8815121
-53,33574336
-135,8238644
-164,0956552
-167,9008822
-257,9892976
-309,1106399
-280,5146336
-293,4509893
-357,6694037
-380,9195599
-352,9511269
-350,26376
-376,1071009
-356,9807776
-299,1344045
-278,5675825
-302,0298992
-309,2709288
-271,5402324
-208,337358
-159,9118407
-147,7632029
-156,3909541
-181,5445916
-192,7236002
-125,4274527
-37,40560989
-31,40752082
-58,93262301
-68,98034262
-115,5500947
-173,3912835
-136,0033026
-44,13553512
-44,53735411
-122,9581228
-164,1471947
-177,1039142
-204,0776165
-177,8176282
-79,32326737
-45,34384411
-115,8786606
-152,1770117
-132,238185
-135,5614613
-102,6461152
-16,74141479
-19,34662276
-93,71099628
-102,5837875
-85,96424398
-106,1016089
-107,9951218
-93,89401833
-111,2975313
-131,4548908
-117,8653245
-89,02805798
-60,19231557
-42,8573203
-57,52229449
-72,18646012
-66,09903925
-76,75925445
-82,16632912
-58,81948802
-42,71795755
-18,61096629
9,00225473
0,372471509
-5,499553262
14,38693937
28,03270424
25,18849164
6,105046944
3,533110197
44,22341575
59,17669185
32,14366026
78,12503592
212,6215265
357,3838321
534,9126448
685,2086485
545,2725182
136,1049201
-85,29348911
4,077937637
72,71983734
101,1328367
208,0675516
210,7745872
122,0045371
168,7579836
245,535497
198,3376355
178,4149449
230,0179584
200,6471963
136,5531655
173,98636
237,4472599
225,4363313
200,7040267
195,7507842
150,8270274
113,4331654
161,8195926
