3,57115807
9,4759096
24,88392211
80,54637053
227,963386
449,1350986
583,311637
432,7431285
60,429699
-165,8785269
-103,6814262
-17,9788775
-33,27076107
-26,30695881
6,41264565
4,888166847
7,119717484
28,10740836
29,85134833
15,85164422
12,60840085
22,62172091
36,14170495
47,16845135
55,95205625
58,24261353
47,79021474
38,34494909
48,90690341
64,47616209
62,05280708
55,38691784
62,47857128
70,82784178
66,43480115
59,54951856
64,67206057
73,55249108
66,9408713
49,33725973
41,49171218
45,90428169
48,82501855
43,7539703
35,19118167
25,88669459
15,59054821
4,302778845
-6,726580024
-12,99749773
-14,75994646
-16,26390123
-17,25933989
-14,24624316
-8,224594582
-8,944380544
-18,15559028
-24,10821584
-23,30225213
-19,73769687
-14,41455057
-12,33281658
-17,49250102
-21,64361282
-19,53616364
-20,67016794
-25,7956429
-27,66260844
-32,27108718
-37,37110444
-30,4626882
-19,29586912
-17,12068049
-21,18715818
-25,9953407
-30,7952691
-36,58698698
-45,12054045
-52,14597813
-50,41335111
-47,1727129
-53,42411945
-61,66762907
-60,90330246
-52,6312026
-45,60139482
-47,81394668
-53,51892799
-48,96641075
-40,15646914
-40,3391795
-42,51462023
-41,68287183
-47,34401682
-57,99813975
-61,3953271
-56,53566731
-53,66925069
-52,29616942
-9,666517506
138,4696093
366,1121134
504,0108956
372,415855
27,0768891
-206,5061063
-164,5832369
-67,15460978
-71,97033372
-82,53051878
-54,83527647
-38,38471964
-35,92896246
-37,96812035
-40,25231
-24,28164927
-5,556257155
-9,826253783
-17,84176034
-13,60289903
-8,85979305
-5,362566539
-0,361344531
2,643747078
8,402581576
18,41503148
23,68096856
26,20026391
34,72278796
47,74841056
57,27700095
55,55842789
44,59255962
36,62926396
36,66840833
40,20985978
44,25348505
47,04915059
48,84672264
48,89606722
40,9470502
26,99953736
17,80339436
12,85848686
6,164680509
1,221841016
1,779834157
4,338525836
4,397782117
0,707469261
-4,232546234
-3,922397595
4,387782259
10,44786076
7,507705717
5,317185366
4,626168394
-9,565476021
-31,25787818
-37,20116781
-28,14547407
-15,34092547
-6,287649871
-17,23577445
-40,93542565
-51,38672917
-50,8398099
-45,04479196
-33,25179857
-34,96095212
-52,17237408
-54,63618499
-36,85250442
-27,82145098
-39,79314224
-55,01769475
-59,245224
-56,72584437
-57,45966914
-64,94681045
-72,93737929
-74,18148546
-68,92923754
-60,1807429
-51,68610767
-49,69543668
-53,45883349
-56,22640035
-60,74823819
-68,02444657
-65,55512369
-50,59036638
-36,88027005
-31,42492871
-20,7244349
43,97112024
216,9116471
447,8470575
545,7772648
342,4521838
-33,37826899
-219,4641757
-140,3056169
-58,15267153
-62,00541685
-50,61392867
-23,97828113
-24,59854675
-34,97479642
-33,85709938
-22,7455232
-7,140133782
4,709004644
4,051829557
-1,111719864
3,468297279
14,04182361
20,3588035
23,66918305
29,97291013
38,26993439
45,31020725
53,34368191
61,87031338
67,39005847
71,40287581
69,40872587
58,65757092
52,89937511
57,63410443
65,86172672
71,3322117
60,29553097
34,50165801
19,20056819
17,64223878
11,82664898
0,003779877
-8,326385502
-15,41386221
-30,25866334
-45,36080009
-43,47028165
-33,5871153
-37,71130634
-48,3428581
-46,98177195
-37,37804726
-30,03168145
-26,69266994
-28,36100614
-30,78668148
-28,2196854
-29,41000533
-37,3576267
-37,81253291
-31,52470537
-30,24412348
-28,47076461
-23,70460413
-22,69561538
-17,44376968
-8,449036349
-13,96138267
-25,98077392
-24,00717335
-17,2905422
-16,58083969
-12,87802304
-5,682047432
-5,24286607
-9,810430137
-10,63468882
-13,4655893
-24,30307678
-27,64709446
-18,74758357
-15,85448334
-17,21773106
-7,587262029
3,786990399
2,405094824
-3,732878213
-6,876856234
-12,52676484
-16,93252771
-12,34406662
-7,011301463
-9,434150223
-9,112529029
12,95364786
89,01446802
258,5700209
476,1203977
555,4156915
335,2059972
-37,25858866
-208,4779677
-126,4520397
-46,4307028
-51,6638535
-48,90138649
-36,39319484
-49,88916994
-59,38920157
-45,39317787
-37,90098541
-49,41250918
-56,67763263
-50,44623768
-42,96820477
-37,74341284
-30,2717394
-19,80306054
-8,087250968
-2,874184004
-7,163731655
-8,455764618
-2,000152318
1,953237059
2,654536535
11,10388031
25,80140371
32,74724318
31,94153622
34,13442137
34,32603816
23,01652706
13,70602947
17,89468765
18,83264469
10,52004447
7,957031608
5,893751425
-6,66965011
-17,73302642
-21,04623038
-27,60911434
-39,42153021
-45,23332947
-34,04436327
-14,85448243
-10,91353754
-15,97137898
-6,027857003
8,667178237
6,113876604
-3,687612068
-8,237138035
-16,0345517
-23,8297037
-19,1224449
-5,912626545
4,049899739
0,01528186
-15,5163328
-24,29479747
-24,56996602
-26,59169306
-23,109834
-13,62424512
-9,634783634
-6,89130776
-3,1436768
-5,391751205
-12,88539265
-22,87446411
-31,60882992
-34,83835586
-37,31290925
-40,28235896
-36,74657558
-29,7054314
-25,15880055
-23,10655906
-30,54858493
-51,73475819
-70,66496103
-76,83907783
-84,00699523
-95,16860226
-95,07379037
-85,47245353
-78,86448828
-74,74979386
-53,62827221
36,25017186
231,6356307
444,2781936
464,927947
190,5849739
-142,2506456
-219,3288348
-120,3995204
-90,46263231
-110,2681042
-93,06587303
-79,35587962
-86,38806835
-80,4123874
-63,17878878
-54,18722841
-52,43766616
-53,68006594
-58,91439574
-60,1406277
-50,10873818
-33,81870781
-18,52052153
-9,964168678
-8,899643021
-5,82694281
7,253929164
26,84296553
41,19015428
42,79547872
39,90891747
42,03044436
48,41002843
56,54763389
61,44322008
59,09674143
53,25814747
49,67738274
50,85438681
54,78909426
58,23143462
57,1813324
45,88870705
25,60347295
8,82553939
6,054810601
14,29118571
24,78455876
30,2848187
25,0418494
14,55552967
16,07573322
30,10232875
39,38517989
42,17414527
39,96907852
22,01982832
-0,423761619
-5,361852475
-2,044610307
-3,972206007
-3,644815265
0,68738148
2,274199082
0,865447744
-3,039066933
-5,689543893
-1,086186561
0,520797214
-13,11880477
-26,255209
-22,88863618
-17,51931115
-21,39746281
-24,27332403
-21,39713158
-16,01912602
-7,889551658
0,241343621
-0,626691613
-13,9939122
-23,11057631
-10,22694532
12,40671631
20,79014109
12,17305869
-0,194803986
-10,31372268
-17,18397565
-16,55584352
-13,6796092
-16,3055577
-19,68397605
-17,56515312
3,550620513
87,91305267
267,2718497
468,3767169
510,477358
273,3234761
-65,08522655
-176,2490486
-71,16828906
-13,09324734
-34,02422305
-21,21151584
7,344574741
3,893749464
-5,564290464
6,970156794
26,74679387
25,01532435
6,525452977
1,526885791
12,01933032
17,75249576
23,47609313
42,93983548
44,89343803
-0,163381613
-30,7309033
9,190595846
47,8508416
21,49956282
-9,613508355
7,261363632
35,62391797
39,97389764
29,81104962
17,38512501
14,44587925
28,24307231
30,77646881
2,545838242
-21,44904488
-11,20840085
9,767555423
7,478614564
-17,8254271
-42,64476736
-50,47959799
-43,33010455
-37,44646623
-43,07885574
-49,97743907
-51,89237542
-55,57381699
-56,52190887
-45,98678887
-33,46858737
-33,2174272
-45,7334235
-60,01668357
-56,56730676
-34,38538431
-19,72099925
-21,82422629
-28,19513164
-31,58377296
-29,99019925
-26,91445066
-25,85655849
-23,81654503
-24,04442347
-30,54019781
-36,55386279
-37,83540378
-37,88479672
-35,95200803
-26,78699455
-12,88970347
-4,51007226
-2,148028621
5,196509565
13,02363429
1,333447468
-23,62393904
-28,59840339
-5,839813706
15,15197192
12,12710545
-1,164251056
-3,221925486
-4,795735623
-21,38548917
-37,49098375
-37,86200691
-31,49833617
-33,64973901
-38,8159729
-5,996785353
115,058086
320,0989136
486,8759794
406,8895754
53,39000322
-237,3724258
-215,1473909
-88,93456158
-65,98359811
-62,54415132
-35,11586283
-42,94836511
-66,54128158
-64,64422674
-46,50680627
-18,87861713
14,49075225
27,60172192
3,454720211
-37,19981638
-53,86144335
-33,77970831
-4,454151207
10,61569559
12,68030705
7,990165358
1,295759713
2,347586143
18,64614732
39,69195236
47,23551664
40,52736158
32,31801442
25,85800804
17,89788072
15,4381759
21,729442
22,52223214
10,31710392
-3,885380812
-12,33465622
-19,28015272
-29,47129724
-42,9075135
-59,33822221
-76,26284142
-82,18078673
-68,09147156
-49,2443075
-49,63870451
-63,27407122
-68,14981527
-67,76534353
-76,87006245
-88,21337831
-89,29469755
-83,11342707
-74,91897452
-65,46074862
-57,98815944
-61,00061875
-74,24754032
-85,97834022
-94,69243713
-102,3892527
-96,8182118
-75,97874292
-65,37027843
-74,7422549
-81,59411348
-77,67530015
-75,48526609
-77,77346798
-79,53936832
-81,03243578
-82,00214549
-80,94797936
-79,86942642
-74,51598313
-61,63715367
-54,2324503
-60,80139365
-71,09351302
-78,3583467
-88,3454423
-99,054357
-95,9846579
-79,3859223
-69,00773798
-70,34970354
-73,66142861
-70,69253421
-25,69265298
115,8385705
331,6514795
468,4964049
341,1236647
-10,966436
-253,7736052
-210,0475645
-96,53804914
-66,49480833
-45,41760542
-28,30621816
-47,1604389
-52,48007479
-34,264948
-27,7648959
-21,97977124
-0,659442363
15,94620667
16,33727587
10,7638492
6,975994411
10,4737629
21,25718959
30,32629279
37,6810741
52,82151829
73,99759321
93,45924972
112,9564216
129,2390254
128,0569605
116,9101092
122,5483361
141,9714889
153,1793976
159,1718751
166,9487168
165,5097008
150,8545877
127,233121
100,145027
85,84001444
90,06777526
96,57798414
96,62029879
98,19436003
108,7997919
122,1862016
122,8531799
112,8003011
113,7771232
130,283188
139,5680214
124,8811334
102,2220184
99,09015547
111,2350083
117,6560255
117,8526412
116,5742746
113,8203309
116,3402008
122,8832617
117,198877
93,53639714
70,89515937
69,27448836
81,92369637
89,84208356
88,77893835
82,23353773
72,70514759
66,44302308
60,69640892
44,96453981
29,99664075
31,04192744
36,84960665
38,16887657
45,49892727
61,58894101
71,68809271
61,79555031
35,66047523
16,53202271
20,90934232
32,7915783
24,67787005
-2,932647466
-23,79084329
-25,14759
-18,25376332
10,38975838
124,2820945
336,9223626
500,0596791
392,9431592
18,82191807
-273,0549294
-245,6882676
-118,8289801
-104,7279492
-115,3860552
-95,80417604
-98,23318706
-108,4239603
-103,8773643
-104,0942632
-99,57551693
-80,07198021
-75,08450242
-88,86392703
-89,41109124
-75,47682549
-67,56195306
-63,16728964
-52,79364292
-40,19181217
-35,86258781
-43,05675103
-50,02507338
-49,01831638
-43,53723112
-32,58255788
-19,40502578
-14,75535234
-17,13424322
-21,54239177
-35,23047872
-55,94917183
-66,94912559
-67,98098083
-72,79536443
-84,14288904
-96,02415272
-103,6897387
-109,640215
-121,6261343
-137,3980337
-145,456434
-141,8018401
-131,9347403
-120,3556065
-109,0648934
-102,3130388
-104,1004629
-112,1775688
-118,2947416
-118,7023487
-116,6507395
-114,3902452
-112,9211785
-108,243834
-102,6084875
-113,5153961
-134,4647982
-131,4569134
-107,9919422
-104,5700663
-122,441448
-127,6062307
-111,5645385
-89,06647656
-75,61213052
-77,20156695
-86,83483318
-101,2619573
-113,7329483
-98,49779593
-57,05647086
-35,15892472
-45,55509014
-56,24488083
-56,97819167
-56,25489878
-53,07485964
-48,68791321
-46,59388003
-44,29256235
-41,03374427
-37,5671919
-22,6426535
40,99014034
197,8314765
421,8816594
556,3910102
402,8598673
13,5385858
-233,3224627
-166,7228905
-58,4122934
-63,64025177
-64,6563302
-40,96007796
-39,80102923
-33,92870336
-20,59260516
-20,29222514
-17,2770398
-7,796511936
-7,100090915
-6,687212979
6,442698459
21,5402325
27,85599044
32,39058547
38,39464235
42,36879707
49,56369652
60,47999818
66,11836976
65,22948885
64,81404261
69,6227274
76,90624841
80,16531935
76,65066207
66,8630062
56,05308879
51,97165396
50,11945254
41,49724166
27,60578445
10,69584963
-4,731788861
-11,67635221
-15,3870571
-19,11311613
-16,35373811
-11,10812849
-11,8754897
-13,90502153
-12,19592151
-9,497385236
-6,808606803
-8,628779117
-14,20709428
-11,04274396
-1,884919745
2,017186507
6,664382289
16,0574741
18,69726709
9,83456472
-2,029831617
-8,89512291
-6,010512887
1,124791648
-0,238419526
-4,349360372
1,792751068
9,93869235
12,08923631
11,24515074
1,907198068
-6,673864926
11,25271256
42,93767504
50,63176049
39,58570001
35,05021755
28,77602965
13,51384512
6,514364828
11,52828137
19,30627887
29,09903266
36,15720909
34,73146526
34,82244876
68,43079749
188,0571394
411,2020922
629,1162633
611,5502495
267,2546368
-91,01999983
-133,5230965
-23,50410083
-21,46247183
-55,64768031
-37,30920895
-26,44655243
-35,80921766
-33,64672384
-32,20860266
-43,9943984
-55,75366809
-58,48598157
-53,44092166
-45,11808424
-38,51707834
-41,88752627
-57,97906364
-69,54133952
-62,07401644
-46,3267705
-36,29929143
-34,49128261
-40,40246113
-46,53255788
-44,13131748
-38,44849843
-34,483873
-29,23722738
-30,20836157
-39,14708945
-37,55323877
-23,9266511
-15,26718185
-11,32470025
-3,599089278
1,659754319
-1,548079889
-5,722515989
-4,613491665
0,029041857
3,205119876
1,664764289
1,657983663
12,93477332
27,49511542
30,33897906
27,71632037
29,62708261
33,32119629
34,79857928
30,30913691
23,60276213
23,67933562
26,53872591
26,93078953
29,85537117
32,3123038
24,55140883
13,07249628
13,12536493
19,70980247
19,0755857
16,97248068
22,6502429
28,10861749
25,34733937
20,86613346
22,91471487
29,24278907
35,60005212
42,23619084
42,90088302
32,34379766
16,31459512
1,062927368
-6,161561807
-0,109236595
8,969531059
8,574361678
4,954868469
24,86065755
117,2913282
317,9964729
551,475678
593,4785235
291,0045834
-108,946574
-217,1253857
-105,7822943
-72,66774724
-101,7821967
-86,3760994
-76,44991662
-93,00411355
-95,28915928
-88,30552655
-87,05369147
-79,28413335
-66,74733442
-65,69377962
-70,12395637
-66,78835434
-61,68746521
-61,32178249
-58,94180124
-51,04801788
-43,14092997
-37,47103599
-29,53883509
-20,09482694
-16,63951147
-17,17338867
-13,94695839
-3,710720128
8,284827155
6,539185256
-7,948143083
-14,42765399
-8,899842245
-4,115201141
-5,074222252
-8,52739528
-15,22520787
-26,66814543
-35,10669098
-33,29132497
-28,2225251
-30,90076623
-38,57652012
-42,25025536
-41,17243722
-41,09352745
-46,7639842
-55,43426183
-59,60481084
-60,2760777
-64,44850474
-67,37253002
-64,04858725
-67,47710563
-79,1585098
-81,59321967
-78,2816504
-81,72421225
-83,42131052
-77,87334545
-72,33071215
-67,79380052
-61,51299518
-54,23867541
-49,97121508
-50,71098259
-52,70834081
-54,46364706
-55,47725304
-53,49950476
-54,28074258
-63,57130109
-73,62150916
-74,68168985
-63,50216042
-45,58323231
-40,17521111
-54,02839658
-68,39308262
-73,26955726
-73,4081027
-70,55899525
-67,7225054
-66,6488978
-58,83843127
-43,79135884
-22,25792773
53,51162057
234,7670503
453,5081315
508,2346398
249,9463565
-128,1069315
-249,9254318
-131,5093463
-68,60887163
-85,22419874
-65,85551337
-44,00299584
-49,16682119
-41,84715924
-26,04417459
-22,75802673
-20,73887006
-12,73685398
-7,25212291
-4,284816401
4,914930849
15,84698891
15,76123256
8,657541237
8,785798936
18,89589419
30,73771997
36,06117365
34,86615692
33,65257571
36,67034015
43,41936452
49,89956712
52,61087026
53,8032002
58,47648705
62,88066472
57,76567088
48,63144685
46,72793761
45,30509166
33,61286104
17,65120121
9,420071005
6,419432625
-2,100748473
-10,3905036
-3,949860888
10,97115465
16,62252108
10,50421952
4,366234049
4,458551709
7,031162446
15,08405908
29,61723724
34,88069539
24,12443473
9,848459197
-1,69722455
-7,762607183
-1,84767671
10,54758149
17,17318467
12,27915267
-1,384492085
-12,56772458
-11,52051724
-1,492839943
7,265340002
10,50405783
8,97335133
6,423260846
11,60382928
23,26510211
28,90712738
26,77995573
23,3836404
23,46823727
33,28380484
55,33040428
78,60809947
80,61695697
53,60704612
24,578439
20,78121052
29,46543844
30,8812034
33,02858893
39,40768157
38,76857084
36,86134931
67,68611267
183,7429597
396,5319925
590,3033163
553,3070397
221,2932747
-110,7378635
-142,0362559
-21,60178027
2,815689443
-17,78371717
0,10013323
12,96737775
7,318157334
10,15261685
19,97090514
25,52317505
26,30958355
23,58029177
17,83546508
13,82527311
17,04988987
21,50949381
17,95426783
13,1343994
15,80008058
15,45150814
7,588883527
9,212413022
21,82230773
27,41878367
25,75206181
28,32236812
31,62993367
27,92499458
19,70779219
8,228572994
-8,512411247
-21,26490349
-20,77864138
-18,3033572
-27,33877784
-42,63462478
-57,94061405
-73,75645623
-81,83185641
-78,41651417
-74,76012359
-74,61237322
-72,2229461
-66,34151972
-59,21776607
-54,6013516
-54,24193729
-55,63917858
-58,79272549
-63,20222255
-62,86730891
-57,03761831
-52,46277914
-53,3924145
-58,57614223
-63,01357496
-64,20432017
-63,14798024
-58,09415257
-50,04242955
-49,24239875
-59,69364293
-67,64574013
-63,84826379
-56,30078285
-54,50286182
-58,2040609
-59,65393609
-54,60203935
-48,29791865
-48,49111815
-55,18117831
-62,61763605
-66,55002485
-61,97787497
-47,90071352
-35,06806468
-36,47944984
-53,38438775
-74,03239474
-87,67298485
-92,80567003
-87,92996034
-77,54536413
-77,15138822
-86,49753812
-87,83331823
-58,40823206
50,0282176
258,2265284
448,4371983
406,1607252
77,89760686
-241,6016594
-267,5865768
-153,5566497
-137,7613834
-158,4502848
-132,8728621
-120,2786256
-136,9170878
-140,0377635
-128,6401699
-125,4738275
-135,2882597
-151,8329934
-162,1075592
-155,3614915
-142,3443291
-139,5556151
-141,7448976
-136,9117293
-127,0556685
-115,176279
-107,5231303
-113,595798
-112,3938641
-87,91691708
-71,91455239
-77,3863726
-78,83198763
-71,25101509
-68,64308045
-73,25781738
-78,84486794
-80,90388287
-81,43452182
-85,93645358
-88,65935634
-81,35291795
-71,76683608
-67,40081853
-58,50458341
-38,82785938
-19,37038583
-2,131913155
20,63779711
36,68897203
33,52182713
31,13656615
47,53338091
64,21245109
63,17394412
56,41801495
55,94480593
59,75444665
70,34705382
85,7227311
99,13156899
117,8236447
135,2990221
121,0577515
90,09986954
101,4253994
151,7843504
185,1767179
188,6024835
186,0616148
190,8040656
201,0797754
212,6386697
223,9806601
230,355644
226,7635048
221,4541117
228,17732
245,9329708
262,4708916
268,7908955
258,892782
236,2763369
219,6913319
216,8875255
214,8646622
208,1224734
203,1606771
198,978978
191,5770677
193,704625
247,3613157
396,2967933
597,0106984
677,7526596
480,5222933
128,319204
-42,10701553
19,74321584
56,61946806
17,02129994
42,69825945
112,8998839
125,8757003
99,87522528
90,64796589
93,94341938
94,76107367
99,60040758
107,7108911
107,8419858
96,99314491
78,66381366
58,6034297
44,06142332
32,53721774
14,78022942
-10,21013159
-34,93446139
-54,14336189
-73,33744046
-100,2673097
-130,1835869
-151,0868942
-159,2278575
-165,107107
-177,7252762
-188,8330018
-191,6809236
-193,5196837
-198,0999267
-200,9222988
-203,9874482
-214,2960239
-226,0986763
-229,3960561
-225,1888143
-216,7276022
-207,5130703
-201,2958689
-195,576647
-188,1060526
-182,634732
-179,6633296
-174,6924878
-168,9728464
-165,7550425
-162,5397103
-156,8274805
-151,1189804
-149,1648333
-149,2156584
-146,2720708
-141,8346806
-140,9040932
-141,4809089
-137,3157227
-129,9091237
-125,0116955
-119,6240156
-112,9966551
-110,1301788
-107,7751447
-105,682104
-109,6016007
-112,5341718
-105,9803468
-92,19064734
-73,16558764
-58,40567384
-64,16140399
-85,18326797
-97,47174725
-94,52731482
-86,85043506
-75,94156357
-64,5511471
-63,17962344
-67,57742129
-60,99496019
-19,93265042
98,60910708
305,3799208
486,6294087
429,1071983
80,81292673
-237,0037592
-237,5932029
-106,9557383
-82,59168909
-88,50136957
-55,93508397
-42,14312671
-41,62578235
-24,88332555
-15,1660211
-17,4741239
-10,55787898
-0,667521506
-2,053276807
-4,465360387
1,596022042
8,630674533
12,63841086
17,8690545
24,07243856
30,24840574
41,39680829
55,51750794
62,36037587
63,67529259
68,71214793
75,72084095
78,20127986
72,65338195
61,32707351
57,47228975
69,58897472
83,92708121
80,98657066
62,76741311
46,76958705
35,24307934
18,68788513
4,604007753
2,741458619
2,850257111
-0,069569514
5,482013764
20,00504963
27,9995883
23,96568747
19,90341214
20,56283453
16,69403398
12,29709683
19,8721163
28,66919238
25,68843173
18,42994756
6,6438595
-8,669706493
-7,760618252
9,121262485
20,97607996
20,8039843
11,10513136
-1,870317322
-11,37219469
-19,90032825
-16,95454019
8,4653525
21,85953796
5,228209309
1,571564572
18,88980656
24,18314277
26,2017853
38,44595071
40,16585998
29,61173835
24,78381527
28,6823243
39,057503
46,15959285
36,23883916
20,29549098
18,329801
40,59202551
120,0824243
289,5512604
494,4988005
579,1753142
391,0810745
22,7163573
-177,1685582
-100,3233902
0,50214639
10,05833915
17,84547855
30,86385775
17,36377251
6,595521167
12,80940457
19,00572601
21,93479118
23,84690809
18,74238707
8,621540643
4,484683547
6,83213264
10,91420687
24,98122722
51,03351667
61,57140014
42,59520449
25,10525839
28,10189238
36,58543876
52,55623157
78,51460656
83,71090114
63,64545436
50,81860685
47,23070078
40,63207986
41,52308927
45,40407565
28,52538703
-13,61262716
-63,00961619
-93,66522797
-95,57910919
-90,50090527
-97,43026043
-105,3668178
-99,56021919
-88,01010556
-93,71611666
-122,1778913
-144,8950672
-137,8672812
-115,5941694
-97,82536665
-82,06050738
-71,04922501
-77,29115228
-90,03592121
-89,53316321
-82,53250903
-81,5335889
-84,78603252
-94,78946911
-110,7935275
-114,7978361
-106,8020231
-101,8057163
-84,30854342
-51,31013192
-41,56010923
-61,5581027
-78,55373972
-78,29664777
-68,28645445
-64,27278757
-64,75527521
-42,98354579
-11,95722813
-16,1759515
-38,63934575
-36,0970413
-20,04866927
-12,99386154
-6,6822508
2,13652933
3,712844263
10,79705835
77,13953478
251,2406356
469,3507214
533,7201515
298,3492837
-70,51152558
-222,3619219
-128,2015522
-54,0300655
-65,0971126
-59,15234631
-45,94542153
-56,72599535
-54,24372712
-29,49827855
-12,73931382
-15,96649966
-30,92950544
-41,6280033
-37,56166818
-24,230178
-13,63321369
-18,27045933
-34,64160222
-34,746333
-15,33434575
-6,655338077
-12,95901121
-16,49507011
-12,26322359
-4,013184382
-2,49466924
-10,95739907
-13,901099
-9,325498489
-11,98033144
-15,36533629
-1,230256096
19,67516135
26,10116342
24,79799255
23,51588618
11,2550766
-4,484209124
-1,701749221
11,85267265
17,92926735
20,52824011
19,39979048
9,044112247
5,211393296
16,15181556
25,36555493
27,10278115
29,61365772
28,64834186
14,95698439
-1,210270362
-3,603284609
0,278072798
-5,316073706
-14,13560647
-14,93041472
-11,95039459
-7,445449245
-1,665488915
-3,61043097
-10,53019999
-10,67472783
-8,793953655
-9,387824049
-1,206293027
15,50067789
23,98311963
21,99105551
20,0245012
20,83346466
24,16794612
26,02793801
18,66342496
7,324383713
3,510783149
4,472584207
0,959739876
-7,277804829
-14,7401129
-15,17725533
-1,589311192
45,52363243
167,1614804
362,3241294
502,2614681
394,7233772
46,20972904
-225,2796118
-210,2447891
-105,1859546
-90,35326803
-94,74689727
-86,6170182
-102,9638147
-112,2874787
-97,58820993
-89,11621626
-88,37171332
-80,85492466
-68,06608165
-53,00542344
-42,42319692
-45,06965668
-52,19506497
-49,5496916
-38,88381392
-26,94771678
-15,7416924
-11,76604038
-21,02106757
-33,50708802
-32,47442293
-14,92340051
8,895644031
24,98236863
26,33642442
25,70745585
34,09510074
35,24899044
20,66874986
10,35399764
10,8043462
6,519401902
-2,501234877
-6,007969606
-8,751213489
-15,98138334
-19,69890145
-13,40419548
-2,347698309
3,720152104
3,798912838
8,138136163
17,48736968
22,59615647
25,21403524
32,09054047
41,22520259
39,86754809
26,01709974
19,17337671
25,58589473
34,25416631
41,67770083
47,3560048
50,53858196
54,22493349
61,6645582
74,10695268
86,05161152
87,99802746
78,9456916
69,14409358
68,84272178
73,54106348
70,73860512
61,68483242
56,62923064
53,82128474
48,5104796
48,4463002
55,87823184
57,55576037
46,22837232
30,39555519
20,80679759
19,21158949
17,10942241
8,999789626
5,632186381
13,7561101
19,3710606
25,47654028
85,32205435
241,657111
424,9812218
453,2939015
206,3446686
-133,1169545
-241,0914413
-143,0792613
-99,58087928
-129,3467555
-121,6273452
-93,67309879
-80,48446122
-66,56187204
-56,65576514
-63,01656855
-74,14470425
-76,04058799
-67,70462908
-57,63723023
-52,58878733
-48,30968932
-39,30031795
-33,06104766
-33,84224538
-29,14427034
-16,71747395
-8,062199575
0,071217563
11,93245059
12,02118112
-3,662900609
-14,87009555
-14,10069573
-13,35498412
-14,88323445
-12,93571114
-10,51266912
-11,61435373
-16,49100057
-27,14283543
-44,07007414
-59,77292247
-66,00157604
-62,75622019
-54,28702992
-54,09416978
-74,92779378
-98,53804532
-98,6750571
-80,83895107
-64,77983834
-55,99781913
-47,99298271
-43,01540734
-48,31516023
-51,14229751
-42,99686415
-42,37889398
-53,28840962
-56,72542249
-46,93993275
-33,68192935
-27,70138995
-34,99828098
-49,5725576
-53,17416372
-41,05303203
-30,45908399
-27,39222986
-23,85236876
-23,08938864
-26,10316638
-21,64356779
-14,46044768
-14,8036499
-9,67300742
3,181657652
5,76053396
1,813820846
-0,408271726
-10,40552326
-24,42770279
-30,72456902
-34,29587035
-36,89134504
-28,76072129
-10,40371732
5,179958459
7,49060738
26,52854037
144,5440778
368,7875495
523,7592943
398,9596603
44,38900445
-195,7023075
-149,0639013
-49,44539401
-59,34639449
-67,51650344
-29,45531355
-13,66240971
-23,13736915
-22,37976162
-4,88914959
16,33491157
18,54287344
-1,764805702
-16,08766101
-9,925221303
7,472990742
26,3574584
30,72867067
17,8371221
14,93331256
30,26774702
36,84093536
30,15339211
33,70563628
44,99819112
48,03158388
51,30634559
56,82301085
48,83211758
34,33420679
34,32982236
42,56951079
37,55382095
21,78330389
11,00851253
-2,769998503
-30,8016732
-53,83595434
-56,12228379
-53,91010272
-57,19885187
-52,98797177
-43,27690301
-45,3150865
-59,35196368
-73,13697683
-77,41956924
-70,19918555
-58,72527191
-50,49727631
-48,76464879
-54,77684167
-64,53330987
-71,78351108
-71,77690605
-64,51295885
-58,49113707
-60,96091212
-68,67175944
-72,12315876
-66,06459432
-57,74555515
-55,41553528
-53,07403399
-44,72055603
-39,10461189
-43,725718
-51,58339697
-53,42717781
-47,2565962
-35,57119465
-26,87052276
-27,65413743
-26,17160307
-12,92249183
-8,156383785
-27,87286715
-51,57153851
-56,00200296
-44,91387436
-30,3067755
-14,18033829
-2,034203946
-4,11802317
4,568543669
93,27582637
286,2541447
476,0038084
467,5251166
180,5683583
-144,3661885
-206,7782561
-99,91758827
-62,53393937
-70,37707514
-51,19677259
-51,74282013
-65,0150177
-48,01317689
-32,48712101
-40,1866852
-38,61171655
-25,26207412
-23,63762908
-23,73826475
-9,563876661
4,385627356
5,360327146
7,610290166
19,88557145
29,43621358
35,51224663
48,6136882
61,74054333
64,64280455
63,82045186
70,27345272
84,25176206
95,25532233
95,78406351
92,08790311
92,16674625
90,02048569
78,14900187
66,80216299
65,22982506
61,18183197
47,90801557
36,65819577
31,18218061
27,22976637
24,30073768
25,3948676
34,51191779
47,65163858
56,31376915
61,24803762
63,95416122
60,43184644
55,68078918
57,20067491
63,74117883
72,80196606
78,1326918
70,48300154
56,10253122
52,24090744
58,14774767
60,07266044
58,01524557
59,47509436
62,45178984
60,69490697
52,95401289
46,47866714
51,01842192
57,82282232
50,64140656
42,47370627
50,8192467
57,92754703
47,29812059
37,18047517
41,57411324
47,22853225
46,89322492
51,31767948
66,25137998
81,44380654
81,89443569
66,35274058
47,31819136
30,29025536
13,76839749
6,252080461
11,99076509
18,98391063
22,480975
31,98141515
76,48468731
205,4902473
403,7475508
516,2560537
355,5152123
-20,97551625
-266,2166738
-222,9588008
-130,4524361
-138,1981168
-144,1963774
-122,6977503
-133,2027648
-156,9619475
-158,4758213
-149,7449057
-142,2697164
-132,3007648
-122,5885578
-117,6335979
-115,9363825
-112,7474038
-104,3171487
-94,39609818
-87,98472756
-82,08350583
-74,44289565
-67,56335302
-61,19532711
-55,58926002
-52,99558655
-49,66473405
-42,09712212
-36,54316252
-35,75325888
-34,72780658
-38,21719255
-49,72179508
-57,99198364
-58,02811879
-56,33055191
-59,14962514
-69,48567119
-80,33901322
-80,70996471
-77,09882929
-84,50590068
-98,68146254
-104,8757884
-103,0891415
-99,32177465
-90,07393043
-75,34584073
-66,8877269
-70,44979962
-80,53225885
-91,63529379
-95,50908278
-87,90379334
-79,81958205
-79,5065946
-80,21496569
-77,44481909
-73,69626759
-68,71941299
-67,26434614
-73,08114691
-70,16988424
-50,03061615
-31,66338975
-28,56824133
-38,49519631
-53,94426939
-57,41546453
-46,15877502
-41,67418357
-44,71166236
-42,27117313
-40,10266721
-35,95608567
-24,33135939
-25,72840911
-41,64714561
-45,83746974
-45,29927257
-52,78243549
-40,53683033
-1,812319492
22,64124395
18,82401609
9,986162069
-1,872144046
-21,00071943
-28,14937264
-19,31790375
-12,25610449
-10,46375844
-8,190641165
5,813479644
75,79884398
246,5156994
462,2143007
538,39491
317,0577965
-52,29676393
-201,1684887
-92,55708853
-14,4622681
-28,88372576
-15,07115395
5,225760674
-13,74266295
-24,72610046
-10,97422226
-2,236693711
1,736824682
10,1966771
19,89321222
37,07678302
54,74774659
55,65646396
52,30329992
60,4386228
71,81280434
81,92621945
91,77924605
93,87226491
88,70565944
90,77981548
105,5951212
121,4019669
131,2007447
140,7418485
153,2756739
152,8026177
119,0730782
77,58745445
72,34614656
93,09955533
106,5980821
108,0921286
101,3320967
81,06838857
44,30140599
9,531550663
3,759223812
23,73482612
45,45875753
50,43141713
40,403203
43,12451203
68,59573983
86,81728053
64,78952672
5,262869212
-30,76230301
-1,035602972
36,69335418
32,17495104
22,65956783
30,64758225
25,88936937
3,635301525
-16,61425183
-36,10892424
-51,59835232
-52,83217593
-50,31003822
-50,53158581
-51,99646881
-57,95434103
-57,15485996
-46,59768699
-48,03248741
-61,95893057
-65,87668993
-64,03544321
-75,1848724
-87,32466392
-85,95450866
-88,32410211
-97,68314437
-91,7813403
-79,86839959
-84,44403678
-90,00797139
-77,809928
-58,09963627
-40,87683104
-31,3912524
-47,89264575
-81,13076188
-83,10535698
-51,81619277
-34,76303651
-35,94566107
-22,86384499
6,482627473
25,09396629
18,4703756
33,1120537
156,269193
379,4419798
533,1305946
424,3352117
86,30599943
-170,95688
-171,9532707
-106,6830227
-117,6459925
-121,5920426
-98,02104215
-96,9328662
-96,82739635
-90,45452052
-110,564133
-132,6561345
-120,980432
-105,0369391
-104,0755759
-96,84626856
-85,59895016
-77,58356001
-61,55004398
-44,74835439
-36,4284501
-26,34029642
-17,48386518
-15,8591347
-9,216089786
4,445278277
11,87497173
5,32298633
-11,96068859
-24,72607016
-21,72318193
-19,95205384
-39,41272223
-65,85522982
-74,02962565
-64,18596507
-54,57430974
-55,19472756
-62,04729266
-68,38208537
-66,69919215
-51,4987056
-31,78072438
-16,54535318
0,457297317
24,9771105
58,76396386
101,3177291
140,638272
151,2254528
124,329126
104,6991404
129,8353395
160,4875611
156,1556376
137,0893962
121,7886588
103,7532421
94,23295763
101,977612
100,4870067
78,01093863
58,04919966
44,35157711
23,91785365
9,747807477
12,59121236
9,697837772
-10,68255103
-28,8001929
-37,40533068
-44,74821114
-44,07908481
-28,89820592
-14,95583226
-14,25222507
-15,28764896
-10,81237172
-5,826664284
3,919199459
17,92494274
22,94028608
22,71494734
31,49864194
40,04108293
31,59198112
19,15104524
25,46798204
41,29249647
44,62429175
38,21306956
33,55853014
24,91037247
2,268294366
-22,36800736
-31,99883678
-35,87449865
-41,99529835
-25,61154169
54,27646523
215,1684161
395,0640047
435,7129249
220,3648707
-97,23046329
-216,823382
-136,1641896
-81,75318946
-87,34068398
-68,92697438
-44,01236062
-39,59714127
-36,4316133
-35,51607204
-48,85081093
-62,93612146
-59,02229302
-39,35961273
-22,19836533
-20,28883305
-24,38129547
-21,72602936
-20,07330861
-24,92340405
-23,27658334
-11,63311085
0,506752473
12,89274923
24,02462566
22,4021318
13,02502159
15,64305295
30,50598794
47,11359283
62,96563826
68,06189927
53,15215546
37,73619106
45,31379506
60,63476125
59,19888835
49,25598009
34,80584531
-1,401702015
-39,11684262
-36,33975193
-6,820599962
7,440448735
0,943235149
-9,562394133
-5,826586867
21,4005149
47,6187749
44,07806266
24,77825357
17,21922893
11,90087596
-11,17691214
-31,01423616
-28,36119088
-34,96786504
-72,83434129
-113,4606962
-125,8470003
-108,7433179
-85,14970742
-82,31622094
-102,9929046
-128,9297984
-143,8769363
-141,3343461
-125,8020498
-108,0300631
-104,018396
-119,7670523
-133,0260301
-126,0453215
-111,3249128
-99,8647846
-86,41491165
-76,72526313
-83,54580257
-93,62648798
-86,71727187
-72,81810135
-66,9289182
-64,54965896
-61,18025495
-50,32063245
-23,4707127
-0,88041205
-7,799642024
-32,72830942
-49,16631643
-43,11356071
-25,31993552
-21,03532979
-28,50962829
-25,74271168
-17,73445669
-4,23473617
78,00658073
270,9896285
477,964545
501,9314715
243,1405526
-84,90806424
-175,7142284
-91,52778653
-62,34858263
-72,1764581
-45,76125196
-26,60280095
-28,2009397
-20,05550085
-5,416315216
-1,783211899
-12,15601847
-16,5345611
-5,668664682
-4,808153034
-13,45284899
-1,852574587
18,49284882
12,58360037
-1,080140401
23,00180624
58,5796201
53,15348093
37,47356825
55,7900612
85,10313843
96,66297791
90,46975682
75,27365138
69,32483675
78,62348682
82,91977415
73,71386976
62,75594304
59,29616158
62,08469107
59,12169515
42,65733525
11,94177053
-29,27484232
-54,74234918
-47,21059859
-30,92944192
-25,64873348
-30,3683306
-39,83809379
-42,05788685
-50,77757694
-82,24703471
-93,96613444
-62,93475408
-38,15277539
-42,87008402
-48,58656963
-45,05212594
-51,01665084
-66,73004649
-59,94221935
-25,40308034
-7,612544828
-22,07053276
-34,5269687
-34,98178193
-40,43490644
-42,38628108
-30,33584952
-20,5335604
-12,72936726
4,076771297
0,63489166
-35,05497487
-38,99280212
14,82143096
50,13774026
34,20613647
18,77662511
12,84920646
-6,32612439
-17,74937759
-8,670568498
-4,339717685
-9,756850929
-9,171999197
-10,83519863
-19,74649052
-8,905921272
26,68645759
43,03058951
14,62641289
-18,52613883
-15,17713715
4,923341563
12,77521611
20,87840054
39,23280419
52,58833178
74,19488347
165,0523549
355,1606375
558,769618
588,6291794
319,9892
-57,15044533
-183,0398861
-54,92925556
37,68130945
17,29166837
-12,34832285
-17,73881162
0,120051381
37,72811234
42,08521444
-5,808802008
-28,45409943
9,399157149
44,25080023
47,35066002
48,19856453
53,79433975
50,13780983
39,97879716
40,06712259
57,40260556
78,98506426
89,81431581
93,64017639
96,96246144
96,28098579
95,09556388
97,15600986
96,46213783
94,01376195
93,56069667
87,60275685
75,13975796
68,67151626
60,94784894
31,96857434
-5,766487904
-25,2575167
-27,00468929
-29,2581811
-40,26816557
-49,53481398
-45,05829527
-34,83877587
-33,87641956
-41,92138727
-51,97383693
-61,28392331
-65,10179784
-61,17760848
-60,26149954
-69,35361152
-75,95408098
-74,31304039
-70,68061794
-67,55693744
-73,19211816
-86,8362747
-97,23951685
-101,4019494
-88,32367223
-66,25477979
-76,69536136
-108,8955007
-109,6052762
-80,32476024
-55,55401973
-46,54311559
-49,29210278
-56,55103016
-61,56994048
-64,09887023
-65,88784955
-60,93690221
-47,9960455
-46,06529017
-66,39464036
-87,48409358
-87,08364059
-75,19326543
-70,81294531
-67,44265063
-59,0823449
-63,98198475
-81,64151987
-84,56089303
-68,24004007
-58,67888984
-68,62736426
-83,0853783
-90,80283999
-91,02965041
-75,01570376
-16,76088735
121,9849184
333,7218397
490,4500099
395,1695687
42,63066272
-248,6665549
-254,2219244
-153,2852797
-124,3564479
-106,6852503
-69,77150137
-55,36500982
-50,46557807
-41,0730026
-41,93707399
-48,55757702
-47,18429079
-39,81698885
-36,20543928
-41,59940486
-46,99864316
-36,15290669
-15,81194301
-5,97549493
-0,643300577
8,684906399
11,7593967
17,08044522
40,64833087
66,46333645
72,77574845
66,0858569
65,39395518
71,20033986
70,00531052
67,55916954
78,86222196
87,16477527
65,96713921
28,01962559
6,322548089
3,126222071
-6,319035636
-27,51290692
-44,20507262
-50,89521268
-51,58300642
-43,26813267
-28,95027007
-25,87909719
-33,05429281
-30,2255361
-17,89250685
-8,304885669
4,037645786
27,1354046
43,23870636
31,347865
2,713192496
-23,16500128
-42,7864088
-53,40072511
-43,75764803
-17,85687839
-6,948120208
-22,03108094
-40,10547168
-49,67100736
-51,47740699
-41,77439385
-30,31169569
-34,58904495
-47,10617895
-53,11284011
-58,60877615
-57,34374027
-36,81749136
-23,52979418
-37,23041958
-51,41914466
-45,09575294
-29,7600346
-24,6617866
-35,30081288
-52,17692454
-62,78993998
-65,88968509
-60,22599341
-28,79870626
10,64232708
-0,902750761
-54,68380541
-70,20071085
-36,20334959
-16,94161278
-24,91540033
-24,62462105
-13,81919273
-12,74904228
6,085894179
119,9356712
328,800334
505,9299183
491,0744501
217,4839459
-106,3415875
-181,1521531
-77,44776384
-33,22844235
-31,49422133
0,50485662
10,76873887
-10,7026372
-17,90934427
-9,101465053
-0,529092319
17,05767111
42,90871236
40,52390855
4,403126789
-10,9537758
20,95304797
65,1234354
83,80721396
74,50420129
65,21420536
70,18702445
70,17244729
62,92025312
74,68021176
96,95208378
96,73562053
88,53056429
93,58664839
93,15359733
89,98112692
101,3189444
99,16674868
65,27423029
39,89107176
46,7669477
54,15152493
45,54446272
43,69541299
48,35402042
31,76992273
1,192750876
-12,87787079
-15,19232426
-15,75099764
-9,304284947
-12,10258587
-21,39630552
-15,93585418
-18,47164708
-24,2541041
4,466350449
27,93928811
6,16427656
-22,85912014
-27,88134124
-3,402829039
44,32597142
80,55461263
79,03264493
61,25961678
59,98507508
64,95856547
63,67963266
72,89782071
90,11267335
93,07373431
64,78054766
21,23265807
13,17961118
40,87095393
55,05623487
51,73500446
46,40681547
30,57122325
13,72778609
11,12606552
13,01562671
14,64603872
27,51687488
44,12771311
36,22813628
15,56773247
24,89609538
46,2128246
35,01752598
10,5598119
-0,160698334
-8,394378228
-20,64159375
-31,15270304
-12,92805605
81,28200571
253,9771495
441,1570518
520,8213981
341,4698841
-32,39778501
-258,7818935
-214,4327152
-120,350513
-85,28553898
-66,98803353
-71,4582256
-100,4463322
-125,7025582
-115,2270962
-82,02012598
-90,33181462
-103,4123161
-50,26177097
-23,88030651
-99,01803611
-171,9250593
-159,3514615
-99,54731386
-59,76267307
-59,9975812
-58,50206552
-43,2761384
-59,56979712
-87,38302379
-65,71578515
-27,56803254
-25,43970175
-25,83071293
-4,490970503
6,329636895
-5,1187635
-22,83602853
-26,82199908
-4,576500002
14,90065985
-5,890312297
-48,19919319
-72,52574349
-74,36970786
-70,23081491
-76,10877729
-89,25329172
-85,91403904
-71,09068426
-71,28287669
-71,99024995
-60,46242215
-65,94899594
-78,19955866
-57,21368244
-32,74092439
-45,03082669
-66,8329168
-76,64670763
-73,22169767
-44,55737126
-20,15319873
-31,75863665
-46,37312804
-46,74610261
-65,626977
-95,76515503
-86,41002798
-47,81097485
-37,96736264
-51,37854667
-50,54387085
-46,21266801
-50,88426022
-48,80795911
-47,23306622
-64,40887336
-80,83466292
-77,5097083
-77,43327422
-90,35461716
-80,2729857
-44,43762094
-36,34775691
-61,25262097
-66,90143421
-54,79341194
-66,17776404
-87,55369545
-94,42040663
-104,7770939
-116,8729502
-105,707165
-74,02892531
-10,83741597
132,61818
350,3386808
491,8249052
340,5776727
-46,65219801
-279,6138886
-218,056582
-133,7294629
-146,6317184
-132,2625382
-73,3711151
-44,7066459
-52,76833158
-70,05537792
-82,81699599
-82,30240271
-75,01082131
-76,69148187
-81,84362184
-72,96648655
-52,05932971
-33,62141394
-23,65201127
-22,65040363
-22,8658834
-10,04775386
15,05467027
34,44206236
30,61508335
7,57438131
-6,679409104
7,354332916
35,17621383
46,03682531
32,93674372
22,37652973
33,35672782
47,37786583
38,69045456
9,044987279
-21,30806062
-28,86823212
-12,63508891
-9,608211842
-34,0372013
-49,92167758
-40,76128126
-32,05567357
-38,30453677
-44,00757442
-32,9145118
-11,52509618
1,410902853
-0,856306891
-10,32654052
-16,99963631
-12,12545601
6,546114971
17,51516725
6,031767293
-1,154042829
11,20775438
16,11715162
7,824116662
11,32859215
24,38049547
37,97971861
60,12612804
73,3195646
57,05984344
33,3467539
31,93005946
53,80949774
75,23478038
69,4555931
40,72159568
33,78242195
67,88767983
82,0369514
33,97979293
0,465734968
59,49428243
135,3149147
116,9270858
63,83022447
79,02373432
111,7569941
100,5293577
95,84015454
118,9386898
118,0742443
86,99607545
76,95341666
116,4454783
195,7214476
312,0304891
471,3717453
610,4943362
562,6473604
251,0798953
-50,2090028
-18,47029805
164,5450254
168,0859636
92,15149347
104,4905732
123,3521426
121,4851238
152,3884214
170,8109234
166,7515014
193,9590112
211,6822937
183,4201747
172,6714661
194,1849665
204,7094612
217,4937234
238,2865146
230,836585
214,1426744
216,203513
214,7678214
207,8343119
202,9016888
201,4686492
219,0338836
228,3460766
196,6539076
171,4560516
181,5011795
170,5379593
129,8150565
112,3311348
117,8348569
122,3248852
127,2998824
122,0085124
95,19944077
59,62133577
42,77286876
61,65271506
73,50955465
39,34207284
1,648961007
-14,0710827
-38,06935269
-73,59713521
-102,6557077
-118,9963379
-124,6202836
-152,7787915
-236,4730968
-331,4544224
-373,7239785
-369,5329616
-340,382554
-288,5239233
-244,9582217
-244,1865851
-271,710133
-288,0299675
-277,397173
-262,3128153
-265,5279413
-281,5435783
-296,8607337
-294,230394
-275,4035248
-273,8810701
-301,9139514
-343,5030681
-372,3992962
-353,6034882
-302,8664727
-287,689054
-315,0720113
-326,516099
-308,7720456
-304,0905538
-317,2223001
-312,9179343
-307,928079
-331,0033301
-340,8942554
-312,1013953
-260,6252618
-143,966339
71,62491782
271,6480821
241,3527562
-78,01142851
-381,1948113
-372,1977021
-216,0203812
-167,9130994
-179,8760775
-155,6595066
-139,0135481
-157,9383331
-137,433963
-55,00050898
-15,88801245
-46,3464847
-39,6259071
11,27376889
15,85262166
-8,139240607
2,048319928
30,41547071
61,71240864
97,68935996
114,3465801
109,6843535
104,9529935
99,15284202
86,78426955
92,34767476
133,5934844
171,2721529
168,3841624
141,6800221
110,6602684
97,32546423
128,6761991
165,7130884
155,4367735
125,3479212
103,6972232
76,73539612
60,96318094
71,38134263
78,74066978
73,54197421
82,28609059
102,973876
104,8562095
93,93399188
88,95814479
75,6796108
67,09935266
91,4683529
114,7876134
108,5581548
103,7810163
110,9572548
105,0879447
84,17417731
70,21706023
73,21771705
78,92728673
68,09692304
39,97779414
21,07108198
31,37798178
42,64970152
27,13746139
8,842493231
14,26604002
23,15935531
-2,476297346
-39,1396449
-22,32940539
24,70571149
32,21700386
19,70577707
29,92334315
37,37102024
18,80013205
1,712007258
8,107978973
20,73938416
16,10756307
-11,0361413
-43,69038381
-49,10381771
-31,77509521
-23,45286806
11,36421193
136,9274923
330,7383193
482,0480377
431,8579895
125,6695143
-178,266052
-202,6973773
-87,62313419
-66,79200007
-83,70265805
-63,60379733
-61,24411377
-75,12231036
-65,9870978
-39,837195
-14,4213296
-13,23823846
-34,78666819
-49,31537562
-71,57312835
-115,0587052
-122,5208966
-76,20850534
-50,12034675
-63,50524933
-57,86205517
-20,9396204
4,513184323
-10,50252657
-34,98565403
-22,43511483
6,650158032
17,52121491
21,4290891
26,12479645
20,35933495
7,133684341
-6,801194227
-31,19435861
-64,04488599
-96,35187329
-132,6144374
-151,0817158
-143,2528663
-152,8770682
-171,4535218
-158,4814492
-151,4600943
-170,1387235
-164,2666255
-138,0931117
-127,1175165
-109,8391979
-77,75753697
-67,87193872
-84,93183205
-76,18667
-3,885929928
73,47088627
87,88425202
86,6046159
115,1324015
128,7180072
110,1118061
96,3141461
112,3253493
148,8957125
172,2755065
173,4649765
161,464342
134,2737963
114,8935072
116,8236161
107,5642387
80,86546477
68,47735789
75,39995583
82,3832704
84,67728751
87,78196724
87,94724389
75,92302603
50,45919663
21,55561313
8,712107534
21,17848656
40,70453176
49,03999961
44,93462176
31,6381051
28,40013199
74,22036043
196,3484243
378,0339333
524,7764738
470,3256083
168,1808761
-115,4082065
-124,4421459
-8,421471079
15,15326671
2,531494353
21,21261706
21,1960187
-4,018937853
-18,68291044
-17,04657727
-11,36063655
-9,62580616
-7,8428233
-0,762444096
10,61455676
23,0373864
20,00523415
-4,982728012
-18,67734513
-1,829478786
14,55999327
12,49017758
14,7101654
28,21903314
38,51584279
48,59964242
62,46946659
70,62433683
78,31326212
91,03523933
86,78925372
64,82427943
56,13927993
56,73320855
57,60500894
79,00361557
91,17795426
52,87694263
9,099490656
4,344501127
9,860870192
3,397487852
1,953238471
14,2770013
27,11765096
27,47405802
26,09508942
35,97960907
33,12647832
2,784556483
-13,54729865
2,62976971
5,314617844
-19,24389795
-37,54692085
-49,095593
-72,14105502
-98,68444551
-105,9769005
-86,51955299
-77,06353251
-113,1099645
-157,1599699
-166,2146648
-164,0251597
-165,0925591
-151,4179612
-142,5024573
-156,8471314
-165,7030596
-158,07131
-145,7029416
-123,5990046
-106,2605397
-116,9385772
-139,1341375
-156,3482298
-167,5818523
-157,8359914
-135,3616216
-133,9097048
-139,7311904
-114,8270144
-67,94809927
6,904646283
157,9803279
343,7780657
397,546995
190,2862659
-150,2549554
-305,3274873
-203,4321316
-82,81967401
-66,7408832
-82,69651092
-78,93729158
-62,46394203
-45,77716132
-23,37763042
0,233987981
-11,19295028
-48,40907065
-44,16497961
1,038735461
17,70150653
-1,927214938
-15,09795781
-12,56123112
-5,317523916
2,882694885
19,78897662
49,15089301
63,71803627
44,99001924
26,21647542
36,39705914
44,78144556
26,1193308
23,16043194
55,15448715
62,35125564
28,25051776
9,102074989
13,15574997
3,661386503
-16,88115046
-31,72197482
-48,36117936
-60,79883577
-57,03499467
-58,81968569
-76,40291752
-81,28467793
-59,7149339
-25,94363167
-2,720696844
-6,046034468
-20,41952915
-27,34104518
-29,56042663
-19,3274975
3,607938144
12,24609604
-2,412788444
-24,86846045
-27,1206458
10,83094882
39,48663567
10,3467458
-23,58837118
-13,31834727
10,65720367
15,08868576
6,976520801
8,321148131
9,373024332
-6,36737699
-8,649565455
14,77696584
28,41274006
26,25829637
27,06418967
31,0809903
36,80928379
36,49967054
19,90276557
4,269198198
2,599611734
2,144663199
-2,094977
-5,618625379
7,824414309
89,73485075
267,3634047
463,2108088
519,2778071
307,3151547
-51,17638247
-217,6960281
-131,2429956
-53,81648891
-65,66570243
-62,28982155
-47,93802298
-54,85947513
-46,55333844
-23,26876576
-20,75490273
-35,2608881
-48,03585416
-53,32892705
-51,1392272
-45,46586962
-37,05796436
-34,91461682
-55,53492816
-79,41799567
-67,06291315
-31,46877126
-18,38465796
-26,80965882
-30,74285744
-35,43333581
-41,6301747
-28,58245403
-8,789253266
-15,99965175
-38,96272911
-44,67756565
-37,14324268
-35,35884291
-33,32345083
-23,03615305
-21,49603871
-40,9521998
-67,40373154
-84,84973276
-92,78930621
-93,47155897
-72,89560279
-29,3105544
-0,965535909
-3,859675115
-10,24210587
-16,86196839
-31,96840963
-29,06058357
2,112348427
28,0512173
28,75684599
18,23004908
11,97163254
10,73239338
6,013119355
1,064588688
13,38756976
30,98282082
25,35108972
12,49311362
16,40961873
15,10132002
-4,931078993
-8,186886559
15,83457709
21,6339795
1,461975724
-4,680791868
7,706306154
25,12388607
45,32255081
52,8028897
40,31547834
27,11087833
30,18963714
41,80228787
47,19934915
53,38132492
62,34870426
55,35196129
48,89155496
98,96792896
232,8315116
416,4827155
554,4219379
498,3995599
201,1659471
-90,27855116
-112,1836014
7,951113474
41,87589459
22,09102663
15,09677795
-0,356599518
-3,768870277
7,360184654
-8,469232278
-24,25693519
3,247245236
30,2934617
18,38185032
4,0125306
2,185605475
-2,598838709
4,659267844
16,7099784
4,303329757
-8,560657764
8,61801978
26,83934998
19,85330416
7,659837415
0,758888704
-2,349619068
15,33422103
38,81030006
29,5784933
6,638660338
9,240645225
22,13427655
10,31936759
-21,95428358
-32,68689396
-7,628695447
-1,77993473
-38,89087312
-61,21178642
-50,24296472
-46,73471227
-60,9373473
-72,60120185
-63,97662156
-30,06396555
1,38639385
-6,875928779
-43,10133171
-63,04022586
-57,94303464
-49,56019366
-44,14215061
-40,18936495
-41,70230778
-47,18146154
-55,12731983
-59,54038715
-48,6711787
-34,77022009
-37,33804716
-44,1252057
-38,6322512
-27,60974862
-22,05827214
-22,72840488
-25,12073867
-29,48587379
-32,82441868
-25,13698973
-11,17421094
-2,18671373
2,574863377
-0,140124989
-14,33233077
-29,75241222
-40,90103361
-54,27886494
-62,38658172
-49,97486462
-31,29439924
-29,59587581
-36,3799889
-23,14743716
54,60107699
223,6148476
402,8931656
417,9353188
181,2405925
-117,4417304
-204,6123691
-131,0220444
-91,17147897
-65,06139644
-22,94252147
-33,81557935
-64,93129579
-63,04039653
-69,14360718
-81,74165284
-50,33525789
-6,925145644
-1,512038146
-3,846655835
1,820282706
-14,26193897
-35,84403491
-29,67671647
-3,010692071
23,6533331
32,06465732
24,97258264
31,37641509
59,275465
80,41904721
72,05648136
52,93709213
51,81020949
58,42516894
51,78131178
46,12798536
61,71454328
76,29034565
64,85475936
46,15715825
35,94692339
21,7234433
1,236114136
-9,26566004
-2,782467071
2,935113517
-8,113489277
-14,67883772
1,488514864
9,638024276
-9,980844341
-25,11861632
-16,02580729
-7,202922961
-15,90045899
-24,11890076
-15,60872324
-7,370390794
-20,15435704
-42,96106466
-56,79094527
-58,39441928
-47,77189571
-34,17377207
-33,60043422
-38,55225626
-37,27960035
-40,78281664
-48,56224312
-46,11820552
-36,95101721
-29,81097906
-31,44837938
-45,61349382
-53,55658526
-43,27790374
-34,77768639
-35,05615734
-29,61352766
-23,94999531
-30,06574504
-39,9609484
-45,13576362
-43,09033563
-34,574796
-36,33926288
-54,13384103
-56,20862175
-28,56368288
3,300911202
66,63510959
232,1888749
443,7121831
485,4550237
226,9173997
-115,4006725
-207,2491633
-98,87802933
-52,28721431
-66,22664844
-40,19624874
-20,69591904
-34,22555005
-31,28501941
-15,62419176
-13,49291883
-7,891039504
2,931620097
-4,774753481
-15,50996112
4,226208781
35,43398018
39,86358932
31,51528455
40,88932629
54,98598683
49,30555026
29,34831227
15,86458008
22,60467225
40,81891855
46,0076598
36,92124771
32,56004473
33,92442385
32,76476848
29,33147222
24,12493871
22,39558143
24,14382353
11,37009762
-19,42515444
-46,99148171
-65,82842441
-87,6855141
-99,56227393
-81,20821882
-58,3728557
-67,30568375
-90,25619461
-98,72387261
-103,208195
-104,7086323
-86,97464829
-70,25570053
-78,55124046
-90,61071369
-87,93356024
-85,76921482
-90,86710707
-88,97666185
-81,09729947
-79,72843599
-76,36948346
-69,26985022
-75,92894118
-82,09615804
-63,52089964
-43,20256221
-39,89053962
-34,08422371
-35,03300456
-56,48627075
-54,94340969
-18,40380785
-5,616851105
-24,33192499
-22,29841498
-3,265706805
0,516813269
4,799758168
17,83373971
18,3693683
6,407252687
-6,302000367
-16,25778635
-22,4595033
-27,65655206
-28,0983366
-20,03426426
-13,71374609
-9,136197026
8,69896372
79,04231246
260,8944207
479,005855
480,6271766
165,7589409
-171,5983021
-221,9440089
-104,7776421
-64,84867092
-75,6565716
-54,70082738
-37,48092885
-37,49637421
-32,24666948
-28,48132876
-30,44987442
-28,65183735
-22,83675719
-14,50418251
-4,15367107
3,215210022
8,102884069
15,2597646
22,43625519
27,88274926
36,34962986
47,83726958
58,34603027
66,62626296
69,92830766
68,75249317
70,59913702
76,21854524
75,86101225
65,27682073
58,96624151
72,67953341
89,91694314
83,67870521
64,96504181
55,0261627
41,86226516
20,47353384
19,11014076
40,77224518
47,45999356
30,67351948
21,16294364
27,17837374
34,9699045
39,7876176
36,88158164
26,75185218
24,39847165
34,32146939
44,27086166
43,24665159
33,24882926
25,77737167
22,5822428
21,66339361
27,27076211
30,65427338
20,81383965
3,749360333
-16,28927791
-35,30220108
-37,28954779
-20,25146914
-9,438128677
-22,84970227
-43,73637801
-43,09835611
-23,9358488
-16,9990802
-28,78828616
-37,30371421
-34,29562335
-23,76428393
0,040022457
31,6170032
49,46635476
60,58776289
79,98090273
78,89543906
47,83102644
36,28730936
59,76392249
79,51049083
85,77662991
90,81194601
90,11603633
90,68848924
104,5288845
138,8867933
232,2617788
404,1533962
546,3111927
466,9847082
149,4234752
-115,8729807
-116,4051409
-27,67349331
-31,67853216
-52,67075777
-33,15067628
-32,61879946
-60,82564435
-75,52173313
-78,20759275
-88,13375474
-93,55075496
-90,45913328
-93,60943335
-94,25220237
-87,88799078
-107,267352
-148,8908422
-149,50902
-100,8724463
-65,48168368
-61,08729673
-58,18985124
-47,78991419
-35,88805343
-28,48483745
-35,83083507
-48,17661522
-37,77274665
-14,61979771
-10,21833604
-18,06892836
-22,9221402
-22,27853563
-12,88867705
-18,75312489
-57,37243742
-94,49717046
-106,1278771
-102,7651077
-91,90940921
-82,31132537
-83,47139624
-85,14015804
-74,0681429
-60,75587868
-60,7038887
-69,66269153
-75,13280081
-72,61472501
-66,35896722
-65,11602496
-74,38638998
-87,17054805
-90,71897875
-84,53215534
-75,36054449
-60,95460618
-44,81479346
-47,9415523
-80,0853214
-115,746532
-118,1756079
-87,12296504
-56,08901136
-34,82414689
-13,07876341
-16,10324434
-53,1479646
-67,71329049
-40,04957955
-17,15718042
-12,78643274
-3,687666997
8,638795561
13,69264306
28,72357309
58,98129282
68,9655191
54,67597856
52,86240769
51,77455293
30,66217076
26,77502778
49,6129008
55,17557688
30,71285342
5,224538216
8,210449541
53,42041617
147,6042775
300,0118834
476,1430946
531,4977824
307,5758289
-72,8728731
-246,0984199
-144,6008969
-45,38037889
-49,9369296
-56,02060193
-45,88143788
-41,51946855
-30,43471412
-23,12718389
-21,34687623
-7,093778638
5,882132276
10,08089077
20,00254195
22,14714173
9,264756857
5,60546481
10,91935382
9,20652282
7,967081388
13,95114972
20,15885859
21,34034925
17,24577346
13,87529335
20,72908139
34,80732034
42,36020314
43,8879329
45,14072276
39,11879585
28,8223852
30,00173363
45,15709371
54,03872763
31,39690712
-6,518086673
-18,70596325
-11,91642288
-10,14915674
-6,653846961
-3,18016682
-8,477780796
-13,29634472
-11,38550591
-2,494903262
7,875832581
4,227079114
-11,94077817
-20,12734592
-14,33222308
-5,305001012
-4,545263673
-17,55258775
-30,82654281
-20,86669149
3,827410385
7,50621361
-15,07982456
-35,18024057
-36,54456477
-30,17232153
-30,56302947
-33,96620164
-29,38134567
-22,55796395
-24,99555388
-25,943608
-16,15161421
-11,36905594
-16,84541239
-19,83015868
-16,82276612
-12,07270233
-10,32943151
-12,34241463
-9,611109631
-1,134971663
-3,413453271
-20,94600463
-32,48207376
-30,77110674
-33,81254794
-40,60584026
-37,90042531
-34,44574368
-32,74123515
-26,78633893
-21,33049389
14,37686121
142,8362875
353,0483457
509,0135961
425,2325978
83,45590926
-213,5659127
-212,3323127
-90,84273714
-73,84663448
-92,59345549
-69,58265343
-55,31368435
-61,28600731
-54,49908464
-36,95238217
-29,89536948
-41,57752016
-59,74831203
-67,40722739
-64,0537533
-54,93738179
-41,8076101
-32,16394094
-28,50588276
-23,58294992
-14,89466302
-6,190549079
-4,720141787
-12,98298177
-18,9786168
-13,95660205
-5,666500329
-0,357882303
7,71967326
18,56657926
10,43324004
-20,92994885
-38,52260086
-30,3443387
-28,39479452
-51,67361014
-88,93043731
-109,6649378
-99,62678392
-83,3156582
-77,98125411
-80,123276
-88,99143938
-94,58547105
-86,40510936
-73,70010439
-63,97021808
-55,46522449
-49,93490991
-41,87907308
-25,29752533
-16,19009077
-24,30660643
-33,39692243
-37,4609021
-37,24842219
-25,25937295
-18,24365829
-32,45119592
-48,38191746
-55,78576857
-50,41270906
-16,01271299
15,91423119
3,118120593
-24,65106223
-36,14334935
-45,85878759
-50,54743851
-37,20937856
-22,84469908
-21,45350639
-23,53592179
-19,34208166
-9,622137434
2,373744355
14,89538205
21,19257887
15,51512292
7,862787171
12,98532949
27,38249268
41,05400447
53,49957757
57,46890974
44,21168381
24,47756777
14,7662148
14,57726339
13,16033742
9,515046222
11,39098473
21,03773356
43,45485913
122,1419138
296,598436
483,0739505
486,3179682
218,3299867
-93,89050963
-152,0940497
-28,78117515
31,54755945
32,89158716
66,75032866
95,37319258
93,25957567
97,15886307
104,8204285
99,24363474
98,17783345
109,1223659
112,5765629
105,7897455
100,7612246
90,99030218
76,22627066
78,21841388
92,96600716
95,21831765
91,47460469
99,73412017
113,9961088
119,7598086
109,2744512
98,28926206
114,5534611
148,8162629
161,3268773
131,5845094
90,33836035
90,83762757
122,5815052
129,5691844
108,299854
85,02270066
60,98690953
37,69166448
25,38614861
27,06954473
35,9910357
30,89980497
1,045036937
-21,57408255
-10,95836579
9,141377249
19,47433938
25,78971661
26,08670864
18,86451929
9,122356955
-2,640564952
-7,175027525
2,26819407
3,938331052
-10,41537853
-15,79368933
-10,1973483
-17,12709418
-34,58365713
-38,56775821
-25,080109
-26,62141115
-77,44235593
-142,7936238
-148,6758841
-110,3397943
-103,286
-122,7651343
-123,0278173
-119,824656
-128,6562436
-119,5231591
-98,42596731
-99,36521797
-108,8414457
-110,8551695
-124,4068923
-134,247101
-94,62626565
-28,79483925
-10,50325759
-39,75193876
-58,79128287
-55,12167176
-45,99346866
-41,90701795
-57,11264483
-76,61065506
-58,4013347
-5,484949864
61,88825357
182,9680501
374,0042351
492,2466245
321,6950557
-87,65061293
-354,2905013
-300,9747078
-175,9533088
-152,226359
-157,5438906
-159,4059139
-175,8124165
-180,7633636
-162,0086979
-122,2983394
-61,38218512
-22,76010947
-36,93196386
-52,8975768
-45,40675384
-51,20927752
-55,8049074
-29,69338005
-14,37440906
-20,84768507
-0,362875813
33,33037383
43,98244177
42,59372865
23,16465775
-2,304325138
21,18724822
73,13986835
88,05404794
79,18032172
72,26924625
55,07139981
37,08738218
22,06781444
2,263338819
-10,82538159
-24,19766302
-35,85280126
-28,04007193
-37,75873073
-85,25801373
-118,2871376
-120,8453
-113,1816798
-84,04543748
-47,68571526
-40,6016377
-47,54231192
-53,25682792
-74,49425904
-91,00366226
-72,78407863
-40,33453364
-29,90403765
-50,49158631
-82,84616095
-100,466729
-94,35224463
-85,00164878
-86,16387005
-87,58782494
-93,52241839
-93,71654423
-66,41908569
-44,8789159
-45,59489838
-39,31588754
-40,29072925
-60,7682613
-68,49731394
-53,47671047
-33,2052677
-26,68179656
-26,6551026
-0,623986587
27,91275496
15,45632921
-6,742053561
1,818819454
32,64016304
51,97319338
33,81912746
1,929182486
-5,445424671
-0,303478093
-13,64376339
-34,71506828
-39,76618319
-41,79590186
-50,5530219
-52,78634541
-47,74467954
-32,17683711
42,91836281
231,2920943
444,6955241
440,3798108
126,0961045
-207,1544539
-254,6207332
-138,5516125
-102,1959819
-115,5527429
-83,87080901
-51,64910633
-58,88657408
-68,33216519
-64,98484678
-56,84360077
-31,65742436
-4,67533059
-1,896348837
-7,569525341
-10,19392371
-18,01862543
-20,29273032
-12,26535707
-13,18564369
-23,80274796
-25,61584792
-17,1241423
-6,326850995
5,276784562
17,18750093
35,65601225
53,18300989
39,26916199
15,66511313
30,87148392
45,63887068
26,21784509
34,35895382
64,81271824
40,0796341
-9,589828767
-25,44522675
-30,7361427
-32,46218621
-20,87299386
-22,96822946
-38,24758423
-44,96077707
-41,85755471
-16,68769187
12,54900852
-0,647284791
-22,02643152
-1,838319984
24,91713283
44,48998114
80,8802503
97,58793675
70,61300794
48,20540235
56,61502944
80,34176963
105,1354744
112,4959661
99,42303845
89,66645602
90,97595475
86,60124186
69,54199597
66,04786726
103,1184776
140,7534206
127,2022621
97,21453995
91,28976441
88,17741841
82,87695769
94,88781112
119,9593809
141,0910429
143,2821468
127,2820166
116,5899509
121,7052232
130,6270821
143,8547519
175,6374328
215,2243016
217,6145117
170,5571936
128,3014557
116,8463843
101,9410443
84,33447962
85,27571356
78,26374952
55,29757134
56,3761439
104,2484136
213,9133088
377,3697407
489,3666036
403,6527753
124,9771184
-96,41152001
-75,76430712
17,91757593
12,13293476
-6,869437692
14,65923949
24,96773582
40,55481006
89,66921086
132,0596774
127,4749401
101,9137211
110,6247353
147,8566905
173,3582886
193,8782258
219,6651938
237,2178799
259,0349681
287,8651396
294,9570737
293,809448
322,1709396
359,5402256
372,9159835
381,2968925
392,4316334
376,56889
335,7073491
301,5957018
279,4826438
250,6168758
205,997105
157,1220446
110,4904156
48,60094646
-36,54762569
-131,9565546
-230,3770845
-322,0604489
-397,0078709
-457,4705618
-499,199721
-525,6965351
-551,4621778
-565,4978089
-556,3045741
-538,8836042
-523,236015
-513,8629064
-519,515362
-524,694449
-510,1512173
-496,6366993
-493,9019093
-476,9478433
-449,0254785
-425,135773
-401,5296653
-384,208074
-369,6718974
-347,1720136
-330,4592795
-319,7845311
-299,8985828
-282,0522275
-276,2462363
-268,4813579
-259,7583189
-272,3278234
-295,1905526
-280,097165
-226,2982961
-198,7945584
-208,0865408
-202,6748092
-196,809906
-211,4923502
-198,9726371
-159,7512387
-134,5786031
-108,9551551
-86,38129584
-102,607403
-129,8838307
-129,7109097
-120,8389473
-105,0182277
-63,99901168
-37,5315372
-61,8660192
-83,75264982
-20,94159859
158,5669875
386,0229835
492,926287
352,5268171
47,07451477
-157,1806576
-131,2387165
-40,59965724
-24,76345452
-44,23006258
-46,24941548
-17,57142737
15,80400721
13,627013
-1,852266253
20,36633186
65,03298811
80,89790126
79,71128777
93,47338141
102,184433
101,3447098
113,2044955
127,5140897
134,0238074
143,9839788
157,3949488
165,7570767
173,570736
187,5863135
198,3042093
202,2248364
210,5986201
207,6759979
167,2074187
125,1933428
136,1342412
164,0305954
148,6328969
123,6916468
123,2073555
105,1805421
59,86173419
30,75146746
34,10028516
44,40873781
40,67738279
53,90678398
94,34751132
101,0001405
74,86525253
77,69343338
98,98527364
112,4913681
133,4623155
142,148718
108,3011811
76,17031283
104,506724
156,5610274
162,0838377
144,5757712
146,787445
143,4694775
128,8724874
117,4970938
96,34391567
92,41357174
132,4566801
149,473858
102,7157216
62,68288559
67,12596304
73,54556517
59,44230105
37,8167774
25,16959838
21,00136533
10,81267662
-1,645872604
-3,873690569
7,629810908
21,61521626
18,08310598
-0,965943515
-20,28136005
-32,61257586
-42,95902771
-61,32015701
-80,94540999
-84,83423777
-52,48609651
9,84955251
70,42324281
174,2355026
363,5368546
486,8278162
342,6088993
11,63060996
-186,1065512
-139,8520893
-56,85551521
-65,86634559
-88,88410286
-73,65831528
-58,43851692
-60,97424771
-52,2650534
-30,5604856
-35,36010174
-48,66346505
-25,72014458
-13,52971511
-30,34175719
-16,90585704
0,528393465
-18,78860318
-34,10645002
-35,6747556
-32,24313391
-8,311204321
7,621408512
-3,944925318
-2,259840864
6,927021744
-8,633982615
9,807496036
81,50180286
98,19927832
47,90025822
30,10507387
37,06405216
21,27751566
22,74578273
52,46916762
56,4479806
33,43252807
14,17311265
-10,07996669
-33,32641449
-35,31593873
-33,54825069
-34,27306482
-18,74009862
8,300927441
24,3502901
17,90826337
2,475118693
-13,19887496
-38,86345095
-54,01834489
-42,16329448
-30,54803944
-19,17232135
1,464116425
4,361528881
-9,979830544
-20,30970985
-36,12785836
-59,68402663
-64,97796634
-37,75943021
1,471828135
11,96605422
-20,52650716
-57,50561188
-59,97101637
-38,67247757
-21,6097528
-19,03259971
-34,44077624
-55,33404051
-58,71215074
-52,32486525
-46,67194235
-26,75314032
-9,068217339
-28,61693145
-62,64904053
-72,41430222
-67,91247396
-69,64331287
-80,10657582
-94,80201935
-100,7293997
-90,13847274
-59,27899406
25,84928112
193,9965979
381,4132016
424,099338
193,805253
-154,9688072
-278,7225961
-160,4558672
-88,16837376
-115,359869
-104,0301059
-88,9288379
-138,5558181
-168,1608
-138,2435372
-118,5537837
-119,5912939
-110,3558225
-111,3471249
-124,5649571
-109,2590761
-80,42923943
-84,82520579
-107,946735
-116,0435879
-106,1155269
-78,66231581
-50,43372
-48,6795066
-54,89944463
-44,09330512
-27,7608613
-6,151888704
18,48383465
16,64652811
-12,4135918
-38,1963115
-53,45142056
-52,67871186
-9,877981738
40,20096978
22,30833886
-37,55568237
-71,64090597
-94,44714837
-118,2242306
-109,4719784
-77,19022261
-58,37879896
-50,53754868
-44,91631848
-60,26496078
-90,33333393
-99,87130235
-84,12873678
-55,85551442
-27,55151917
-23,21664181
-37,10078016
-42,95383932
-49,27573181
-64,3163778
-61,32570527
-21,80365021
20,49984323
14,3348225
-26,54867347
-52,15061448
-54,72097919
-40,50975536
-21,26693995
-16,4925393
-3,936569299
22,65094445
26,76996652
20,67045147
23,35234373
11,56557747
-0,939923565
8,335753856
10,39251231
-4,019756405
-6,901171351
-3,50186258
-19,57197122
-45,36164957
-47,37106119
-31,85038097
-44,54979519
-73,46950163
-70,60970958
-56,72063991
-54,80252513
-38,60560939
3,619851478
102,1235899
285,6553266
444,9647707
389,5516193
116,4155581
-97,19373906
-66,27660993
36,16659608
50,88551799
52,37978331
78,64900808
83,69279695
73,26074325
70,60242911
74,46742552
78,35529246
89,76557901
118,1978235
143,9015535
161,3762863
199,6215285
238,1367769
242,6715181
261,2252287
325,2973758
373,1374171
368,2448009
361,1189665
382,0093443
391,6653561
380,0864154
387,0219276
405,97129
395,6838924
366,6591174
343,1463402
308,3949293
263,4042469
234,1736486
206,9524842
163,740098
133,5358289
122,8390107
91,14897251
39,46503924
7,03653166
-4,637233137
-13,8069414
-21,97328239
-27,13694802
-21,54863251
-3,959032027
-0,118844334
-22,02876842
-46,93950414
-55,10175184
-50,51621202
-47,68358492
-46,85457019
-45,52986648
-58,4601711
-83,39617965
-98,33858562
-104,78808
-114,495351
-130,2110836
-155,1859592
-173,6706552
-169,9158448
-170,9221964
-189,1903734
-190,7210338
-178,0148298
-192,8224077
-227,6444072
-240,481461
-228,5841949
-213,4532272
-202,3391684
-193,7426206
-187,1641778
-189,6044249
-207,0639379
-220,2932833
-199,793018
-158,3136888
-136,8558322
-143,6699741
-168,5066298
-198,3663031
-199,2494867
-158,4066616
-82,83829696
56,95515025
260,9732354
392,4655263
261,6816037
-89,87893875
-322,9664942
-259,0814424
-124,4741495
-95,14496806
-93,84423667
-91,57227984
-116,3294079
-117,615917
-89,43208847
-88,27818946
-94,90447223
-69,06117429
-45,49851828
-50,21671188
-53,96594774
-43,99640343
-35,30824135
-36,40160875
-38,77663763
-26,68344475
-11,12213161
-6,342784452
10,65452576
41,36974331
37,3028277
-8,546246355
-40,677489
-31,34089528
-3,036445159
14,23589634
14,72617911
13,93446787
16,36084203
27,00539564
42,86823724
27,19948976
-17,75070962
-46,2322096
-62,49484493
-85,78843653
-91,36279167
-75,46770414
-68,10295443
-64,26830991
-52,71352503
-53,43834151
-57,69248855
-41,22568306
-26,78762987
-33,12802194
-41,74654064
-50,14285594
-55,0666267
-31,5175009
0,254884096
-2,999098724
-22,7790663
-29,08462576
-36,16537472
-48,52090155
-58,90078568
-73,55459789
-65,2319006
-9,682248209
34,09481266
17,59974278
-13,66698995
-21,20491081
-18,51353866
-12,34238616
-8,190960174
-20,05876206
-31,94528802
-13,35002941
25,47752688
48,03789816
43,08160552
25,60917355
12,87112998
11,61800535
12,10033265
4,568646985
1,773485247
20,71538576
45,89488794
48,31253196
45,71885842
99,61440797
242,249721
422,3753374
499,491796
331,8496344
3,699388677
-175,7084071
-113,6232211
-37,54452389
-48,2217892
-47,65449378
-21,84211795
-16,53414585
-18,23006577
-11,17937044
-3,631557311
0,663871111
-1,542592994
-3,750463063
4,290741572
8,83149541
-3,627733498
-18,08648381
-13,04430117
13,24926157
38,79464405
45,59227819
43,39258794
44,44598904
49,75288881
60,81368589
70,62877006
75,19852203
87,0233132
96,3535055
82,18945118
66,78149262
76,6299622
95,48518205
98,34746395
77,71710916
40,34440826
6,729640997
5,373076192
37,27497157
54,68557365
34,60511766
15,7838274
13,22191513
4,669581548
-0,872984373
15,09439459
34,57188384
41,05963685
40,5577952
35,56648844
28,58583412
25,36593772
22,90689265
14,95878023
5,021669686
8,59561814
25,18067063
28,77686014
16,88420758
13,00272187
19,13239994
19,27322681
9,675175604
3,088207647
4,262272517
-1,802691875
-14,3567592
-4,400014637
27,06744526
40,29551263
26,53406845
11,5329826
6,792114066
10,561311
22,3404109
34,12924074
29,42761713
2,985346464
-22,1977749
-19,1219605
-0,287433554
-0,694426799
-16,84318231
-25,73395128
-41,86699385
-69,99257889
-59,61098378
39,02750581
221,6725961
408,3239855
439,9813647
212,3944172
-102,9371809
-213,5137602
-133,0856581
-74,15321822
-73,21679047
-74,02673058
-76,58339991
-73,63716514
-53,93839804
-36,23747516
-33,78477758
-34,33069059
-32,12560345
-35,91990906
-42,96400368
-40,25828668
-27,05316016
-26,59902875
-43,39629922
-35,94538024
-2,746682046
4,949383838
-9,357595062
-11,66803188
-13,23234011
-17,05093328
0,125775366
20,79737314
20,21344825
17,37359012
18,52738967
20,17443965
28,81433495
16,94667291
-16,6789464
-18,31291981
0,544359185
-15,6074992
-43,76888077
-45,44016705
-45,12173496
-53,81395654
-46,01719861
-29,23182251
-24,7081838
-25,44663195
-31,94751005
-39,96115454
-26,73789491
-12,02805342
-20,83194481
-26,89987607
-26,48214609
-36,07904547
-28,69085618
2,682148638
20,03970496
17,88155814
11,70746314
-4,48281522
-18,43950201
-1,662811955
30,84705078
42,83989282
40,31553184
43,02379672
42,2145278
37,38757706
37,79280834
27,68009754
2,549332754
-5,599585469
18,73325599
49,79778303
68,84393445
74,62166216
49,63093129
0,871720337
-18,90597867
4,297839937
32,23319559
44,4001216
45,04866529
38,42888805
28,79086546
29,3846874
70,96045806
192,7682961
390,0583346
539,8307212
453,5856182
137,5732024
-114,9563347
-125,0027868
-68,31593312
-85,3955381
-85,99135147
-40,8531083
-31,98052901
-60,37331939
-74,28117066
-76,4537595
-88,3907481
-107,3417843
-119,5565014
-110,0345188
-75,27544142
-37,52886028
-34,79435243
-71,5714811
-96,35979583
-72,6588326
-33,71811401
-19,53714941
-17,36543509
-8,452454426
-7,047678115
-14,15056433
-1,260558932
24,87290428
22,2504034
-3,37747187
-6,260120433
17,35306994
29,96272237
14,31947055
-17,32604147
-51,97315961
-72,87122008
-62,5195496
-43,9174658
-54,81427751
-75,70928507
-78,35178072
-85,24104887
-100,1263665
-86,75700367
-56,63222348
-60,75128291
-93,61343293
-113,967919
-119,3139814
-133,6508556
-157,477773
-162,5439609
-150,8486431
-161,3910404
-182,170371
-167,4358509
-145,4366944
-158,4221147
-169,3913238
-164,0935337
-182,0279565
-198,6938046
-171,0902919
-140,9666334
-150,5720465
-168,6557509
-166,4669693
-163,0049282
-173,7688576
-179,7579923
-167,221572
-153,4088418
-153,8190529
-165,7014629
-180,0553363
-185,879945
-176,6745691
-163,4384969
-170,6710257
-198,1214624
-200,2891235
-157,9233362
-124,2734384
-97,58877938
19,88127956
221,637365
341,6800906
232,5100568
-65,37214955
-290,2159559
-268,0208042
-160,0361516
-132,2614706
-131,6962497
-115,0899935
-106,9422236
-95,50247866
-74,77031481
-68,74530613
-71,177045
-58,56514244
-51,4092285
-67,20895256
-58,96398371
-5,924011043
35,41125602
39,29208743
45,46873225
84,94141832
141,2103521
167,2757182
161,1376795
182,2963767
236,5019279
265,7544289
263,0539527
257,1505493
253,0442457
263,2350459
294,7229304
316,0078562
304,0897569
275,4685428
260,1441001
268,3662916
272,6349564
256,1999099
243,8109437
236,4678258
218,9203006
211,1680889
216,710888
225,2983717
259,9301908
300,6059727
287,5753216
247,8378192
242,1430243
258,9904732
278,1296799
293,8101363
291,2813125
288,542657
299,3435969
303,6835385
312,8118671
344,2279478
368,4311254
355,9207251
309,6960528
264,7563952
274,8510206
326,7291788
340,3901022
312,8330056
302,3070868
292,5615273
261,0954926
257,1581325
287,748582
302,3659614
289,759377
254,1779216
203,6206752
180,086705
172,8250667
125,3348044
67,11495155
47,41453138
36,48255751
20,8180345
24,16995851
41,28731781
98,16909345
240,8142598
389,4717853
355,3906329
62,56976059
-258,9918775
-322,0453311
-224,3416528
-208,6318974
-245,1671215
-244,6983828
-239,4767395
-247,5032495
-264,2789701
-289,0549571
-302,0822642
-284,1119428
-238,8950407
-222,1826022
-271,975667
-331,5252699
-344,8324399
-307,8982
-254,9735664
-251,0595481
-279,407146
-280,5173527
-293,3911517
-328,5295172
-318,1834131
-285,103793
-286,2915992
-281,7477626
-251,2232019
-257,2188233
-303,4855201
-319,0241721
-295,585645
-282,9207905
-286,5304452
-293,1654307
-310,826553
-323,7646022
-304,7303519
-275,4745592
-274,497964
-284,301289
-272,3852391
-256,2505012
-253,8977439
-239,0776173
-202,7907525
-181,5377618
-185,5692378
-190,8857537
-193,2378632
-188,8760995
-161,0509762
-125,5129862
-114,762602
-121,5502756
-116,8764382
-93,99150017
-74,1458508
-79,33985845
-92,57387033
-76,59821247
-44,91318968
-37,5190855
-33,9161622
-4,854660755
15,41519914
4,143219057
-6,670778208
10,72305134
52,07457282
83,88367244
73,65025738
48,12425572
46,05561635
47,69430884
46,7903233
67,84367029
87,60438064
79,8225053
69,74811518
92,38130097
196,222173
410,2708608
603,7775135
536,4922988
196,1654033
-87,70296774
-93,86259094
1,436775188
17,44538993
11,16353008
33,84148969
58,97957979
77,82812812
75,63747879
48,15799207
32,39004398
39,33402608
51,99034509
70,60942261
85,94169476
81,48761188
59,7476382
37,22225147
31,41194265
31,06721552
22,93858641
31,52658375
60,3317478
73,10463021
68,59579374
74,55581183
77,48526827
57,88475681
53,25488081
82,09625287
87,90949441
55,19523535
38,20411374
37,18677531
24,14387319
20,57606746
26,4840248
12,86841813
-9,270073785
-18,68076673
-16,86297136
-7,065993628
4,960864866
10,21830651
15,45703729
27,17776645
32,13120609
23,81807083
15,48907743
17,89494446
20,2863919
6,41414081
-5,471087028
13,38143055
39,22241573
42,80259038
42,87267575
44,18339204
32,73545819
23,02959146
20,06650714
8,596918229
9,121535123
42,39106529
68,40621298
55,66767889
27,92615992
6,932348819
1,93693394
21,44059894
39,44402249
19,69787802
-9,04716654
-1,290449069
7,468686532
-20,26910993
-41,2531952
-32,23293277
-28,7076932
-34,17685425
-7,139801184
86,90407305
249,2053676
434,2646735
518,0825735
345,4096417
-9,753556261
-204,1564639
-117,5485336
-5,179227125
-10,04801555
-37,15437956
-43,74780956
-43,07780584
-16,6438787
2,054451414
-23,48234625
-35,75381286
-9,759500089
-1,248970295
-4,721796574
11,07243712
13,88413585
2,463693675
10,81149348
26,92790695
35,06329448
40,7180051
41,14237644
44,58673462
58,80139426
57,28665836
29,29281834
11,07015393
20,61893319
31,93941245
27,53183631
20,39643762
32,78343746
58,19304512
46,62545815
-10,6691377
-44,19056844
-31,4386718
-27,41329729
-38,8643061
-21,79157113
4,30502308
-16,07441965
-57,92980707
-64,0110585
-34,81810473
7,649112
25,14063803
-16,0934916
-61,30325317
-50,73863412
-25,39963306
-24,78625968
-35,64853463
-51,48648952
-51,05016675
-23,33961949
-23,85491159
-70,59611744
-91,56332193
-62,25662031
-47,42611812
-75,5719311
-110,444185
-134,5430157
-142,6185687
-115,4209993
-79,70047273
-86,45716333
-116,441255
-125,4029411
-114,5924237
-79,75991434
-31,90563321
-38,52980934
-93,1326804
-108,9644925
-87,2755003
-83,56596646
-86,83616187
-71,08636535
-55,81686353
-50,52795072
-6,719928757
141,1068932
367,4521986
514,065664
413,9469589
87,34574602
-183,4883185
-171,3055849
-38,60641006
-11,89115674
-28,16019382
-6,16389602
-11,65264376
-41,62682299
-33,83682504
-11,28304645
3,534111183
27,36424137
36,4569329
21,31177001
18,67833251
29,55619602
29,19493206
27,59410827
36,50328854
39,17203322
28,59989924
22,2864403
38,23120707
67,68374729
81,89360599
73,11032566
57,33344639
45,06250605
33,79704048
21,53658364
20,28066777
40,52882359
60,28058044
49,28546645
15,04300876
-21,44726639
-38,43583344
-9,173167339
23,09025659
-5,896037162
-44,38252411
-43,86967963
-52,85797879
-55,34789616
-6,089905689
14,66551951
-38,58209273
-75,83321339
-74,8383122
-92,5978574
-98,61231559
-55,8821516
-26,90782831
-43,43980648
-64,7285446
-82,02449875
-102,8281224
-106,6398663
-84,46017838
-64,03950332
-72,12828277
-88,22695496
-92,83595463
-111,9557128
-123,8366568
-68,47920994
-7,133791335
-24,80081597
-46,73069439
-14,17383259
-3,63063188
-33,85148875
-42,83679471
-30,83693617
-30,35229428
-27,13324481
-8,930157997
-3,243398431
-16,3233249
-24,92029028
-29,28464136
-29,16671878
27,18314317
198,2646166
438,3273803
556,3711196
368,1455268
-6,099698923
-199,1148514
-131,1502172
-48,45607552
-18,53269829
31,36965019
50,00071324
31,11024195
48,44799526
75,2637401
65,30725148
57,57831262
75,826715
87,80225851
77,25475154
66,93401107
76,08986276
89,72214106
94,08068929
104,1653597
119,2260137
117,0125217
109,7747634
127,0126278
154,7260133
164,6648276
165,3289882
145,7184219
70,33306536
4,672864945
25,23777677
61,52776681
58,29281095
61,78289505
79,74801497
67,93817663
2,103396066
-72,00630055
-77,39087686
-41,3002863
-39,48447204
-48,44336698
-38,67689373
-40,68496459
-42,7174815
-21,27433608
-3,355409575
-2,710572888
-7,589686557
-18,99260076
-36,66915535
-47,86917981
-47,34249333
-44,5889048
-55,10821284
-84,15020581
-110,7146619
-117,5513491
-121,6600252
-134,0404381
-137,6923255
-128,8654152
-121,5594252
-111,2740633
-99,50902799
-111,2640078
-123,2886816
-90,83271891
-56,39577973
-70,47751471
-90,57756525
-80,69556364
-66,08113313
-62,48388805
-62,15343395
-57,83936768
-42,0412776
-14,50874362
6,508662618
0,011377569
-28,00015431
-48,52548075
-48,81414179
-42,86567
-41,67959059
-43,00542158
-45,59267404
-48,9408522
-36,04945365
35,58203044
190,7041151
363,8173216
403,9221768
197,5192134
-125,6410305
-252,3080117
-149,4811819
-70,90998795
-65,84387226
-39,28227283
-28,22462361
-50,67035465
-50,8688924
-38,81965991
-38,2720771
-23,475561
2,070474005
6,366615907
-0,586545174
1,711582746
0,761593259
-3,185918708
11,86964284
36,67887472
38,24237423
13,06073898
-2,865433477
13,71445411
39,30099844
48,89479531
47,74643941
44,60652398
40,22564055
37,60437865
39,74332552
42,64306582
37,55418134
22,72725073
9,412849161
7,11154809
1,573914932
-21,44948722
-44,20809988
-53,95136947
-56,67874762
-47,63969142
-30,58366375
-25,76013355
-33,66857613
-39,5584734
-42,42931424
-46,03059471
-42,36181837
-25,42249656
-11,46214866
-17,73030239
-32,22649408
-37,95026894
-40,90118132
-49,078795
-57,23268343
-61,36243003
-60,46762842
-52,04788267
-41,85280759
-44,38202893
-60,88518368
-66,11192026
-47,56189882
-37,7347914
-54,63028221
-67,99806786
-55,33785754
-31,89937327
-20,93235011
-18,68653633
-25,66169368
-57,60759751
-82,77403699
-61,41081532
-23,76774986
-17,34467236
-30,89142905
-31,40788087
-39,6439036
-72,34938798
-79,27423988
-48,66838042
-38,78174612
-56,86428896
-61,41597656
-54,93679224
-65,17673511
-75,38582022
-18,56407854
138,2884429
312,6716809
357,5855561
184,2799731
-98,24518002
-229,4900312
-163,704725
-104,3894219
-117,0442991
-115,4195497
-77,26538355
-32,83202643
-8,119720495
0,121275904
10,89068828
11,68822605
0,263582627
-0,38356452
5,746446234
14,90326077
45,58650932
88,79580663
111,780752
113,7909296
121,8259083
142,6352422
163,9684707
181,0751182
192,9546952
198,8566977
203,2806077
208,2258935
210,9420098
212,678398
211,4344864
203,2096905
199,7534132
208,0650452
210,393965
198,2395397
181,3511247
159,7280645
133,3696926
107,2753324
82,94429679
85,62588913
133,3194033
175,274124
165,4893275
135,2142815
111,6982458
77,44047283
63,19020759
118,9466885
176,2091477
160,4768112
133,9988997
134,0246287
114,3032091
88,58384761
91,1157472
95,39810749
83,93012526
69,96099486
46,98990875
16,26605789
20,03863223
62,5568212
83,81981416
69,32680092
58,32697214
51,56951989
28,0536381
-6,971476961
-31,00662619
-27,30260716
-23,11021365
-43,43023516
-41,51345638
-12,86065678
-27,47261005
-68,85008367
-84,99383842
-107,1546279
-131,8331979
-104,5302863
-59,99662228
-60,23292583
-89,98990749
-123,0182678
-148,0686967
-135,1418735
-59,23846578
74,89087046
232,4954915
330,5747665
231,3780774
-87,59518016
-350,0955965
-325,8737477
-199,180195
-176,7654847
-195,3801473
-201,0246975
-204,6996339
-172,6554381
-123,3925751
-119,9114921
-149,9626192
-165,046368
-147,413132
-110,5632861
-97,49718632
-122,9651693
-138,4675525
-103,7546332
-48,57668916
-33,18397761
-53,57673539
-55,75517865
-44,21950265
-61,21988153
-79,00646816
-29,82939393
48,81123137
53,41531973
11,48280505
8,26364327
18,50781248
6,715313023
-1,613832423
-9,729578762
-36,38185842
-46,07058128
-19,54563468
-16,05688336
-56,60416944
-75,18731247
-53,55610937
-41,96033455
-54,39973986
-69,1240547
-84,13298608
-95,67621867
-72,50341493
-27,36421519
-29,50823779
-72,68507918
-83,14431409
-71,6354957
-95,90815577
-116,4618048
-71,29593246
-29,16000735
-58,05347762
-76,97577105
-42,9262953
-38,15443817
-78,15956788
-90,44103334
-58,74816446
-40,58027243
-62,68665006
-66,06657211
-18,7192956
11,60593981
-8,090088524
-23,55658662
-13,04274424
-4,79773527
-7,320718161
-9,610836307
-2,917218483
13,01102072
28,92478046
36,57497318
32,21252418
17,83837108
5,203463429
-1,691237849
-16,59476092
-33,00612354
-21,42433359
11,40161045
27,22271892
19,04001052
33,1045117
132,6672562
313,7292843
455,0416426
387,6053832
92,17156318
-172,7587559
-183,9345087
-81,60462651
-54,51803798
-58,67366965
-46,57044654
-55,45729274
-72,08313206
-61,44688856
-41,79748718
-34,38385436
-31,20491865
-40,00961127
-71,04686678
-82,81562366
-47,06482491
-20,29341867
-35,75035884
-45,1846057
-35,09512646
-37,48089593
-47,59089712
-48,92412178
-49,2295711
-56,00625623
-60,25319889
-55,21943201
-52,15400027
-57,80596068
-61,42438321
-52,00835133
-35,30696259
-34,06932917
-55,29457847
-77,48185366
-91,63031419
-101,4891364
-97,55751394
-94,83465847
-122,0698
-151,0121875
-144,9110895
-128,5157942
-129,0756104
-135,0898679
-129,5579177
-114,7291326
-121,1029077
-154,178661
-156,7058332
-110,1838889
-79,11231649
-96,49062867
-125,0683628
-130,3450815
-112,0703724
-95,24384933
-104,1151518
-124,183946
-125,6999245
-119,4128069
-124,5723402
-127,9282987
-128,7304842
-129,9787269
-105,9228845
-69,3128436
-51,14851879
-23,17985352
25,09318006
54,17058094
51,0523191
29,98833549
24,47854193
66,52282106
118,1210263
141,5229819
181,4784828
229,7372949
212,7991549
174,4137702
200,5808195
267,5499525
313,0707901
300,8929245
253,5159194
259,9393103
330,4126044
377,9352812
431,7567923
588,376562
763,0439874
762,5084386
525,5192594
238,0757672
153,9272533
236,3229839
282,5121995
273,2441164
273,7679261
300,3327963
344,9378714
350,0822726
321,0150986
338,7354261
367,7423104
349,0347856
332,3618656
319,2225443
284,3657962
300,2905773
350,7458254
319,9804608
267,9933871
287,0334913
287,8496453
234,9407059
211,3055156
229,4429035
253,351686
255,530667
217,4786394
170,9443852
156,4266766
171,6742765
180,9359393
151,460412
111,7464343
102,79274
103,3480575
83,91111031
49,48061846
19,55529872
13,13386564
14,21503228
-4,702489005
-15,61998577
8,711255303
36,03994919
32,3648133
0,184568274
-33,50206124
-46,44634584
-46,39955054
-52,61293407
-78,58774807
-124,3252363
-162,3266341
-170,8431673
-173,3760517
-201,1764923
-237,9956828
-257,3348045
-276,1950257
-306,5775012
-328,4833717
-348,6637627
-390,6197842
-435,3525298
-458,8630766
-472,4024838
-483,7217927
-494,322026
-508,454187
-512,6192593
-502,3182059
-487,5519693
-461,5714704
-426,8776081
-399,9712591
-382,3532773
-373,7744933
-366,7357139
-349,4877218
-338,7812754
-338,3671081
-317,7459281
-283,918418
-270,3852347
-254,8970087
-197,2043444
-84,80781913
97,0420164
277,3446388
255,5995519
-39,69371279
-345,0355962
-382,6765115
-252,6168438
-186,6069501
-195,8971595
-189,4877729
-153,1290627
-139,5712734
-167,0646211
-168,3592937
-110,7054509
-80,10322431
-129,0527175
-158,804006
-98,60713753
-40,21213215
-58,61898227
-94,82765295
-88,83808201
-65,15018026
-54,26383171
-45,92889382
-30,39519772
-0,912548538
38,76927438
49,90051714
24,23145096
13,76237188
30,49360041
30,17548112
9,808382337
-7,107304295
-16,8211642
4,917239713
47,10836663
32,50269737
-22,14926602
-31,59700081
-22,08996396
-44,62759268
-61,9593049
-42,33449978
-3,252558209
37,28715666
52,28529888
28,99253917
8,159564356
-0,962923144
-17,62420593
-16,57355214
-5,060216081
-4,083438741
31,60755158
91,7635387
89,63531797
20,47369566
-42,97051161
-60,69647751
-39,95336657
0,509665215
27,69346975
22,34890626
14,22684069
16,82814505
35,90369689
92,70437861
131,9810769
93,98468216
32,46608784
22,67618988
65,11588611
101,0360757
97,18765845
87,57153439
105,938603
139,0397629
138,8759109
98,19794187
83,00674783
103,5532176
117,5882363
146,3626846
187,1274383
212,8833679
309,131338
519,3722068
668,6068257
547,5860385
198,8106813
-62,9684179
-64,25044022
2,46542422
18,17997559
78,394004
144,8582891
117,5735996
48,79069295
29,01031498
71,23319945
121,7100677
127,4416285
96,17857729
65,67159634
52,17135412
74,17850514
146,1936896
191,2175332
136,2506469
62,04362628
56,34705202
116,1614891
212,2374868
250,0755784
183,6762813
130,2900965
151,1675084
174,8089853
177,2149783
187,1359219
177,0722338
125,5243145
92,99254739
110,7272989
143,978918
157,2477366
117,5340691
50,58821293
20,41044785
6,751036503
-33,88977581
-51,76176102
0,135291684
41,80157598
8,237268427
-17,05747144
-1,832501026
-24,83769459
-53,57294311
-22,2881542
0,766748037
-25,15817685
-40,81288553
-34,44735071
-49,31156098
-72,65552063
-64,4792495
-51,28278273
-56,81617059
-53,57947827
-56,32278568
-85,29618715
-97,7497913
-77,18372072
-50,84811176
-30,99311425
-27,86889127
-48,97561886
-70,31348575
-57,88269307
-37,93345411
-65,21599397
-108,9805493
-119,977368
-115,7067088
-91,91884133
-46,11404522
-14,04261028
64,79516405
279,148969
530,2684867
556,4033907
214,303346
-233,0319902
-385,6029685
-271,6599469
-181,4532905
-172,2333707
-145,7505658
-95,75525955
-67,7478417
-68,72870717
-86,44825587
-108,4068923
-110,6050254
-77,29306774
-34,47143577
-27,39054906
-52,30083013
-61,70270407
-30,84659823
11,76705814
4,387834193
-56,23470215
-75,60098391
-11,46144472
39,68348154
16,83336098
-6,762239926
17,14624596
45,80838673
45,72375174
13,39191192
-31,43755996
-42,26508895
-9,091097704
22,33399386
12,25976881
-36,06418653
-88,3882823
-116,2129249
-121,7885165
-124,3654554
-135,1941348
-147,2749436
-151,1082654
-147,6944788
-140,5339567
-122,6270665
-84,72416965
-64,07562158
-91,18177138
-110,0429617
-92,90952858
-75,53180115
-60,41010159
-52,79474494
-58,93603889
-69,83428368
-110,9897719
-143,6527885
-88,57361038
-8,502506593
-16,68973799
-106,8855572
-162,8402086
-107,8039279
-41,27694262
-61,75947145
-95,50172444
-83,00390293
-79,7661994
-85,03879748
-17,82187187
70,8844117
40,82989651
-55,73556513
-75,31211184
-43,39987316
-39,49896953
-54,10951229
-53,48160368
-10,86533682
98,48920422
284,0819445
526,162818
688,4817679
516,5387463
28,8337142
-301,1333585
-238,862493
-101,3537017
-69,85698831
-45,87234776
-44,64976648
-70,93922233
-35,4906847
16,69588536
5,12053509
-12,96668007
-1,315696602
-4,176442988
-14,54883983
-0,182799945
18,42177151
8,764976929
-22,40307386
-18,83226373
47,22753163
88,0264436
51,81461044
33,84217723
66,35929568
62,366124
22,11282677
20,09957478
53,32654488
71,54391985
61,25188821
50,70064411
57,64038714
54,32132218
23,74365926
-13,34238665
-45,18659573
-61,28874356
-43,6486012
-26,26593542
-52,39050884
-84,77208009
-86,660404
-81,55523176
-80,70631109
-71,61338638
-54,02619892
-39,19448702
-31,1179862
-23,04642935
-25,22954692
-49,66706705
-55,85871578
-5,054217197
44,49670641
32,54433436
3,838947433
-3,619172312
-8,329741676
-6,292476499
9,242908188
20,27669801
19,05917906
13,34063781
8,87136089
5,401634964
6,181746592
15,46198207
25,49262728
28,77396758
28,30628761
24,33987121
15,62500125
6,411959513
0,701026551
-5,257518418
-15,96339765
-20,416335
-7,366056023
9,937711902
7,245239455
-4,693204724
43,12264586
207,4430554
450,2682859
639,3485967
573,6842448
190,5254844
-181,8774328
-221,2742581
-105,1647456
-80,54865224
-67,67573807
-14,79576618
-18,40850282
-66,26371745
-76,36118274
-57,45067472
-50,53197275
-54,35485959
-57,41912145
-54,47454802
-48,0209325
-49,55807165
-45,08576578
-16,10381881
10,63796173
16,63976468
22,40177523
32,92417494
43,20714168
62,00084968
87,05546951
107,8711681
124,6981086
137,2864508
141,8863506
143,7479603
148,8714289
156,2569016
159,90452
142,8144223
101,4867433
67,17161422
58,36916291
56,57951386
48,80278824
39,28910392
26,78857554
9,551314535
1,82742922
10,86702481
15,67020348
10,48706444
11,56770396
13,16221547
11,02068958
14,14321417
15,27987443
17,18075295
31,34592975
34,02548239
8,469486014
-13,57198661
-15,09886496
-18,86108076
-31,85856786
-38,84126218
-32,30910166
-20,26202617
-17,94997745
-22,87289904
-18,78073621
-11,6734359
-18,55094665
-30,9132185
-32,26020299
-27,09185305
-26,65812293
-27,70896818
-19,74434555
-9,51421292
-15,5185293
-30,00725471
-26,98035017
-20,9377776
-47,62949983
-82,55548048
-76,96568398
-47,86007545
-38,48862075
-50,85128633
-68,69803929
-83,02884728
-89,59367849
-93,6425016
-99,4252858
-97,94200069
-89,19261632
-87,67710313
-92,39543196
-74,847574
14,21649918
200,2968157
406,1434032
448,2562892
204,6355007
-143,2189355
-267,5569932
-181,3786463
-133,9338691
-149,4726365
-132,9949236
-112,2507061
-115,4899599
-106,4626617
-89,91878854
-93,60831806
-99,28122848
-89,68749871
-83,57710829
-89,45003754
-91,30626754
-77,64578022
-52,21855843
-30,27458596
-23,56384764
-25,3363294
-24,59201833
-21,83090277
-16,80297237
-6,008218189
2,053367249
0,631789843
1,477053845
12,58916176
26,21811428
35,11391013
34,27654603
16,45601659
-9,847685836
-20,38457121
-15,65465192
-21,90794292
-47,64446179
-77,36422888
-93,06726743
-92,75360364
-94,17326682
-103,8262895
-105,7127075
-100,3325603
-106,1858905
-115,5227448
-104,8431737
-82,89723124
-74,93497592
-78,95647018
-82,71178082
-87,70097903
-92,9241405
-93,38134559
-89,3226794
-81,49823192
-72,15809813
-67,05237809
-73,43117711
-92,79460583
-103,8927803
-80,4758222
-41,29385877
-26,59702307
-31,63545401
-31,40929649
-27,66870145
-27,16382599
-26,14483347
-23,61189359
-25,81518247
-28,00488276
-2,931183665
42,90571892
58,50562236
45,61831725
47,74358727
54,6312092
45,28095285
45,69258095
72,86584919
109,8005061
133,9962931
127,9529444
98,92018697
81,89774052
90,63531754
99,88262325
93,63935559
96,15520522
127,6798555
154,2129826
151,7542554
189,8033356
344,3598776
560,9235287
671,2439292
523,3207121
178,4035037
-55,25807704
-24,66441779
68,43408687
85,28703561
101,6440204
128,2546268
115,1184336
85,23501347
72,35393267
72,47475133
67,59702354
47,72029749
32,09411555
31,46801448
20,5915255
-0,035825514
-3,914517879
-6,545035968
-32,42786903
-50,31351101
-29,70246041
0,154779945
12,25770305
18,35579795
19,94854988
16,53544053
30,3659482
55,68954807
67,75571233
75,31391048
81,36360951
76,15427415
75,93536708
83,45634917
76,21667974
56,96581679
41,95321724
15,17833717
-40,60936788
-97,91044271
-131,7254322
-151,804881
-156,3993332
-141,0093324
-130,885421
-132,0281402
-116,4380296
-87,36562714
-81,06146852
-96,27608715
-95,26001379
-74,51377627
-61,03789925
-57,08290391
-49,64930766
-39,73762391
-31,09836173
-24,48202562
-21,88911521
-16,32012497
0,474456041
22,24414448
30,98846296
10,70694037
-19,3508879
-14,68547964
20,45271441
40,06325085
34,64569388
23,19961557
15,7245961
23,22022405
47,18609662
67,12181993
65,0270092
47,65128908
33,49429383
31,30566756
44,58506452
65,83214927
74,54659694
69,22809344
59,62633569
39,74103182
15,57190137
10,61867554
23,63109733
30,10892176
22,80191606
14,70985984
12,08254528
23,4197773
95,9713737
271,4871653
492,9669963
606,4107239
455,0682192
97,68936656
-126,4759357
-65,42777544
19,83377337
-25,44134912
-62,50318859
-37,35177649
-22,23712994
-23,90925167
-20,36812992
-17,61373845
-19,64603643
-26,46496843
-33,57046442
-31,96243968
-30,64079485
-54,85541588
-99,85617408
-118,6429261
-102,4655139
-108,573765
-152,4674921
-186,1464937
-196,1105536
-197,6094414
-188,1429121
-176,4607069
-176,8125525
-179,4481617
-176,1172335
-174,0694528
-168,8044912
-146,5720065
-124,6216431
-136,7030324
-172,3157925
-198,7095288
-215,6338338
-230,3382877
-244,322458
-279,3359005
-338,3781588
-376,4487649
-384,5472395
-418,4230917
-483,07582
-518,504912
-519,9598447
-527,1900852
-532,9450904
-518,2243076
-501,5271748
-492,3531208
-469,4515657
-424,071921
-379,9635902
-359,3759686
-348,3084443
-309,5103979
-207,9812032
-29,47022724
181,273169
341,4996305
423,4598081
463,9043575
486,3339395
483,7492196
458,9008673
432,5395562
418,1659631
403,5307683
377,8846548
351,728308
320,8124156
282,1376669
265,9547527
275,0143649
280,8171959
281,1139389
267,6552867
230,691932
200,9745669
194,2538822
188,7805676
175,3053111
164,8287987
160,6017138
156,1247376
156,3985478
193,1738191
322,2012226
540,9814251
709,0150895
627,802874
268,345432
-71,35658836
-110,0525443
-0,74179887
15,57627901
-12,09768596
-3,513075649
-0,419278713
-18,56569091
-31,70171535
-31,3267627
-18,94025148
0,958391716
12,36973202
2,794326022
-18,01727842
-30,06454242
-26,59693624
-20,6139395
-26,61504139
-33,09974084
-21,0675467
-1,267977941
12,79943621
25,8851561
35,73963147
41,11330134
44,75659382
41,91992604
32,60370395
20,30832224
17,03416421
33,78160166
48,8009948
39,59269211
18,90703029
1,744334178
-17,39508337
-44,76092153
-68,35289154
-71,67071682
-68,964133
-86,73288795
-111,9767418
-114,6954672
-99,13884886
-89,30668411
-95,94878257
-111,5649663
-115,4050698
-102,96894
-84,50643614
-58,51742994
-37,25180547
-29,70945918
-22,14029983
-22,54424847
-29,6712384
-10,27121514
19,15586366
17,36002821
6,841296714
4,349675393
-9,364841437
-11,80227128
6,037356598
0,904001294
-19,70238968
-10,53188028
7,165454162
-5,360472962
-21,60975942
-25,83251402
-43,77885651
-48,94891747
-10,34283812
18,03922971
0,197123815
-19,86932833
-21,16030939
-22,67601201
-19,91663872
-20,63240173
-46,0735228
-61,24023309
-45,13277296
-40,50139188
-33,34634815
51,08209114
230,2836504
448,0080457
557,5049847
370,2741674
-17,18471431
-210,8719761
-122,287941
-54,6829395
-104,307309
-111,9113937
-58,2455448
-40,81011963
-57,60548196
-50,13200163
-35,39005432
-49,63002138
-53,10228962
-33,0572511
-47,74530293
-80,91684704
-61,82228997
-15,96204268
-11,58652031
-30,446142
-30,04133064
-29,62251267
-39,44011787
-30,49457915
-3,286332303
8,184184175
-0,333470681
4,410259908
16,16493068
7,93009455
6,705302817
18,24010539
17,034051
32,3366874
63,64756161
43,96622009
-15,70779104
-36,62492573
-25,2856379
-30,19038112
-26,58960848
-10,48377235
-34,12332418
-64,75871429
-41,14039168
-11,76880383
-19,14439648
-19,01761346
-6,638896475
-25,00868492
-58,12741567
-61,99552293
-39,113438
-17,73158911
-12,35040126
-18,47029598
-29,09169122
-28,4650011
6,909364207
44,28099866
28,14950054
-6,235527392
-3,874477744
8,232261684
11,08430805
27,93128365
44,52281602
38,10853815
22,43808857
16,26111156
25,57725723
33,13618168
25,93754717
28,98102219
45,01628163
42,54300692
27,56088608
17,81961392
0,818892124
-27,69157067
-42,96205871
-16,99284905
21,71578852
19,16359165
-2,149694556
2,525682584
44,43948342
164,091476
381,7314364
559,1091482
450,2244032
72,32700136
-173,5832496
-115,2565335
-50,69302616
-109,8928951
-121,1062995
-77,08339023
-82,57430976
-89,57919217
-48,09816307
-33,88133963
-82,67883054
-118,490736
-90,81714756
-49,90814849
-55,76381337
-88,63420829
-85,01939083
-33,41941007
-4,084306601
-34,76411252
-57,9588515
-31,91853877
-8,393181178
-18,13277722
-27,88731706
-19,40678262
-12,19114758
-25,49037745
-52,55442965
-51,88325352
-18,47679045
-10,3349739
-25,45772948
-23,34497505
-35,99662078
-64,66256927
-57,59271559
-43,53694741
-58,74514508
-65,46718175
-56,95292344
-60,9522292
-62,21495116
-46,24093472
-36,53001858
-39,33203496
-37,14680963
-35,22416211
-45,81390579
-59,66584801
-65,27979027
-61,40552835
-54,04285241
-47,9415472
-38,10139217
-27,77216164
-29,45362494
-36,39554656
-35,09768634
-34,55979961
-45,28163734
-54,01294634
-40,0034694
-9,75294545
-0,011109761
-18,27769409
-31,05242688
-27,83503339
-22,62523591
-18,17275393
-11,47730432
-0,038601459
11,8936425
11,31971752
5,989915471
16,15452996
31,06385614
25,71819053
1,867830869
-19,73692413
-21,5957749
-2,458421237
17,17543755
35,80610243
105,9338745
264,5590548
447,1819441
484,5528427
237,4220506
-124,7101334
-248,3434111
-144,9774855
-97,11206091
-133,246843
-130,8815392
-105,2658585
-98,149512
-90,7822127
-80,913676
-71,29361964
-42,42176391
-3,797831803
12,57845083
8,707355162
6,839149218
13,72409776
28,86246212
48,75450012
59,65046588
56,80060973
51,95517808
49,36441328
44,52855352
42,19783272
45,87248043
54,30272166
71,23877686
83,43086176
76,37918732
71,58395959
84,79537965
95,76364353
93,48894211
91,22146104
95,96138071
98,70887612
90,46411685
81,22726701
84,99848513
92,27792419
89,31573147
81,1120486
74,66701144
70,48075012
68,80338892
65,88504633
59,97583494
56,07586149
53,43522682
47,80402585
39,68234759
29,57027511
18,21788559
8,125250246
1,79243441
-2,780502505
-11,59350698
-19,14653135
-13,43953383
-2,722478438
-2,245334999
-6,008079101
-5,510692062
-4,503160885
-4,735478225
-10,45764233
-28,41965701
-49,87153156
-62,56328073
-67,49492463
-64,66648873
-55,82800371
-56,72950547
-71,87103501
-84,00263839
-83,62436661
-75,7362756
-67,33842605
-63,4308834
-58,76371772
-44,33700362
-20,90082019
29,79474915
157,2496167
354,4636906
483,9368748
365,6690695
31,66017093
-196,5899285
-148,3313401
-45,56417839
-48,53856172
-63,00461157
-44,46245267
-34,66221286
-31,60402296
-29,28801669
-35,96433049
-40,13310347
-35,79447725
-31,44859586
-30,09560562
-30,73565501
-29,36889456
-24,24547672
-20,61555575
-21,7292876
-23,33682977
-20,18834122
-17,53398222
-19,62391424
-13,95829985
1,212697444
7,888913279
6,320182574
10,25633965
14,69721832
11,14265207
7,592474093
12,04651748
22,00461527
28,96660062
26,1823069
14,40156776
-3,37578268
-19,64990979
-25,17097827
-24,43915209
-25,95459434
-27,46746717
-27,22793166
-26,2361477
-23,49227395
-23,9964677
-33,49888476
-46,49967942
-54,49900432
-58,24701036
-61,74384662
-62,23966028
-58,23459653
-57,47879849
-65,22240712
-73,21556117
-71,70839706
-65,70104885
-63,19364815
-61,68632404
-58,17920303
-55,17240899
-53,66606306
-48,66028362
-40,40518623
-38,40088356
-40,14748535
-34,39509837
-21,64382634
-7,143769918
2,854973355
-1,647690899
-20,15185387
-36,9076035
-37,9150245
-26,67419825
-17,93520284
-15,948113
-14,46300008
-11,22993207
8,251026474
91,22981442
264,2063741
452,1806511
485,6525948
245,8721579
-95,66070369
-207,4460302
-98,98385861
-33,27422238
-42,81715154
-27,86267264
-10,41080881
-14,96157973
-8,515001696
6,17891242
10,62015311
12,80871422
14,74459294
13,42778976
19,60830845
30,78615603
29,21134275
16,13388202
4,803790442
-4,028912314
-11,61420348
-10,95205726
1,707555117
14,11466538
10,26930816
-2,328479095
-4,678656111
1,968820118
4,863995291
0,756917741
-8,602361618
-21,21378935
-31,32730957
-36,44286398
-41,81039196
-48,4298306
-51,8011148
-58,17417733
-77,29894885
-98,67535806
-105,0533317
-99,68279468
-94,31367008
-91,94587929
-93,57934206
-96,96397657
-93,3496995
-79,98642614
-68,8740704
-68,76254498
-68,90176137
-64,04162996
-62,43206012
-60,32296028
-52,46423799
-46,35580002
-43,24755246
-37,88940073
-30,53124974
-25,92300392
-27,5645673
-25,70584363
-11,84673643
3,762850966
15,37301525
24,48385313
26,84546123
28,207936
39,32137367
55,18587015
62,55152096
53,66842116
34,0366653
20,40634729
21,02756039
24,65039712
22,52494918
23,90130738
32,77956161
46,65980075
81,79211258
165,1765838
307,8132998
474,4523449
530,5938021
315,4877527
-53,61572293
-212,4665462
-93,31463995
38,09007142
73,74766188
72,65820375
35,57176766
-19,26157752
-36,8417647
-23,91872859
-10,24240578
-5,81273473
-1,379655837
34,55688856
81,74695415
75,6905946
30,63786155
10,33880461
15,79347128
26,25190699
50,21415506
60,68025668
29,4002509
10,87417463
36,35206261
51,08394741
34,56985945
19,80982695
14,05387596
-0,197969657
-22,44568822
-28,93926022
-14,67866831
6,08610265
34,10506568
46,62823163
11,40560922
-36,56279499
-60,02697653
-85,73693304
-127,1926642
-136,8941719
-62,59145993
43,71546585
50,52659754
-26,40807472
-38,58856278
0,23511961
-48,93704324
-156,6050689
-157,2689768
-39,17878814
16,41547397
-46,98621526
-76,63388238
-43,77755563
-62,66726495
-126,0530419
-156,9349196
-116,8129328
-32,93711766
-32,55751201
-112,674155
-104,5370872
-46,89635066
-72,0019886
-71,60404565
18,54743234
40,7023983
-46,139196
-113,2273999
-91,56226398
-4,643839609
51,02782065
9,202663334
-6,119365946
86,56167755
126,9957377
82,68275769
153,3726798
362,0654458
540,7609966
519,4592726
199,6602137
-141,3862408
-146,1801522
-28,97158216
-34,76059262
9,452753957
68,41839485
-21,36373296
-57,64369271
66,82845216
111,802638
37,52880116
39,75687777
93,98680399
66,71851595
9,701949808
-16,5629582
-20,82627177
39,66194555
95,65163036
26,39271945
-34,86485015
36,62885881
96,62378388
77,61986288
55,617034
17,61523573
-1,135593022
54,36448701
71,86541551
14,36713259
-0,380421186
33,87269518
47,12642318
34,88070476
0,385482364
-32,85930107
-36,10370211
-57,09777681
-101,8415808
-100,085169
-59,57859608
-30,82191611
-19,56518266
-44,80844884
-101,0517673
-121,0451902
-118,2887694
-125,0325561
-72,7766014
-2,520955762
-15,26566943
-40,5107923
-40,00637397
-76,75246377
-109,7491108
-98,74636395
-103,494272
-116,2428835
-85,24224704
-59,74241112
-70,74342424
-63,24533497
-55,74819199
-90,00204413
-92,00694042
-41,76293017
-43,52006302
-92,02838896
-99,53795844
-97,04882241
-128,0610324
-145,3246405
-122,5896996
-84,1062633
-41,124386
42,85587696
204,3344693
374,3113336
391,7864115
148,7596432
-207,019032
-351,0496765
-258,8323539
-192,1171294
-201,4040697
-186,4432431
-171,9847197
-165,5285714
-127,3248719
-111,1236968
-136,1751238
-137,9792328
-133,5361057
-158,5958266
-156,908482
-116,7241609
-108,0429545
-120,8649567
-95,44026391
-63,51897523
-62,10119246
-64,93702018
-66,2765658
-47,11993963
16,78274507
43,43137203
-11,92417807
-22,28402764
65,85169775
118,4828694
76,6093552
35,98102004
56,84772533
92,95932924
82,56568655
39,91664869
17,7620637
6,851776238
-24,31437248
-38,98654462
-3,414905787
40,65037501
63,20912537
63,51116947
30,30632815
6,094418872
34,37525578
70,64864971
84,91440827
83,92233583
64,67223358
71,41389961
112,6471289
108,6217136
74,58744267
96,79410238
159,7414762
224,9293448
283,6074863
304,2756765
292,4336884
273,3312929
237,2182587
197,0943524
185,9593386
194,31298
201,4050376
237,235271
294,803438
277,3592954
188,6525987
149,9331024
167,9505603
161,4547253
129,69535
124,1721864
156,3849865
179,8335024
185,5174861
265,1866902
450,8408679
621,9797729
626,6031601
388,4607853
74,552406
-14,8722191
68,18667062
72,47883772
28,25404691
31,51206529
16,25266255
-43,27438882
-79,31931332
-51,88233219
-11,46366327
-28,56352069
-64,18211475
-52,81965162
-42,2263332
-86,40235685
-127,5979152
-102,8131959
-58,04838161
-56,80364941
-85,82917094
-112,375112
-114,6916326
-97,52888634
-97,38702057
-94,01617608
-57,6664869
-44,08808015
-72,2810758
-88,99558655
-92,73171762
-103,7395666
-105,5192233
-98,32076952
-105,894279
-137,7398172
-170,1074411
-159,9971993
-120,9091315
-117,5932689
-146,2996334
-155,7782382
-152,7790872
-159,3021749
-160,8474869
-157,6649988
-173,7546773
-190,366479
-163,7503511
-124,1562311
-127,0840467
-142,5337157
-137,7551464
-146,2482368
-172,2628754
-183,7989405
-182,6063006
-183,1848144
-186,2843305
-187,154688
-179,0457157
-172,2072329
-180,8890491
-181,5909638
-153,5627672
-128,5542398
-129,3151524
-141,0952666
-155,8943345
-156,712099
-132,2982937
-135,6526433
-199,5248637
-236,4146617
-175,0717357
-97,99577533
-84,93646203
-55,89346892
97,38353893
333,6449043
474,3909778
341,8721176
-19,661311
-270,7089352
-219,5203755
-108,8452455
-113,6831521
-106,5336962
-60,39647216
-64,77106875
-79,9070689
-53,05405013
-27,46158474
-27,62924005
-30,55657868
-26,24315874
-23,93853413
-37,39225477
-52,85386686
-27,82291317
23,95106675
40,21853625
22,72996135
12,98581045
4,986554056
-8,017335463
9,224615812
59,21288309
94,69794262
89,18027134
58,1603467
37,13864631
38,61564769
37,34182798
35,3176637
60,29363044
89,02020257
87,74785303
69,97705299
48,45827163
36,19197585
58,92863
92,66869563
98,16263121
93,16089191
98,91392929
105,9221911
108,186121
105,7061583
107,4827378
127,7662895
142,5572382
115,3560036
70,66299989
49,97863549
47,3033129
48,8874285
57,7313723
70,33552779
75,95027168
73,57597378
67,96299677
55,11169603
35,77241947
25,44550737
31,38129222
43,08009853
50,54224276
51,76803307
54,25776927
64,01174268
66,53023596
53,81352304
39,86186898
26,17552991
12,50475287
16,09977579
36,71082735
50,33812695
39,73188461
13,39230092
17,819567
124,7638644
351,2253652
572,2042318
563,4506169
250,9646636
-75,00349443
-115,9537335
-16,13593956
-1,050007992
-7,195843986
23,17663769
26,56751269
10,9768471
20,15469752
32,60111108
24,3161255
12,04976918
6,052061226
2,57301156
3,862620988
2,670881286
-11,0022247
-28,90672298
-43,54264826
-48,41004389
-30,00896172
-5,839461971
-8,401613131
-23,1954918
-20,22118257
-4,978777854
11,28162222
29,55990998
38,3559704
24,91968121
9,000913078
14,8495298
31,46538846
35,34833961
22,49822743
6,414889949
-8,651840775
-28,20213848
-41,48618248
-36,25415751
-26,25625345
-28,7426652
-35,96359242
-32,91923935
-24,60981457
-27,28553083
-38,69660478
-37,84325679
-22,22571074
-16,34419375
-25,94893601
-33,29017052
-40,1181329
-53,93306113
-58,98519535
-48,52477762
-37,80205171
-27,56726284
-17,32065749
-27,56248316
-53,29298812
-65,26242124
-68,22103168
-78,16906876
-84,35678167
-79,28441925
-68,4522298
-56,36046085
-52,00935891
-53,6491693
-43,78013588
-24,15250087
-16,01650465
-24,87238549
-36,47037943
-41,31071996
-39,89363794
-31,9693613
-21,28811488
-16,60012025
-18,90559548
-16,45475498
29,75219071
171,9650351
383,9335759
504,1576152
349,3869597
-6,628579133
-217,1391849
-157,6450363
-70,64630651
-77,6431636
-78,88576994
-56,62428228
-56,85885151
-59,58962258
-47,81673432
-51,79031936
-80,51050397
-105,4774079
-117,1911445
-129,4018201
-139,8595346
-140,0643807
-139,5164442
-145,715804
-151,9125315
-149,6066912
-133,54834
-110,9875274
-96,17429571
-82,35867948
-55,29070579
-26,47039405
-10,39775604
0,177204174
13,25449026
31,08411363
55,66609352
75,00045693
76,08723867
69,92648139
68,51823553
61,61255936
43,45951894
30,55918811
29,66164847
23,51698938
12,37530786
16,48670862
30,351304
40,96921388
57,09056568
73,21549428
67,09414195
42,97665828
28,86320012
37,75393148
54,64902346
60,54865415
51,95300855
42,36227843
45,52666228
49,69636516
39,87159859
29,30258045
27,98953483
21,43269189
4,382287782
-9,411435555
-15,9482305
-19,72784393
-19,75001733
-20,26448699
-25,02098416
-28,7692352
-28,75896177
-21,98988099
-4,711705645
12,57585566
11,3730983
-8,319678572
-28,00217221
-36,42407647
-35,08508204
-34,2348766
-44,8731451
-55,7495699
-51,11383105
-43,21560648
-24,80457222
63,11959733
242,0572292
423,7586517
435,2241939
175,9541859
-142,8010421
-214,2911594
-115,2658354
-86,72473983
-111,6675428
-102,8439154
-87,50352963
-85,89605874
-84,77117763
-80,12856299
-73,71789359
-69,78885057
-65,09111766
-55,37438149
-51,13833185
-58,38266196
-64,60706874
-60,56125307
-53,99492008
-52,40777944
-49,5495456
-42,91993807
-41,51868173
-46,09550705
-48,40015041
-43,43235436
-31,19186788
-20,17844666
-18,3918534
-22,58185801
-28,24823798
-32,14077855
-33,00927304
-37,85352311
-50,17333898
-63,21853975
-70,48895361
-70,73441813
-66,95478051
-64,1498978
-65,5696372
-66,96387628
-59,0825032
-44,925417
-39,4925278
-45,78375705
-51,04903772
-46,03831461
-35,75154446
-30,18869627
-27,84975144
-21,734704
-16,59356082
-16,42634181
-14,98308007
-13,51382214
-15,51862813
-14,99757192
-8,200741329
3,871761753
18,71982117
29,59330635
34,99207222
38,41595898
33,86479205
21,0883819
18,83652396
29,1089985
28,90557055
19,72598977
25,31999039
40,18729113
41,57759513
27,74058991
5,425947253
-15,86667675
-19,38764181
-10,38732341
-12,36611287
-21,32441733
-18,26265975
-9,681278892
1,41927067
58,5385186
205,6759788
399,8311497
495,5035137
338,9425379
1,14767408
-192,3816417
-127,1459885
-45,64596067
-60,3821675
-61,10523334
-32,56579733
-27,76451326
-35,95204944
-43,37908854
-53,04632737
-56,70447675
-51,85426127
-43,49641909
-35,88170175
-33,51087391
-31,13471312
-22,25400959
-12,6195659
-3,48219679
11,6572712
31,04799994
44,18914007
45,32983125
44,21920252
50,60637262
58,2404503
58,3705347
49,99571567
40,86507417
38,97768261
41,33260528
48,42889868
66,51561195
90,09178731
112,1564604
134,9586608
156,2474124
174,2717338
195,5306388
216,2731372
225,7482344
226,7049327
228,8922317
236,559128
248,9546169
257,8276918
255,4273454
249,2525698
246,3023574
239,575701
222,8215946
199,039034
179,4770171
171,6345445
172,76062
178,3542515
168,664451
127,4402356
85,68062774
75,38465603
77,80135559
67,92976872
52,01894543
44,56794402
45,82583161
50,29168474
62,96458991
86,09364412
102,9279555
98,96664378
81,70884092
65,40369163
53,80035394
46,14799971
37,94581523
17,44300174
-16,36122405
-51,96762938
-82,62696496
-86,83996442
-14,35734378
148,570199
312,6919847
303,2573531
14,51566354
-348,0337044
-453,1413506
-346,8078539
-289,7837717
-296,8196395
-282,1659701
-273,0732538
-284,5419574
-285,0725242
-275,9153733
-268,8208993
-256,5394721
-236,3214363
-212,4171108
-186,0767887
-158,8007368
-137,8391953
-132,4423774
-135,3604694
-127,5936298
-111,1419895
-102,0056513
-95,18468987
-75,9291513
-51,48905303
-38,36438359
-32,30510246
-20,31113984
-9,632396541
-10,26874382
-9,720023285
-1,486046744
3,183403848
4,538576491
6,079749191
1,057230012
-7,278642901
-10,1775013
-9,638946854
-12,16255114
-20,24785571
-25,39437211
-19,85158199
-12,61893715
-12,44585966
-14,08174198
-17,02594707
-25,02780859
-29,58663103
-29,70168989
-34,62223191
-37,34747526
-33,6266098
-41,4587973
-61,84317172
-72,02883952
-72,0148799
-73,80034517
-68,38426105
-57,01562703
-59,69341673
-68,91657825
-61,18403463
-40,99468418
-23,84740096
-14,49103519
-8,424413707
3,103659541
0,844403054
-35,45094274
-65,031116
-57,14483398
-47,54079358
-61,96767187
-97,42412672
-135,4087973
-133,1703047
-94,95725247
-80,76822746
-86,85180015
-20,70652545
162,4190567
354,0264206
351,1170543
67,44245869
-265,7458531
-344,4463562
-234,407515
-178,3777839
-199,8556076
-217,5894222
-213,577656
-198,8187298
-198,5610583
-211,8030503
-204,5431096
-191,5296361
-202,261026
-210,7356732
-205,7019695
-218,6583059
-240,6030731
-228,7846623
-195,9514661
-191,8518792
-211,7342992
-215,5971277
-205,6887705
-204,757639
-208,0521507
-192,57073
-157,561809
-140,0238285
-147,4552386
-143,3544994
-125,7200819
-111,050469
-82,09415597
-32,59965126
6,184522599
14,00982832
2,627713073
-13,21039223
-22,25307371
-1,998935226
52,55340088
102,6552931
115,30808
111,5130795
141,5215885
207,8348816
253,204211
264,3808057
269,1158706
263,9105862
261,5161079
281,9335653
297,1640616
290,4586732
289,8184492
305,4944103
320,7375492
330,7988291
322,179184
273,1295178
216,1507038
215,4935847
251,1589716
237,8976441
185,4603494
169,8478025
167,0606852
132,3496465
115,9653016
123,9082321
94,17898539
42,0280746
11,45597825
-10,28685989
-28,70003108
-23,78316171
-5,785913518
5,792016321
63,70089504
237,4409542
442,7623896
460,1653613
195,6499933
-116,0336258
-172,8854438
-58,40544396
-24,59364537
-35,20010289
21,27509303
68,83181646
64,46990607
78,18916532
102,2393626
79,87023147
53,3314708
78,12274508
107,2436846
102,6938857
105,4729113
126,0802908
132,2655207
129,7780649
141,867355
160,7827908
172,5237405
184,3395412
193,9794996
181,4428921
158,9789653
156,8369366
171,2659949
191,5153006
211,8339867
218,7211589
227,6758965
246,4472526
237,7842551
211,1859071
207,1511875
204,1790517
186,7684321
178,6682391
174,3773612
165,1446664
164,2190021
165,0991965
152,2840589
122,7723804
82,31293478
51,15447934
37,04575532
26,23548887
24,47239172
39,25516197
42,58248484
23,70303341
10,36546945
8,318444132
2,560598844
-7,90943404
-14,59303038
-12,74157349
-13,10645334
-25,6890658
-37,99081184
-33,76309673
-10,0073293
18,02507887
23,08271421
-1,085838067
-38,98199317
-82,60716601
-118,4627704
-117,5502183
-82,12091919
-64,17627906
-91,46769994
-112,7465791
-78,01430814
7,227727349
148,4781488
325,7355854
390,2486743
181,766062
-176,4635956
-336,6916322
-242,4193707
-163,3981224
-187,8791862
-204,8638487
-198,3533826
-198,0990472
-194,8520868
-200,8637311
-220,8851939
-227,9176731
-227,7123499
-240,2703886
-245,8429357
-241,18112
-253,0360515
-270,9088218
-279,8005028
-289,9621471
-292,8947871
-281,8494348
-275,5770818
-290,5786984
-323,6052338
-346,9076153
-337,2367488
-316,0935177
-323,2287835
-355,1433847
-372,0881376
-360,3138352
-339,5712479
-321,6111225
-305,4341828
-298,5411292
-315,6826386
-349,1093645
-356,8219368
-324,0709617
-293,607022
-285,4306769
-279,0424619
-274,6928893
-272,3824477
-257,3616024
-244,8807956
-243,940446
-227,0409498
-198,6826797
-188,6159862
-187,5911969
-183,1086172
-195,6685302
-223,2711971
-223,6668573
-188,3557289
-162,0880086
-161,3638721
-154,1834743
-134,29695
-126,9544135
-131,9059597
-119,6516635
-80,44158114
-55,02574967
-71,90418779
-96,07689607
-98,79385729
-90,05503683
-76,11038302
-65,95982759
-67,85328596
-62,2906577
-37,02182693
3,953337343
98,13498075
287,5232632
510,1183584
591,1704536
398,6797489
98,64645721
11,07080348
121,4530245
212,5433683
277,842094
350,3494712
359,3157796
316,9913085
304,3763565
338,7212313
376,0262489
380,0417332
356,2680161
332,4554367
333,8543407
347,4650807
339,2880153
327,3235087
342,0719307
353,0336561
334,9590643
320,0985391
325,4524682
321,0212431
299,8052585
318,3049122
397,7706047
436,9527389
365,1017199
278,4679545
272,0518511
302,1038194
307,8742702
294,1136149
269,5722657
234,750635
202,8991351
172,2681786
137,3581775
116,4195432
115,9526867
117,7080179
115,1859458
115,6368782
115,5612215
97,45938059
53,08175895
11,17875823
7,250778264
24,79821698
28,57147031
22,82093207
17,54699394
1,500045367
-22,8195265
-32,16133682
-27,02500313
-26,91014538
-17,3163859
-2,243349508
-25,44066343
-54,15795736
-28,39486343
17,09898383
40,32394744
51,28038807
53,96866402
51,63913132
55,2921437
60,67805268
64,04720764
67,39995584
66,23664253
60,80761098
53,86320258
59,6537569
131,4296118
304,6911034
497,6885665
505,9223342
207,8927383
-158,1498907
-257,7052233
-177,5229314
-168,3526874
-191,9441651
-154,2970387
-125,6609831
-153,0356739
-189,670787
-203,5659988
-206,2209857
-214,6354243
-228,0589915
-239,2413636
-245,6822172
-245,3812283
-245,8380726
-249,5524255
-242,0239614
-229,0023545
-226,4872779
-217,228404
-191,7254043
-176,477949
-178,7357075
-175,4983479
-158,2655372
-140,5369408
-130,062223
-122,0910466
-117,6230727
-123,4079612
-132,4453702
-132,9849561
-132,2763738
-141,8192766
-151,3633157
-139,6581409
-116,4534
-124,2487393
-162,7938031
-181,8382339
-171,8816726
-157,1737581
-142,4641278
-134,5024172
-133,2882601
-131,3212886
-141,8511334
-154,1274233
-141,1497856
-122,4178463
-117,6812298
-108,9395591
-96,44245602
-96,43954104
-92,93043353
-80,66475179
-91,64211312
-121,362134
-127,82443
-104,7786161
-74,72430675
-49,66111582
-36,83865692
-43,0065434
-61,66438855
-74,81180566
-70,94840822
-56,07381002
-43,9376253
-41,7894689
-42,12895641
-23,70570431
23,73066985
105,1805473
255,3943079
468,12233
595,3649902
458,8726632
130,6457218
-68,31546381
-24,76052539
42,31090246
40,64918244
69,7546743
111,8777346
106,5187168
91,42797049
90,10584191
90,80267326
108,2688027
137,7545642
145,2602871
130,5362964
118,582912
113,1504489
108,4892169
112,3495204
125,7316582
129,1359233
111,0626029
89,76197772
83,23432249
87,47990522
94,99898728
99,79182313
98,10866016
92,44973851
81,8152909
66,20554243
56,62071042
57,56100426
56,02662518
37,76776614
5,784611636
-18,17266246
-22,10388906
-16,50891
-10,88757625
-11,989748
-27,56529485
-51,36409594
-64,38604011
-54,38102602
-36,59896229
-35,28976767
-51,20337111
-76,33971193
-104,9487399
-121,2804155
-112,0847097
-89,11160458
-75,61109288
-74,08317853
-74,77787655
-77,69521318
-80,08522598
-77,44796391
-74,28348739
-66,59186842
-54,62319061
-56,87754925
-70,3550514
-73,80581593
-64,22997354
-46,62766687
-32,49905047
-36,34429089
-50,91356667
-63,70706841
-73,22499874
-75,46757235
-67,435016
-55,87756855
-51,29548087
-61,93901595
-67,05844878
3,845933639
190,0238323
404,2249362
459,6989226
231,1954566
-107,5358082
-227,9952302
-140,9331793
-93,10003704
-108,7461966
-98,37206255
-79,97805074
-70,81458834
-58,63211365
-58,68107599
-64,21193559
-53,97516346
-44,47124129
-46,95066124
-43,41392584
-32,61154784
-28,29405004
-24,46196509
-10,86583537
5,993787234
14,8663415
12,75125706
16,14795463
40,05584618
60,47433519
57,90281684
55,84067827
60,53729879
52,74205013
48,70429669
75,17339583
107,3986981
112,6295474
106,6152816
102,8552323
84,59872569
54,5950824
42,593618
58,09364329
74,34446458
73,09538403
69,84569997
79,34470723
92,09169748
91,08595957
78,32677986
75,06344259
85,29523025
88,7714239
78,99130357
68,70414862
68,40923811
73,6058512
70,5432675
66,22076748
77,63763286
92,043147
91,93659528
91,31726555
101,4344485
105,287438
97,1255316
95,69803101
103,7542423
105,2934765
98,56504996
92,81828465
94,05250876
107,517057
127,2112712
135,3845004
127,7861015
113,4154397
99,02188875
90,10483164
87,91366068
96,44777815
113,2065966
107,1895394
83,14604089
118,0755471
254,9775158
446,8514174
587,9467347
520,2629638
215,7996143
-40,19379034
-40,46771241
23,47740046
1,141115614
-1,976984229
46,87269936
72,18978087
63,9738912
55,72467797
58,19180585
64,87495692
71,02383091
76,88814557
81,71763689
78,01205945
60,52118665
46,99481101
51,68274438
49,5848182
27,45088377
12,0308124
8,824495692
-4,668154304
-34,44720489
-79,51270255
-133,8646728
-171,7531199
-189,6780271
-216,3893559
-257,6370466
-293,1710177
-317,741166
-340,5973667
-355,239473
-345,4173163
-324,1307061
-324,3794299
-343,1632535
-347,4819205
-333,8351529
-328,2226507
-338,3940921
-338,8491337
-311,5874105
-279,6085359
-265,9121019
-258,7476793
-249,6148178
-248,2630461
-252,4418721
-253,4007831
-256,6392462
-267,406708
-278,4525955
-281,7763159
-274,127257
-257,0047875
-239,9082572
-228,8369973
-220,0403211
-219,0175237
-223,7678829
-209,7906591
-187,0850962
-190,9004214
-202,7358461
-192,590566
-176,4637618
-160,1045992
-136,5122298
-119,4357913
-115,624408
-129,0771915
-155,2932407
-157,7716429
-130,5114739
-113,5117985
-112,5216713
-109,7901371
-111,0662313
-110,5989807
-65,6374039
72,06948813
286,5226914
450,4732084
389,4220475
93,62022238
-151,9312487
-122,4813433
16,22096459
68,67670369
82,88690513
102,8526017
106,0748272
114,0546159
134,543002
151,2910187
171,0496981
186,8200699
185,6031616
183,649997
184,2115965
173,7889756
168,8831449
180,9951094
184,6258675
172,276411
159,947724
151,3907826
158,1065541
182,0959965
193,360058
180,8996764
160,9657783
147,8092789
145,9310813
141,0820756
125,7631389
116,4751345
114,4689114
106,4953037
93,80513028
76,89919398
55,27828149
43,44316259
42,89458978
33,63329779
19,66000312
24,72540363
40,83017805
41,22498559
28,66046554
20,38723683
13,15589768
2,717025182
-0,678825014
6,968880902
20,16065458
28,64698518
24,42833904
17,75515943
20,87786618
27,29685547
33,26249954
52,27514645
75,83511985
72,94271874
55,34821729
56,05186462
62,55388466
54,35447593
46,95381146
56,85203859
73,04927889
77,54562804
75,09115573
74,43590562
67,32989523
54,02311591
42,01553284
30,30708497
21,64768501
20,2872195
20,72554878
14,46250704
4,247902407
2,081516983
5,963106942
14,64240263
74,86910866
236,6429041
434,2134425
471,8303522
229,2432363
-85,79832693
-160,7947839
-54,74660582
-11,40428788
-33,51834953
-29,339334
-6,367808051
16,14563827
35,20039194
43,04581725
40,18125613
31,85602845
26,81943241
29,07074484
32,10922159
38,68409788
54,54458872
66,68988928
69,61917529
77,08160348
83,82631199
74,60242081
59,65903221
56,24523124
68,11008615
90,25264887
106,4219555
99,61702685
75,8368688
57,08047295
51,34681707
53,13486561
63,94357024
76,52187041
64,86869383
25,98295707
-5,636433928
-4,740583268
9,169395447
2,092379677
-16,72276148
-14,52716671
2,178018081
7,641640347
2,862541495
-6,910442537
-23,17848069
-21,19274621
8,295583968
15,7853298
-15,7246913
-39,23566381
-42,24877358
-48,01520716
-56,28615128
-63,81279222
-72,09631521
-76,38790389
-83,93873966
-91,25000115
-82,5728636
-74,15849829
-79,008072
-79,37274636
-81,50367738
-99,65201478
-112,3189015
-111,7554732
-113,7128574
-101,9421735
-66,69453162
-50,72103253
-72,02276685
-94,10081467
-93,45624495
-74,09011506
-57,50347028
-66,69734327
-88,92275362
-107,6807073
-127,4721964
-131,7981983
-104,4096755
-59,30757526
18,5071712
163,5336488
322,7709592
344,2182211
126,1245707
-170,5108379
-254,6888325
-150,1602221
-95,67579679
-108,2363274
-84,0925651
-39,49524103
-24,44506609
-37,69273058
-59,98890393
-74,58423442
-69,9793489
-46,67485254
-24,67132861
-27,96933823
-50,06942014
-61,47209052
-57,17784277
-53,68714736
-46,00045163
-25,36817966
-13,2907321
-25,76848605
-40,05179495
-28,14098846
2,963627613
18,76177143
7,50318515
-6,812364984
-13,93508862
-24,61517127
-36,85277426
-38,39803479
-26,50106588
-14,16195641
-17,63077118
-34,1575509
-49,99231231
-64,38504822
-77,83572759
-82,09429563
-72,41067392
-53,03476051
-42,21643007
-47,45553401
-49,75190066
-45,35533544
-49,01562101
-54,98251749
-51,00576263
-45,33507205
-47,22013947
-54,66063691
-65,15621496
-68,45650303
-56,56110962
-48,9696226
-58,43160946
-65,94661768
-68,76417495
-80,88378955
-89,80495064
-85,52712862
-84,04977544
-90,87232497
-101,7441934
-118,9147794
-131,133465
-121,6496152
-95,71257916
-73,32169002
-74,97626559
-98,42560867
-110,1690075
-104,4557361
-110,5350549
-121,656211
-111,0684385
-91,27095923
-84,76298313
-86,79370854
-84,61232278
-57,71800262
34,14008529
207,7127839
403,5009455
468,7554307
256,9771087
-86,83314369
-194,4244426
-42,29589709
66,80338979
62,37432092
62,91780445
71,43475334
60,42608488
48,64272021
33,83558378
16,75560295
17,90370742
28,03082881
26,13790013
19,97585533
12,29562879
-10,40184512
-32,11563255
-24,34480061
2,411582118
19,40444517
21,88471569
21,35331801
25,81117317
44,75919846
76,94830702
100,8794074
115,5534029
137,4711917
156,8836658
159,5417109
153,696206
150,348023
149,4980263
143,1470721
124,0460087
101,4456752
89,34690217
83,00051029
78,40731066
76,5681042
65,23368132
46,15482163
37,33229358
35,76685417
34,20924861
36,41021004
36,12045923
31,34070431
30,82164047
31,06394971
29,56830061
27,58534802
9,865732882
-22,58991803
-34,53099232
-10,70689218
26,38296542
54,4891485
62,11220997
54,75268737
52,41110277
49,33796258
28,03375747
9,748962135
15,73403529
19,98941947
0,51554099
-23,6871902
-26,11838056
-5,27765304
12,08535286
2,720981028
-25,87044129
-46,93860353
-42,23321183
-26,50398903
-25,50067469
-31,7230251
-28,6708132
-25,09382863
-14,74187764
59,63521694
243,0376157
460,2154629
516,1688862
284,6479972
-48,84710899
-153,3163531
-42,00967215
23,57298121
4,681638426
1,316315329
1,977012279
-13,8362857
-7,623608769
25,36499792
48,62947436
47,16974591
35,73572346
25,07730365
14,44436903
4,086788331
5,754416646
31,94709566
57,41465388
53,90690689
46,42365757
54,71469637
56,77980152
47,36873936
47,98126455
62,36712036
77,77603894
83,70774163
76,91193919
64,88833215
50,38661104
42,40645675
55,9475408
68,75952564
57,09206496
44,44480401
41,56737992
24,709422
-1,62944794
-14,19961527
-23,75147219
-46,03541746
-64,05185602
-66,30119868
-60,53386182
-53,00026701
-60,45084075
-87,88601405
-105,5562222
-103,4619043
-107,6035031
-114,9814647
-97,59623776
-72,19827389
